{
  "AcquisitionMatrixPE": 82,
  "AcquisitionNumber": 1,
  "AcquisitionTime": "16:11:18.727500",
  "BandwidthPerPixelPhaseEncode": 24.888,
  "BaseResolution": 82,
  "BodyPartExamined": "BRAIN",
  "ConsistencyInfo": "N4_VE11E_LATEST_20181129",
  "ConversionSoftware": "dcm2niix",
  "ConversionSoftwareVersion": "v1.0.20201102",
  "DerivedVendorReportedEchoSpacing": 0.00049,
  "DeviceSerialNumber": "66112",
  "DwellTime": 2e-06,
  "EchoTime": 0.0272,
  "EchoTrainLength": 82,
  "EffectiveEchoSpacing": 0.00049,
  "FlipAngle": 44,
  "ImageComments": "Unaliased MB8/PE3",
  "ImageOrientationPatientDICOM": [0.997015, 0.0535855, 0.0555789, -0.0503321, 0.997025, -0.0583719],
  "ImageType": [
    "ORIGINAL",
    "PRIMARY",
    "M",
    "MB",
    "ND",
    "NORM",
    "MOSAIC"
],
  "ImagingFrequency": 123.259,
  "InPlanePhaseEncodingDirectionDICOM": "COL",
  "InstitutionAddress": "Maynard 3,Hanover,NH,US,03755",
  "InstitutionName": "Dartmouth College - PBS",
  "InstitutionalDepartmentName": "Department",
  "MRAcquisitionType": "2D",
  "MagneticFieldStrength": 3,
  "Manufacturer": "Siemens",
  "ManufacturersModelName": "Prisma",
  "Modality": "MR",
  "MultibandAccelerationFactor": 8,
  "PartialFourier": 1,
  "PatientPosition": "HFS",
  "PercentPhaseFOV": 100,
  "PercentSampling": 100,
  "PhaseEncodingDirection": "j-",
  "PhaseEncodingSteps": 82,
  "PhaseResolution": 1,
  "PixelBandwidth": 3050,
  "ProcedureStepDescription": "Wager_Wager^1076_spacetop",
  "ProtocolName": "func_run-04_task-alignvideo_acq-ap-mb8",
  "PulseSequenceDetails": "%CustomerSeq%\\cmrr_mbep2d_bold",
  "ReceiveCoilActiveElements": "HEA;HEP",
  "ReceiveCoilName": "Head_32",
  "ReconMatrixPE": 82,
  "RepetitionTime": 0.46,
  "SAR": 0.0863689,
  "ScanOptions": "FS",
  "ScanningSequence": "EP",
  "SequenceName": "epfid2d1_82",
  "SequenceVariant": "SK\\SS",
  "SeriesDescription": "func_run-04_task-alignvideo_acq-ap-mb8",
  "SeriesNumber": 34,
  "ShimSetting": [4217, -7791, -7256, 411, -138, -133, 43, 39],
  "SliceThickness": 2.7,
  "SliceTiming": [0, 0.2525, 0.0625, 0.315, 0.1275, 0.3775, 0.19, 0, 0.2525, 0.0625, 0.315, 0.1275, 0.3775, 0.19, 0, 0.2525, 0.0625, 0.315, 0.1275, 0.3775, 0.19, 0, 0.2525, 0.0625, 0.315, 0.1275, 0.3775, 0.19, 0, 0.2525, 0.0625, 0.315, 0.1275, 0.3775, 0.19, 0, 0.2525, 0.0625, 0.315, 0.1275, 0.3775, 0.19, 0, 0.2525, 0.0625, 0.315, 0.1275, 0.3775, 0.19, 0, 0.2525, 0.0625, 0.315, 0.1275, 0.3775, 0.19],
  "SoftwareVersions": "syngo MR E11",
  "SpacingBetweenSlices": 2.7,
  "StationName": "AWP66112",
  "TaskName": "alignvideo",
  "TotalReadoutTime": 0.03969,
  "TxRefAmp": 239.551,
  "WipMemBlock": "de438b85-f2ce-403f-a33e-e81ab8795875||Sequence: R016 ve11e/master r/434b28f1; Aug  7 2019 18:53:46 by eja",
  "dcmmeta_affine": [
    [-2.674919366836548, -0.13503730297088623, 0.15806183218955994, 115.65315246582031],
    [-0.14376600086688995, 2.674945831298828, -0.14958086609840393, -94.61112213134766],
    [0.14911401271820068, 0.15660764276981354, 2.691215753555298, -92.7389907836914],
    [0.0, 0.0, 0.0, 1.0]
],
  "dcmmeta_reorient_transform": [
    [0.0, -1.0, 0.0, 81.0],
    [1.0, 0.0, 0.0, 0.0],
    [0.0, 0.0, 1.0, 0.0],
    [0.0, 0.0, 0.0, 1.0]
],
  "dcmmeta_shape": [82, 82, 56, 914],
  "dcmmeta_slice_dim": 2,
  "dcmmeta_version": 0.6,
  "global": {
    "const": {
      "AccessionNumber": "A004523",
      "AcquisitionMatrix": [82, 0, 0, 82],
      "AngioFlag": "N",
      "BitsAllocated": 16,
      "BitsStored": 16,
      "BodyPartExamined": "BRAIN",
      "Columns": 656,
      "EchoNumbers": 1,
      "EchoTime": 27.2,
      "EchoTrainLength": 82,
      "FlipAngle": 44.0,
      "HighBit": 15,
      "ImageOrientationPatient": [0.99701533768499, 0.05358550877239, 0.05557885992433, -0.0503320850308, 0.99702527446355, -0.0583719392974],
      "ImagePositionPatient": [-833.66124933907, -931.02982038379, -77.903097783565],
      "ImageType": [
        "ORIGINAL",
        "PRIMARY",
        "M",
        "MB",
        "ND",
        "NORM",
        "MOSAIC"
],
      "ImagedNucleus": "1H",
      "ImagingFrequency": 123.25911,
      "InPlanePhaseEncodingDirection": "COL",
      "MRAcquisitionType": "2D",
      "MagneticFieldStrength": 3.0,
      "Manufacturer": "SIEMENS",
      "ManufacturerModelName": "Prisma",
      "Modality": "MR",
      "NumberOfAverages": 1.0,
      "NumberOfPhaseEncodingSteps": 82,
      "PercentPhaseFieldOfView": 100.0,
      "PercentSampling": 100.0,
      "PerformedProcedureStepStartTime": "141814.635000",
      "PhotometricInterpretation": "MONOCHROME2",
      "PixelBandwidth": 3050.0,
      "PixelRepresentation": 0,
      "PixelSpacing": [2.6829268932343, 2.6829268932343],
      "ProtocolName": "func_run-04_task-alignvideo_acq-ap-mb8",
      "RepetitionTime": 460.0,
      "Rows": 656,
      "SAR": 0.08636890990889,
      "SamplesPerPixel": 1,
      "ScanOptions": "FS",
      "ScanningSequence": "EP",
      "SequenceName": "epfid2d1_82",
      "SequenceVariant": [
        "SK",
        "SS"
],
      "SeriesDescription": "func_run-04_task-alignvideo_acq-ap-mb8",
      "SeriesNumber": 34,
      "SeriesTime": "161131.882000",
      "SliceLocation": -80.425281955698,
      "SliceThickness": 2.7000000476837,
      "SmallestImagePixelValue": 0,
      "SoftwareVersions": "syngo MR E11",
      "SpacingBetweenSlices": 2.7000000772631,
      "SpecificCharacterSet": "ISO_IR 100",
      "StudyID": "2",
      "StudyTime": "141814.555000",
      "TransmitCoilName": "Body",
      "VariableFlipAngleFlag": "N",
      "WindowCenterWidthExplanation": "Algo1"
    },
    "slices": {}
  },
  "time": {
    "samples": {
      "AcquisitionNumber": [1, 2, 3, 4, 5, 6, 7, 8, 9, 10, 11, 12, 13, 14, 15, 16, 17, 18, 19, 20, 21, 22, 23, 24, 25, 26, 27, 28, 29, 30, 31, 32, 33, 34, 35, 36, 37, 38, 39, 40, 41, 42, 43, 44, 45, 46, 47, 48, 49, 50, 51, 52, 53, 54, 55, 56, 57, 58, 59, 60, 61, 62, 63, 64, 65, 66, 67, 68, 69, 70, 71, 72, 73, 74, 75, 76, 77, 78, 79, 80, 81, 82, 83, 84, 85, 86, 87, 88, 89, 90, 91, 92, 93, 94, 95, 96, 97, 98, 99, 100, 101, 102, 103, 104, 105, 106, 107, 108, 109, 110, 111, 112, 113, 114, 115, 116, 117, 118, 119, 120, 121, 122, 123, 124, 125, 126, 127, 128, 129, 130, 131, 132, 133, 134, 135, 136, 137, 138, 139, 140, 141, 142, 143, 144, 145, 146, 147, 148, 149, 150, 151, 152, 153, 154, 155, 156, 157, 158, 159, 160, 161, 162, 163, 164, 165, 166, 167, 168, 169, 170, 171, 172, 173, 174, 175, 176, 177, 178, 179, 180, 181, 182, 183, 184, 185, 186, 187, 188, 189, 190, 191, 192, 193, 194, 195, 196, 197, 198, 199, 200, 201, 202, 203, 204, 205, 206, 207, 208, 209, 210, 211, 212, 213, 214, 215, 216, 217, 218, 219, 220, 221, 222, 223, 224, 225, 226, 227, 228, 229, 230, 231, 232, 233, 234, 235, 236, 237, 238, 239, 240, 241, 242, 243, 244, 245, 246, 247, 248, 249, 250, 251, 252, 253, 254, 255, 256, 257, 258, 259, 260, 261, 262, 263, 264, 265, 266, 267, 268, 269, 270, 271, 272, 273, 274, 275, 276, 277, 278, 279, 280, 281, 282, 283, 284, 285, 286, 287, 288, 289, 290, 291, 292, 293, 294, 295, 296, 297, 298, 299, 300, 301, 302, 303, 304, 305, 306, 307, 308, 309, 310, 311, 312, 313, 314, 315, 316, 317, 318, 319, 320, 321, 322, 323, 324, 325, 326, 327, 328, 329, 330, 331, 332, 333, 334, 335, 336, 337, 338, 339, 340, 341, 342, 343, 344, 345, 346, 347, 348, 349, 350, 351, 352, 353, 354, 355, 356, 357, 358, 359, 360, 361, 362, 363, 364, 365, 366, 367, 368, 369, 370, 371, 372, 373, 374, 375, 376, 377, 378, 379, 380, 381, 382, 383, 384, 385, 386, 387, 388, 389, 390, 391, 392, 393, 394, 395, 396, 397, 398, 399, 400, 401, 402, 403, 404, 405, 406, 407, 408, 409, 410, 411, 412, 413, 414, 415, 416, 417, 418, 419, 420, 421, 422, 423, 424, 425, 426, 427, 428, 429, 430, 431, 432, 433, 434, 435, 436, 437, 438, 439, 440, 441, 442, 443, 444, 445, 446, 447, 448, 449, 450, 451, 452, 453, 454, 455, 456, 457, 458, 459, 460, 461, 462, 463, 464, 465, 466, 467, 468, 469, 470, 471, 472, 473, 474, 475, 476, 477, 478, 479, 480, 481, 482, 483, 484, 485, 486, 487, 488, 489, 490, 491, 492, 493, 494, 495, 496, 497, 498, 499, 500, 501, 502, 503, 504, 505, 506, 507, 508, 509, 510, 511, 512, 513, 514, 515, 516, 517, 518, 519, 520, 521, 522, 523, 524, 525, 526, 527, 528, 529, 530, 531, 532, 533, 534, 535, 536, 537, 538, 539, 540, 541, 542, 543, 544, 545, 546, 547, 548, 549, 550, 551, 552, 553, 554, 555, 556, 557, 558, 559, 560, 561, 562, 563, 564, 565, 566, 567, 568, 569, 570, 571, 572, 573, 574, 575, 576, 577, 578, 579, 580, 581, 582, 583, 584, 585, 586, 587, 588, 589, 590, 591, 592, 593, 594, 595, 596, 597, 598, 599, 600, 601, 602, 603, 604, 605, 606, 607, 608, 609, 610, 611, 612, 613, 614, 615, 616, 617, 618, 619, 620, 621, 622, 623, 624, 625, 626, 627, 628, 629, 630, 631, 632, 633, 634, 635, 636, 637, 638, 639, 640, 641, 642, 643, 644, 645, 646, 647, 648, 649, 650, 651, 652, 653, 654, 655, 656, 657, 658, 659, 660, 661, 662, 663, 664, 665, 666, 667, 668, 669, 670, 671, 672, 673, 674, 675, 676, 677, 678, 679, 680, 681, 682, 683, 684, 685, 686, 687, 688, 689, 690, 691, 692, 693, 694, 695, 696, 697, 698, 699, 700, 701, 702, 703, 704, 705, 706, 707, 708, 709, 710, 711, 712, 713, 714, 715, 716, 717, 718, 719, 720, 721, 722, 723, 724, 725, 726, 727, 728, 729, 730, 731, 732, 733, 734, 735, 736, 737, 738, 739, 740, 741, 742, 743, 744, 745, 746, 747, 748, 749, 750, 751, 752, 753, 754, 755, 756, 757, 758, 759, 760, 761, 762, 763, 764, 765, 766, 767, 768, 769, 770, 771, 772, 773, 774, 775, 776, 777, 778, 779, 780, 781, 782, 783, 784, 785, 786, 787, 788, 789, 790, 791, 792, 793, 794, 795, 796, 797, 798, 799, 800, 801, 802, 803, 804, 805, 806, 807, 808, 809, 810, 811, 812, 813, 814, 815, 816, 817, 818, 819, 820, 821, 822, 823, 824, 825, 826, 827, 828, 829, 830, 831, 832, 833, 834, 835, 836, 837, 838, 839, 840, 841, 842, 843, 844, 845, 846, 847, 848, 849, 850, 851, 852, 853, 854, 855, 856, 857, 858, 859, 860, 861, 862, 863, 864, 865, 866, 867, 868, 869, 870, 871, 872, 873, 874, 875, 876, 877, 878, 879, 880, 881, 882, 883, 884, 885, 886, 887, 888, 889, 890, 891, 892, 893, 894, 895, 896, 897, 898, 899, 900, 901, 902, 903, 904, 905, 906, 907, 908, 909, 910, 911, 912, 913, 914],
      "AcquisitionTime": ["161118.727500", "161119.187500", "161119.647500", "161120.107500", "161120.567500", "161121.027500", "161121.487500", "161121.947500", "161122.407500", "161122.867500", "161123.327500", "161123.787500", "161124.247500", "161124.707500", "161125.167500", "161125.627500", "161126.087500", "161126.547500", "161127.007500", "161127.467500", "161127.927500", "161128.387500", "161128.847500", "161129.307500", "161129.767500", "161130.227500", "161130.687500", "161131.147500", "161131.607500", "161132.067500", "161132.527500", "161132.987500", "161133.447500", "161133.907500", "161134.367500", "161134.827500", "161135.287500", "161135.747500", "161136.207500", "161136.667500", "161137.127500", "161137.587500", "161138.047500", "161138.507500", "161138.967500", "161139.427500", "161139.887500", "161140.347500", "161140.807500", "161141.267500", "161141.727500", "161142.187500", "161142.647500", "161143.107500", "161143.567500", "161144.027500", "161144.487500", "161144.947500", "161145.407500", "161145.867500", "161146.327500", "161146.787500", "161147.247500", "161147.707500", "161148.167500", "161148.627500", "161149.087500", "161149.547500", "161150.007500", "161150.467500", "161150.927500", "161151.387500", "161151.847500", "161152.307500", "161152.767500", "161153.227500", "161153.687500", "161154.147500", "161154.607500", "161155.067500", "161155.527500", "161155.987500", "161156.447500", "161156.907500", "161157.367500", "161157.827500", "161158.287500", "161158.747500", "161159.207500", "161159.667500", "161200.127500", "161200.587500", "161201.047500", "161201.507500", "161201.967500", "161202.427500", "161202.887500", "161203.347500", "161203.807500", "161204.267500", "161204.727500", "161205.187500", "161205.647500", "161206.107500", "161206.567500", "161207.027500", "161207.487500", "161207.947500", "161208.407500", "161208.867500", "161209.327500", "161209.787500", "161210.247500", "161210.707500", "161211.167500", "161211.627500", "161212.087500", "161212.547500", "161213.007500", "161213.467500", "161213.927500", "161214.387500", "161214.847500", "161215.307500", "161215.767500", "161216.227500", "161216.687500", "161217.147500", "161217.607500", "161218.067500", "161218.527500", "161218.987500", "161219.447500", "161219.907500", "161220.367500", "161220.827500", "161221.287500", "161221.747500", "161222.207500", "161222.667500", "161223.127500", "161223.587500", "161224.047500", "161224.507500", "161224.967500", "161225.427500", "161225.887500", "161226.347500", "161226.807500", "161227.267500", "161227.727500", "161228.187500", "161228.647500", "161229.107500", "161229.567500", "161230.027500", "161230.487500", "161230.947500", "161231.407500", "161231.867500", "161232.327500", "161232.787500", "161233.247500", "161233.707500", "161234.167500", "161234.627500", "161235.087500", "161235.547500", "161236.007500", "161236.467500", "161236.927500", "161237.387500", "161237.847500", "161238.307500", "161238.767500", "161239.227500", "161239.687500", "161240.147500", "161240.607500", "161241.067500", "161241.527500", "161241.987500", "161242.447500", "161242.907500", "161243.367500", "161243.827500", "161244.287500", "161244.747500", "161245.207500", "161245.667500", "161246.127500", "161246.587500", "161247.047500", "161247.507500", "161247.967500", "161248.427500", "161248.887500", "161249.347500", "161249.807500", "161250.267500", "161250.727500", "161251.187500", "161251.647500", "161252.107500", "161252.567500", "161253.027500", "161253.487500", "161253.947500", "161254.407500", "161254.867500", "161255.327500", "161255.787500", "161256.247500", "161256.707500", "161257.167500", "161257.627500", "161258.087500", "161258.547500", "161259.007500", "161259.467500", "161259.927500", "161300.387500", "161300.847500", "161301.307500", "161301.767500", "161302.227500", "161302.687500", "161303.147500", "161303.607500", "161304.067500", "161304.527500", "161304.987500", "161305.447500", "161305.907500", "161306.367500", "161306.827500", "161307.287500", "161307.747500", "161308.207500", "161308.667500", "161309.127500", "161309.587500", "161310.047500", "161310.507500", "161310.967500", "161311.427500", "161311.887500", "161312.347500", "161312.807500", "161313.267500", "161313.727500", "161314.187500", "161314.647500", "161315.107500", "161315.567500", "161316.027500", "161316.487500", "161316.947500", "161317.407500", "161317.867500", "161318.327500", "161318.787500", "161319.247500", "161319.707500", "161320.167500", "161320.627500", "161321.087500", "161321.547500", "161322.007500", "161322.467500", "161322.927500", "161323.387500", "161323.847500", "161324.307500", "161324.767500", "161325.227500", "161325.687500", "161326.147500", "161326.607500", "161327.067500", "161327.527500", "161327.987500", "161328.447500", "161328.907500", "161329.367500", "161329.827500", "161330.287500", "161330.747500", "161331.207500", "161331.667500", "161332.127500", "161332.587500", "161333.047500", "161333.507500", "161333.967500", "161334.427500", "161334.887500", "161335.347500", "161335.807500", "161336.267500", "161336.727500", "161337.187500", "161337.647500", "161338.107500", "161338.567500", "161339.027500", "161339.487500", "161339.947500", "161340.407500", "161340.867500", "161341.327500", "161341.787500", "161342.247500", "161342.707500", "161343.167500", "161343.627500", "161344.087500", "161344.547500", "161345.007500", "161345.467500", "161345.927500", "161346.387500", "161346.847500", "161347.307500", "161347.767500", "161348.227500", "161348.687500", "161349.147500", "161349.607500", "161350.067500", "161350.527500", "161350.987500", "161351.447500", "161351.907500", "161352.367500", "161352.827500", "161353.287500", "161353.747500", "161354.207500", "161354.667500", "161355.127500", "161355.587500", "161356.047500", "161356.507500", "161356.967500", "161357.427500", "161357.887500", "161358.347500", "161358.807500", "161359.267500", "161359.727500", "161400.187500", "161400.647500", "161401.107500", "161401.567500", "161402.027500", "161402.487500", "161402.947500", "161403.407500", "161403.867500", "161404.327500", "161404.787500", "161405.247500", "161405.707500", "161406.167500", "161406.627500", "161407.087500", "161407.547500", "161408.007500", "161408.467500", "161408.927500", "161409.387500", "161409.847500", "161410.307500", "161410.767500", "161411.227500", "161411.687500", "161412.147500", "161412.607500", "161413.067500", "161413.527500", "161413.987500", "161414.447500", "161414.907500", "161415.367500", "161415.827500", "161416.287500", "161416.747500", "161417.207500", "161417.667500", "161418.127500", "161418.587500", "161419.047500", "161419.507500", "161419.967500", "161420.427500", "161420.887500", "161421.347500", "161421.807500", "161422.267500", "161422.727500", "161423.187500", "161423.647500", "161424.107500", "161424.567500", "161425.027500", "161425.487500", "161425.947500", "161426.407500", "161426.867500", "161427.327500", "161427.787500", "161428.247500", "161428.707500", "161429.167500", "161429.627500", "161430.087500", "161430.547500", "161431.007500", "161431.467500", "161431.927500", "161432.387500", "161432.847500", "161433.307500", "161433.767500", "161434.227500", "161434.687500", "161435.147500", "161435.607500", "161436.067500", "161436.527500", "161436.987500", "161437.447500", "161437.907500", "161438.367500", "161438.827500", "161439.287500", "161439.747500", "161440.207500", "161440.667500", "161441.127500", "161441.587500", "161442.047500", "161442.507500", "161442.967500", "161443.427500", "161443.887500", "161444.347500", "161444.807500", "161445.267500", "161445.727500", "161446.187500", "161446.647500", "161447.107500", "161447.567500", "161448.027500", "161448.487500", "161448.947500", "161449.407500", "161449.867500", "161450.327500", "161450.787500", "161451.247500", "161451.707500", "161452.167500", "161452.627500", "161453.087500", "161453.547500", "161454.007500", "161454.467500", "161454.927500", "161455.387500", "161455.847500", "161456.307500", "161456.767500", "161457.227500", "161457.687500", "161458.147500", "161458.607500", "161459.067500", "161459.527500", "161459.987500", "161500.447500", "161500.907500", "161501.367500", "161501.827500", "161502.287500", "161502.747500", "161503.207500", "161503.667500", "161504.127500", "161504.587500", "161505.047500", "161505.507500", "161505.967500", "161506.427500", "161506.887500", "161507.347500", "161507.807500", "161508.267500", "161508.727500", "161509.187500", "161509.647500", "161510.107500", "161510.567500", "161511.027500", "161511.487500", "161511.947500", "161512.407500", "161512.867500", "161513.327500", "161513.787500", "161514.247500", "161514.707500", "161515.167500", "161515.627500", "161516.087500", "161516.547500", "161517.007500", "161517.467500", "161517.927500", "161518.387500", "161518.847500", "161519.307500", "161519.767500", "161520.227500", "161520.687500", "161521.147500", "161521.607500", "161522.067500", "161522.527500", "161522.987500", "161523.447500", "161523.907500", "161524.367500", "161524.827500", "161525.287500", "161525.747500", "161526.207500", "161526.667500", "161527.127500", "161527.587500", "161528.047500", "161528.507500", "161528.967500", "161529.427500", "161529.887500", "161530.347500", "161530.807500", "161531.267500", "161531.727500", "161532.187500", "161532.647500", "161533.107500", "161533.567500", "161534.027500", "161534.487500", "161534.947500", "161535.407500", "161535.867500", "161536.327500", "161536.787500", "161537.247500", "161537.707500", "161538.167500", "161538.627500", "161539.087500", "161539.547500", "161540.007500", "161540.467500", "161540.927500", "161541.387500", "161541.847500", "161542.307500", "161542.767500", "161543.227500", "161543.687500", "161544.147500", "161544.607500", "161545.067500", "161545.527500", "161545.987500", "161546.447500", "161546.907500", "161547.367500", "161547.827500", "161548.287500", "161548.747500", "161549.207500", "161549.667500", "161550.127500", "161550.587500", "161551.047500", "161551.507500", "161551.967500", "161552.427500", "161552.887500", "161553.347500", "161553.807500", "161554.267500", "161554.727500", "161555.187500", "161555.647500", "161556.107500", "161556.567500", "161557.027500", "161557.487500", "161557.947500", "161558.407500", "161558.867500", "161559.327500", "161559.787500", "161600.247500", "161600.707500", "161601.167500", "161601.627500", "161602.087500", "161602.547500", "161603.007500", "161603.467500", "161603.927500", "161604.387500", "161604.847500", "161605.307500", "161605.767500", "161606.227500", "161606.687500", "161607.147500", "161607.607500", "161608.067500", "161608.527500", "161608.987500", "161609.447500", "161609.907500", "161610.367500", "161610.827500", "161611.287500", "161611.747500", "161612.207500", "161612.667500", "161613.127500", "161613.587500", "161614.047500", "161614.507500", "161614.967500", "161615.427500", "161615.887500", "161616.347500", "161616.807500", "161617.267500", "161617.727500", "161618.187500", "161618.647500", "161619.107500", "161619.567500", "161620.027500", "161620.487500", "161620.947500", "161621.407500", "161621.867500", "161622.327500", "161622.787500", "161623.247500", "161623.707500", "161624.167500", "161624.627500", "161625.087500", "161625.547500", "161626.007500", "161626.467500", "161626.927500", "161627.387500", "161627.847500", "161628.307500", "161628.767500", "161629.227500", "161629.687500", "161630.147500", "161630.607500", "161631.067500", "161631.527500", "161631.987500", "161632.447500", "161632.907500", "161633.367500", "161633.827500", "161634.287500", "161634.747500", "161635.207500", "161635.667500", "161636.127500", "161636.587500", "161637.047500", "161637.507500", "161637.967500", "161638.427500", "161638.887500", "161639.347500", "161639.807500", "161640.267500", "161640.727500", "161641.187500", "161641.647500", "161642.107500", "161642.567500", "161643.027500", "161643.487500", "161643.947500", "161644.407500", "161644.867500", "161645.327500", "161645.787500", "161646.247500", "161646.707500", "161647.167500", "161647.627500", "161648.087500", "161648.547500", "161649.007500", "161649.467500", "161649.927500", "161650.387500", "161650.847500", "161651.307500", "161651.767500", "161652.227500", "161652.687500", "161653.147500", "161653.607500", "161654.067500", "161654.527500", "161654.987500", "161655.447500", "161655.907500", "161656.367500", "161656.827500", "161657.287500", "161657.747500", "161658.207500", "161658.667500", "161659.127500", "161659.587500", "161700.047500", "161700.507500", "161700.967500", "161701.427500", "161701.887500", "161702.347500", "161702.807500", "161703.267500", "161703.727500", "161704.187500", "161704.647500", "161705.107500", "161705.567500", "161706.027500", "161706.487500", "161706.947500", "161707.407500", "161707.867500", "161708.327500", "161708.787500", "161709.247500", "161709.707500", "161710.167500", "161710.627500", "161711.087500", "161711.547500", "161712.007500", "161712.467500", "161712.927500", "161713.387500", "161713.847500", "161714.307500", "161714.767500", "161715.227500", "161715.687500", "161716.147500", "161716.607500", "161717.067500", "161717.527500", "161717.987500", "161718.447500", "161718.907500", "161719.367500", "161719.827500", "161720.287500", "161720.747500", "161721.207500", "161721.667500", "161722.127500", "161722.587500", "161723.047500", "161723.507500", "161723.967500", "161724.427500", "161724.887500", "161725.347500", "161725.807500", "161726.267500", "161726.727500", "161727.187500", "161727.647500", "161728.107500", "161728.567500", "161729.027500", "161729.487500", "161729.947500", "161730.407500", "161730.867500", "161731.327500", "161731.787500", "161732.247500", "161732.707500", "161733.167500", "161733.627500", "161734.087500", "161734.547500", "161735.007500", "161735.467500", "161735.927500", "161736.387500", "161736.847500", "161737.307500", "161737.767500", "161738.227500", "161738.687500", "161739.147500", "161739.607500", "161740.067500", "161740.527500", "161740.987500", "161741.447500", "161741.907500", "161742.367500", "161742.827500", "161743.287500", "161743.747500", "161744.207500", "161744.667500", "161745.127500", "161745.587500", "161746.047500", "161746.507500", "161746.967500", "161747.427500", "161747.887500", "161748.347500", "161748.807500", "161749.267500", "161749.727500", "161750.187500", "161750.647500", "161751.107500", "161751.567500", "161752.027500", "161752.487500", "161752.947500", "161753.407500", "161753.867500", "161754.327500", "161754.787500", "161755.247500", "161755.707500", "161756.167500", "161756.627500", "161757.087500", "161757.547500", "161758.007500", "161758.467500", "161758.927500", "161759.387500", "161759.847500", "161800.307500", "161800.767500", "161801.227500", "161801.687500", "161802.147500", "161802.607500", "161803.067500", "161803.527500", "161803.987500", "161804.447500", "161804.907500", "161805.367500", "161805.827500", "161806.287500", "161806.747500", "161807.207500", "161807.667500", "161808.127500", "161808.587500", "161809.047500", "161809.507500", "161809.967500", "161810.427500", "161810.887500", "161811.347500", "161811.807500", "161812.267500", "161812.727500", "161813.187500", "161813.647500", "161814.107500", "161814.567500", "161815.027500", "161815.487500", "161815.947500", "161816.407500", "161816.867500", "161817.327500", "161817.787500", "161818.247500", "161818.707500"],
