{
  "AcquisitionMatrixPE": 82,
  "AcquisitionNumber": 1,
  "AcquisitionTime": "14:39:57.012500",
  "BandwidthPerPixelPhaseEncode": 24.888,
  "BaseResolution": 82,
  "BodyPartExamined": "BRAIN",
  "ConsistencyInfo": "N4_VE11E_LATEST_20181129",
  "ConversionSoftware": "dcm2niix",
  "ConversionSoftwareVersion": "v1.0.20201102",
  "DerivedVendorReportedEchoSpacing": 0.00049,
  "DeviceSerialNumber": "66112",
  "DwellTime": 2e-06,
  "EchoTime": 0.0272,
  "EchoTrainLength": 82,
  "EffectiveEchoSpacing": 0.00049,
  "FlipAngle": 44,
  "ImageComments": "Unaliased MB8/PE3",
  "ImageOrientationPatientDICOM": [0.995457, 0.0745063, 0.0592865, -0.0718791, 0.996385, -0.045278],
  "ImageType": [
    "ORIGINAL",
    "PRIMARY",
    "M",
    "MB",
    "ND",
    "NORM",
    "MOSAIC"
],
  "ImagingFrequency": 123.259,
  "InPlanePhaseEncodingDirectionDICOM": "COL",
  "InstitutionAddress": "Maynard 3,Hanover,NH,US,03755",
  "InstitutionName": "Dartmouth College - PBS",
  "InstitutionalDepartmentName": "Department",
  "MRAcquisitionType": "2D",
  "MagneticFieldStrength": 3,
  "Manufacturer": "Siemens",
  "ManufacturersModelName": "Prisma",
  "Modality": "MR",
  "MultibandAccelerationFactor": 8,
  "PartialFourier": 1,
  "PatientPosition": "HFS",
  "PercentPhaseFOV": 100,
  "PercentSampling": 100,
  "PhaseEncodingDirection": "j-",
  "PhaseEncodingSteps": 82,
  "PhaseResolution": 1,
  "PixelBandwidth": 3050,
  "ProcedureStepDescription": "Wager_Wager^1076_spacetop",
  "ProtocolName": "func_run-02_task-narratives_acq-ap-mb8",
  "PulseSequenceDetails": "%CustomerSeq%\\cmrr_mbep2d_bold",
  "ReceiveCoilActiveElements": "HEA;HEP",
  "ReceiveCoilName": "Head_32",
  "ReconMatrixPE": 82,
  "RepetitionTime": 0.46,
  "SAR": 0.0864549,
  "ScanOptions": "FS",
  "ScanningSequence": "EP",
  "SequenceName": "epfid2d1_82",
  "SequenceVariant": "SK\\SS",
  "SeriesDescription": "func_run-02_task-narratives_acq-ap-mb8",
  "SeriesNumber": 10,
  "ShimSetting": [4217, -7792, -7257, 412, -137, -131, 44, 40],
  "SliceThickness": 2.7,
  "SliceTiming": [0, 0.25, 0.0625, 0.3125, 0.125, 0.3775, 0.1875, 0, 0.25, 0.0625, 0.3125, 0.125, 0.3775, 0.1875, 0, 0.25, 0.0625, 0.3125, 0.125, 0.3775, 0.1875, 0, 0.25, 0.0625, 0.3125, 0.125, 0.3775, 0.1875, 0, 0.25, 0.0625, 0.3125, 0.125, 0.3775, 0.1875, 0, 0.25, 0.0625, 0.3125, 0.125, 0.3775, 0.1875, 0, 0.25, 0.0625, 0.3125, 0.125, 0.3775, 0.1875, 0, 0.25, 0.0625, 0.3125, 0.125, 0.3775, 0.1875],
  "SoftwareVersions": "syngo MR E11",
  "SpacingBetweenSlices": 2.7,
  "StationName": "AWP66112",
  "TaskName": "narratives",
  "TotalReadoutTime": 0.03969,
  "TxRefAmp": 239.551,
  "WipMemBlock": "fbe2c459-5e6b-473c-a2b8-e9a69c9552a0||Sequence: R016 ve11e/master r/434b28f1; Aug  7 2019 18:53:46 by eja",
  "dcmmeta_affine": [
    [-2.6707375049591064, -0.19284644722938538, 0.16860337555408478, 117.52903747558594],
    [-0.19989484548568726, 2.6732285022735596, -0.11018909513950348, -93.06896209716797],
    [0.15906140208244324, 0.12147743999958038, 2.692476749420166, -89.68680572509766],
    [0.0, 0.0, 0.0, 1.0]
],
  "dcmmeta_reorient_transform": [
    [0.0, -1.0, 0.0, 81.0],
    [1.0, 0.0, 0.0, 0.0],
    [0.0, 0.0, 1.0, 0.0],
    [0.0, 0.0, 0.0, 1.0]
],
  "dcmmeta_shape": [82, 82, 56, 1098],
  "dcmmeta_slice_dim": 2,
  "dcmmeta_version": 0.6,
  "global": {
    "const": {
      "AccessionNumber": "A004523",
      "AcquisitionMatrix": [82, 0, 0, 82],
      "AngioFlag": "N",
      "BitsAllocated": 16,
      "BitsStored": 16,
      "BodyPartExamined": "BRAIN",
      "Columns": 656,
      "EchoNumbers": 1,
      "EchoTime": 27.2,
      "EchoTrainLength": 82,
      "FlipAngle": 44.0,
      "HighBit": 15,
      "ImageOrientationPatient": [0.99545664192326, 0.0745062599707, 0.05928651850161, -0.0718791288609, 0.99638511521721, -0.0452779527783],
      "ImagePositionPatient": [-813.06317785162, -948.04892142597, -90.633728621164],
      "ImageType": [
        "ORIGINAL",
        "PRIMARY",
        "M",
        "MB",
        "ND",
        "NORM",
        "MOSAIC"
],
      "ImagedNucleus": "1H",
      "ImagingFrequency": 123.259079,
      "InPlanePhaseEncodingDirection": "COL",
      "MRAcquisitionType": "2D",
      "MagneticFieldStrength": 3.0,
      "Manufacturer": "SIEMENS",
      "ManufacturerModelName": "Prisma",
      "Modality": "MR",
      "NumberOfAverages": 1.0,
      "NumberOfPhaseEncodingSteps": 82,
      "PercentPhaseFieldOfView": 100.0,
      "PercentSampling": 100.0,
      "PerformedProcedureStepStartTime": "141814.635000",
      "PhotometricInterpretation": "MONOCHROME2",
      "PixelBandwidth": 3050.0,
      "PixelRepresentation": 0,
      "PixelSpacing": [2.6829268932343, 2.6829268932343],
      "ProtocolName": "func_run-02_task-narratives_acq-ap-mb8",
      "RepetitionTime": 460.0,
      "Rows": 656,
      "SAR": 0.08645494338661,
      "SamplesPerPixel": 1,
      "ScanOptions": "FS",
      "ScanningSequence": "EP",
      "SequenceName": "epfid2d1_82",
      "SequenceVariant": [
        "SK",
        "SS"
],
      "SeriesDescription": "func_run-02_task-narratives_acq-ap-mb8",
      "SeriesNumber": 10,
      "SeriesTime": "144011.875000",
      "SliceLocation": -78.29950524846,
      "SliceThickness": 2.7000000476837,
      "SmallestImagePixelValue": 0,
      "SoftwareVersions": "syngo MR E11",
      "SpacingBetweenSlices": 2.7000000708176,
      "SpecificCharacterSet": "ISO_IR 100",
      "StudyID": "2",
      "StudyTime": "141814.555000",
      "TransmitCoilName": "Body",
      "VariableFlipAngleFlag": "N",
      "WindowCenterWidthExplanation": "Algo1"
    },
    "slices": {}
  },
  "time": {
    "samples": {
      "AcquisitionNumber": [1, 2, 3, 4, 5, 6, 7, 8, 9, 10, 11, 12, 13, 14, 15, 16, 17, 18, 19, 20, 21, 22, 23, 24, 25, 26, 27, 28, 29, 30, 31, 32, 33, 34, 35, 36, 37, 38, 39, 40, 41, 42, 43, 44, 45, 46, 47, 48, 49, 50, 51, 52, 53, 54, 55, 56, 57, 58, 59, 60, 61, 62, 63, 64, 65, 66, 67, 68, 69, 70, 71, 72, 73, 74, 75, 76, 77, 78, 79, 80, 81, 82, 83, 84, 85, 86, 87, 88, 89, 90, 91, 92, 93, 94, 95, 96, 97, 98, 99, 100, 101, 102, 103, 104, 105, 106, 107, 108, 109, 110, 111, 112, 113, 114, 115, 116, 117, 118, 119, 120, 121, 122, 123, 124, 125, 126, 127, 128, 129, 130, 131, 132, 133, 134, 135, 136, 137, 138, 139, 140, 141, 142, 143, 144, 145, 146, 147, 148, 149, 150, 151, 152, 153, 154, 155, 156, 157, 158, 159, 160, 161, 162, 163, 164, 165, 166, 167, 168, 169, 170, 171, 172, 173, 174, 175, 176, 177, 178, 179, 180, 181, 182, 183, 184, 185, 186, 187, 188, 189, 190, 191, 192, 193, 194, 195, 196, 197, 198, 199, 200, 201, 202, 203, 204, 205, 206, 207, 208, 209, 210, 211, 212, 213, 214, 215, 216, 217, 218, 219, 220, 221, 222, 223, 224, 225, 226, 227, 228, 229, 230, 231, 232, 233, 234, 235, 236, 237, 238, 239, 240, 241, 242, 243, 244, 245, 246, 247, 248, 249, 250, 251, 252, 253, 254, 255, 256, 257, 258, 259, 260, 261, 262, 263, 264, 265, 266, 267, 268, 269, 270, 271, 272, 273, 274, 275, 276, 277, 278, 279, 280, 281, 282, 283, 284, 285, 286, 287, 288, 289, 290, 291, 292, 293, 294, 295, 296, 297, 298, 299, 300, 301, 302, 303, 304, 305, 306, 307, 308, 309, 310, 311, 312, 313, 314, 315, 316, 317, 318, 319, 320, 321, 322, 323, 324, 325, 326, 327, 328, 329, 330, 331, 332, 333, 334, 335, 336, 337, 338, 339, 340, 341, 342, 343, 344, 345, 346, 347, 348, 349, 350, 351, 352, 353, 354, 355, 356, 357, 358, 359, 360, 361, 362, 363, 364, 365, 366, 367, 368, 369, 370, 371, 372, 373, 374, 375, 376, 377, 378, 379, 380, 381, 382, 383, 384, 385, 386, 387, 388, 389, 390, 391, 392, 393, 394, 395, 396, 397, 398, 399, 400, 401, 402, 403, 404, 405, 406, 407, 408, 409, 410, 411, 412, 413, 414, 415, 416, 417, 418, 419, 420, 421, 422, 423, 424, 425, 426, 427, 428, 429, 430, 431, 432, 433, 434, 435, 436, 437, 438, 439, 440, 441, 442, 443, 444, 445, 446, 447, 448, 449, 450, 451, 452, 453, 454, 455, 456, 457, 458, 459, 460, 461, 462, 463, 464, 465, 466, 467, 468, 469, 470, 471, 472, 473, 474, 475, 476, 477, 478, 479, 480, 481, 482, 483, 484, 485, 486, 487, 488, 489, 490, 491, 492, 493, 494, 495, 496, 497, 498, 499, 500, 501, 502, 503, 504, 505, 506, 507, 508, 509, 510, 511, 512, 513, 514, 515, 516, 517, 518, 519, 520, 521, 522, 523, 524, 525, 526, 527, 528, 529, 530, 531, 532, 533, 534, 535, 536, 537, 538, 539, 540, 541, 542, 543, 544, 545, 546, 547, 548, 549, 550, 551, 552, 553, 554, 555, 556, 557, 558, 559, 560, 561, 562, 563, 564, 565, 566, 567, 568, 569, 570, 571, 572, 573, 574, 575, 576, 577, 578, 579, 580, 581, 582, 583, 584, 585, 586, 587, 588, 589, 590, 591, 592, 593, 594, 595, 596, 597, 598, 599, 600, 601, 602, 603, 604, 605, 606, 607, 608, 609, 610, 611, 612, 613, 614, 615, 616, 617, 618, 619, 620, 621, 622, 623, 624, 625, 626, 627, 628, 629, 630, 631, 632, 633, 634, 635, 636, 637, 638, 639, 640, 641, 642, 643, 644, 645, 646, 647, 648, 649, 650, 651, 652, 653, 654, 655, 656, 657, 658, 659, 660, 661, 662, 663, 664, 665, 666, 667, 668, 669, 670, 671, 672, 673, 674, 675, 676, 677, 678, 679, 680, 681, 682, 683, 684, 685, 686, 687, 688, 689, 690, 691, 692, 693, 694, 695, 696, 697, 698, 699, 700, 701, 702, 703, 704, 705, 706, 707, 708, 709, 710, 711, 712, 713, 714, 715, 716, 717, 718, 719, 720, 721, 722, 723, 724, 725, 726, 727, 728, 729, 730, 731, 732, 733, 734, 735, 736, 737, 738, 739, 740, 741, 742, 743, 744, 745, 746, 747, 748, 749, 750, 751, 752, 753, 754, 755, 756, 757, 758, 759, 760, 761, 762, 763, 764, 765, 766, 767, 768, 769, 770, 771, 772, 773, 774, 775, 776, 777, 778, 779, 780, 781, 782, 783, 784, 785, 786, 787, 788, 789, 790, 791, 792, 793, 794, 795, 796, 797, 798, 799, 800, 801, 802, 803, 804, 805, 806, 807, 808, 809, 810, 811, 812, 813, 814, 815, 816, 817, 818, 819, 820, 821, 822, 823, 824, 825, 826, 827, 828, 829, 830, 831, 832, 833, 834, 835, 836, 837, 838, 839, 840, 841, 842, 843, 844, 845, 846, 847, 848, 849, 850, 851, 852, 853, 854, 855, 856, 857, 858, 859, 860, 861, 862, 863, 864, 865, 866, 867, 868, 869, 870, 871, 872, 873, 874, 875, 876, 877, 878, 879, 880, 881, 882, 883, 884, 885, 886, 887, 888, 889, 890, 891, 892, 893, 894, 895, 896, 897, 898, 899, 900, 901, 902, 903, 904, 905, 906, 907, 908, 909, 910, 911, 912, 913, 914, 915, 916, 917, 918, 919, 920, 921, 922, 923, 924, 925, 926, 927, 928, 929, 930, 931, 932, 933, 934, 935, 936, 937, 938, 939, 940, 941, 942, 943, 944, 945, 946, 947, 948, 949, 950, 951, 952, 953, 954, 955, 956, 957, 958, 959, 960, 961, 962, 963, 964, 965, 966, 967, 968, 969, 970, 971, 972, 973, 974, 975, 976, 977, 978, 979, 980, 981, 982, 983, 984, 985, 986, 987, 988, 989, 990, 991, 992, 993, 994, 995, 996, 997, 998, 999, 1000, 1001, 1002, 1003, 1004, 1005, 1006, 1007, 1008, 1009, 1010, 1011, 1012, 1013, 1014, 1015, 1016, 1017, 1018, 1019, 1020, 1021, 1022, 1023, 1024, 1025, 1026, 1027, 1028, 1029, 1030, 1031, 1032, 1033, 1034, 1035, 1036, 1037, 1038, 1039, 1040, 1041, 1042, 1043, 1044, 1045, 1046, 1047, 1048, 1049, 1050, 1051, 1052, 1053, 1054, 1055, 1056, 1057, 1058, 1059, 1060, 1061, 1062, 1063, 1064, 1065, 1066, 1067, 1068, 1069, 1070, 1071, 1072, 1073, 1074, 1075, 1076, 1077, 1078, 1079, 1080, 1081, 1082, 1083, 1084, 1085, 1086, 1087, 1088, 1089, 1090, 1091, 1092, 1093, 1094, 1095, 1096, 1097, 1098],
      "AcquisitionTime": ["143957.012500", "143957.472500", "143957.932500", "143958.392500", "143958.852500", "143959.312500", "143959.772500", "144000.232500", "144000.692500", "144001.152500", "144001.612500", "144002.072500", "144002.532500", "144002.992500", "144003.452500", "144003.912500", "144004.372500", "144004.832500", "144005.292500", "144005.752500", "144006.212500", "144006.672500", "144007.132500", "144007.592500", "144008.052500", "144008.512500", "144008.972500", "144009.432500", "144009.892500", "144010.352500", "144010.812500", "144011.272500", "144011.732500", "144012.192500", "144012.652500", "144013.112500", "144013.572500", "144014.032500", "144014.492500", "144014.952500", "144015.412500", "144015.872500", "144016.332500", "144016.792500", "144017.252500", "144017.712500", "144018.172500", "144018.632500", "144019.092500", "144019.552500", "144020.012500", "144020.472500", "144020.932500", "144021.392500", "144021.852500", "144022.312500", "144022.772500", "144023.232500", "144023.692500", "144024.152500", "144024.612500", "144025.072500", "144025.532500", "144025.992500", "144026.452500", "144026.912500", "144027.372500", "144027.832500", "144028.292500", "144028.752500", "144029.212500", "144029.672500", "144030.132500", "144030.592500", "144031.052500", "144031.512500", "144031.972500", "144032.432500", "144032.892500", "144033.352500", "144033.812500", "144034.272500", "144034.732500", "144035.192500", "144035.652500", "144036.112500", "144036.572500", "144037.032500", "144037.492500", "144037.952500", "144038.412500", "144038.872500", "144039.332500", "144039.792500", "144040.252500", "144040.712500", "144041.172500", "144041.632500", "144042.092500", "144042.552500", "144043.012500", "144043.472500", "144043.932500", "144044.392500", "144044.852500", "144045.312500", "144045.772500", "144046.232500", "144046.692500", "144047.152500", "144047.612500", "144048.072500", "144048.532500", "144048.992500", "144049.452500", "144049.912500", "144050.372500", "144050.832500", "144051.292500", "144051.752500", "144052.212500", "144052.672500", "144053.132500", "144053.592500", "144054.052500", "144054.512500", "144054.972500", "144055.432500", "144055.892500", "144056.352500", "144056.812500", "144057.272500", "144057.732500", "144058.192500", "144058.652500", "144059.112500", "144059.572500", "144100.032500", "144100.492500", "144100.952500", "144101.412500", "144101.872500", "144102.332500", "144102.792500", "144103.252500", "144103.712500", "144104.172500", "144104.632500", "144105.092500", "144105.552500", "144106.012500", "144106.472500", "144106.932500", "144107.392500", "144107.852500", "144108.312500", "144108.772500", "144109.232500", "144109.692500", "144110.152500", "144110.612500", "144111.072500", "144111.532500", "144111.992500", "144112.452500", "144112.912500", "144113.372500", "144113.832500", "144114.292500", "144114.752500", "144115.212500", "144115.672500", "144116.132500", "144116.592500", "144117.052500", "144117.512500", "144117.972500", "144118.432500", "144118.892500", "144119.352500", "144119.812500", "144120.272500", "144120.732500", "144121.192500", "144121.652500", "144122.112500", "144122.572500", "144123.032500", "144123.492500", "144123.952500", "144124.412500", "144124.872500", "144125.332500", "144125.792500", "144126.252500", "144126.712500", "144127.172500", "144127.632500", "144128.092500", "144128.552500", "144129.012500", "144129.472500", "144129.932500", "144130.392500", "144130.852500", "144131.312500", "144131.772500", "144132.232500", "144132.692500", "144133.152500", "144133.612500", "144134.072500", "144134.532500", "144134.992500", "144135.452500", "144135.912500", "144136.372500", "144136.832500", "144137.292500", "144137.752500", "144138.212500", "144138.672500", "144139.132500", "144139.592500", "144140.052500", "144140.512500", "144140.972500", "144141.432500", "144141.892500", "144142.352500", "144142.812500", "144143.272500", "144143.732500", "144144.192500", "144144.652500", "144145.112500", "144145.572500", "144146.032500", "144146.492500", "144146.952500", "144147.412500", "144147.872500", "144148.332500", "144148.792500", "144149.252500", "144149.712500", "144150.172500", "144150.632500", "144151.092500", "144151.552500", "144152.012500", "144152.472500", "144152.932500", "144153.392500", "144153.852500", "144154.312500", "144154.772500", "144155.232500", "144155.692500", "144156.152500", "144156.612500", "144157.072500", "144157.532500", "144157.992500", "144158.452500", "144158.912500", "144159.372500", "144159.832500", "144200.292500", "144200.752500", "144201.212500", "144201.672500", "144202.132500", "144202.592500", "144203.052500", "144203.512500", "144203.972500", "144204.432500", "144204.892500", "144205.352500", "144205.812500", "144206.272500", "144206.732500", "144207.192500", "144207.652500", "144208.112500", "144208.572500", "144209.032500", "144209.492500", "144209.952500", "144210.412500", "144210.872500", "144211.332500", "144211.792500", "144212.252500", "144212.712500", "144213.172500", "144213.632500", "144214.092500", "144214.552500", "144215.012500", "144215.472500", "144215.932500", "144216.392500", "144216.852500", "144217.312500", "144217.772500", "144218.232500", "144218.692500", "144219.152500", "144219.612500", "144220.072500", "144220.532500", "144220.992500", "144221.452500", "144221.912500", "144222.372500", "144222.832500", "144223.292500", "144223.752500", "144224.212500", "144224.672500", "144225.132500", "144225.592500", "144226.052500", "144226.512500", "144226.972500", "144227.432500", "144227.892500", "144228.352500", "144228.812500", "144229.272500", "144229.732500", "144230.192500", "144230.652500", "144231.112500", "144231.572500", "144232.032500", "144232.492500", "144232.952500", "144233.412500", "144233.872500", "144234.332500", "144234.792500", "144235.252500", "144235.712500", "144236.172500", "144236.632500", "144237.092500", "144237.552500", "144238.012500", "144238.472500", "144238.932500", "144239.392500", "144239.852500", "144240.312500", "144240.772500", "144241.232500", "144241.692500", "144242.152500", "144242.612500", "144243.072500", "144243.532500", "144243.992500", "144244.452500", "144244.912500", "144245.372500", "144245.832500", "144246.292500", "144246.752500", "144247.212500", "144247.672500", "144248.132500", "144248.592500", "144249.052500", "144249.512500", "144249.972500", "144250.432500", "144250.892500", "144251.352500", "144251.812500", "144252.272500", "144252.732500", "144253.192500", "144253.652500", "144254.112500", "144254.572500", "144255.032500", "144255.492500", "144255.952500", "144256.412500", "144256.872500", "144257.332500", "144257.792500", "144258.252500", "144258.712500", "144259.172500", "144259.632500", "144300.092500", "144300.552500", "144301.012500", "144301.472500", "144301.932500", "144302.392500", "144302.852500", "144303.312500", "144303.772500", "144304.232500", "144304.692500", "144305.152500", "144305.612500", "144306.072500", "144306.532500", "144306.992500", "144307.452500", "144307.912500", "144308.372500", "144308.832500", "144309.292500", "144309.752500", "144310.212500", "144310.672500", "144311.132500", "144311.592500", "144312.052500", "144312.512500", "144312.972500", "144313.432500", "144313.892500", "144314.352500", "144314.812500", "144315.272500", "144315.732500", "144316.192500", "144316.652500", "144317.112500", "144317.572500", "144318.032500", "144318.492500", "144318.952500", "144319.412500", "144319.872500", "144320.332500", "144320.792500", "144321.252500", "144321.712500", "144322.172500", "144322.632500", "144323.092500", "144323.552500", "144324.012500", "144324.472500", "144324.932500", "144325.392500", "144325.852500", "144326.312500", "144326.772500", "144327.232500", "144327.692500", "144328.152500", "144328.612500", "144329.072500", "144329.532500", "144329.992500", "144330.452500", "144330.912500", "144331.372500", "144331.832500", "144332.292500", "144332.752500", "144333.212500", "144333.672500", "144334.132500", "144334.592500", "144335.052500", "144335.512500", "144335.972500", "144336.432500", "144336.892500", "144337.352500", "144337.812500", "144338.272500", "144338.732500", "144339.192500", "144339.652500", "144340.112500", "144340.572500", "144341.032500", "144341.492500", "144341.952500", "144342.412500", "144342.872500", "144343.332500", "144343.792500", "144344.252500", "144344.712500", "144345.172500", "144345.632500", "144346.092500", "144346.552500", "144347.012500", "144347.472500", "144347.932500", "144348.392500", "144348.852500", "144349.312500", "144349.772500", "144350.232500", "144350.692500", "144351.152500", "144351.612500", "144352.072500", "144352.532500", "144352.992500", "144353.452500", "144353.912500", "144354.372500", "144354.832500", "144355.292500", "144355.752500", "144356.212500", "144356.672500", "144357.132500", "144357.592500", "144358.052500", "144358.512500", "144358.972500", "144359.432500", "144359.892500", "144400.352500", "144400.812500", "144401.272500", "144401.732500", "144402.192500", "144402.652500", "144403.112500", "144403.572500", "144404.032500", "144404.492500", "144404.952500", "144405.412500", "144405.872500", "144406.332500", "144406.792500", "144407.252500", "144407.712500", "144408.172500", "144408.632500", "144409.092500", "144409.552500", "144410.012500", "144410.472500", "144410.932500", "144411.392500", "144411.852500", "144412.312500", "144412.772500", "144413.232500", "144413.692500", "144414.152500", "144414.612500", "144415.072500", "144415.532500", "144415.992500", "144416.452500", "144416.912500", "144417.372500", "144417.832500", "144418.292500", "144418.752500", "144419.212500", "144419.672500", "144420.132500", "144420.592500", "144421.052500", "144421.512500", "144421.972500", "144422.432500", "144422.892500", "144423.352500", "144423.812500", "144424.272500", "144424.732500", "144425.192500", "144425.652500", "144426.112500", "144426.572500", "144427.032500", "144427.492500", "144427.952500", "144428.412500", "144428.872500", "144429.332500", "144429.792500", "144430.252500", "144430.712500", "144431.172500", "144431.632500", "144432.092500", "144432.552500", "144433.012500", "144433.472500", "144433.932500", "144434.392500", "144434.852500", "144435.312500", "144435.772500", "144436.232500", "144436.692500", "144437.152500", "144437.612500", "144438.072500", "144438.532500", "144438.992500", "144439.452500", "144439.912500", "144440.372500", "144440.832500", "144441.292500", "144441.752500", "144442.212500", "144442.672500", "144443.132500", "144443.592500", "144444.052500", "144444.512500", "144444.972500", "144445.432500", "144445.892500", "144446.352500", "144446.812500", "144447.272500", "144447.732500", "144448.192500", "144448.652500", "144449.112500", "144449.572500", "144450.032500", "144450.492500", "144450.952500", "144451.412500", "144451.872500", "144452.332500", "144452.792500", "144453.252500", "144453.712500", "144454.172500", "144454.632500", "144455.092500", "144455.552500", "144456.012500", "144456.472500", "144456.932500", "144457.392500", "144457.852500", "144458.312500", "144458.772500", "144459.232500", "144459.692500", "144500.152500", "144500.612500", "144501.072500", "144501.532500", "144501.992500", "144502.452500", "144502.912500", "144503.372500", "144503.832500", "144504.292500", "144504.752500", "144505.212500", "144505.672500", "144506.132500", "144506.592500", "144507.052500", "144507.512500", "144507.972500", "144508.432500", "144508.892500", "144509.352500", "144509.812500", "144510.272500", "144510.732500", "144511.192500", "144511.652500", "144512.112500", "144512.572500", "144513.032500", "144513.492500", "144513.952500", "144514.412500", "144514.872500", "144515.332500", "144515.792500", "144516.252500", "144516.712500", "144517.172500", "144517.632500", "144518.092500", "144518.552500", "144519.012500", "144519.472500", "144519.932500", "144520.392500", "144520.852500", "144521.312500", "144521.772500", "144522.232500", "144522.692500", "144523.152500", "144523.612500", "144524.072500", "144524.532500", "144524.992500", "144525.452500", "144525.912500", "144526.372500", "144526.832500", "144527.292500", "144527.752500", "144528.212500", "144528.672500", "144529.132500", "144529.592500", "144530.052500", "144530.512500", "144530.972500", "144531.432500", "144531.892500", "144532.352500", "144532.812500", "144533.272500", "144533.732500", "144534.192500", "144534.652500", "144535.112500", "144535.572500", "144536.032500", "144536.492500", "144536.952500", "144537.412500", "144537.872500", "144538.332500", "144538.792500", "144539.252500", "144539.712500", "144540.172500", "144540.632500", "144541.092500", "144541.552500", "144542.012500", "144542.472500", "144542.932500", "144543.392500", "144543.852500", "144544.312500", "144544.772500", "144545.232500", "144545.692500", "144546.152500", "144546.612500", "144547.072500", "144547.532500", "144547.992500", "144548.452500", "144548.912500", "144549.372500", "144549.832500", "144550.292500", "144550.752500", "144551.212500", "144551.672500", "144552.132500", "144552.592500", "144553.052500", "144553.512500", "144553.972500", "144554.432500", "144554.892500", "144555.352500", "144555.812500", "144556.272500", "144556.732500", "144557.192500", "144557.652500", "144558.112500", "144558.572500", "144559.032500", "144559.492500", "144559.952500", "144600.412500", "144600.872500", "144601.332500", "144601.792500", "144602.252500", "144602.712500", "144603.172500", "144603.632500", "144604.092500", "144604.552500", "144605.012500", "144605.472500", "144605.932500", "144606.392500", "144606.852500", "144607.312500", "144607.772500", "144608.232500", "144608.692500", "144609.152500", "144609.612500", "144610.072500", "144610.532500", "144610.992500", "144611.452500", "144611.912500", "144612.372500", "144612.832500", "144613.292500", "144613.752500", "144614.212500", "144614.672500", "144615.132500", "144615.592500", "144616.052500", "144616.512500", "144616.972500", "144617.432500", "144617.892500", "144618.352500", "144618.812500", "144619.272500", "144619.732500", "144620.192500", "144620.652500", "144621.112500", "144621.572500", "144622.032500", "144622.492500", "144622.952500", "144623.412500", "144623.872500", "144624.332500", "144624.792500", "144625.252500", "144625.712500", "144626.172500", "144626.632500", "144627.092500", "144627.552500", "144628.012500", "144628.472500", "144628.932500", "144629.392500", "144629.852500", "144630.312500", "144630.772500", "144631.232500", "144631.692500", "144632.152500", "144632.612500", "144633.072500", "144633.532500", "144633.992500", "144634.452500", "144634.912500", "144635.372500", "144635.832500", "144636.292500", "144636.752500", "144637.212500", "144637.672500", "144638.132500", "144638.592500", "144639.052500", "144639.512500", "144639.972500", "144640.432500", "144640.892500", "144641.352500", "144641.812500", "144642.272500", "144642.732500", "144643.192500", "144643.652500", "144644.112500", "144644.572500", "144645.032500", "144645.492500", "144645.952500", "144646.412500", "144646.872500", "144647.332500", "144647.792500", "144648.252500", "144648.712500", "144649.172500", "144649.632500", "144650.092500", "144650.552500", "144651.012500", "144651.472500", "144651.932500", "144652.392500", "144652.852500", "144653.312500", "144653.772500", "144654.232500", "144654.692500", "144655.152500", "144655.612500", "144656.072500", "144656.532500", "144656.992500", "144657.452500", "144657.912500", "144658.372500", "144658.832500", "144659.292500", "144659.752500", "144700.212500", "144700.672500", "144701.132500", "144701.592500", "144702.052500", "144702.512500", "144702.972500", "144703.432500", "144703.892500", "144704.352500", "144704.812500", "144705.272500", "144705.732500", "144706.192500", "144706.652500", "144707.112500", "144707.572500", "144708.032500", "144708.492500", "144708.952500", "144709.412500", "144709.872500", "144710.332500", "144710.792500", "144711.252500", "144711.712500", "144712.172500", "144712.632500", "144713.092500", "144713.552500", "144714.012500", "144714.472500", "144714.932500", "144715.392500", "144715.852500", "144716.312500", "144716.772500", "144717.232500", "144717.692500", "144718.152500", "144718.612500", "144719.072500", "144719.532500", "144719.992500", "144720.452500", "144720.912500", "144721.372500", "144721.832500", "144722.292500", "144722.752500", "144723.212500", "144723.672500", "144724.132500", "144724.592500", "144725.052500", "144725.512500", "144725.972500", "144726.432500", "144726.892500", "144727.352500", "144727.812500", "144728.272500", "144728.732500", "144729.192500", "144729.652500", "144730.112500", "144730.572500", "144731.032500", "144731.492500", "144731.952500", "144732.412500", "144732.872500", "144733.332500", "144733.792500", "144734.252500", "144734.712500", "144735.172500", "144735.632500", "144736.092500", "144736.552500", "144737.012500", "144737.472500", "144737.932500", "144738.392500", "144738.852500", "144739.312500", "144739.772500", "144740.232500", "144740.692500", "144741.152500", "144741.612500", "144742.072500", "144742.532500", "144742.992500", "144743.452500", "144743.912500", "144744.372500", "144744.832500", "144745.292500", "144745.752500", "144746.212500", "144746.672500", "144747.132500", "144747.592500", "144748.052500", "144748.512500", "144748.972500", "144749.432500", "144749.892500", "144750.352500", "144750.812500", "144751.272500", "144751.732500", "144752.192500", "144752.652500", "144753.112500", "144753.572500", "144754.032500", "144754.492500", "144754.952500", "144755.412500", "144755.872500", "144756.332500", "144756.792500", "144757.252500", "144757.712500", "144758.172500", "144758.632500", "144759.092500", "144759.552500", "144800.012500", "144800.472500", "144800.932500", "144801.392500", "144801.852500", "144802.312500", "144802.772500", "144803.232500", "144803.692500", "144804.152500", "144804.612500", "144805.072500", "144805.532500", "144805.992500", "144806.452500", "144806.912500", "144807.372500", "144807.832500", "144808.292500", "144808.752500", "144809.212500", "144809.672500", "144810.132500", "144810.592500", "144811.052500", "144811.512500", "144811.972500", "144812.432500", "144812.892500", "144813.352500", "144813.812500", "144814.272500", "144814.732500", "144815.192500", "144815.652500", "144816.112500", "144816.572500", "144817.032500", "144817.492500", "144817.952500", "144818.412500", "144818.872500", "144819.332500", "144819.792500", "144820.252500", "144820.712500", "144821.172500", "144821.632500"],
