{
  "AcquisitionMatrixPE": 82,
  "AcquisitionNumber": 1,
  "AcquisitionTime": "15:30:41.992500",
  "BandwidthPerPixelPhaseEncode": 24.888,
  "BaseResolution": 82,
  "BodyPartExamined": "BRAIN",
  "ConsistencyInfo": "N4_VE11E_LATEST_20181129",
  "ConversionSoftware": "dcm2niix",
  "ConversionSoftwareVersion": "v1.0.20201102",
  "DerivedVendorReportedEchoSpacing": 0.00049,
  "DeviceSerialNumber": "66112",
  "DwellTime": 2e-06,
  "EchoTime": 0.0272,
  "EchoTrainLength": 82,
  "EffectiveEchoSpacing": 0.00049,
  "FlipAngle": 44,
  "ImageComments": "Unaliased MB8/PE3",
  "ImageOrientationPatientDICOM": [0.995457, 0.0745063, 0.0592865, -0.0718791, 0.996385, -0.045278],
  "ImageType": [
    "ORIGINAL",
    "PRIMARY",
    "M",
    "MB",
    "ND",
    "NORM",
    "MOSAIC"
],
  "ImagingFrequency": 123.259,
  "InPlanePhaseEncodingDirectionDICOM": "COL",
  "InstitutionAddress": "Maynard 3,Hanover,NH,US,03755",
  "InstitutionName": "Dartmouth College - PBS",
  "InstitutionalDepartmentName": "Department",
  "MRAcquisitionType": "2D",
  "MagneticFieldStrength": 3,
  "Manufacturer": "Siemens",
  "ManufacturersModelName": "Prisma",
  "Modality": "MR",
  "MultibandAccelerationFactor": 8,
  "PartialFourier": 1,
  "PatientPosition": "HFS",
  "PercentPhaseFOV": 100,
  "PercentSampling": 100,
  "PhaseEncodingDirection": "j-",
  "PhaseEncodingSteps": 82,
  "PhaseResolution": 1,
  "PixelBandwidth": 3050,
  "ProcedureStepDescription": "Wager_Wager^1076_spacetop",
  "ProtocolName": "func_run-03_task-faces_acq-ap-mb8",
  "PulseSequenceDetails": "%CustomerSeq%\\cmrr_mbep2d_bold",
  "ReceiveCoilActiveElements": "HEA;HEP",
  "ReceiveCoilName": "Head_32",
  "ReconMatrixPE": 82,
  "RepetitionTime": 0.46,
  "SAR": 0.0863689,
  "ScanOptions": "FS",
  "ScanningSequence": "EP",
  "SequenceName": "epfid2d1_82",
  "SequenceVariant": "SK\\SS",
  "SeriesDescription": "func_run-03_task-faces_acq-ap-mb8",
  "SeriesNumber": 20,
  "ShimSetting": [4217, -7792, -7257, 412, -137, -131, 44, 40],
  "SliceThickness": 2.7,
  "SliceTiming": [0, 0.2525, 0.0625, 0.315, 0.125, 0.3775, 0.1875, 0, 0.2525, 0.0625, 0.315, 0.125, 0.3775, 0.1875, 0, 0.2525, 0.0625, 0.315, 0.125, 0.3775, 0.1875, 0, 0.2525, 0.0625, 0.315, 0.125, 0.3775, 0.1875, 0, 0.2525, 0.0625, 0.315, 0.125, 0.3775, 0.1875, 0, 0.2525, 0.0625, 0.315, 0.125, 0.3775, 0.1875, 0, 0.2525, 0.0625, 0.315, 0.125, 0.3775, 0.1875, 0, 0.2525, 0.0625, 0.315, 0.125, 0.3775, 0.1875],
  "SoftwareVersions": "syngo MR E11",
  "SpacingBetweenSlices": 2.7,
  "StationName": "AWP66112",
  "TaskName": "faces",
  "TotalReadoutTime": 0.03969,
  "TxRefAmp": 239.551,
  "WipMemBlock": "8d6080bc-a6a7-4800-a704-d3650a292368||Sequence: R016 ve11e/master r/434b28f1; Aug  7 2019 18:53:46 by eja",
  "dcmmeta_affine": [
    [-2.6707375049591064, -0.19284644722938538, 0.16860337555408478, 117.52903747558594],
    [-0.19989484548568726, 2.6732285022735596, -0.11018909513950348, -93.06896209716797],
    [0.15906140208244324, 0.12147743999958038, 2.692476749420166, -89.68680572509766],
    [0.0, 0.0, 0.0, 1.0]
],
  "dcmmeta_reorient_transform": [
    [0.0, -1.0, 0.0, 81.0],
    [1.0, 0.0, 0.0, 0.0],
    [0.0, 0.0, 1.0, 0.0],
    [0.0, 0.0, 0.0, 1.0]
],
  "dcmmeta_shape": [82, 82, 56, 914],
  "dcmmeta_slice_dim": 2,
  "dcmmeta_version": 0.6,
  "global": {
    "const": {
      "AccessionNumber": "A004523",
      "AcquisitionMatrix": [82, 0, 0, 82],
      "AngioFlag": "N",
      "BitsAllocated": 16,
      "BitsStored": 16,
      "BodyPartExamined": "BRAIN",
      "Columns": 656,
      "EchoNumbers": 1,
      "EchoTime": 27.2,
      "EchoTrainLength": 82,
      "FlipAngle": 44.0,
      "HighBit": 15,
      "ImageOrientationPatient": [0.99545664192326, 0.0745062599707, 0.05928651850161, -0.0718791288609, 0.99638511521721, -0.0452779527783],
      "ImagePositionPatient": [-813.06317785162, -948.04892142597, -90.633728621164],
      "ImageType": [
        "ORIGINAL",
        "PRIMARY",
        "M",
        "MB",
        "ND",
        "NORM",
        "MOSAIC"
],
      "ImagedNucleus": "1H",
      "ImagingFrequency": 123.259104,
      "InPlanePhaseEncodingDirection": "COL",
      "MRAcquisitionType": "2D",
      "MagneticFieldStrength": 3.0,
      "Manufacturer": "SIEMENS",
      "ManufacturerModelName": "Prisma",
      "Modality": "MR",
      "NumberOfAverages": 1.0,
      "NumberOfPhaseEncodingSteps": 82,
      "PercentPhaseFieldOfView": 100.0,
      "PercentSampling": 100.0,
      "PerformedProcedureStepStartTime": "141814.635000",
      "PhotometricInterpretation": "MONOCHROME2",
      "PixelBandwidth": 3050.0,
      "PixelRepresentation": 0,
      "PixelSpacing": [2.6829268932343, 2.6829268932343],
      "ProtocolName": "func_run-03_task-faces_acq-ap-mb8",
      "RepetitionTime": 460.0,
      "Rows": 656,
      "SAR": 0.08636890990889,
      "SamplesPerPixel": 1,
      "ScanOptions": "FS",
      "ScanningSequence": "EP",
      "SequenceName": "epfid2d1_82",
      "SequenceVariant": [
        "SK",
        "SS"
],
      "SeriesDescription": "func_run-03_task-faces_acq-ap-mb8",
      "SeriesNumber": 20,
      "SeriesTime": "153052.099000",
      "SliceLocation": -78.29950524846,
      "SliceThickness": 2.7000000476837,
      "SmallestImagePixelValue": 0,
      "SoftwareVersions": "syngo MR E11",
      "SpacingBetweenSlices": 2.7000000708176,
      "SpecificCharacterSet": "ISO_IR 100",
      "StudyID": "2",
      "StudyTime": "141814.555000",
      "TransmitCoilName": "Body",
      "VariableFlipAngleFlag": "N",
      "WindowCenterWidthExplanation": "Algo1"
    },
    "slices": {}
  },
  "time": {
    "samples": {
      "AcquisitionNumber": [1, 2, 3, 4, 5, 6, 7, 8, 9, 10, 11, 12, 13, 14, 15, 16, 17, 18, 19, 20, 21, 22, 23, 24, 25, 26, 27, 28, 29, 30, 31, 32, 33, 34, 35, 36, 37, 38, 39, 40, 41, 42, 43, 44, 45, 46, 47, 48, 49, 50, 51, 52, 53, 54, 55, 56, 57, 58, 59, 60, 61, 62, 63, 64, 65, 66, 67, 68, 69, 70, 71, 72, 73, 74, 75, 76, 77, 78, 79, 80, 81, 82, 83, 84, 85, 86, 87, 88, 89, 90, 91, 92, 93, 94, 95, 96, 97, 98, 99, 100, 101, 102, 103, 104, 105, 106, 107, 108, 109, 110, 111, 112, 113, 114, 115, 116, 117, 118, 119, 120, 121, 122, 123, 124, 125, 126, 127, 128, 129, 130, 131, 132, 133, 134, 135, 136, 137, 138, 139, 140, 141, 142, 143, 144, 145, 146, 147, 148, 149, 150, 151, 152, 153, 154, 155, 156, 157, 158, 159, 160, 161, 162, 163, 164, 165, 166, 167, 168, 169, 170, 171, 172, 173, 174, 175, 176, 177, 178, 179, 180, 181, 182, 183, 184, 185, 186, 187, 188, 189, 190, 191, 192, 193, 194, 195, 196, 197, 198, 199, 200, 201, 202, 203, 204, 205, 206, 207, 208, 209, 210, 211, 212, 213, 214, 215, 216, 217, 218, 219, 220, 221, 222, 223, 224, 225, 226, 227, 228, 229, 230, 231, 232, 233, 234, 235, 236, 237, 238, 239, 240, 241, 242, 243, 244, 245, 246, 247, 248, 249, 250, 251, 252, 253, 254, 255, 256, 257, 258, 259, 260, 261, 262, 263, 264, 265, 266, 267, 268, 269, 270, 271, 272, 273, 274, 275, 276, 277, 278, 279, 280, 281, 282, 283, 284, 285, 286, 287, 288, 289, 290, 291, 292, 293, 294, 295, 296, 297, 298, 299, 300, 301, 302, 303, 304, 305, 306, 307, 308, 309, 310, 311, 312, 313, 314, 315, 316, 317, 318, 319, 320, 321, 322, 323, 324, 325, 326, 327, 328, 329, 330, 331, 332, 333, 334, 335, 336, 337, 338, 339, 340, 341, 342, 343, 344, 345, 346, 347, 348, 349, 350, 351, 352, 353, 354, 355, 356, 357, 358, 359, 360, 361, 362, 363, 364, 365, 366, 367, 368, 369, 370, 371, 372, 373, 374, 375, 376, 377, 378, 379, 380, 381, 382, 383, 384, 385, 386, 387, 388, 389, 390, 391, 392, 393, 394, 395, 396, 397, 398, 399, 400, 401, 402, 403, 404, 405, 406, 407, 408, 409, 410, 411, 412, 413, 414, 415, 416, 417, 418, 419, 420, 421, 422, 423, 424, 425, 426, 427, 428, 429, 430, 431, 432, 433, 434, 435, 436, 437, 438, 439, 440, 441, 442, 443, 444, 445, 446, 447, 448, 449, 450, 451, 452, 453, 454, 455, 456, 457, 458, 459, 460, 461, 462, 463, 464, 465, 466, 467, 468, 469, 470, 471, 472, 473, 474, 475, 476, 477, 478, 479, 480, 481, 482, 483, 484, 485, 486, 487, 488, 489, 490, 491, 492, 493, 494, 495, 496, 497, 498, 499, 500, 501, 502, 503, 504, 505, 506, 507, 508, 509, 510, 511, 512, 513, 514, 515, 516, 517, 518, 519, 520, 521, 522, 523, 524, 525, 526, 527, 528, 529, 530, 531, 532, 533, 534, 535, 536, 537, 538, 539, 540, 541, 542, 543, 544, 545, 546, 547, 548, 549, 550, 551, 552, 553, 554, 555, 556, 557, 558, 559, 560, 561, 562, 563, 564, 565, 566, 567, 568, 569, 570, 571, 572, 573, 574, 575, 576, 577, 578, 579, 580, 581, 582, 583, 584, 585, 586, 587, 588, 589, 590, 591, 592, 593, 594, 595, 596, 597, 598, 599, 600, 601, 602, 603, 604, 605, 606, 607, 608, 609, 610, 611, 612, 613, 614, 615, 616, 617, 618, 619, 620, 621, 622, 623, 624, 625, 626, 627, 628, 629, 630, 631, 632, 633, 634, 635, 636, 637, 638, 639, 640, 641, 642, 643, 644, 645, 646, 647, 648, 649, 650, 651, 652, 653, 654, 655, 656, 657, 658, 659, 660, 661, 662, 663, 664, 665, 666, 667, 668, 669, 670, 671, 672, 673, 674, 675, 676, 677, 678, 679, 680, 681, 682, 683, 684, 685, 686, 687, 688, 689, 690, 691, 692, 693, 694, 695, 696, 697, 698, 699, 700, 701, 702, 703, 704, 705, 706, 707, 708, 709, 710, 711, 712, 713, 714, 715, 716, 717, 718, 719, 720, 721, 722, 723, 724, 725, 726, 727, 728, 729, 730, 731, 732, 733, 734, 735, 736, 737, 738, 739, 740, 741, 742, 743, 744, 745, 746, 747, 748, 749, 750, 751, 752, 753, 754, 755, 756, 757, 758, 759, 760, 761, 762, 763, 764, 765, 766, 767, 768, 769, 770, 771, 772, 773, 774, 775, 776, 777, 778, 779, 780, 781, 782, 783, 784, 785, 786, 787, 788, 789, 790, 791, 792, 793, 794, 795, 796, 797, 798, 799, 800, 801, 802, 803, 804, 805, 806, 807, 808, 809, 810, 811, 812, 813, 814, 815, 816, 817, 818, 819, 820, 821, 822, 823, 824, 825, 826, 827, 828, 829, 830, 831, 832, 833, 834, 835, 836, 837, 838, 839, 840, 841, 842, 843, 844, 845, 846, 847, 848, 849, 850, 851, 852, 853, 854, 855, 856, 857, 858, 859, 860, 861, 862, 863, 864, 865, 866, 867, 868, 869, 870, 871, 872, 873, 874, 875, 876, 877, 878, 879, 880, 881, 882, 883, 884, 885, 886, 887, 888, 889, 890, 891, 892, 893, 894, 895, 896, 897, 898, 899, 900, 901, 902, 903, 904, 905, 906, 907, 908, 909, 910, 911, 912, 913, 914],
      "AcquisitionTime": ["153041.992500", "153042.452500", "153042.912500", "153043.372500", "153043.832500", "153044.292500", "153044.752500", "153045.212500", "153045.672500", "153046.132500", "153046.592500", "153047.052500", "153047.512500", "153047.972500", "153048.432500", "153048.892500", "153049.352500", "153049.812500", "153050.272500", "153050.732500", "153051.192500", "153051.652500", "153052.112500", "153052.572500", "153053.032500", "153053.492500", "153053.952500", "153054.412500", "153054.872500", "153055.332500", "153055.792500", "153056.252500", "153056.712500", "153057.172500", "153057.632500", "153058.092500", "153058.552500", "153059.012500", "153059.472500", "153059.932500", "153100.392500", "153100.852500", "153101.312500", "153101.772500", "153102.232500", "153102.692500", "153103.152500", "153103.612500", "153104.072500", "153104.532500", "153104.992500", "153105.452500", "153105.912500", "153106.372500", "153106.832500", "153107.292500", "153107.752500", "153108.212500", "153108.672500", "153109.132500", "153109.592500", "153110.052500", "153110.512500", "153110.972500", "153111.432500", "153111.892500", "153112.352500", "153112.812500", "153113.272500", "153113.732500", "153114.192500", "153114.652500", "153115.112500", "153115.572500", "153116.032500", "153116.492500", "153116.952500", "153117.412500", "153117.872500", "153118.332500", "153118.792500", "153119.252500", "153119.712500", "153120.172500", "153120.632500", "153121.092500", "153121.552500", "153122.012500", "153122.472500", "153122.932500", "153123.392500", "153123.852500", "153124.312500", "153124.772500", "153125.232500", "153125.692500", "153126.152500", "153126.612500", "153127.072500", "153127.532500", "153127.992500", "153128.452500", "153128.912500", "153129.372500", "153129.832500", "153130.292500", "153130.752500", "153131.212500", "153131.672500", "153132.132500", "153132.592500", "153133.052500", "153133.512500", "153133.972500", "153134.432500", "153134.892500", "153135.352500", "153135.812500", "153136.272500", "153136.732500", "153137.192500", "153137.652500", "153138.112500", "153138.572500", "153139.032500", "153139.492500", "153139.952500", "153140.412500", "153140.872500", "153141.332500", "153141.792500", "153142.252500", "153142.712500", "153143.172500", "153143.632500", "153144.092500", "153144.552500", "153145.012500", "153145.472500", "153145.932500", "153146.392500", "153146.852500", "153147.312500", "153147.772500", "153148.232500", "153148.692500", "153149.152500", "153149.612500", "153150.072500", "153150.532500", "153150.992500", "153151.452500", "153151.912500", "153152.372500", "153152.832500", "153153.292500", "153153.752500", "153154.212500", "153154.672500", "153155.132500", "153155.592500", "153156.052500", "153156.512500", "153156.972500", "153157.432500", "153157.892500", "153158.352500", "153158.812500", "153159.272500", "153159.732500", "153200.192500", "153200.652500", "153201.112500", "153201.572500", "153202.032500", "153202.492500", "153202.952500", "153203.412500", "153203.872500", "153204.332500", "153204.792500", "153205.252500", "153205.712500", "153206.172500", "153206.632500", "153207.092500", "153207.552500", "153208.012500", "153208.472500", "153208.932500", "153209.392500", "153209.852500", "153210.312500", "153210.772500", "153211.232500", "153211.692500", "153212.152500", "153212.612500", "153213.072500", "153213.532500", "153213.992500", "153214.452500", "153214.912500", "153215.372500", "153215.832500", "153216.292500", "153216.752500", "153217.212500", "153217.672500", "153218.132500", "153218.592500", "153219.052500", "153219.512500", "153219.972500", "153220.432500", "153220.892500", "153221.352500", "153221.812500", "153222.272500", "153222.732500", "153223.192500", "153223.652500", "153224.112500", "153224.572500", "153225.032500", "153225.492500", "153225.952500", "153226.412500", "153226.872500", "153227.332500", "153227.792500", "153228.252500", "153228.712500", "153229.172500", "153229.632500", "153230.092500", "153230.552500", "153231.012500", "153231.472500", "153231.932500", "153232.392500", "153232.852500", "153233.312500", "153233.772500", "153234.232500", "153234.692500", "153235.152500", "153235.612500", "153236.072500", "153236.532500", "153236.992500", "153237.452500", "153237.912500", "153238.372500", "153238.832500", "153239.292500", "153239.752500", "153240.212500", "153240.672500", "153241.132500", "153241.592500", "153242.052500", "153242.512500", "153242.972500", "153243.432500", "153243.892500", "153244.352500", "153244.812500", "153245.272500", "153245.732500", "153246.192500", "153246.652500", "153247.112500", "153247.572500", "153248.032500", "153248.492500", "153248.952500", "153249.412500", "153249.872500", "153250.332500", "153250.792500", "153251.252500", "153251.712500", "153252.172500", "153252.632500", "153253.092500", "153253.552500", "153254.012500", "153254.472500", "153254.932500", "153255.392500", "153255.852500", "153256.312500", "153256.772500", "153257.232500", "153257.692500", "153258.152500", "153258.612500", "153259.072500", "153259.532500", "153259.992500", "153300.452500", "153300.912500", "153301.372500", "153301.832500", "153302.292500", "153302.752500", "153303.212500", "153303.672500", "153304.132500", "153304.592500", "153305.052500", "153305.512500", "153305.972500", "153306.432500", "153306.892500", "153307.352500", "153307.812500", "153308.272500", "153308.732500", "153309.192500", "153309.652500", "153310.112500", "153310.572500", "153311.032500", "153311.492500", "153311.952500", "153312.412500", "153312.872500", "153313.332500", "153313.792500", "153314.252500", "153314.712500", "153315.172500", "153315.632500", "153316.092500", "153316.552500", "153317.012500", "153317.472500", "153317.932500", "153318.392500", "153318.852500", "153319.312500", "153319.772500", "153320.232500", "153320.692500", "153321.152500", "153321.612500", "153322.072500", "153322.532500", "153322.992500", "153323.452500", "153323.912500", "153324.372500", "153324.832500", "153325.292500", "153325.752500", "153326.212500", "153326.672500", "153327.132500", "153327.592500", "153328.052500", "153328.512500", "153328.972500", "153329.432500", "153329.892500", "153330.352500", "153330.812500", "153331.272500", "153331.732500", "153332.192500", "153332.652500", "153333.112500", "153333.572500", "153334.032500", "153334.492500", "153334.952500", "153335.412500", "153335.872500", "153336.332500", "153336.792500", "153337.252500", "153337.712500", "153338.172500", "153338.632500", "153339.092500", "153339.552500", "153340.012500", "153340.472500", "153340.932500", "153341.392500", "153341.852500", "153342.312500", "153342.772500", "153343.232500", "153343.692500", "153344.152500", "153344.612500", "153345.072500", "153345.532500", "153345.992500", "153346.452500", "153346.912500", "153347.372500", "153347.832500", "153348.292500", "153348.752500", "153349.212500", "153349.672500", "153350.132500", "153350.592500", "153351.052500", "153351.512500", "153351.972500", "153352.432500", "153352.892500", "153353.352500", "153353.812500", "153354.272500", "153354.732500", "153355.192500", "153355.652500", "153356.112500", "153356.572500", "153357.032500", "153357.492500", "153357.952500", "153358.412500", "153358.872500", "153359.332500", "153359.792500", "153400.252500", "153400.712500", "153401.172500", "153401.632500", "153402.092500", "153402.552500", "153403.012500", "153403.472500", "153403.932500", "153404.392500", "153404.852500", "153405.312500", "153405.772500", "153406.232500", "153406.692500", "153407.152500", "153407.612500", "153408.072500", "153408.532500", "153408.992500", "153409.452500", "153409.912500", "153410.372500", "153410.832500", "153411.292500", "153411.752500", "153412.212500", "153412.672500", "153413.132500", "153413.592500", "153414.052500", "153414.512500", "153414.972500", "153415.432500", "153415.892500", "153416.352500", "153416.812500", "153417.272500", "153417.732500", "153418.192500", "153418.652500", "153419.112500", "153419.572500", "153420.032500", "153420.492500", "153420.952500", "153421.412500", "153421.872500", "153422.332500", "153422.792500", "153423.252500", "153423.712500", "153424.172500", "153424.632500", "153425.092500", "153425.552500", "153426.012500", "153426.472500", "153426.932500", "153427.392500", "153427.852500", "153428.312500", "153428.772500", "153429.232500", "153429.692500", "153430.152500", "153430.612500", "153431.072500", "153431.532500", "153431.992500", "153432.452500", "153432.912500", "153433.372500", "153433.832500", "153434.292500", "153434.752500", "153435.212500", "153435.672500", "153436.132500", "153436.592500", "153437.052500", "153437.512500", "153437.972500", "153438.432500", "153438.892500", "153439.352500", "153439.812500", "153440.272500", "153440.732500", "153441.192500", "153441.652500", "153442.112500", "153442.572500", "153443.032500", "153443.492500", "153443.952500", "153444.412500", "153444.872500", "153445.332500", "153445.792500", "153446.252500", "153446.712500", "153447.172500", "153447.632500", "153448.092500", "153448.552500", "153449.012500", "153449.472500", "153449.932500", "153450.392500", "153450.852500", "153451.312500", "153451.772500", "153452.232500", "153452.692500", "153453.152500", "153453.612500", "153454.072500", "153454.532500", "153454.992500", "153455.452500", "153455.912500", "153456.372500", "153456.832500", "153457.292500", "153457.752500", "153458.212500", "153458.672500", "153459.132500", "153459.592500", "153500.052500", "153500.512500", "153500.972500", "153501.432500", "153501.892500", "153502.352500", "153502.812500", "153503.272500", "153503.732500", "153504.192500", "153504.652500", "153505.112500", "153505.572500", "153506.032500", "153506.492500", "153506.952500", "153507.412500", "153507.872500", "153508.332500", "153508.792500", "153509.252500", "153509.712500", "153510.172500", "153510.632500", "153511.092500", "153511.552500", "153512.012500", "153512.472500", "153512.932500", "153513.392500", "153513.852500", "153514.312500", "153514.772500", "153515.232500", "153515.692500", "153516.152500", "153516.612500", "153517.072500", "153517.532500", "153517.992500", "153518.452500", "153518.912500", "153519.372500", "153519.832500", "153520.292500", "153520.752500", "153521.212500", "153521.672500", "153522.132500", "153522.592500", "153523.052500", "153523.512500", "153523.972500", "153524.432500", "153524.892500", "153525.352500", "153525.812500", "153526.272500", "153526.732500", "153527.192500", "153527.652500", "153528.112500", "153528.572500", "153529.032500", "153529.492500", "153529.952500", "153530.412500", "153530.872500", "153531.332500", "153531.792500", "153532.252500", "153532.712500", "153533.172500", "153533.632500", "153534.092500", "153534.552500", "153535.012500", "153535.472500", "153535.932500", "153536.392500", "153536.852500", "153537.312500", "153537.772500", "153538.232500", "153538.692500", "153539.152500", "153539.612500", "153540.072500", "153540.532500", "153540.992500", "153541.452500", "153541.912500", "153542.372500", "153542.832500", "153543.292500", "153543.752500", "153544.212500", "153544.672500", "153545.132500", "153545.592500", "153546.052500", "153546.512500", "153546.972500", "153547.432500", "153547.892500", "153548.352500", "153548.812500", "153549.272500", "153549.732500", "153550.192500", "153550.652500", "153551.112500", "153551.572500", "153552.032500", "153552.492500", "153552.952500", "153553.412500", "153553.872500", "153554.332500", "153554.792500", "153555.252500", "153555.712500", "153556.172500", "153556.632500", "153557.092500", "153557.552500", "153558.012500", "153558.472500", "153558.932500", "153559.392500", "153559.852500", "153600.312500", "153600.772500", "153601.232500", "153601.692500", "153602.152500", "153602.612500", "153603.072500", "153603.532500", "153603.992500", "153604.452500", "153604.912500", "153605.372500", "153605.832500", "153606.292500", "153606.752500", "153607.212500", "153607.672500", "153608.132500", "153608.592500", "153609.052500", "153609.512500", "153609.972500", "153610.432500", "153610.892500", "153611.352500", "153611.812500", "153612.272500", "153612.732500", "153613.192500", "153613.652500", "153614.112500", "153614.572500", "153615.032500", "153615.492500", "153615.952500", "153616.412500", "153616.872500", "153617.332500", "153617.792500", "153618.252500", "153618.712500", "153619.172500", "153619.632500", "153620.092500", "153620.552500", "153621.012500", "153621.472500", "153621.932500", "153622.392500", "153622.852500", "153623.312500", "153623.772500", "153624.232500", "153624.692500", "153625.152500", "153625.612500", "153626.072500", "153626.532500", "153626.992500", "153627.452500", "153627.912500", "153628.372500", "153628.832500", "153629.292500", "153629.752500", "153630.212500", "153630.672500", "153631.132500", "153631.592500", "153632.052500", "153632.512500", "153632.972500", "153633.432500", "153633.892500", "153634.352500", "153634.812500", "153635.272500", "153635.732500", "153636.192500", "153636.652500", "153637.112500", "153637.572500", "153638.032500", "153638.492500", "153638.952500", "153639.412500", "153639.872500", "153640.332500", "153640.792500", "153641.252500", "153641.712500", "153642.172500", "153642.632500", "153643.092500", "153643.552500", "153644.012500", "153644.472500", "153644.932500", "153645.392500", "153645.852500", "153646.312500", "153646.772500", "153647.232500", "153647.692500", "153648.152500", "153648.612500", "153649.072500", "153649.532500", "153649.992500", "153650.452500", "153650.912500", "153651.372500", "153651.832500", "153652.292500", "153652.752500", "153653.212500", "153653.672500", "153654.132500", "153654.592500", "153655.052500", "153655.512500", "153655.972500", "153656.432500", "153656.892500", "153657.352500", "153657.812500", "153658.272500", "153658.732500", "153659.192500", "153659.652500", "153700.112500", "153700.572500", "153701.032500", "153701.492500", "153701.952500", "153702.412500", "153702.872500", "153703.332500", "153703.792500", "153704.252500", "153704.712500", "153705.172500", "153705.632500", "153706.092500", "153706.552500", "153707.012500", "153707.472500", "153707.932500", "153708.392500", "153708.852500", "153709.312500", "153709.772500", "153710.232500", "153710.692500", "153711.152500", "153711.612500", "153712.072500", "153712.532500", "153712.992500", "153713.452500", "153713.912500", "153714.372500", "153714.832500", "153715.292500", "153715.752500", "153716.212500", "153716.672500", "153717.132500", "153717.592500", "153718.052500", "153718.512500", "153718.972500", "153719.432500", "153719.892500", "153720.352500", "153720.812500", "153721.272500", "153721.732500", "153722.192500", "153722.652500", "153723.112500", "153723.572500", "153724.032500", "153724.492500", "153724.952500", "153725.412500", "153725.872500", "153726.332500", "153726.792500", "153727.252500", "153727.712500", "153728.172500", "153728.632500", "153729.092500", "153729.552500", "153730.012500", "153730.472500", "153730.932500", "153731.392500", "153731.852500", "153732.312500", "153732.772500", "153733.232500", "153733.692500", "153734.152500", "153734.612500", "153735.072500", "153735.532500", "153735.992500", "153736.452500", "153736.912500", "153737.372500", "153737.832500", "153738.292500", "153738.752500", "153739.212500", "153739.672500", "153740.132500", "153740.592500", "153741.052500", "153741.512500", "153741.972500"],
