{
  "AcquisitionMatrixPE": 82,
  "AcquisitionNumber": 1,
  "AcquisitionTime": "14:12:31.172500",
  "BandwidthPerPixelPhaseEncode": 24.888,
  "BaseResolution": 82,
  "BodyPartExamined": "BRAIN",
  "ConsistencyInfo": "N4_VE11C_LATEST_20160120",
  "ConversionSoftware": "dcm2niix",
  "ConversionSoftwareVersion": "v1.0.20201102",
  "DerivedVendorReportedEchoSpacing": 0.00049,
  "DeviceSerialNumber": "66112",
  "DwellTime": 2e-06,
  "EchoTime": 0.0272,
  "EchoTrainLength": 82,
  "EffectiveEchoSpacing": 0.00049,
  "FlipAngle": 44,
  "ImageComments": "Unaliased MB8/PE3",
  "ImageOrientationPatientDICOM": [0.999904, -0.00851624, 0.0109753, 0.00802794, 0.999008, 0.0437921],
  "ImageType": [
    "ORIGINAL",
    "PRIMARY",
    "M",
    "MB",
    "ND",
    "NORM",
    "MOSAIC"
],
  "ImagingFrequency": 123.252,
  "InPlanePhaseEncodingDirectionDICOM": "COL",
  "InstitutionAddress": "Maynard 3,Hanover,NH,US,03755",
  "InstitutionName": "Dartmouth College - PBS",
  "InstitutionalDepartmentName": "Department",
  "MRAcquisitionType": "2D",
  "MagneticFieldStrength": 3,
  "Manufacturer": "Siemens",
  "ManufacturersModelName": "Prisma",
  "Modality": "MR",
  "MultibandAccelerationFactor": 8,
  "PartialFourier": 1,
  "PatientPosition": "HFS",
  "PercentPhaseFOV": 100,
  "PercentSampling": 100,
  "PhaseEncodingDirection": "j-",
  "PhaseEncodingSteps": 82,
  "PhaseResolution": 1,
  "PixelBandwidth": 3050,
  "ProcedureStepDescription": "Wager_Wager^1076_spacetop",
  "ProtocolName": "func_run-04_task-alignvideo_acq-ap-mb8",
  "PulseSequenceDetails": "%CustomerSeq%\\cmrr_mbep2d_bold",
  "ReceiveCoilActiveElements": "HEA;HEP",
  "ReceiveCoilName": "Head_32",
  "ReconMatrixPE": 82,
  "RepetitionTime": 0.46,
  "SAR": 0.112742,
  "ScanOptions": "FS",
  "ScanningSequence": "EP",
  "SequenceName": "epfid2d1_82",
  "SequenceVariant": "SK\\SS",
  "SeriesDescription": "func_run-04_task-alignvideo_acq-ap-mb8",
  "SeriesNumber": 34,
  "ShimSetting": [4120, -7716, -7222, 546, -148, -33, -76, 83],
  "SliceThickness": 2.7,
  "SliceTiming": [0, 0.25, 0.0625, 0.3125, 0.125, 0.375, 0.1875, 0, 0.25, 0.0625, 0.3125, 0.125, 0.375, 0.1875, 0, 0.25, 0.0625, 0.3125, 0.125, 0.375, 0.1875, 0, 0.25, 0.0625, 0.3125, 0.125, 0.375, 0.1875, 0, 0.25, 0.0625, 0.3125, 0.125, 0.375, 0.1875, 0, 0.25, 0.0625, 0.3125, 0.125, 0.375, 0.1875, 0, 0.25, 0.0625, 0.3125, 0.125, 0.375, 0.1875, 0, 0.25, 0.0625, 0.3125, 0.125, 0.375, 0.1875],
  "SoftwareVersions": "syngo MR E11",
  "SpacingBetweenSlices": 2.7,
  "StationName": "AWP66112",
  "TaskName": "alignvideo",
  "TotalReadoutTime": 0.03969,
  "TxRefAmp": 248.528,
  "WipMemBlock": "5453289b-7937-4146-a69d-771ede56db11||Sequence: R016 ve11c/master r/e634e98; Dec 19 2017 11:00:25 by eja",
  "dcmmeta_affine": [
    [-2.6826679706573486, 0.021538371220231056, 0.030610913410782814, 111.05994415283203],
    [0.022848449647426605, 2.6802666187286377, 0.11798947304487228, -102.13367462158203],
    [0.029445962980389595, -0.11749111115932465, 2.69724702835083, -16.792539596557617],
    [0.0, 0.0, 0.0, 1.0]
],
  "dcmmeta_reorient_transform": [
    [0.0, -1.0, 0.0, 81.0],
    [1.0, 0.0, 0.0, 0.0],
    [0.0, 0.0, 1.0, 0.0],
    [0.0, 0.0, 0.0, 1.0]
],
  "dcmmeta_shape": [82, 82, 56, 914],
  "dcmmeta_slice_dim": 2,
  "dcmmeta_version": 0.6,
  "global": {
    "const": {
      "AccessionNumber": "A003474",
      "AcquisitionMatrix": [82, 0, 0, 82],
      "AngioFlag": "N",
      "BitsAllocated": 16,
      "BitsStored": 16,
      "BodyPartExamined": "BRAIN",
      "Columns": 656,
      "EchoNumbers": 1,
      "EchoTime": 27.2,
      "EchoTrainLength": 82,
      "FlipAngle": 44.0,
      "HighBit": 15,
      "ImageOrientationPatient": [0.99990350341678, -0.0085162404159, 0.01097531339135, 0.00802793800344, 0.99900840875225, 0.04379213917725],
      "ImagePositionPatient": [-888.91178166761, -877.64690235869, -68.480258167366],
      "ImageType": [
        "ORIGINAL",
        "PRIMARY",
        "M",
        "MB",
        "ND",
        "NORM",
        "MOSAIC"
],
      "ImagedNucleus": "1H",
      "ImagingFrequency": 123.25213,
      "InPlanePhaseEncodingDirection": "COL",
      "MRAcquisitionType": "2D",
      "MagneticFieldStrength": 3.0,
      "Manufacturer": "SIEMENS",
      "ManufacturerModelName": "Prisma",
      "Modality": "MR",
      "NumberOfAverages": 1.0,
      "NumberOfPhaseEncodingSteps": 82,
      "PercentPhaseFieldOfView": 100.0,
      "PercentSampling": 100.0,
      "PerformedProcedureStepStartTime": "120000.711000",
      "PhotometricInterpretation": "MONOCHROME2",
      "PixelBandwidth": 3050.0,
      "PixelRepresentation": 0,
      "PixelSpacing": [2.6829268932343, 2.6829268932343],
      "ProtocolName": "func_run-04_task-alignvideo_acq-ap-mb8",
      "RepetitionTime": 460.0,
      "Rows": 656,
      "SAR": 0.11274159931663,
      "SamplesPerPixel": 1,
      "ScanOptions": "FS",
      "ScanningSequence": "EP",
      "SequenceName": "epfid2d1_82",
      "SequenceVariant": [
        "SK",
        "SS"
],
      "SeriesDescription": "func_run-04_task-alignvideo_acq-ap-mb8",
      "SeriesNumber": 34,
      "SeriesTime": "141254.345000",
      "SliceLocation": -19.979510208275,
      "SliceThickness": 2.7000000476837,
      "SmallestImagePixelValue": 0,
      "SoftwareVersions": "syngo MR E11",
      "SpacingBetweenSlices": 2.7000000575695,
      "SpecificCharacterSet": "ISO_IR 100",
      "StudyID": "1",
      "StudyTime": "120000.578000",
      "TransmitCoilName": "Body",
      "VariableFlipAngleFlag": "N",
      "WindowCenterWidthExplanation": "Algo1",
      "dBdt": 0.0},
    "slices": {}
  },
  "time": {
    "samples": {
      "AcquisitionNumber": [1, 2, 3, 4, 5, 6, 7, 8, 9, 10, 11, 12, 13, 14, 15, 16, 17, 18, 19, 20, 21, 22, 23, 24, 25, 26, 27, 28, 29, 30, 31, 32, 33, 34, 35, 36, 37, 38, 39, 40, 41, 42, 43, 44, 45, 46, 47, 48, 49, 50, 51, 52, 53, 54, 55, 56, 57, 58, 59, 60, 61, 62, 63, 64, 65, 66, 67, 68, 69, 70, 71, 72, 73, 74, 75, 76, 77, 78, 79, 80, 81, 82, 83, 84, 85, 86, 87, 88, 89, 90, 91, 92, 93, 94, 95, 96, 97, 98, 99, 100, 101, 102, 103, 104, 105, 106, 107, 108, 109, 110, 111, 112, 113, 114, 115, 116, 117, 118, 119, 120, 121, 122, 123, 124, 125, 126, 127, 128, 129, 130, 131, 132, 133, 134, 135, 136, 137, 138, 139, 140, 141, 142, 143, 144, 145, 146, 147, 148, 149, 150, 151, 152, 153, 154, 155, 156, 157, 158, 159, 160, 161, 162, 163, 164, 165, 166, 167, 168, 169, 170, 171, 172, 173, 174, 175, 176, 177, 178, 179, 180, 181, 182, 183, 184, 185, 186, 187, 188, 189, 190, 191, 192, 193, 194, 195, 196, 197, 198, 199, 200, 201, 202, 203, 204, 205, 206, 207, 208, 209, 210, 211, 212, 213, 214, 215, 216, 217, 218, 219, 220, 221, 222, 223, 224, 225, 226, 227, 228, 229, 230, 231, 232, 233, 234, 235, 236, 237, 238, 239, 240, 241, 242, 243, 244, 245, 246, 247, 248, 249, 250, 251, 252, 253, 254, 255, 256, 257, 258, 259, 260, 261, 262, 263, 264, 265, 266, 267, 268, 269, 270, 271, 272, 273, 274, 275, 276, 277, 278, 279, 280, 281, 282, 283, 284, 285, 286, 287, 288, 289, 290, 291, 292, 293, 294, 295, 296, 297, 298, 299, 300, 301, 302, 303, 304, 305, 306, 307, 308, 309, 310, 311, 312, 313, 314, 315, 316, 317, 318, 319, 320, 321, 322, 323, 324, 325, 326, 327, 328, 329, 330, 331, 332, 333, 334, 335, 336, 337, 338, 339, 340, 341, 342, 343, 344, 345, 346, 347, 348, 349, 350, 351, 352, 353, 354, 355, 356, 357, 358, 359, 360, 361, 362, 363, 364, 365, 366, 367, 368, 369, 370, 371, 372, 373, 374, 375, 376, 377, 378, 379, 380, 381, 382, 383, 384, 385, 386, 387, 388, 389, 390, 391, 392, 393, 394, 395, 396, 397, 398, 399, 400, 401, 402, 403, 404, 405, 406, 407, 408, 409, 410, 411, 412, 413, 414, 415, 416, 417, 418, 419, 420, 421, 422, 423, 424, 425, 426, 427, 428, 429, 430, 431, 432, 433, 434, 435, 436, 437, 438, 439, 440, 441, 442, 443, 444, 445, 446, 447, 448, 449, 450, 451, 452, 453, 454, 455, 456, 457, 458, 459, 460, 461, 462, 463, 464, 465, 466, 467, 468, 469, 470, 471, 472, 473, 474, 475, 476, 477, 478, 479, 480, 481, 482, 483, 484, 485, 486, 487, 488, 489, 490, 491, 492, 493, 494, 495, 496, 497, 498, 499, 500, 501, 502, 503, 504, 505, 506, 507, 508, 509, 510, 511, 512, 513, 514, 515, 516, 517, 518, 519, 520, 521, 522, 523, 524, 525, 526, 527, 528, 529, 530, 531, 532, 533, 534, 535, 536, 537, 538, 539, 540, 541, 542, 543, 544, 545, 546, 547, 548, 549, 550, 551, 552, 553, 554, 555, 556, 557, 558, 559, 560, 561, 562, 563, 564, 565, 566, 567, 568, 569, 570, 571, 572, 573, 574, 575, 576, 577, 578, 579, 580, 581, 582, 583, 584, 585, 586, 587, 588, 589, 590, 591, 592, 593, 594, 595, 596, 597, 598, 599, 600, 601, 602, 603, 604, 605, 606, 607, 608, 609, 610, 611, 612, 613, 614, 615, 616, 617, 618, 619, 620, 621, 622, 623, 624, 625, 626, 627, 628, 629, 630, 631, 632, 633, 634, 635, 636, 637, 638, 639, 640, 641, 642, 643, 644, 645, 646, 647, 648, 649, 650, 651, 652, 653, 654, 655, 656, 657, 658, 659, 660, 661, 662, 663, 664, 665, 666, 667, 668, 669, 670, 671, 672, 673, 674, 675, 676, 677, 678, 679, 680, 681, 682, 683, 684, 685, 686, 687, 688, 689, 690, 691, 692, 693, 694, 695, 696, 697, 698, 699, 700, 701, 702, 703, 704, 705, 706, 707, 708, 709, 710, 711, 712, 713, 714, 715, 716, 717, 718, 719, 720, 721, 722, 723, 724, 725, 726, 727, 728, 729, 730, 731, 732, 733, 734, 735, 736, 737, 738, 739, 740, 741, 742, 743, 744, 745, 746, 747, 748, 749, 750, 751, 752, 753, 754, 755, 756, 757, 758, 759, 760, 761, 762, 763, 764, 765, 766, 767, 768, 769, 770, 771, 772, 773, 774, 775, 776, 777, 778, 779, 780, 781, 782, 783, 784, 785, 786, 787, 788, 789, 790, 791, 792, 793, 794, 795, 796, 797, 798, 799, 800, 801, 802, 803, 804, 805, 806, 807, 808, 809, 810, 811, 812, 813, 814, 815, 816, 817, 818, 819, 820, 821, 822, 823, 824, 825, 826, 827, 828, 829, 830, 831, 832, 833, 834, 835, 836, 837, 838, 839, 840, 841, 842, 843, 844, 845, 846, 847, 848, 849, 850, 851, 852, 853, 854, 855, 856, 857, 858, 859, 860, 861, 862, 863, 864, 865, 866, 867, 868, 869, 870, 871, 872, 873, 874, 875, 876, 877, 878, 879, 880, 881, 882, 883, 884, 885, 886, 887, 888, 889, 890, 891, 892, 893, 894, 895, 896, 897, 898, 899, 900, 901, 902, 903, 904, 905, 906, 907, 908, 909, 910, 911, 912, 913, 914],
      "AcquisitionTime": ["141231.172500", "141231.632500", "141232.092500", "141232.552500", "141233.012500", "141233.472500", "141233.932500", "141234.392500", "141234.852500", "141235.312500", "141235.772500", "141236.232500", "141236.692500", "141237.152500", "141237.612500", "141238.072500", "141238.532500", "141238.992500", "141239.452500", "141239.912500", "141240.372500", "141240.832500", "141241.292500", "141241.752500", "141242.212500", "141242.672500", "141243.132500", "141243.592500", "141244.052500", "141244.512500", "141244.972500", "141245.432500", "141245.892500", "141246.352500", "141246.812500", "141247.272500", "141247.732500", "141248.192500", "141248.652500", "141249.112500", "141249.572500", "141250.032500", "141250.492500", "141250.952500", "141251.412500", "141251.872500", "141252.332500", "141252.792500", "141253.252500", "141253.712500", "141254.172500", "141254.632500", "141255.092500", "141255.552500", "141256.012500", "141256.472500", "141256.932500", "141257.392500", "141257.852500", "141258.312500", "141258.772500", "141259.232500", "141259.692500", "141300.152500", "141300.612500", "141301.072500", "141301.532500", "141301.992500", "141302.452500", "141302.912500", "141303.372500", "141303.832500", "141304.292500", "141304.752500", "141305.212500", "141305.672500", "141306.132500", "141306.592500", "141307.052500", "141307.512500", "141307.972500", "141308.432500", "141308.892500", "141309.352500", "141309.812500", "141310.272500", "141310.732500", "141311.192500", "141311.652500", "141312.112500", "141312.572500", "141313.032500", "141313.492500", "141313.952500", "141314.412500", "141314.872500", "141315.332500", "141315.792500", "141316.252500", "141316.712500", "141317.172500", "141317.632500", "141318.092500", "141318.552500", "141319.012500", "141319.472500", "141319.932500", "141320.392500", "141320.852500", "141321.312500", "141321.772500", "141322.232500", "141322.692500", "141323.152500", "141323.612500", "141324.072500", "141324.532500", "141324.992500", "141325.452500", "141325.912500", "141326.372500", "141326.832500", "141327.292500", "141327.752500", "141328.212500", "141328.672500", "141329.132500", "141329.592500", "141330.052500", "141330.512500", "141330.972500", "141331.432500", "141331.892500", "141332.352500", "141332.812500", "141333.272500", "141333.732500", "141334.192500", "141334.652500", "141335.112500", "141335.572500", "141336.032500", "141336.492500", "141336.952500", "141337.412500", "141337.872500", "141338.332500", "141338.792500", "141339.252500", "141339.712500", "141340.172500", "141340.632500", "141341.092500", "141341.552500", "141342.012500", "141342.472500", "141342.932500", "141343.392500", "141343.852500", "141344.312500", "141344.772500", "141345.232500", "141345.692500", "141346.152500", "141346.612500", "141347.072500", "141347.532500", "141347.992500", "141348.452500", "141348.912500", "141349.372500", "141349.832500", "141350.292500", "141350.752500", "141351.212500", "141351.672500", "141352.132500", "141352.592500", "141353.052500", "141353.512500", "141353.972500", "141354.432500", "141354.892500", "141355.352500", "141355.812500", "141356.272500", "141356.732500", "141357.192500", "141357.652500", "141358.112500", "141358.572500", "141359.032500", "141359.492500", "141359.952500", "141400.412500", "141400.872500", "141401.332500", "141401.792500", "141402.252500", "141402.712500", "141403.172500", "141403.632500", "141404.092500", "141404.552500", "141405.012500", "141405.472500", "141405.932500", "141406.392500", "141406.852500", "141407.312500", "141407.772500", "141408.232500", "141408.692500", "141409.152500", "141409.612500", "141410.072500", "141410.532500", "141410.992500", "141411.452500", "141411.912500", "141412.372500", "141412.832500", "141413.292500", "141413.752500", "141414.212500", "141414.672500", "141415.132500", "141415.592500", "141416.052500", "141416.512500", "141416.972500", "141417.432500", "141417.892500", "141418.352500", "141418.812500", "141419.272500", "141419.732500", "141420.192500", "141420.652500", "141421.112500", "141421.572500", "141422.032500", "141422.492500", "141422.952500", "141423.412500", "141423.872500", "141424.332500", "141424.792500", "141425.252500", "141425.712500", "141426.172500", "141426.632500", "141427.092500", "141427.552500", "141428.012500", "141428.472500", "141428.932500", "141429.392500", "141429.852500", "141430.312500", "141430.772500", "141431.232500", "141431.692500", "141432.152500", "141432.612500", "141433.072500", "141433.532500", "141433.992500", "141434.452500", "141434.912500", "141435.372500", "141435.832500", "141436.292500", "141436.752500", "141437.212500", "141437.672500", "141438.132500", "141438.592500", "141439.052500", "141439.512500", "141439.972500", "141440.432500", "141440.892500", "141441.352500", "141441.812500", "141442.272500", "141442.732500", "141443.192500", "141443.652500", "141444.112500", "141444.572500", "141445.032500", "141445.492500", "141445.952500", "141446.412500", "141446.872500", "141447.332500", "141447.792500", "141448.252500", "141448.712500", "141449.172500", "141449.632500", "141450.092500", "141450.552500", "141451.012500", "141451.472500", "141451.932500", "141452.392500", "141452.852500", "141453.312500", "141453.772500", "141454.232500", "141454.692500", "141455.152500", "141455.612500", "141456.072500", "141456.532500", "141456.992500", "141457.452500", "141457.912500", "141458.372500", "141458.832500", "141459.292500", "141459.752500", "141500.212500", "141500.672500", "141501.132500", "141501.592500", "141502.052500", "141502.512500", "141502.972500", "141503.432500", "141503.892500", "141504.352500", "141504.812500", "141505.272500", "141505.732500", "141506.192500", "141506.652500", "141507.112500", "141507.572500", "141508.032500", "141508.492500", "141508.952500", "141509.412500", "141509.872500", "141510.332500", "141510.792500", "141511.252500", "141511.712500", "141512.172500", "141512.632500", "141513.092500", "141513.552500", "141514.012500", "141514.472500", "141514.932500", "141515.392500", "141515.852500", "141516.312500", "141516.772500", "141517.232500", "141517.692500", "141518.152500", "141518.612500", "141519.072500", "141519.532500", "141519.992500", "141520.452500", "141520.912500", "141521.372500", "141521.832500", "141522.292500", "141522.752500", "141523.212500", "141523.672500", "141524.132500", "141524.592500", "141525.052500", "141525.512500", "141525.972500", "141526.432500", "141526.892500", "141527.352500", "141527.812500", "141528.272500", "141528.732500", "141529.192500", "141529.652500", "141530.112500", "141530.572500", "141531.032500", "141531.492500", "141531.952500", "141532.412500", "141532.872500", "141533.332500", "141533.792500", "141534.252500", "141534.712500", "141535.172500", "141535.632500", "141536.092500", "141536.552500", "141537.012500", "141537.472500", "141537.932500", "141538.392500", "141538.852500", "141539.312500", "141539.772500", "141540.232500", "141540.692500", "141541.152500", "141541.612500", "141542.072500", "141542.532500", "141542.992500", "141543.452500", "141543.912500", "141544.372500", "141544.832500", "141545.292500", "141545.752500", "141546.212500", "141546.672500", "141547.132500", "141547.592500", "141548.052500", "141548.512500", "141548.972500", "141549.432500", "141549.892500", "141550.352500", "141550.812500", "141551.272500", "141551.732500", "141552.192500", "141552.652500", "141553.112500", "141553.572500", "141554.032500", "141554.492500", "141554.952500", "141555.412500", "141555.872500", "141556.332500", "141556.792500", "141557.252500", "141557.712500", "141558.172500", "141558.632500", "141559.092500", "141559.552500", "141600.012500", "141600.472500", "141600.932500", "141601.392500", "141601.852500", "141602.312500", "141602.772500", "141603.232500", "141603.692500", "141604.152500", "141604.612500", "141605.072500", "141605.532500", "141605.992500", "141606.452500", "141606.912500", "141607.372500", "141607.832500", "141608.292500", "141608.752500", "141609.212500", "141609.672500", "141610.132500", "141610.592500", "141611.052500", "141611.512500", "141611.972500", "141612.432500", "141612.892500", "141613.352500", "141613.812500", "141614.272500", "141614.732500", "141615.192500", "141615.652500", "141616.112500", "141616.572500", "141617.032500", "141617.492500", "141617.952500", "141618.412500", "141618.872500", "141619.332500", "141619.792500", "141620.252500", "141620.712500", "141621.172500", "141621.632500", "141622.092500", "141622.552500", "141623.012500", "141623.472500", "141623.932500", "141624.392500", "141624.852500", "141625.312500", "141625.772500", "141626.232500", "141626.692500", "141627.152500", "141627.612500", "141628.072500", "141628.532500", "141628.992500", "141629.452500", "141629.912500", "141630.372500", "141630.832500", "141631.292500", "141631.752500", "141632.212500", "141632.672500", "141633.132500", "141633.592500", "141634.052500", "141634.512500", "141634.972500", "141635.432500", "141635.892500", "141636.352500", "141636.812500", "141637.272500", "141637.732500", "141638.192500", "141638.652500", "141639.112500", "141639.572500", "141640.032500", "141640.492500", "141640.952500", "141641.412500", "141641.872500", "141642.332500", "141642.792500", "141643.252500", "141643.712500", "141644.172500", "141644.632500", "141645.092500", "141645.552500", "141646.012500", "141646.472500", "141646.932500", "141647.392500", "141647.852500", "141648.312500", "141648.772500", "141649.232500", "141649.692500", "141650.152500", "141650.612500", "141651.072500", "141651.532500", "141651.992500", "141652.452500", "141652.912500", "141653.372500", "141653.832500", "141654.292500", "141654.752500", "141655.212500", "141655.672500", "141656.132500", "141656.592500", "141657.052500", "141657.512500", "141657.972500", "141658.432500", "141658.892500", "141659.352500", "141659.812500", "141700.272500", "141700.732500", "141701.192500", "141701.652500", "141702.112500", "141702.572500", "141703.032500", "141703.492500", "141703.952500", "141704.412500", "141704.872500", "141705.332500", "141705.792500", "141706.252500", "141706.712500", "141707.172500", "141707.632500", "141708.092500", "141708.552500", "141709.012500", "141709.472500", "141709.932500", "141710.392500", "141710.852500", "141711.312500", "141711.772500", "141712.232500", "141712.692500", "141713.152500", "141713.612500", "141714.072500", "141714.532500", "141714.992500", "141715.452500", "141715.912500", "141716.372500", "141716.832500", "141717.292500", "141717.752500", "141718.212500", "141718.672500", "141719.132500", "141719.592500", "141720.052500", "141720.512500", "141720.972500", "141721.432500", "141721.892500", "141722.352500", "141722.812500", "141723.272500", "141723.732500", "141724.192500", "141724.652500", "141725.112500", "141725.572500", "141726.032500", "141726.492500", "141726.952500", "141727.412500", "141727.872500", "141728.332500", "141728.792500", "141729.252500", "141729.712500", "141730.172500", "141730.632500", "141731.092500", "141731.552500", "141732.012500", "141732.472500", "141732.932500", "141733.392500", "141733.852500", "141734.312500", "141734.772500", "141735.232500", "141735.692500", "141736.152500", "141736.612500", "141737.072500", "141737.532500", "141737.992500", "141738.452500", "141738.912500", "141739.372500", "141739.832500", "141740.292500", "141740.752500", "141741.212500", "141741.672500", "141742.132500", "141742.592500", "141743.052500", "141743.512500", "141743.972500", "141744.432500", "141744.892500", "141745.352500", "141745.812500", "141746.272500", "141746.732500", "141747.192500", "141747.652500", "141748.112500", "141748.572500", "141749.032500", "141749.492500", "141749.952500", "141750.412500", "141750.872500", "141751.332500", "141751.792500", "141752.252500", "141752.712500", "141753.172500", "141753.632500", "141754.092500", "141754.552500", "141755.012500", "141755.472500", "141755.932500", "141756.392500", "141756.852500", "141757.312500", "141757.772500", "141758.232500", "141758.692500", "141759.152500", "141759.612500", "141800.072500", "141800.532500", "141800.992500", "141801.452500", "141801.912500", "141802.372500", "141802.832500", "141803.292500", "141803.752500", "141804.212500", "141804.672500", "141805.132500", "141805.592500", "141806.052500", "141806.512500", "141806.972500", "141807.432500", "141807.892500", "141808.352500", "141808.812500", "141809.272500", "141809.732500", "141810.192500", "141810.652500", "141811.112500", "141811.572500", "141812.032500", "141812.492500", "141812.952500", "141813.412500", "141813.872500", "141814.332500", "141814.792500", "141815.252500", "141815.712500", "141816.172500", "141816.632500", "141817.092500", "141817.552500", "141818.012500", "141818.472500", "141818.932500", "141819.392500", "141819.852500", "141820.312500", "141820.772500", "141821.232500", "141821.692500", "141822.152500", "141822.612500", "141823.072500", "141823.532500", "141823.992500", "141824.452500", "141824.912500", "141825.372500", "141825.832500", "141826.292500", "141826.752500", "141827.212500", "141827.672500", "141828.132500", "141828.592500", "141829.052500", "141829.512500", "141829.972500", "141830.432500", "141830.892500", "141831.352500", "141831.812500", "141832.272500", "141832.732500", "141833.192500", "141833.652500", "141834.112500", "141834.572500", "141835.032500", "141835.492500", "141835.952500", "141836.412500", "141836.872500", "141837.332500", "141837.792500", "141838.252500", "141838.712500", "141839.172500", "141839.632500", "141840.092500", "141840.552500", "141841.012500", "141841.472500", "141841.932500", "141842.392500", "141842.852500", "141843.312500", "141843.772500", "141844.232500", "141844.692500", "141845.152500", "141845.612500", "141846.072500", "141846.532500", "141846.992500", "141847.452500", "141847.912500", "141848.372500", "141848.832500", "141849.292500", "141849.752500", "141850.212500", "141850.672500", "141851.132500", "141851.592500", "141852.052500", "141852.512500", "141852.972500", "141853.432500", "141853.892500", "141854.352500", "141854.812500", "141855.272500", "141855.732500", "141856.192500", "141856.652500", "141857.112500", "141857.572500", "141858.032500", "141858.492500", "141858.952500", "141859.412500", "141859.872500", "141900.332500", "141900.792500", "141901.252500", "141901.712500", "141902.172500", "141902.632500", "141903.092500", "141903.552500", "141904.012500", "141904.472500", "141904.932500", "141905.392500", "141905.852500", "141906.312500", "141906.772500", "141907.232500", "141907.692500", "141908.152500", "141908.612500", "141909.072500", "141909.532500", "141909.992500", "141910.452500", "141910.912500", "141911.372500", "141911.832500", "141912.292500", "141912.752500", "141913.212500", "141913.672500", "141914.132500", "141914.592500", "141915.052500", "141915.512500", "141915.972500", "141916.432500", "141916.892500", "141917.352500", "141917.812500", "141918.272500", "141918.732500", "141919.192500", "141919.652500", "141920.112500", "141920.572500", "141921.032500", "141921.492500", "141921.952500", "141922.412500", "141922.872500", "141923.332500", "141923.792500", "141924.252500", "141924.712500", "141925.172500", "141925.632500", "141926.092500", "141926.552500", "141927.012500", "141927.472500", "141927.932500", "141928.392500", "141928.852500", "141929.312500", "141929.772500", "141930.232500", "141930.692500", "141931.152500"],
