{
  "AcquisitionMatrixPE": 82,
  "AcquisitionNumber": 1,
  "AcquisitionTime": "13:42:9.700000",
  "BandwidthPerPixelPhaseEncode": 24.888,
  "BaseResolution": 82,
  "BodyPartExamined": "BRAIN",
  "ConsistencyInfo": "N4_VE11C_LATEST_20160120",
  "ConversionSoftware": "dcm2niix",
  "ConversionSoftwareVersion": "v1.0.20201102",
  "DerivedVendorReportedEchoSpacing": 0.00049,
  "DeviceSerialNumber": "66112",
  "DwellTime": 2e-06,
  "EchoTime": 0.0272,
  "EchoTrainLength": 82,
  "EffectiveEchoSpacing": 0.00049,
  "FlipAngle": 44,
  "ImageComments": "Unaliased MB8/PE3",
  "ImageOrientationPatientDICOM": [0.999904, -0.00851624, 0.0109753, 0.00802794, 0.999008, 0.0437921],
  "ImageType": [
    "ORIGINAL",
    "PRIMARY",
    "M",
    "MB",
    "ND",
    "NORM",
    "MOSAIC"
],
  "ImagingFrequency": 123.252,
  "InPlanePhaseEncodingDirectionDICOM": "COL",
  "InstitutionAddress": "Maynard 3,Hanover,NH,US,03755",
  "InstitutionName": "Dartmouth College - PBS",
  "InstitutionalDepartmentName": "Department",
  "MRAcquisitionType": "2D",
  "MagneticFieldStrength": 3,
  "Manufacturer": "Siemens",
  "ManufacturersModelName": "Prisma",
  "Modality": "MR",
  "MultibandAccelerationFactor": 8,
  "PartialFourier": 1,
  "PatientPosition": "HFS",
  "PercentPhaseFOV": 100,
  "PercentSampling": 100,
  "PhaseEncodingDirection": "j-",
  "PhaseEncodingSteps": 82,
  "PhaseResolution": 1,
  "PixelBandwidth": 3050,
  "ProcedureStepDescription": "Wager_Wager^1076_spacetop",
  "ProtocolName": "func_run-01_task-alignvideo_acq-ap-mb8",
  "PulseSequenceDetails": "%CustomerSeq%\\cmrr_mbep2d_bold",
  "ReceiveCoilActiveElements": "HEA;HEP",
  "ReceiveCoilName": "Head_32",
  "ReconMatrixPE": 82,
  "RepetitionTime": 0.46,
  "SAR": 0.112682,
  "ScanOptions": "FS",
  "ScanningSequence": "EP",
  "SequenceName": "epfid2d1_82",
  "SequenceVariant": "SK\\SS",
  "SeriesDescription": "func_run-01_task-alignvideo_acq-ap-mb8",
  "SeriesNumber": 28,
  "ShimSetting": [4120, -7716, -7222, 546, -148, -33, -76, 83],
  "SliceThickness": 2.7,
  "SliceTiming": [0, 0.2525, 0.0625, 0.315, 0.1275, 0.3775, 0.19, 0, 0.2525, 0.0625, 0.315, 0.1275, 0.3775, 0.19, 0, 0.2525, 0.0625, 0.315, 0.1275, 0.3775, 0.19, 0, 0.2525, 0.0625, 0.315, 0.1275, 0.3775, 0.19, 0, 0.2525, 0.0625, 0.315, 0.1275, 0.3775, 0.19, 0, 0.2525, 0.0625, 0.315, 0.1275, 0.3775, 0.19, 0, 0.2525, 0.0625, 0.315, 0.1275, 0.3775, 0.19, 0, 0.2525, 0.0625, 0.315, 0.1275, 0.3775, 0.19],
  "SoftwareVersions": "syngo MR E11",
  "SpacingBetweenSlices": 2.7,
  "StationName": "AWP66112",
  "TaskName": "alignvideo",
  "TotalReadoutTime": 0.03969,
  "TxRefAmp": 248.528,
  "WipMemBlock": "a847ad5d-013b-4a1d-a10f-1261ce92f659||Sequence: R016 ve11c/master r/e634e98; Dec 19 2017 11:00:25 by eja",
  "dcmmeta_affine": [
    [-2.6826679706573486, 0.021538371220231056, 0.030610913410782814, 111.05994415283203],
    [0.022848449647426605, 2.6802666187286377, 0.11798947304487228, -102.13367462158203],
    [0.029445962980389595, -0.11749111115932465, 2.69724702835083, -16.792539596557617],
    [0.0, 0.0, 0.0, 1.0]
],
  "dcmmeta_reorient_transform": [
    [0.0, -1.0, 0.0, 81.0],
    [1.0, 0.0, 0.0, 0.0],
    [0.0, 0.0, 1.0, 0.0],
    [0.0, 0.0, 0.0, 1.0]
],
  "dcmmeta_shape": [82, 82, 56, 839],
  "dcmmeta_slice_dim": 2,
  "dcmmeta_version": 0.6,
  "global": {
    "const": {
      "AccessionNumber": "A003474",
      "AcquisitionMatrix": [82, 0, 0, 82],
      "AngioFlag": "N",
      "BitsAllocated": 16,
      "BitsStored": 16,
      "BodyPartExamined": "BRAIN",
      "Columns": 656,
      "EchoNumbers": 1,
      "EchoTime": 27.2,
      "EchoTrainLength": 82,
      "FlipAngle": 44.0,
      "HighBit": 15,
      "ImageOrientationPatient": [0.99990350341678, -0.0085162404159, 0.01097531339135, 0.00802793800344, 0.99900840875225, 0.04379213917725],
      "ImagePositionPatient": [-888.91178166761, -877.64690235869, -68.480258167366],
      "ImageType": [
        "ORIGINAL",
        "PRIMARY",
        "M",
        "MB",
        "ND",
        "NORM",
        "MOSAIC"
],
      "ImagedNucleus": "1H",
      "ImagingFrequency": 123.252122,
      "InPlanePhaseEncodingDirection": "COL",
      "MRAcquisitionType": "2D",
      "MagneticFieldStrength": 3.0,
      "Manufacturer": "SIEMENS",
      "ManufacturerModelName": "Prisma",
      "Modality": "MR",
      "NumberOfAverages": 1.0,
      "NumberOfPhaseEncodingSteps": 82,
      "PercentPhaseFieldOfView": 100.0,
      "PercentSampling": 100.0,
      "PerformedProcedureStepStartTime": "120000.711000",
      "PhotometricInterpretation": "MONOCHROME2",
      "PixelBandwidth": 3050.0,
      "PixelRepresentation": 0,
      "PixelSpacing": [2.6829268932343, 2.6829268932343],
      "ProtocolName": "func_run-01_task-alignvideo_acq-ap-mb8",
      "RepetitionTime": 460.0,
      "Rows": 656,
      "SAR": 0.11268193444078,
      "SamplesPerPixel": 1,
      "ScanOptions": "FS",
      "ScanningSequence": "EP",
      "SequenceName": "epfid2d1_82",
      "SequenceVariant": [
        "SK",
        "SS"
],
      "SeriesDescription": "func_run-01_task-alignvideo_acq-ap-mb8",
      "SeriesNumber": 28,
      "SeriesTime": "134234.332000",
      "SliceLocation": -19.979510208275,
      "SliceThickness": 2.7000000476837,
      "SmallestImagePixelValue": 0,
      "SoftwareVersions": "syngo MR E11",
      "SpacingBetweenSlices": 2.7000000575695,
      "SpecificCharacterSet": "ISO_IR 100",
      "StudyID": "1",
      "StudyTime": "120000.578000",
      "TransmitCoilName": "Body",
      "VariableFlipAngleFlag": "N",
      "WindowCenterWidthExplanation": "Algo1",
      "dBdt": 0.0},
    "slices": {}
  },
  "time": {
    "samples": {
      "AcquisitionNumber": [1, 2, 3, 4, 5, 6, 7, 8, 9, 10, 11, 12, 13, 14, 15, 16, 17, 18, 19, 20, 21, 22, 23, 24, 25, 26, 27, 28, 29, 30, 31, 32, 33, 34, 35, 36, 37, 38, 39, 40, 41, 42, 43, 44, 45, 46, 47, 48, 49, 50, 51, 52, 53, 54, 55, 56, 57, 58, 59, 60, 61, 62, 63, 64, 65, 66, 67, 68, 69, 70, 71, 72, 73, 74, 75, 76, 77, 78, 79, 80, 81, 82, 83, 84, 85, 86, 87, 88, 89, 90, 91, 92, 93, 94, 95, 96, 97, 98, 99, 100, 101, 102, 103, 104, 105, 106, 107, 108, 109, 110, 111, 112, 113, 114, 115, 116, 117, 118, 119, 120, 121, 122, 123, 124, 125, 126, 127, 128, 129, 130, 131, 132, 133, 134, 135, 136, 137, 138, 139, 140, 141, 142, 143, 144, 145, 146, 147, 148, 149, 150, 151, 152, 153, 154, 155, 156, 157, 158, 159, 160, 161, 162, 163, 164, 165, 166, 167, 168, 169, 170, 171, 172, 173, 174, 175, 176, 177, 178, 179, 180, 181, 182, 183, 184, 185, 186, 187, 188, 189, 190, 191, 192, 193, 194, 195, 196, 197, 198, 199, 200, 201, 202, 203, 204, 205, 206, 207, 208, 209, 210, 211, 212, 213, 214, 215, 216, 217, 218, 219, 220, 221, 222, 223, 224, 225, 226, 227, 228, 229, 230, 231, 232, 233, 234, 235, 236, 237, 238, 239, 240, 241, 242, 243, 244, 245, 246, 247, 248, 249, 250, 251, 252, 253, 254, 255, 256, 257, 258, 259, 260, 261, 262, 263, 264, 265, 266, 267, 268, 269, 270, 271, 272, 273, 274, 275, 276, 277, 278, 279, 280, 281, 282, 283, 284, 285, 286, 287, 288, 289, 290, 291, 292, 293, 294, 295, 296, 297, 298, 299, 300, 301, 302, 303, 304, 305, 306, 307, 308, 309, 310, 311, 312, 313, 314, 315, 316, 317, 318, 319, 320, 321, 322, 323, 324, 325, 326, 327, 328, 329, 330, 331, 332, 333, 334, 335, 336, 337, 338, 339, 340, 341, 342, 343, 344, 345, 346, 347, 348, 349, 350, 351, 352, 353, 354, 355, 356, 357, 358, 359, 360, 361, 362, 363, 364, 365, 366, 367, 368, 369, 370, 371, 372, 373, 374, 375, 376, 377, 378, 379, 380, 381, 382, 383, 384, 385, 386, 387, 388, 389, 390, 391, 392, 393, 394, 395, 396, 397, 398, 399, 400, 401, 402, 403, 404, 405, 406, 407, 408, 409, 410, 411, 412, 413, 414, 415, 416, 417, 418, 419, 420, 421, 422, 423, 424, 425, 426, 427, 428, 429, 430, 431, 432, 433, 434, 435, 436, 437, 438, 439, 440, 441, 442, 443, 444, 445, 446, 447, 448, 449, 450, 451, 452, 453, 454, 455, 456, 457, 458, 459, 460, 461, 462, 463, 464, 465, 466, 467, 468, 469, 470, 471, 472, 473, 474, 475, 476, 477, 478, 479, 480, 481, 482, 483, 484, 485, 486, 487, 488, 489, 490, 491, 492, 493, 494, 495, 496, 497, 498, 499, 500, 501, 502, 503, 504, 505, 506, 507, 508, 509, 510, 511, 512, 513, 514, 515, 516, 517, 518, 519, 520, 521, 522, 523, 524, 525, 526, 527, 528, 529, 530, 531, 532, 533, 534, 535, 536, 537, 538, 539, 540, 541, 542, 543, 544, 545, 546, 547, 548, 549, 550, 551, 552, 553, 554, 555, 556, 557, 558, 559, 560, 561, 562, 563, 564, 565, 566, 567, 568, 569, 570, 571, 572, 573, 574, 575, 576, 577, 578, 579, 580, 581, 582, 583, 584, 585, 586, 587, 588, 589, 590, 591, 592, 593, 594, 595, 596, 597, 598, 599, 600, 601, 602, 603, 604, 605, 606, 607, 608, 609, 610, 611, 612, 613, 614, 615, 616, 617, 618, 619, 620, 621, 622, 623, 624, 625, 626, 627, 628, 629, 630, 631, 632, 633, 634, 635, 636, 637, 638, 639, 640, 641, 642, 643, 644, 645, 646, 647, 648, 649, 650, 651, 652, 653, 654, 655, 656, 657, 658, 659, 660, 661, 662, 663, 664, 665, 666, 667, 668, 669, 670, 671, 672, 673, 674, 675, 676, 677, 678, 679, 680, 681, 682, 683, 684, 685, 686, 687, 688, 689, 690, 691, 692, 693, 694, 695, 696, 697, 698, 699, 700, 701, 702, 703, 704, 705, 706, 707, 708, 709, 710, 711, 712, 713, 714, 715, 716, 717, 718, 719, 720, 721, 722, 723, 724, 725, 726, 727, 728, 729, 730, 731, 732, 733, 734, 735, 736, 737, 738, 739, 740, 741, 742, 743, 744, 745, 746, 747, 748, 749, 750, 751, 752, 753, 754, 755, 756, 757, 758, 759, 760, 761, 762, 763, 764, 765, 766, 767, 768, 769, 770, 771, 772, 773, 774, 775, 776, 777, 778, 779, 780, 781, 782, 783, 784, 785, 786, 787, 788, 789, 790, 791, 792, 793, 794, 795, 796, 797, 798, 799, 800, 801, 802, 803, 804, 805, 806, 807, 808, 809, 810, 811, 812, 813, 814, 815, 816, 817, 818, 819, 820, 821, 822, 823, 824, 825, 826, 827, 828, 829, 830, 831, 832, 833, 834, 835, 836, 837, 838, 839],
      "AcquisitionTime": ["134209.700000", "134210.160000", "134210.620000", "134211.080000", "134211.540000", "134212.000000", "134212.460000", "134212.920000", "134213.380000", "134213.840000", "134214.300000", "134214.760000", "134215.220000", "134215.680000", "134216.140000", "134216.600000", "134217.060000", "134217.520000", "134217.980000", "134218.440000", "134218.900000", "134219.360000", "134219.820000", "134220.280000", "134220.740000", "134221.200000", "134221.660000", "134222.120000", "134222.580000", "134223.040000", "134223.500000", "134223.960000", "134224.420000", "134224.880000", "134225.340000", "134225.800000", "134226.260000", "134226.720000", "134227.180000", "134227.640000", "134228.100000", "134228.560000", "134229.020000", "134229.480000", "134229.940000", "134230.400000", "134230.860000", "134231.320000", "134231.780000", "134232.240000", "134232.700000", "134233.160000", "134233.620000", "134234.080000", "134234.540000", "134235.000000", "134235.460000", "134235.920000", "134236.380000", "134236.840000", "134237.300000", "134237.760000", "134238.220000", "134238.680000", "134239.140000", "134239.600000", "134240.060000", "134240.520000", "134240.980000", "134241.440000", "134241.900000", "134242.360000", "134242.820000", "134243.280000", "134243.740000", "134244.200000", "134244.660000", "134245.120000", "134245.580000", "134246.040000", "134246.500000", "134246.960000", "134247.420000", "134247.880000", "134248.340000", "134248.800000", "134249.260000", "134249.720000", "134250.180000", "134250.640000", "134251.100000", "134251.560000", "134252.020000", "134252.480000", "134252.940000", "134253.400000", "134253.860000", "134254.320000", "134254.780000", "134255.240000", "134255.700000", "134256.160000", "134256.620000", "134257.080000", "134257.540000", "134258.000000", "134258.460000", "134258.920000", "134259.380000", "134259.840000", "134300.300000", "134300.760000", "134301.220000", "134301.680000", "134302.140000", "134302.600000", "134303.060000", "134303.520000", "134303.980000", "134304.440000", "134304.900000", "134305.360000", "134305.820000", "134306.280000", "134306.740000", "134307.200000", "134307.660000", "134308.120000", "134308.580000", "134309.040000", "134309.500000", "134309.960000", "134310.420000", "134310.880000", "134311.340000", "134311.800000", "134312.260000", "134312.720000", "134313.180000", "134313.640000", "134314.100000", "134314.560000", "134315.020000", "134315.480000", "134315.940000", "134316.400000", "134316.860000", "134317.320000", "134317.780000", "134318.240000", "134318.700000", "134319.160000", "134319.620000", "134320.080000", "134320.540000", "134321.000000", "134321.460000", "134321.920000", "134322.380000", "134322.840000", "134323.300000", "134323.760000", "134324.220000", "134324.680000", "134325.140000", "134325.600000", "134326.060000", "134326.520000", "134326.980000", "134327.440000", "134327.900000", "134328.360000", "134328.820000", "134329.280000", "134329.740000", "134330.200000", "134330.660000", "134331.120000", "134331.580000", "134332.040000", "134332.500000", "134332.960000", "134333.420000", "134333.880000", "134334.340000", "134334.800000", "134335.260000", "134335.720000", "134336.180000", "134336.640000", "134337.100000", "134337.560000", "134338.020000", "134338.480000", "134338.940000", "134339.400000", "134339.860000", "134340.320000", "134340.780000", "134341.240000", "134341.700000", "134342.160000", "134342.620000", "134343.080000", "134343.540000", "134344.000000", "134344.460000", "134344.920000", "134345.380000", "134345.840000", "134346.300000", "134346.760000", "134347.220000", "134347.680000", "134348.140000", "134348.600000", "134349.060000", "134349.520000", "134349.980000", "134350.440000", "134350.900000", "134351.360000", "134351.820000", "134352.280000", "134352.740000", "134353.200000", "134353.660000", "134354.120000", "134354.580000", "134355.040000", "134355.500000", "134355.960000", "134356.420000", "134356.880000", "134357.340000", "134357.800000", "134358.260000", "134358.720000", "134359.180000", "134359.640000", "134400.100000", "134400.560000", "134401.020000", "134401.480000", "134401.940000", "134402.400000", "134402.860000", "134403.320000", "134403.780000", "134404.240000", "134404.700000", "134405.160000", "134405.620000", "134406.080000", "134406.540000", "134407.000000", "134407.460000", "134407.920000", "134408.380000", "134408.840000", "134409.300000", "134409.760000", "134410.220000", "134410.680000", "134411.140000", "134411.600000", "134412.060000", "134412.520000", "134412.980000", "134413.440000", "134413.900000", "134414.360000", "134414.820000", "134415.280000", "134415.740000", "134416.200000", "134416.660000", "134417.120000", "134417.580000", "134418.040000", "134418.500000", "134418.960000", "134419.420000", "134419.880000", "134420.340000", "134420.800000", "134421.260000", "134421.720000", "134422.180000", "134422.640000", "134423.100000", "134423.560000", "134424.020000", "134424.480000", "134424.940000", "134425.400000", "134425.860000", "134426.320000", "134426.780000", "134427.240000", "134427.700000", "134428.160000", "134428.620000", "134429.080000", "134429.540000", "134430.000000", "134430.460000", "134430.920000", "134431.380000", "134431.840000", "134432.300000", "134432.760000", "134433.220000", "134433.680000", "134434.140000", "134434.600000", "134435.060000", "134435.520000", "134435.980000", "134436.440000", "134436.900000", "134437.360000", "134437.820000", "134438.280000", "134438.740000", "134439.200000", "134439.660000", "134440.120000", "134440.580000", "134441.040000", "134441.500000", "134441.960000", "134442.420000", "134442.880000", "134443.340000", "134443.800000", "134444.260000", "134444.720000", "134445.180000", "134445.640000", "134446.100000", "134446.560000", "134447.020000", "134447.480000", "134447.940000", "134448.400000", "134448.860000", "134449.320000", "134449.780000", "134450.240000", "134450.700000", "134451.160000", "134451.620000", "134452.080000", "134452.540000", "134453.000000", "134453.460000", "134453.920000", "134454.380000", "134454.840000", "134455.300000", "134455.760000", "134456.220000", "134456.680000", "134457.140000", "134457.600000", "134458.060000", "134458.520000", "134458.980000", "134459.440000", "134459.900000", "134500.360000", "134500.820000", "134501.280000", "134501.740000", "134502.200000", "134502.660000", "134503.120000", "134503.580000", "134504.040000", "134504.500000", "134504.960000", "134505.420000", "134505.880000", "134506.340000", "134506.800000", "134507.260000", "134507.720000", "134508.180000", "134508.640000", "134509.100000", "134509.560000", "134510.020000", "134510.480000", "134510.940000", "134511.400000", "134511.860000", "134512.320000", "134512.780000", "134513.240000", "134513.700000", "134514.160000", "134514.620000", "134515.080000", "134515.540000", "134516.000000", "134516.460000", "134516.920000", "134517.380000", "134517.840000", "134518.300000", "134518.760000", "134519.220000", "134519.680000", "134520.140000", "134520.600000", "134521.060000", "134521.520000", "134521.980000", "134522.440000", "134522.900000", "134523.360000", "134523.820000", "134524.280000", "134524.740000", "134525.200000", "134525.660000", "134526.120000", "134526.580000", "134527.040000", "134527.500000", "134527.960000", "134528.420000", "134528.880000", "134529.340000", "134529.800000", "134530.260000", "134530.720000", "134531.180000", "134531.640000", "134532.100000", "134532.560000", "134533.020000", "134533.480000", "134533.940000", "134534.400000", "134534.860000", "134535.320000", "134535.780000", "134536.240000", "134536.700000", "134537.160000", "134537.620000", "134538.080000", "134538.540000", "134539.000000", "134539.460000", "134539.920000", "134540.380000", "134540.840000", "134541.300000", "134541.760000", "134542.220000", "134542.680000", "134543.140000", "134543.600000", "134544.060000", "134544.520000", "134544.980000", "134545.440000", "134545.900000", "134546.360000", "134546.820000", "134547.280000", "134547.740000", "134548.200000", "134548.660000", "134549.120000", "134549.580000", "134550.040000", "134550.500000", "134550.960000", "134551.420000", "134551.880000", "134552.340000", "134552.800000", "134553.260000", "134553.720000", "134554.180000", "134554.640000", "134555.100000", "134555.560000", "134556.020000", "134556.480000", "134556.940000", "134557.400000", "134557.860000", "134558.320000", "134558.780000", "134559.240000", "134559.700000", "134600.160000", "134600.620000", "134601.080000", "134601.540000", "134602.000000", "134602.460000", "134602.920000", "134603.380000", "134603.840000", "134604.300000", "134604.760000", "134605.220000", "134605.680000", "134606.140000", "134606.600000", "134607.060000", "134607.520000", "134607.980000", "134608.440000", "134608.900000", "134609.360000", "134609.820000", "134610.280000", "134610.740000", "134611.200000", "134611.660000", "134612.120000", "134612.580000", "134613.040000", "134613.500000", "134613.960000", "134614.420000", "134614.880000", "134615.340000", "134615.800000", "134616.260000", "134616.720000", "134617.180000", "134617.640000", "134618.100000", "134618.560000", "134619.020000", "134619.480000", "134619.940000", "134620.400000", "134620.860000", "134621.320000", "134621.780000", "134622.240000", "134622.700000", "134623.160000", "134623.620000", "134624.080000", "134624.540000", "134625.000000", "134625.460000", "134625.920000", "134626.380000", "134626.840000", "134627.300000", "134627.760000", "134628.220000", "134628.680000", "134629.140000", "134629.600000", "134630.060000", "134630.520000", "134630.980000", "134631.440000", "134631.900000", "134632.360000", "134632.820000", "134633.280000", "134633.740000", "134634.200000", "134634.660000", "134635.120000", "134635.580000", "134636.040000", "134636.500000", "134636.960000", "134637.420000", "134637.880000", "134638.340000", "134638.800000", "134639.260000", "134639.720000", "134640.180000", "134640.640000", "134641.100000", "134641.560000", "134642.020000", "134642.480000", "134642.940000", "134643.400000", "134643.860000", "134644.320000", "134644.780000", "134645.240000", "134645.700000", "134646.160000", "134646.620000", "134647.080000", "134647.540000", "134648.000000", "134648.460000", "134648.920000", "134649.380000", "134649.840000", "134650.300000", "134650.760000", "134651.220000", "134651.680000", "134652.140000", "134652.600000", "134653.060000", "134653.520000", "134653.980000", "134654.440000", "134654.900000", "134655.360000", "134655.820000", "134656.280000", "134656.740000", "134657.200000", "134657.660000", "134658.120000", "134658.580000", "134659.040000", "134659.500000", "134659.960000", "134700.420000", "134700.880000", "134701.340000", "134701.800000", "134702.260000", "134702.720000", "134703.180000", "134703.640000", "134704.100000", "134704.560000", "134705.020000", "134705.480000", "134705.940000", "134706.400000", "134706.860000", "134707.320000", "134707.780000", "134708.240000", "134708.700000", "134709.160000", "134709.620000", "134710.080000", "134710.540000", "134711.000000", "134711.460000", "134711.920000", "134712.380000", "134712.840000", "134713.300000", "134713.760000", "134714.220000", "134714.680000", "134715.140000", "134715.600000", "134716.060000", "134716.520000", "134716.980000", "134717.440000", "134717.900000", "134718.360000", "134718.820000", "134719.280000", "134719.740000", "134720.200000", "134720.660000", "134721.120000", "134721.580000", "134722.040000", "134722.500000", "134722.960000", "134723.420000", "134723.880000", "134724.340000", "134724.800000", "134725.260000", "134725.720000", "134726.180000", "134726.640000", "134727.100000", "134727.560000", "134728.020000", "134728.480000", "134728.940000", "134729.400000", "134729.860000", "134730.320000", "134730.780000", "134731.240000", "134731.700000", "134732.160000", "134732.620000", "134733.080000", "134733.540000", "134734.000000", "134734.460000", "134734.920000", "134735.380000", "134735.840000", "134736.300000", "134736.760000", "134737.220000", "134737.680000", "134738.140000", "134738.600000", "134739.060000", "134739.520000", "134739.980000", "134740.440000", "134740.900000", "134741.360000", "134741.820000", "134742.280000", "134742.740000", "134743.200000", "134743.660000", "134744.120000", "134744.580000", "134745.040000", "134745.500000", "134745.960000", "134746.420000", "134746.880000", "134747.340000", "134747.800000", "134748.260000", "134748.720000", "134749.180000", "134749.640000", "134750.100000", "134750.560000", "134751.020000", "134751.480000", "134751.940000", "134752.400000", "134752.860000", "134753.320000", "134753.780000", "134754.240000", "134754.700000", "134755.160000", "134755.620000", "134756.080000", "134756.540000", "134757.000000", "134757.460000", "134757.920000", "134758.380000", "134758.840000", "134759.300000", "134759.760000", "134800.220000", "134800.680000", "134801.140000", "134801.600000", "134802.060000", "134802.520000", "134802.980000", "134803.440000", "134803.900000", "134804.360000", "134804.820000", "134805.280000", "134805.740000", "134806.200000", "134806.660000", "134807.120000", "134807.580000", "134808.040000", "134808.500000", "134808.960000", "134809.420000", "134809.880000", "134810.340000", "134810.800000", "134811.260000", "134811.720000", "134812.180000", "134812.640000", "134813.100000", "134813.560000", "134814.020000", "134814.480000", "134814.940000", "134815.400000", "134815.860000", "134816.320000", "134816.780000", "134817.240000", "134817.700000", "134818.160000", "134818.620000", "134819.080000", "134819.540000", "134820.000000", "134820.460000", "134820.920000", "134821.380000", "134821.840000", "134822.300000", "134822.760000", "134823.220000", "134823.680000", "134824.140000", "134824.600000", "134825.060000", "134825.520000", "134825.980000", "134826.440000", "134826.900000", "134827.360000", "134827.820000", "134828.280000", "134828.740000", "134829.200000", "134829.660000", "134830.120000", "134830.580000", "134831.040000", "134831.500000", "134831.960000", "134832.420000", "134832.880000", "134833.340000", "134833.800000", "134834.260000", "134834.720000", "134835.180000"],
