{
  "AcquisitionMatrixPE": 82,
  "AcquisitionNumber": 1,
  "AcquisitionTime": "12:03:4.822500",
  "BandwidthPerPixelPhaseEncode": 24.888,
  "BaseResolution": 82,
  "BodyPartExamined": "BRAIN",
  "ConsistencyInfo": "N4_VE11C_LATEST_20160120",
  "ConversionSoftware": "dcm2niix",
  "ConversionSoftwareVersion": "v1.0.20201102",
  "DerivedVendorReportedEchoSpacing": 0.00049,
  "DeviceSerialNumber": "66112",
  "DwellTime": 2e-06,
  "EchoTime": 0.0272,
  "EchoTrainLength": 82,
  "EffectiveEchoSpacing": 0.00049,
  "FlipAngle": 44,
  "ImageComments": "Unaliased MB8/PE3",
  "ImageOrientationPatientDICOM": [0.997689, -0.0543164, 0.0408135, 0.0477479, 0.987902, 0.147543],
  "ImageType": [
    "ORIGINAL",
    "PRIMARY",
    "M",
    "MB",
    "ND",
    "NORM",
    "MOSAIC"
],
  "ImagingFrequency": 123.252,
  "InPlanePhaseEncodingDirectionDICOM": "COL",
  "InstitutionAddress": "Maynard 3,Hanover,NH,US,03755",
  "InstitutionName": "Dartmouth College - PBS",
  "InstitutionalDepartmentName": "Department",
  "MRAcquisitionType": "2D",
  "MagneticFieldStrength": 3,
  "Manufacturer": "Siemens",
  "ManufacturersModelName": "Prisma",
  "Modality": "MR",
  "MultibandAccelerationFactor": 8,
  "PartialFourier": 1,
  "PatientPosition": "HFS",
  "PercentPhaseFOV": 100,
  "PercentSampling": 100,
  "PhaseEncodingDirection": "j-",
  "PhaseEncodingSteps": 82,
  "PhaseResolution": 1,
  "PixelBandwidth": 3050,
  "ProcedureStepDescription": "Wager_Wager^1076_spacetop",
  "ProtocolName": "func_run-05_task-social_acq-ap-mb8",
  "PulseSequenceDetails": "%CustomerSeq%\\cmrr_mbep2d_bold",
  "ReceiveCoilActiveElements": "HEA;HEP",
  "ReceiveCoilName": "Head_32",
  "ReconMatrixPE": 82,
  "RepetitionTime": 0.46,
  "SAR": 0.110622,
  "ScanOptions": "FS",
  "ScanningSequence": "EP",
  "SequenceName": "epfid2d1_82",
  "SequenceVariant": "SK\\SS",
  "SeriesDescription": "func_run-05_task-social_acq-ap-mb8",
  "SeriesNumber": 20,
  "ShimSetting": [4142, -7760, -7247, 655, -33, -150, 51, 91],
  "SliceThickness": 2.7,
  "SliceTiming": [0, 0.25, 0.0625, 0.3125, 0.125, 0.3775, 0.1875, 0, 0.25, 0.0625, 0.3125, 0.125, 0.3775, 0.1875, 0, 0.25, 0.0625, 0.3125, 0.125, 0.3775, 0.1875, 0, 0.25, 0.0625, 0.3125, 0.125, 0.3775, 0.1875, 0, 0.25, 0.0625, 0.3125, 0.125, 0.3775, 0.1875, 0, 0.25, 0.0625, 0.3125, 0.125, 0.3775, 0.1875, 0, 0.25, 0.0625, 0.3125, 0.125, 0.3775, 0.1875, 0, 0.25, 0.0625, 0.3125, 0.125, 0.3775, 0.1875],
  "SoftwareVersions": "syngo MR E11",
  "SpacingBetweenSlices": 2.7,
  "StationName": "AWP66112",
  "TaskName": "social",
  "TotalReadoutTime": 0.03969,
  "TxRefAmp": 251.446,
  "WipMemBlock": "e5051bbf-0d14-439c-84d5-269019dabee6||Sequence: R016 ve11c/master r/e634e98; Dec 19 2017 11:00:25 by eja",
  "dcmmeta_affine": [
    [-2.676727533340454, 0.12810412049293518, 0.13050124049186707, 106.7165756225586],
    [0.14572694897651672, 2.650470018386841, 0.3921830952167511, -108.0225830078125],
    [0.10949975997209549, -0.39584624767303467, 2.66817569732666, -40.65398025512695],
    [0.0, 0.0, 0.0, 1.0]
],
  "dcmmeta_reorient_transform": [
    [0.0, -1.0, 0.0, 81.0],
    [1.0, 0.0, 0.0, 0.0],
    [0.0, 0.0, 1.0, 0.0],
    [0.0, 0.0, 0.0, 1.0]
],
  "dcmmeta_shape": [82, 82, 56, 872],
  "dcmmeta_slice_dim": 2,
  "dcmmeta_version": 0.6,
  "global": {
    "const": {
      "AccessionNumber": "A003774",
      "AcquisitionMatrix": [82, 0, 0, 82],
      "AngioFlag": "N",
      "BitsAllocated": 16,
      "BitsStored": 16,
      "BodyPartExamined": "BRAIN",
      "Columns": 656,
      "EchoNumbers": 1,
      "EchoTime": 27.2,
      "EchoTrainLength": 82,
      "FlipAngle": 44.0,
      "HighBit": 15,
      "ImageOrientationPatient": [0.99768932165169, -0.0543164051923, 0.04081354663814, 0.04774790070073, 0.98790247182309, 0.14754268583875],
      "ImagePositionPatient": [-922.07969251745, -825.52678059001, -217.75182913823],
      "ImageType": [
        "ORIGINAL",
        "PRIMARY",
        "M",
        "MB",
        "ND",
        "NORM",
        "MOSAIC"
],
      "ImagedNucleus": "1H",
      "ImagingFrequency": 123.252192,
      "InPlanePhaseEncodingDirection": "COL",
      "MRAcquisitionType": "2D",
      "MagneticFieldStrength": 3.0,
      "Manufacturer": "SIEMENS",
      "ManufacturerModelName": "Prisma",
      "Modality": "MR",
      "NumberOfAverages": 1.0,
      "NumberOfPhaseEncodingSteps": 82,
      "PercentPhaseFieldOfView": 100.0,
      "PercentSampling": 100.0,
      "PerformedProcedureStepStartTime": "105755.814000",
      "PhotometricInterpretation": "MONOCHROME2",
      "PixelBandwidth": 3050.0,
      "PixelRepresentation": 0,
      "PixelSpacing": [2.6829268932343, 2.6829268932343],
      "ProtocolName": "func_run-05_task-social_acq-ap-mb8",
      "RepetitionTime": 460.0,
      "Rows": 656,
      "SAR": 0.1106222052071,
      "SamplesPerPixel": 1,
      "ScanOptions": "FS",
      "ScanningSequence": "EP",
      "SequenceName": "epfid2d1_82",
      "SequenceVariant": [
        "SK",
        "SS"
],
      "SeriesDescription": "func_run-05_task-social_acq-ap-mb8",
      "SeriesNumber": 20,
      "SeriesTime": "120309.961000",
      "SliceLocation": -50.707390615465,
      "SliceThickness": 2.7000000476837,
      "SmallestImagePixelValue": 0,
      "SoftwareVersions": "syngo MR E11",
      "SpacingBetweenSlices": 2.7000000350141,
      "SpecificCharacterSet": "ISO_IR 100",
      "StudyID": "6",
      "StudyTime": "105755.767000",
      "TransmitCoilName": "Body",
      "VariableFlipAngleFlag": "N",
      "WindowCenterWidthExplanation": "Algo1",
      "dBdt": 0.0},
    "slices": {}
  },
  "time": {
    "samples": {
      "AcquisitionNumber": [1, 2, 3, 4, 5, 6, 7, 8, 9, 10, 11, 12, 13, 14, 15, 16, 17, 18, 19, 20, 21, 22, 23, 24, 25, 26, 27, 28, 29, 30, 31, 32, 33, 34, 35, 36, 37, 38, 39, 40, 41, 42, 43, 44, 45, 46, 47, 48, 49, 50, 51, 52, 53, 54, 55, 56, 57, 58, 59, 60, 61, 62, 63, 64, 65, 66, 67, 68, 69, 70, 71, 72, 73, 74, 75, 76, 77, 78, 79, 80, 81, 82, 83, 84, 85, 86, 87, 88, 89, 90, 91, 92, 93, 94, 95, 96, 97, 98, 99, 100, 101, 102, 103, 104, 105, 106, 107, 108, 109, 110, 111, 112, 113, 114, 115, 116, 117, 118, 119, 120, 121, 122, 123, 124, 125, 126, 127, 128, 129, 130, 131, 132, 133, 134, 135, 136, 137, 138, 139, 140, 141, 142, 143, 144, 145, 146, 147, 148, 149, 150, 151, 152, 153, 154, 155, 156, 157, 158, 159, 160, 161, 162, 163, 164, 165, 166, 167, 168, 169, 170, 171, 172, 173, 174, 175, 176, 177, 178, 179, 180, 181, 182, 183, 184, 185, 186, 187, 188, 189, 190, 191, 192, 193, 194, 195, 196, 197, 198, 199, 200, 201, 202, 203, 204, 205, 206, 207, 208, 209, 210, 211, 212, 213, 214, 215, 216, 217, 218, 219, 220, 221, 222, 223, 224, 225, 226, 227, 228, 229, 230, 231, 232, 233, 234, 235, 236, 237, 238, 239, 240, 241, 242, 243, 244, 245, 246, 247, 248, 249, 250, 251, 252, 253, 254, 255, 256, 257, 258, 259, 260, 261, 262, 263, 264, 265, 266, 267, 268, 269, 270, 271, 272, 273, 274, 275, 276, 277, 278, 279, 280, 281, 282, 283, 284, 285, 286, 287, 288, 289, 290, 291, 292, 293, 294, 295, 296, 297, 298, 299, 300, 301, 302, 303, 304, 305, 306, 307, 308, 309, 310, 311, 312, 313, 314, 315, 316, 317, 318, 319, 320, 321, 322, 323, 324, 325, 326, 327, 328, 329, 330, 331, 332, 333, 334, 335, 336, 337, 338, 339, 340, 341, 342, 343, 344, 345, 346, 347, 348, 349, 350, 351, 352, 353, 354, 355, 356, 357, 358, 359, 360, 361, 362, 363, 364, 365, 366, 367, 368, 369, 370, 371, 372, 373, 374, 375, 376, 377, 378, 379, 380, 381, 382, 383, 384, 385, 386, 387, 388, 389, 390, 391, 392, 393, 394, 395, 396, 397, 398, 399, 400, 401, 402, 403, 404, 405, 406, 407, 408, 409, 410, 411, 412, 413, 414, 415, 416, 417, 418, 419, 420, 421, 422, 423, 424, 425, 426, 427, 428, 429, 430, 431, 432, 433, 434, 435, 436, 437, 438, 439, 440, 441, 442, 443, 444, 445, 446, 447, 448, 449, 450, 451, 452, 453, 454, 455, 456, 457, 458, 459, 460, 461, 462, 463, 464, 465, 466, 467, 468, 469, 470, 471, 472, 473, 474, 475, 476, 477, 478, 479, 480, 481, 482, 483, 484, 485, 486, 487, 488, 489, 490, 491, 492, 493, 494, 495, 496, 497, 498, 499, 500, 501, 502, 503, 504, 505, 506, 507, 508, 509, 510, 511, 512, 513, 514, 515, 516, 517, 518, 519, 520, 521, 522, 523, 524, 525, 526, 527, 528, 529, 530, 531, 532, 533, 534, 535, 536, 537, 538, 539, 540, 541, 542, 543, 544, 545, 546, 547, 548, 549, 550, 551, 552, 553, 554, 555, 556, 557, 558, 559, 560, 561, 562, 563, 564, 565, 566, 567, 568, 569, 570, 571, 572, 573, 574, 575, 576, 577, 578, 579, 580, 581, 582, 583, 584, 585, 586, 587, 588, 589, 590, 591, 592, 593, 594, 595, 596, 597, 598, 599, 600, 601, 602, 603, 604, 605, 606, 607, 608, 609, 610, 611, 612, 613, 614, 615, 616, 617, 618, 619, 620, 621, 622, 623, 624, 625, 626, 627, 628, 629, 630, 631, 632, 633, 634, 635, 636, 637, 638, 639, 640, 641, 642, 643, 644, 645, 646, 647, 648, 649, 650, 651, 652, 653, 654, 655, 656, 657, 658, 659, 660, 661, 662, 663, 664, 665, 666, 667, 668, 669, 670, 671, 672, 673, 674, 675, 676, 677, 678, 679, 680, 681, 682, 683, 684, 685, 686, 687, 688, 689, 690, 691, 692, 693, 694, 695, 696, 697, 698, 699, 700, 701, 702, 703, 704, 705, 706, 707, 708, 709, 710, 711, 712, 713, 714, 715, 716, 717, 718, 719, 720, 721, 722, 723, 724, 725, 726, 727, 728, 729, 730, 731, 732, 733, 734, 735, 736, 737, 738, 739, 740, 741, 742, 743, 744, 745, 746, 747, 748, 749, 750, 751, 752, 753, 754, 755, 756, 757, 758, 759, 760, 761, 762, 763, 764, 765, 766, 767, 768, 769, 770, 771, 772, 773, 774, 775, 776, 777, 778, 779, 780, 781, 782, 783, 784, 785, 786, 787, 788, 789, 790, 791, 792, 793, 794, 795, 796, 797, 798, 799, 800, 801, 802, 803, 804, 805, 806, 807, 808, 809, 810, 811, 812, 813, 814, 815, 816, 817, 818, 819, 820, 821, 822, 823, 824, 825, 826, 827, 828, 829, 830, 831, 832, 833, 834, 835, 836, 837, 838, 839, 840, 841, 842, 843, 844, 845, 846, 847, 848, 849, 850, 851, 852, 853, 854, 855, 856, 857, 858, 859, 860, 861, 862, 863, 864, 865, 866, 867, 868, 869, 870, 871, 872],
      "AcquisitionTime": ["120304.822500", "120305.282500", "120305.742500", "120306.202500", "120306.662500", "120307.122500", "120307.582500", "120308.042500", "120308.502500", "120308.962500", "120309.422500", "120309.882500", "120310.342500", "120310.802500", "120311.262500", "120311.722500", "120312.182500", "120312.642500", "120313.102500", "120313.562500", "120314.022500", "120314.482500", "120314.942500", "120315.402500", "120315.862500", "120316.322500", "120316.782500", "120317.242500", "120317.702500", "120318.162500", "120318.622500", "120319.082500", "120319.542500", "120320.002500", "120320.462500", "120320.922500", "120321.382500", "120321.842500", "120322.302500", "120322.762500", "120323.222500", "120323.682500", "120324.142500", "120324.602500", "120325.062500", "120325.522500", "120325.982500", "120326.442500", "120326.902500", "120327.362500", "120327.822500", "120328.282500", "120328.742500", "120329.202500", "120329.662500", "120330.122500", "120330.582500", "120331.042500", "120331.502500", "120331.962500", "120332.422500", "120332.882500", "120333.342500", "120333.802500", "120334.262500", "120334.722500", "120335.182500", "120335.642500", "120336.102500", "120336.562500", "120337.022500", "120337.482500", "120337.942500", "120338.402500", "120338.862500", "120339.322500", "120339.782500", "120340.242500", "120340.702500", "120341.162500", "120341.622500", "120342.082500", "120342.542500", "120343.002500", "120343.462500", "120343.922500", "120344.382500", "120344.842500", "120345.302500", "120345.762500", "120346.222500", "120346.682500", "120347.142500", "120347.602500", "120348.062500", "120348.522500", "120348.982500", "120349.442500", "120349.902500", "120350.362500", "120350.822500", "120351.282500", "120351.742500", "120352.202500", "120352.662500", "120353.122500", "120353.582500", "120354.042500", "120354.502500", "120354.962500", "120355.422500", "120355.882500", "120356.342500", "120356.802500", "120357.262500", "120357.722500", "120358.182500", "120358.642500", "120359.102500", "120359.562500", "120400.022500", "120400.482500", "120400.942500", "120401.402500", "120401.862500", "120402.322500", "120402.782500", "120403.242500", "120403.702500", "120404.162500", "120404.622500", "120405.082500", "120405.542500", "120406.002500", "120406.462500", "120406.922500", "120407.382500", "120407.842500", "120408.302500", "120408.762500", "120409.222500", "120409.682500", "120410.142500", "120410.602500", "120411.062500", "120411.522500", "120411.982500", "120412.442500", "120412.902500", "120413.362500", "120413.822500", "120414.282500", "120414.742500", "120415.202500", "120415.662500", "120416.122500", "120416.582500", "120417.042500", "120417.502500", "120417.962500", "120418.422500", "120418.882500", "120419.342500", "120419.802500", "120420.262500", "120420.722500", "120421.182500", "120421.642500", "120422.102500", "120422.562500", "120423.022500", "120423.482500", "120423.942500", "120424.402500", "120424.862500", "120425.322500", "120425.782500", "120426.242500", "120426.702500", "120427.162500", "120427.622500", "120428.082500", "120428.542500", "120429.002500", "120429.462500", "120429.922500", "120430.382500", "120430.842500", "120431.302500", "120431.762500", "120432.222500", "120432.682500", "120433.142500", "120433.602500", "120434.062500", "120434.522500", "120434.982500", "120435.442500", "120435.902500", "120436.362500", "120436.822500", "120437.282500", "120437.742500", "120438.202500", "120438.662500", "120439.122500", "120439.582500", "120440.042500", "120440.502500", "120440.962500", "120441.422500", "120441.882500", "120442.342500", "120442.802500", "120443.262500", "120443.722500", "120444.182500", "120444.642500", "120445.102500", "120445.562500", "120446.022500", "120446.482500", "120446.942500", "120447.402500", "120447.862500", "120448.322500", "120448.782500", "120449.242500", "120449.702500", "120450.162500", "120450.622500", "120451.082500", "120451.542500", "120452.002500", "120452.462500", "120452.922500", "120453.382500", "120453.842500", "120454.302500", "120454.762500", "120455.222500", "120455.682500", "120456.142500", "120456.602500", "120457.062500", "120457.522500", "120457.982500", "120458.442500", "120458.902500", "120459.362500", "120459.822500", "120500.282500", "120500.742500", "120501.202500", "120501.662500", "120502.122500", "120502.582500", "120503.042500", "120503.502500", "120503.962500", "120504.422500", "120504.882500", "120505.342500", "120505.802500", "120506.262500", "120506.722500", "120507.182500", "120507.642500", "120508.102500", "120508.562500", "120509.022500", "120509.482500", "120509.942500", "120510.402500", "120510.862500", "120511.322500", "120511.782500", "120512.242500", "120512.702500", "120513.162500", "120513.622500", "120514.082500", "120514.542500", "120515.002500", "120515.462500", "120515.922500", "120516.382500", "120516.842500", "120517.302500", "120517.762500", "120518.222500", "120518.682500", "120519.142500", "120519.602500", "120520.062500", "120520.522500", "120520.982500", "120521.442500", "120521.902500", "120522.362500", "120522.822500", "120523.282500", "120523.742500", "120524.202500", "120524.662500", "120525.122500", "120525.582500", "120526.042500", "120526.502500", "120526.962500", "120527.422500", "120527.882500", "120528.342500", "120528.802500", "120529.262500", "120529.722500", "120530.182500", "120530.642500", "120531.102500", "120531.562500", "120532.022500", "120532.482500", "120532.942500", "120533.402500", "120533.862500", "120534.322500", "120534.782500", "120535.242500", "120535.702500", "120536.162500", "120536.622500", "120537.082500", "120537.542500", "120538.002500", "120538.462500", "120538.922500", "120539.382500", "120539.842500", "120540.302500", "120540.762500", "120541.222500", "120541.682500", "120542.142500", "120542.602500", "120543.062500", "120543.522500", "120543.982500", "120544.442500", "120544.902500", "120545.362500", "120545.822500", "120546.282500", "120546.742500", "120547.202500", "120547.662500", "120548.122500", "120548.582500", "120549.042500", "120549.502500", "120549.962500", "120550.422500", "120550.882500", "120551.342500", "120551.802500", "120552.262500", "120552.722500", "120553.182500", "120553.642500", "120554.102500", "120554.562500", "120555.022500", "120555.482500", "120555.942500", "120556.402500", "120556.862500", "120557.322500", "120557.782500", "120558.242500", "120558.702500", "120559.162500", "120559.622500", "120600.082500", "120600.542500", "120601.002500", "120601.462500", "120601.922500", "120602.382500", "120602.842500", "120603.302500", "120603.762500", "120604.222500", "120604.682500", "120605.142500", "120605.602500", "120606.062500", "120606.522500", "120606.982500", "120607.442500", "120607.902500", "120608.362500", "120608.822500", "120609.282500", "120609.742500", "120610.202500", "120610.662500", "120611.122500", "120611.582500", "120612.042500", "120612.502500", "120612.962500", "120613.422500", "120613.882500", "120614.342500", "120614.802500", "120615.262500", "120615.722500", "120616.182500", "120616.642500", "120617.102500", "120617.562500", "120618.022500", "120618.482500", "120618.942500", "120619.402500", "120619.862500", "120620.322500", "120620.782500", "120621.242500", "120621.702500", "120622.162500", "120622.622500", "120623.082500", "120623.542500", "120624.002500", "120624.462500", "120624.922500", "120625.382500", "120625.842500", "120626.302500", "120626.762500", "120627.222500", "120627.682500", "120628.142500", "120628.602500", "120629.062500", "120629.522500", "120629.982500", "120630.442500", "120630.902500", "120631.362500", "120631.822500", "120632.282500", "120632.742500", "120633.202500", "120633.662500", "120634.122500", "120634.582500", "120635.042500", "120635.502500", "120635.962500", "120636.422500", "120636.882500", "120637.342500", "120637.802500", "120638.262500", "120638.722500", "120639.182500", "120639.642500", "120640.102500", "120640.562500", "120641.022500", "120641.482500", "120641.942500", "120642.402500", "120642.862500", "120643.322500", "120643.782500", "120644.242500", "120644.702500", "120645.162500", "120645.622500", "120646.082500", "120646.542500", "120647.002500", "120647.462500", "120647.922500", "120648.382500", "120648.842500", "120649.302500", "120649.762500", "120650.222500", "120650.682500", "120651.142500", "120651.602500", "120652.062500", "120652.522500", "120652.982500", "120653.442500", "120653.902500", "120654.362500", "120654.822500", "120655.282500", "120655.742500", "120656.202500", "120656.662500", "120657.122500", "120657.582500", "120658.042500", "120658.502500", "120658.962500", "120659.422500", "120659.882500", "120700.342500", "120700.802500", "120701.262500", "120701.722500", "120702.182500", "120702.642500", "120703.102500", "120703.562500", "120704.022500", "120704.482500", "120704.942500", "120705.402500", "120705.862500", "120706.322500", "120706.782500", "120707.242500", "120707.702500", "120708.162500", "120708.622500", "120709.082500", "120709.542500", "120710.002500", "120710.462500", "120710.922500", "120711.382500", "120711.842500", "120712.302500", "120712.762500", "120713.222500", "120713.682500", "120714.142500", "120714.602500", "120715.062500", "120715.522500", "120715.982500", "120716.442500", "120716.902500", "120717.362500", "120717.822500", "120718.282500", "120718.742500", "120719.202500", "120719.662500", "120720.122500", "120720.582500", "120721.042500", "120721.502500", "120721.962500", "120722.422500", "120722.882500", "120723.342500", "120723.802500", "120724.262500", "120724.722500", "120725.182500", "120725.642500", "120726.102500", "120726.562500", "120727.022500", "120727.482500", "120727.942500", "120728.402500", "120728.862500", "120729.322500", "120729.782500", "120730.242500", "120730.702500", "120731.162500", "120731.622500", "120732.082500", "120732.542500", "120733.002500", "120733.462500", "120733.922500", "120734.382500", "120734.842500", "120735.302500", "120735.762500", "120736.222500", "120736.682500", "120737.142500", "120737.602500", "120738.062500", "120738.522500", "120738.982500", "120739.442500", "120739.902500", "120740.362500", "120740.822500", "120741.282500", "120741.742500", "120742.202500", "120742.662500", "120743.122500", "120743.582500", "120744.042500", "120744.502500", "120744.962500", "120745.422500", "120745.882500", "120746.342500", "120746.802500", "120747.262500", "120747.722500", "120748.182500", "120748.642500", "120749.102500", "120749.562500", "120750.022500", "120750.482500", "120750.942500", "120751.402500", "120751.862500", "120752.322500", "120752.782500", "120753.242500", "120753.702500", "120754.162500", "120754.622500", "120755.082500", "120755.542500", "120756.002500", "120756.462500", "120756.922500", "120757.382500", "120757.842500", "120758.302500", "120758.762500", "120759.222500", "120759.682500", "120800.142500", "120800.602500", "120801.062500", "120801.522500", "120801.982500", "120802.442500", "120802.902500", "120803.362500", "120803.822500", "120804.282500", "120804.742500", "120805.202500", "120805.662500", "120806.122500", "120806.582500", "120807.042500", "120807.502500", "120807.962500", "120808.422500", "120808.882500", "120809.342500", "120809.802500", "120810.262500", "120810.722500", "120811.182500", "120811.642500", "120812.102500", "120812.562500", "120813.022500", "120813.482500", "120813.942500", "120814.402500", "120814.862500", "120815.322500", "120815.782500", "120816.242500", "120816.702500", "120817.162500", "120817.622500", "120818.082500", "120818.542500", "120819.002500", "120819.462500", "120819.922500", "120820.382500", "120820.842500", "120821.302500", "120821.762500", "120822.222500", "120822.682500", "120823.142500", "120823.602500", "120824.062500", "120824.522500", "120824.982500", "120825.442500", "120825.902500", "120826.362500", "120826.822500", "120827.282500", "120827.742500", "120828.202500", "120828.662500", "120829.122500", "120829.582500", "120830.042500", "120830.502500", "120830.962500", "120831.422500", "120831.882500", "120832.342500", "120832.802500", "120833.262500", "120833.722500", "120834.182500", "120834.642500", "120835.102500", "120835.562500", "120836.022500", "120836.482500", "120836.942500", "120837.402500", "120837.862500", "120838.322500", "120838.782500", "120839.242500", "120839.702500", "120840.162500", "120840.622500", "120841.082500", "120841.542500", "120842.002500", "120842.462500", "120842.922500", "120843.382500", "120843.842500", "120844.302500", "120844.762500", "120845.222500", "120845.682500", "120846.142500", "120846.602500", "120847.062500", "120847.522500", "120847.982500", "120848.442500", "120848.902500", "120849.362500", "120849.822500", "120850.282500", "120850.742500", "120851.202500", "120851.662500", "120852.122500", "120852.582500", "120853.042500", "120853.502500", "120853.962500", "120854.422500", "120854.882500", "120855.342500", "120855.802500", "120856.262500", "120856.722500", "120857.182500", "120857.642500", "120858.102500", "120858.562500", "120859.022500", "120859.482500", "120859.942500", "120900.402500", "120900.862500", "120901.322500", "120901.782500", "120902.242500", "120902.702500", "120903.162500", "120903.622500", "120904.082500", "120904.542500", "120905.002500", "120905.462500", "120905.922500", "120906.382500", "120906.842500", "120907.302500", "120907.762500", "120908.222500", "120908.682500", "120909.142500", "120909.602500", "120910.062500", "120910.522500", "120910.982500", "120911.442500", "120911.902500", "120912.362500", "120912.822500", "120913.282500", "120913.742500", "120914.202500", "120914.662500", "120915.122500", "120915.582500", "120916.042500", "120916.502500", "120916.962500", "120917.422500", "120917.882500", "120918.342500", "120918.802500", "120919.262500", "120919.722500", "120920.182500", "120920.642500", "120921.102500", "120921.562500", "120922.022500", "120922.482500", "120922.942500", "120923.402500", "120923.862500", "120924.322500", "120924.782500", "120925.242500", "120925.702500", "120926.162500", "120926.622500", "120927.082500", "120927.542500", "120928.002500", "120928.462500", "120928.922500", "120929.382500", "120929.842500", "120930.302500", "120930.762500", "120931.222500", "120931.682500", "120932.142500", "120932.602500", "120933.062500", "120933.522500", "120933.982500", "120934.442500", "120934.902500", "120935.362500", "120935.822500", "120936.282500", "120936.742500", "120937.202500", "120937.662500", "120938.122500", "120938.582500", "120939.042500", "120939.502500", "120939.962500", "120940.422500", "120940.882500", "120941.342500", "120941.802500", "120942.262500", "120942.722500", "120943.182500", "120943.642500", "120944.102500", "120944.562500", "120945.022500", "120945.482500"],
