{
  "AcquisitionMatrixPE": 82,
  "AcquisitionNumber": 1,
  "AcquisitionTime": "12:30:30.570000",
  "BandwidthPerPixelPhaseEncode": 24.888,
  "BaseResolution": 82,
  "BodyPartExamined": "BRAIN",
  "ConsistencyInfo": "N4_VE11C_LATEST_20160120",
  "ConversionSoftware": "dcm2niix",
  "ConversionSoftwareVersion": "v1.0.20201102",
  "DerivedVendorReportedEchoSpacing": 0.00049,
  "DeviceSerialNumber": "66112",
  "DwellTime": 2e-06,
  "EchoTime": 0.0272,
  "EchoTrainLength": 82,
  "EffectiveEchoSpacing": 0.00049,
  "FlipAngle": 44,
  "ImageComments": "Unaliased MB8/PE3",
  "ImageOrientationPatientDICOM": [0.997829, -0.0631503, 0.0186838, 0.0619039, 0.996211, 0.0610913],
  "ImageType": [
    "ORIGINAL",
    "PRIMARY",
    "M",
    "MB",
    "ND",
    "NORM",
    "MOSAIC"
],
  "ImagingFrequency": 123.252,
  "InPlanePhaseEncodingDirectionDICOM": "COL",
  "InstitutionAddress": "Maynard 3,Hanover,NH,US,03755",
  "InstitutionName": "Dartmouth College - PBS",
  "InstitutionalDepartmentName": "Department",
  "MRAcquisitionType": "2D",
  "MagneticFieldStrength": 3,
  "Manufacturer": "Siemens",
  "ManufacturersModelName": "Prisma",
  "Modality": "MR",
  "MultibandAccelerationFactor": 8,
  "PartialFourier": 1,
  "PatientPosition": "HFS",
  "PercentPhaseFOV": 100,
  "PercentSampling": 100,
  "PhaseEncodingDirection": "j-",
  "PhaseEncodingSteps": 82,
  "PhaseResolution": 1,
  "PixelBandwidth": 3050,
  "ProcedureStepDescription": "Wager_Wager^1076_spacetop",
  "ProtocolName": "func_run-02_task-alignvideo_acq-ap-mb8",
  "PulseSequenceDetails": "%CustomerSeq%\\cmrr_mbep2d_bold",
  "ReceiveCoilActiveElements": "HEA;HEP",
  "ReceiveCoilName": "Head_32",
  "ReconMatrixPE": 82,
  "RepetitionTime": 0.46,
  "SAR": 0.110662,
  "ScanOptions": "FS",
  "ScanningSequence": "EP",
  "SequenceName": "epfid2d1_82",
  "SequenceVariant": "SK\\SS",
  "SeriesDescription": "func_run-02_task-alignvideo_acq-ap-mb8",
  "SeriesNumber": 32,
  "ShimSetting": [4142, -7762, -7242, 675, -31, -158, 45, 89],
  "SliceThickness": 2.7,
  "SliceTiming": [0, 0.2525, 0.0625, 0.315, 0.125, 0.3775, 0.1875, 0, 0.2525, 0.0625, 0.315, 0.125, 0.3775, 0.1875, 0, 0.2525, 0.0625, 0.315, 0.125, 0.3775, 0.1875, 0, 0.2525, 0.0625, 0.315, 0.125, 0.3775, 0.1875, 0, 0.2525, 0.0625, 0.315, 0.125, 0.3775, 0.1875, 0, 0.2525, 0.0625, 0.315, 0.125, 0.3775, 0.1875, 0, 0.2525, 0.0625, 0.315, 0.125, 0.3775, 0.1875, 0, 0.2525, 0.0625, 0.315, 0.125, 0.3775, 0.1875],
  "SoftwareVersions": "syngo MR E11",
  "SpacingBetweenSlices": 2.7,
  "StationName": "AWP66112",
  "TaskName": "alignvideo",
  "TotalReadoutTime": 0.03969,
  "TxRefAmp": 251.446,
  "WipMemBlock": "23b60515-ff44-47a4-ad1f-c0d6366671ab||Sequence: R016 ve11c/master r/e634e98; Dec 19 2017 11:00:25 by eja",
  "dcmmeta_affine": [
    [-2.677102565765381, 0.16608376801013947, 0.060671404004096985, 107.90248107910156],
    [0.1694275587797165, 2.672760486602783, 0.161465585231781, -106.22737884521484],
    [0.05012715607881546, -0.16390345990657806, 2.6944847106933594, -49.56479263305664],
    [0.0, 0.0, 0.0, 1.0]
],
  "dcmmeta_reorient_transform": [
    [0.0, -1.0, 0.0, 81.0],
    [1.0, 0.0, 0.0, 0.0],
    [0.0, 0.0, 1.0, 0.0],
    [0.0, 0.0, 0.0, 1.0]
],
  "dcmmeta_shape": [82, 82, 56, 926],
  "dcmmeta_slice_dim": 2,
  "dcmmeta_version": 0.6,
  "global": {
    "const": {
      "AccessionNumber": "A003774",
      "AcquisitionMatrix": [82, 0, 0, 82],
      "AngioFlag": "N",
      "BitsAllocated": 16,
      "BitsStored": 16,
      "BodyPartExamined": "BRAIN",
      "Columns": 656,
      "EchoNumbers": 1,
      "EchoTime": 27.2,
      "EchoTrainLength": 82,
      "FlipAngle": 44.0,
      "HighBit": 15,
      "ImageOrientationPatient": [0.99782912375443, -0.0631502729659, 0.01868375796776, 0.06190394855823, 0.9962106985684, 0.0610912858823],
      "ImagePositionPatient": [-937.34974806161, -828.72276363706, -124.2677560516],
      "ImageType": [
        "ORIGINAL",
        "PRIMARY",
        "M",
        "MB",
        "ND",
        "NORM",
        "MOSAIC"
],
      "ImagedNucleus": "1H",
      "ImagingFrequency": 123.25219,
      "InPlanePhaseEncodingDirection": "COL",
      "MRAcquisitionType": "2D",
      "MagneticFieldStrength": 3.0,
      "Manufacturer": "SIEMENS",
      "ManufacturerModelName": "Prisma",
      "Modality": "MR",
      "NumberOfAverages": 1.0,
      "NumberOfPhaseEncodingSteps": 82,
      "PercentPhaseFieldOfView": 100.0,
      "PercentSampling": 100.0,
      "PerformedProcedureStepStartTime": "105755.814000",
      "PhotometricInterpretation": "MONOCHROME2",
      "PixelBandwidth": 3050.0,
      "PixelRepresentation": 0,
      "PixelSpacing": [2.6829268932343, 2.6829268932343],
      "ProtocolName": "func_run-02_task-alignvideo_acq-ap-mb8",
      "RepetitionTime": 460.0,
      "Rows": 656,
      "SAR": 0.11066228359542,
      "SamplesPerPixel": 1,
      "ScanOptions": "FS",
      "ScanningSequence": "EP",
      "SequenceName": "epfid2d1_82",
      "SequenceVariant": [
        "SK",
        "SS"
],
      "SeriesDescription": "func_run-02_task-alignvideo_acq-ap-mb8",
      "SeriesNumber": 32,
      "SeriesTime": "123049.937000",
      "SliceLocation": -53.391496991491,
      "SliceThickness": 2.7000000476837,
      "SmallestImagePixelValue": 0,
      "SoftwareVersions": "syngo MR E11",
      "SpacingBetweenSlices": 2.7000000030213,
      "SpecificCharacterSet": "ISO_IR 100",
      "StudyID": "6",
      "StudyTime": "105755.767000",
      "TransmitCoilName": "Body",
      "VariableFlipAngleFlag": "N",
      "WindowCenterWidthExplanation": "Algo1",
      "dBdt": 0.0},
    "slices": {}
  },
  "time": {
    "samples": {
      "AcquisitionNumber": [1, 2, 3, 4, 5, 6, 7, 8, 9, 10, 11, 12, 13, 14, 15, 16, 17, 18, 19, 20, 21, 22, 23, 24, 25, 26, 27, 28, 29, 30, 31, 32, 33, 34, 35, 36, 37, 38, 39, 40, 41, 42, 43, 44, 45, 46, 47, 48, 49, 50, 51, 52, 53, 54, 55, 56, 57, 58, 59, 60, 61, 62, 63, 64, 65, 66, 67, 68, 69, 70, 71, 72, 73, 74, 75, 76, 77, 78, 79, 80, 81, 82, 83, 84, 85, 86, 87, 88, 89, 90, 91, 92, 93, 94, 95, 96, 97, 98, 99, 100, 101, 102, 103, 104, 105, 106, 107, 108, 109, 110, 111, 112, 113, 114, 115, 116, 117, 118, 119, 120, 121, 122, 123, 124, 125, 126, 127, 128, 129, 130, 131, 132, 133, 134, 135, 136, 137, 138, 139, 140, 141, 142, 143, 144, 145, 146, 147, 148, 149, 150, 151, 152, 153, 154, 155, 156, 157, 158, 159, 160, 161, 162, 163, 164, 165, 166, 167, 168, 169, 170, 171, 172, 173, 174, 175, 176, 177, 178, 179, 180, 181, 182, 183, 184, 185, 186, 187, 188, 189, 190, 191, 192, 193, 194, 195, 196, 197, 198, 199, 200, 201, 202, 203, 204, 205, 206, 207, 208, 209, 210, 211, 212, 213, 214, 215, 216, 217, 218, 219, 220, 221, 222, 223, 224, 225, 226, 227, 228, 229, 230, 231, 232, 233, 234, 235, 236, 237, 238, 239, 240, 241, 242, 243, 244, 245, 246, 247, 248, 249, 250, 251, 252, 253, 254, 255, 256, 257, 258, 259, 260, 261, 262, 263, 264, 265, 266, 267, 268, 269, 270, 271, 272, 273, 274, 275, 276, 277, 278, 279, 280, 281, 282, 283, 284, 285, 286, 287, 288, 289, 290, 291, 292, 293, 294, 295, 296, 297, 298, 299, 300, 301, 302, 303, 304, 305, 306, 307, 308, 309, 310, 311, 312, 313, 314, 315, 316, 317, 318, 319, 320, 321, 322, 323, 324, 325, 326, 327, 328, 329, 330, 331, 332, 333, 334, 335, 336, 337, 338, 339, 340, 341, 342, 343, 344, 345, 346, 347, 348, 349, 350, 351, 352, 353, 354, 355, 356, 357, 358, 359, 360, 361, 362, 363, 364, 365, 366, 367, 368, 369, 370, 371, 372, 373, 374, 375, 376, 377, 378, 379, 380, 381, 382, 383, 384, 385, 386, 387, 388, 389, 390, 391, 392, 393, 394, 395, 396, 397, 398, 399, 400, 401, 402, 403, 404, 405, 406, 407, 408, 409, 410, 411, 412, 413, 414, 415, 416, 417, 418, 419, 420, 421, 422, 423, 424, 425, 426, 427, 428, 429, 430, 431, 432, 433, 434, 435, 436, 437, 438, 439, 440, 441, 442, 443, 444, 445, 446, 447, 448, 449, 450, 451, 452, 453, 454, 455, 456, 457, 458, 459, 460, 461, 462, 463, 464, 465, 466, 467, 468, 469, 470, 471, 472, 473, 474, 475, 476, 477, 478, 479, 480, 481, 482, 483, 484, 485, 486, 487, 488, 489, 490, 491, 492, 493, 494, 495, 496, 497, 498, 499, 500, 501, 502, 503, 504, 505, 506, 507, 508, 509, 510, 511, 512, 513, 514, 515, 516, 517, 518, 519, 520, 521, 522, 523, 524, 525, 526, 527, 528, 529, 530, 531, 532, 533, 534, 535, 536, 537, 538, 539, 540, 541, 542, 543, 544, 545, 546, 547, 548, 549, 550, 551, 552, 553, 554, 555, 556, 557, 558, 559, 560, 561, 562, 563, 564, 565, 566, 567, 568, 569, 570, 571, 572, 573, 574, 575, 576, 577, 578, 579, 580, 581, 582, 583, 584, 585, 586, 587, 588, 589, 590, 591, 592, 593, 594, 595, 596, 597, 598, 599, 600, 601, 602, 603, 604, 605, 606, 607, 608, 609, 610, 611, 612, 613, 614, 615, 616, 617, 618, 619, 620, 621, 622, 623, 624, 625, 626, 627, 628, 629, 630, 631, 632, 633, 634, 635, 636, 637, 638, 639, 640, 641, 642, 643, 644, 645, 646, 647, 648, 649, 650, 651, 652, 653, 654, 655, 656, 657, 658, 659, 660, 661, 662, 663, 664, 665, 666, 667, 668, 669, 670, 671, 672, 673, 674, 675, 676, 677, 678, 679, 680, 681, 682, 683, 684, 685, 686, 687, 688, 689, 690, 691, 692, 693, 694, 695, 696, 697, 698, 699, 700, 701, 702, 703, 704, 705, 706, 707, 708, 709, 710, 711, 712, 713, 714, 715, 716, 717, 718, 719, 720, 721, 722, 723, 724, 725, 726, 727, 728, 729, 730, 731, 732, 733, 734, 735, 736, 737, 738, 739, 740, 741, 742, 743, 744, 745, 746, 747, 748, 749, 750, 751, 752, 753, 754, 755, 756, 757, 758, 759, 760, 761, 762, 763, 764, 765, 766, 767, 768, 769, 770, 771, 772, 773, 774, 775, 776, 777, 778, 779, 780, 781, 782, 783, 784, 785, 786, 787, 788, 789, 790, 791, 792, 793, 794, 795, 796, 797, 798, 799, 800, 801, 802, 803, 804, 805, 806, 807, 808, 809, 810, 811, 812, 813, 814, 815, 816, 817, 818, 819, 820, 821, 822, 823, 824, 825, 826, 827, 828, 829, 830, 831, 832, 833, 834, 835, 836, 837, 838, 839, 840, 841, 842, 843, 844, 845, 846, 847, 848, 849, 850, 851, 852, 853, 854, 855, 856, 857, 858, 859, 860, 861, 862, 863, 864, 865, 866, 867, 868, 869, 870, 871, 872, 873, 874, 875, 876, 877, 878, 879, 880, 881, 882, 883, 884, 885, 886, 887, 888, 889, 890, 891, 892, 893, 894, 895, 896, 897, 898, 899, 900, 901, 902, 903, 904, 905, 906, 907, 908, 909, 910, 911, 912, 913, 914, 915, 916, 917, 918, 919, 920, 921, 922, 923, 924, 925, 926],
      "AcquisitionTime": ["123030.570000", "123031.030000", "123031.490000", "123031.950000", "123032.410000", "123032.870000", "123033.330000", "123033.790000", "123034.250000", "123034.710000", "123035.170000", "123035.630000", "123036.090000", "123036.550000", "123037.010000", "123037.470000", "123037.930000", "123038.390000", "123038.850000", "123039.310000", "123039.770000", "123040.230000", "123040.690000", "123041.150000", "123041.610000", "123042.070000", "123042.530000", "123042.990000", "123043.450000", "123043.910000", "123044.370000", "123044.830000", "123045.290000", "123045.750000", "123046.210000", "123046.670000", "123047.130000", "123047.590000", "123048.050000", "123048.510000", "123048.970000", "123049.430000", "123049.890000", "123050.350000", "123050.810000", "123051.270000", "123051.730000", "123052.190000", "123052.650000", "123053.110000", "123053.570000", "123054.030000", "123054.490000", "123054.950000", "123055.410000", "123055.870000", "123056.330000", "123056.790000", "123057.250000", "123057.710000", "123058.170000", "123058.630000", "123059.090000", "123059.550000", "123100.010000", "123100.470000", "123100.930000", "123101.390000", "123101.850000", "123102.310000", "123102.770000", "123103.230000", "123103.690000", "123104.150000", "123104.610000", "123105.070000", "123105.530000", "123105.990000", "123106.450000", "123106.910000", "123107.370000", "123107.830000", "123108.290000", "123108.750000", "123109.210000", "123109.670000", "123110.130000", "123110.590000", "123111.050000", "123111.510000", "123111.970000", "123112.430000", "123112.890000", "123113.350000", "123113.810000", "123114.270000", "123114.730000", "123115.190000", "123115.650000", "123116.110000", "123116.570000", "123117.030000", "123117.490000", "123117.950000", "123118.410000", "123118.870000", "123119.330000", "123119.790000", "123120.250000", "123120.710000", "123121.170000", "123121.630000", "123122.090000", "123122.550000", "123123.010000", "123123.470000", "123123.930000", "123124.390000", "123124.850000", "123125.310000", "123125.770000", "123126.230000", "123126.690000", "123127.150000", "123127.610000", "123128.070000", "123128.530000", "123128.990000", "123129.450000", "123129.910000", "123130.370000", "123130.830000", "123131.290000", "123131.750000", "123132.210000", "123132.670000", "123133.130000", "123133.590000", "123134.050000", "123134.510000", "123134.970000", "123135.430000", "123135.890000", "123136.350000", "123136.810000", "123137.270000", "123137.730000", "123138.190000", "123138.650000", "123139.110000", "123139.570000", "123140.030000", "123140.490000", "123140.950000", "123141.410000", "123141.870000", "123142.330000", "123142.790000", "123143.250000", "123143.710000", "123144.170000", "123144.630000", "123145.090000", "123145.550000", "123146.010000", "123146.470000", "123146.930000", "123147.390000", "123147.850000", "123148.310000", "123148.770000", "123149.230000", "123149.690000", "123150.150000", "123150.610000", "123151.070000", "123151.530000", "123151.990000", "123152.450000", "123152.910000", "123153.370000", "123153.830000", "123154.290000", "123154.750000", "123155.210000", "123155.670000", "123156.130000", "123156.590000", "123157.050000", "123157.510000", "123157.970000", "123158.430000", "123158.890000", "123159.350000", "123159.810000", "123200.270000", "123200.730000", "123201.190000", "123201.650000", "123202.110000", "123202.570000", "123203.030000", "123203.490000", "123203.950000", "123204.410000", "123204.870000", "123205.330000", "123205.790000", "123206.250000", "123206.710000", "123207.170000", "123207.630000", "123208.090000", "123208.550000", "123209.010000", "123209.470000", "123209.930000", "123210.390000", "123210.850000", "123211.310000", "123211.770000", "123212.230000", "123212.690000", "123213.150000", "123213.610000", "123214.070000", "123214.530000", "123214.990000", "123215.450000", "123215.910000", "123216.370000", "123216.830000", "123217.290000", "123217.750000", "123218.210000", "123218.670000", "123219.130000", "123219.590000", "123220.050000", "123220.510000", "123220.970000", "123221.430000", "123221.890000", "123222.350000", "123222.810000", "123223.270000", "123223.730000", "123224.190000", "123224.650000", "123225.110000", "123225.570000", "123226.030000", "123226.490000", "123226.950000", "123227.410000", "123227.870000", "123228.330000", "123228.790000", "123229.250000", "123229.710000", "123230.170000", "123230.630000", "123231.090000", "123231.550000", "123232.010000", "123232.470000", "123232.930000", "123233.390000", "123233.850000", "123234.310000", "123234.770000", "123235.230000", "123235.690000", "123236.150000", "123236.610000", "123237.070000", "123237.530000", "123237.990000", "123238.450000", "123238.910000", "123239.370000", "123239.830000", "123240.290000", "123240.750000", "123241.210000", "123241.670000", "123242.130000", "123242.590000", "123243.050000", "123243.510000", "123243.970000", "123244.430000", "123244.890000", "123245.350000", "123245.810000", "123246.270000", "123246.730000", "123247.190000", "123247.650000", "123248.110000", "123248.570000", "123249.030000", "123249.490000", "123249.950000", "123250.410000", "123250.870000", "123251.330000", "123251.790000", "123252.250000", "123252.710000", "123253.170000", "123253.630000", "123254.090000", "123254.550000", "123255.010000", "123255.470000", "123255.930000", "123256.390000", "123256.850000", "123257.310000", "123257.770000", "123258.230000", "123258.690000", "123259.150000", "123259.610000", "123300.070000", "123300.530000", "123300.990000", "123301.450000", "123301.910000", "123302.370000", "123302.830000", "123303.290000", "123303.750000", "123304.210000", "123304.670000", "123305.130000", "123305.590000", "123306.050000", "123306.510000", "123306.970000", "123307.430000", "123307.890000", "123308.350000", "123308.810000", "123309.270000", "123309.730000", "123310.190000", "123310.650000", "123311.110000", "123311.570000", "123312.030000", "123312.490000", "123312.950000", "123313.410000", "123313.870000", "123314.330000", "123314.790000", "123315.250000", "123315.710000", "123316.170000", "123316.630000", "123317.090000", "123317.550000", "123318.010000", "123318.470000", "123318.930000", "123319.390000", "123319.850000", "123320.310000", "123320.770000", "123321.230000", "123321.690000", "123322.150000", "123322.610000", "123323.070000", "123323.530000", "123323.990000", "123324.450000", "123324.910000", "123325.370000", "123325.830000", "123326.290000", "123326.750000", "123327.210000", "123327.670000", "123328.130000", "123328.590000", "123329.050000", "123329.510000", "123329.970000", "123330.430000", "123330.890000", "123331.350000", "123331.810000", "123332.270000", "123332.730000", "123333.190000", "123333.650000", "123334.110000", "123334.570000", "123335.030000", "123335.490000", "123335.950000", "123336.410000", "123336.870000", "123337.330000", "123337.790000", "123338.250000", "123338.710000", "123339.170000", "123339.630000", "123340.090000", "123340.550000", "123341.010000", "123341.470000", "123341.930000", "123342.390000", "123342.850000", "123343.310000", "123343.770000", "123344.230000", "123344.690000", "123345.150000", "123345.610000", "123346.070000", "123346.530000", "123346.990000", "123347.450000", "123347.910000", "123348.370000", "123348.830000", "123349.290000", "123349.750000", "123350.210000", "123350.670000", "123351.130000", "123351.590000", "123352.050000", "123352.510000", "123352.970000", "123353.430000", "123353.890000", "123354.350000", "123354.810000", "123355.270000", "123355.730000", "123356.190000", "123356.650000", "123357.110000", "123357.570000", "123358.030000", "123358.490000", "123358.950000", "123359.410000", "123359.870000", "123400.330000", "123400.790000", "123401.250000", "123401.710000", "123402.170000", "123402.630000", "123403.090000", "123403.550000", "123404.010000", "123404.470000", "123404.930000", "123405.390000", "123405.850000", "123406.310000", "123406.770000", "123407.230000", "123407.690000", "123408.150000", "123408.610000", "123409.070000", "123409.530000", "123409.990000", "123410.450000", "123410.910000", "123411.370000", "123411.830000", "123412.290000", "123412.750000", "123413.210000", "123413.670000", "123414.130000", "123414.590000", "123415.050000", "123415.510000", "123415.970000", "123416.430000", "123416.890000", "123417.350000", "123417.810000", "123418.270000", "123418.730000", "123419.190000", "123419.650000", "123420.110000", "123420.570000", "123421.030000", "123421.490000", "123421.950000", "123422.410000", "123422.870000", "123423.330000", "123423.790000", "123424.250000", "123424.710000", "123425.170000", "123425.630000", "123426.090000", "123426.550000", "123427.010000", "123427.470000", "123427.930000", "123428.390000", "123428.850000", "123429.310000", "123429.770000", "123430.230000", "123430.690000", "123431.150000", "123431.610000", "123432.070000", "123432.530000", "123432.990000", "123433.450000", "123433.910000", "123434.370000", "123434.830000", "123435.290000", "123435.750000", "123436.210000", "123436.670000", "123437.130000", "123437.590000", "123438.050000", "123438.510000", "123438.970000", "123439.430000", "123439.890000", "123440.350000", "123440.810000", "123441.270000", "123441.730000", "123442.190000", "123442.650000", "123443.110000", "123443.570000", "123444.030000", "123444.490000", "123444.950000", "123445.410000", "123445.870000", "123446.330000", "123446.790000", "123447.250000", "123447.710000", "123448.170000", "123448.630000", "123449.090000", "123449.550000", "123450.010000", "123450.470000", "123450.930000", "123451.390000", "123451.850000", "123452.310000", "123452.770000", "123453.230000", "123453.690000", "123454.150000", "123454.610000", "123455.070000", "123455.530000", "123455.990000", "123456.450000", "123456.910000", "123457.370000", "123457.830000", "123458.290000", "123458.750000", "123459.210000", "123459.670000", "123500.130000", "123500.590000", "123501.050000", "123501.510000", "123501.970000", "123502.430000", "123502.890000", "123503.350000", "123503.810000", "123504.270000", "123504.730000", "123505.190000", "123505.650000", "123506.110000", "123506.570000", "123507.030000", "123507.490000", "123507.950000", "123508.410000", "123508.870000", "123509.330000", "123509.790000", "123510.250000", "123510.710000", "123511.170000", "123511.630000", "123512.090000", "123512.550000", "123513.010000", "123513.470000", "123513.930000", "123514.390000", "123514.850000", "123515.310000", "123515.770000", "123516.230000", "123516.690000", "123517.150000", "123517.610000", "123518.070000", "123518.530000", "123518.990000", "123519.450000", "123519.910000", "123520.370000", "123520.830000", "123521.290000", "123521.750000", "123522.210000", "123522.670000", "123523.130000", "123523.590000", "123524.050000", "123524.510000", "123524.970000", "123525.430000", "123525.890000", "123526.350000", "123526.810000", "123527.270000", "123527.730000", "123528.190000", "123528.650000", "123529.110000", "123529.570000", "123530.030000", "123530.490000", "123530.950000", "123531.410000", "123531.870000", "123532.330000", "123532.790000", "123533.250000", "123533.710000", "123534.170000", "123534.630000", "123535.090000", "123535.550000", "123536.010000", "123536.470000", "123536.930000", "123537.390000", "123537.850000", "123538.310000", "123538.770000", "123539.230000", "123539.690000", "123540.150000", "123540.610000", "123541.070000", "123541.530000", "123541.990000", "123542.450000", "123542.910000", "123543.370000", "123543.830000", "123544.290000", "123544.750000", "123545.210000", "123545.670000", "123546.130000", "123546.590000", "123547.050000", "123547.510000", "123547.970000", "123548.430000", "123548.890000", "123549.350000", "123549.810000", "123550.270000", "123550.730000", "123551.190000", "123551.650000", "123552.110000", "123552.570000", "123553.030000", "123553.490000", "123553.950000", "123554.410000", "123554.870000", "123555.330000", "123555.790000", "123556.250000", "123556.710000", "123557.170000", "123557.630000", "123558.090000", "123558.550000", "123559.010000", "123559.470000", "123559.930000", "123600.390000", "123600.850000", "123601.310000", "123601.770000", "123602.230000", "123602.690000", "123603.150000", "123603.610000", "123604.070000", "123604.530000", "123604.990000", "123605.450000", "123605.910000", "123606.370000", "123606.830000", "123607.290000", "123607.750000", "123608.210000", "123608.670000", "123609.130000", "123609.590000", "123610.050000", "123610.510000", "123610.970000", "123611.430000", "123611.890000", "123612.350000", "123612.810000", "123613.270000", "123613.730000", "123614.190000", "123614.650000", "123615.110000", "123615.570000", "123616.030000", "123616.490000", "123616.950000", "123617.410000", "123617.870000", "123618.330000", "123618.790000", "123619.250000", "123619.710000", "123620.170000", "123620.630000", "123621.090000", "123621.550000", "123622.010000", "123622.470000", "123622.930000", "123623.390000", "123623.850000", "123624.310000", "123624.770000", "123625.230000", "123625.690000", "123626.150000", "123626.610000", "123627.070000", "123627.530000", "123627.990000", "123628.450000", "123628.910000", "123629.370000", "123629.830000", "123630.290000", "123630.750000", "123631.210000", "123631.670000", "123632.130000", "123632.590000", "123633.050000", "123633.510000", "123633.970000", "123634.430000", "123634.890000", "123635.350000", "123635.810000", "123636.270000", "123636.730000", "123637.190000", "123637.650000", "123638.110000", "123638.570000", "123639.030000", "123639.490000", "123639.950000", "123640.410000", "123640.870000", "123641.330000", "123641.790000", "123642.250000", "123642.710000", "123643.170000", "123643.630000", "123644.090000", "123644.550000", "123645.010000", "123645.470000", "123645.930000", "123646.390000", "123646.850000", "123647.310000", "123647.770000", "123648.230000", "123648.690000", "123649.150000", "123649.610000", "123650.070000", "123650.530000", "123650.990000", "123651.450000", "123651.910000", "123652.370000", "123652.830000", "123653.290000", "123653.750000", "123654.210000", "123654.670000", "123655.130000", "123655.590000", "123656.050000", "123656.510000", "123656.970000", "123657.430000", "123657.890000", "123658.350000", "123658.810000", "123659.270000", "123659.730000", "123700.190000", "123700.650000", "123701.110000", "123701.570000", "123702.030000", "123702.490000", "123702.950000", "123703.410000", "123703.870000", "123704.330000", "123704.790000", "123705.250000", "123705.710000", "123706.170000", "123706.630000", "123707.090000", "123707.550000", "123708.010000", "123708.470000", "123708.930000", "123709.390000", "123709.850000", "123710.310000", "123710.770000", "123711.230000", "123711.690000", "123712.150000", "123712.610000", "123713.070000", "123713.530000", "123713.990000", "123714.450000", "123714.910000", "123715.370000", "123715.830000", "123716.290000", "123716.750000", "123717.210000", "123717.670000", "123718.130000", "123718.590000", "123719.050000", "123719.510000", "123719.970000", "123720.430000", "123720.890000", "123721.350000", "123721.810000", "123722.270000", "123722.730000", "123723.190000", "123723.650000", "123724.110000", "123724.570000", "123725.030000", "123725.490000", "123725.950000", "123726.410000", "123726.870000", "123727.330000", "123727.790000", "123728.250000", "123728.710000", "123729.170000", "123729.630000", "123730.090000", "123730.550000", "123731.010000", "123731.470000", "123731.930000", "123732.390000", "123732.850000", "123733.310000", "123733.770000", "123734.230000", "123734.690000", "123735.150000", "123735.610000", "123736.070000"],
