{
  "AcquisitionMatrixPE": 82,
  "AcquisitionNumber": 1,
  "AcquisitionTime": "11:40:55.955000",
  "BandwidthPerPixelPhaseEncode": 24.888,
  "BaseResolution": 82,
  "BodyPartExamined": "BRAIN",
  "ConsistencyInfo": "N4_VE11C_LATEST_20160120",
  "ConversionSoftware": "dcm2niix",
  "ConversionSoftwareVersion": "v1.0.20201102",
  "DerivedVendorReportedEchoSpacing": 0.00049,
  "DeviceSerialNumber": "66112",
  "DwellTime": 2e-06,
  "EchoTime": 0.0272,
  "EchoTrainLength": 82,
  "EffectiveEchoSpacing": 0.00049,
  "FlipAngle": 44,
  "ImageComments": "Unaliased MB8/PE3",
  "ImageOrientationPatientDICOM": [0.997689, -0.0543164, 0.0408135, 0.0477479, 0.987902, 0.147543],
  "ImageType": [
    "ORIGINAL",
    "PRIMARY",
    "M",
    "MB",
    "ND",
    "NORM",
    "MOSAIC"
],
  "ImagingFrequency": 123.252,
  "InPlanePhaseEncodingDirectionDICOM": "COL",
  "InstitutionAddress": "Maynard 3,Hanover,NH,US,03755",
  "InstitutionName": "Dartmouth College - PBS",
  "InstitutionalDepartmentName": "Department",
  "MRAcquisitionType": "2D",
  "MagneticFieldStrength": 3,
  "Manufacturer": "Siemens",
  "ManufacturersModelName": "Prisma",
  "Modality": "MR",
  "MultibandAccelerationFactor": 8,
  "PartialFourier": 1,
  "PatientPosition": "HFS",
  "PercentPhaseFOV": 100,
  "PercentSampling": 100,
  "PhaseEncodingDirection": "j-",
  "PhaseEncodingSteps": 82,
  "PhaseResolution": 1,
  "PixelBandwidth": 3050,
  "ProcedureStepDescription": "Wager_Wager^1076_spacetop",
  "ProtocolName": "func_run-02_task-social_acq-ap-mb8",
  "PulseSequenceDetails": "%CustomerSeq%\\cmrr_mbep2d_bold",
  "ReceiveCoilActiveElements": "HEA;HEP",
  "ReceiveCoilName": "Head_32",
  "ReconMatrixPE": 82,
  "RepetitionTime": 0.46,
  "SAR": 0.110622,
  "ScanOptions": "FS",
  "ScanningSequence": "EP",
  "SequenceName": "epfid2d1_82",
  "SequenceVariant": "SK\\SS",
  "SeriesDescription": "func_run-02_task-social_acq-ap-mb8",
  "SeriesNumber": 14,
  "ShimSetting": [4142, -7760, -7247, 655, -33, -150, 51, 91],
  "SliceThickness": 2.7,
  "SliceTiming": [0, 0.25, 0.0625, 0.3125, 0.125, 0.3775, 0.1875, 0, 0.25, 0.0625, 0.3125, 0.125, 0.3775, 0.1875, 0, 0.25, 0.0625, 0.3125, 0.125, 0.3775, 0.1875, 0, 0.25, 0.0625, 0.3125, 0.125, 0.3775, 0.1875, 0, 0.25, 0.0625, 0.3125, 0.125, 0.3775, 0.1875, 0, 0.25, 0.0625, 0.3125, 0.125, 0.3775, 0.1875, 0, 0.25, 0.0625, 0.3125, 0.125, 0.3775, 0.1875, 0, 0.25, 0.0625, 0.3125, 0.125, 0.3775, 0.1875],
  "SoftwareVersions": "syngo MR E11",
  "SpacingBetweenSlices": 2.7,
  "StationName": "AWP66112",
  "TaskName": "social",
  "TotalReadoutTime": 0.03969,
  "TxRefAmp": 251.446,
  "WipMemBlock": "18e08b7c-7be9-45e8-a57d-a6b73a9cc711||Sequence: R016 ve11c/master r/e634e98; Dec 19 2017 11:00:25 by eja",
  "dcmmeta_affine": [
    [-2.676727533340454, 0.12810412049293518, 0.13050124049186707, 106.7165756225586],
    [0.14572694897651672, 2.650470018386841, 0.3921830952167511, -108.0225830078125],
    [0.10949975997209549, -0.39584624767303467, 2.66817569732666, -40.65398025512695],
    [0.0, 0.0, 0.0, 1.0]
],
  "dcmmeta_reorient_transform": [
    [0.0, -1.0, 0.0, 81.0],
    [1.0, 0.0, 0.0, 0.0],
    [0.0, 0.0, 1.0, 0.0],
    [0.0, 0.0, 0.0, 1.0]
],
  "dcmmeta_shape": [82, 82, 56, 872],
  "dcmmeta_slice_dim": 2,
  "dcmmeta_version": 0.6,
  "global": {
    "const": {
      "AccessionNumber": "A003774",
      "AcquisitionMatrix": [82, 0, 0, 82],
      "AngioFlag": "N",
      "BitsAllocated": 16,
      "BitsStored": 16,
      "BodyPartExamined": "BRAIN",
      "Columns": 656,
      "EchoNumbers": 1,
      "EchoTime": 27.2,
      "EchoTrainLength": 82,
      "FlipAngle": 44.0,
      "HighBit": 15,
      "ImageOrientationPatient": [0.99768932165169, -0.0543164051923, 0.04081354663814, 0.04774790070073, 0.98790247182309, 0.14754268583875],
      "ImagePositionPatient": [-922.07969251745, -825.52678059001, -217.75182913823],
      "ImageType": [
        "ORIGINAL",
        "PRIMARY",
        "M",
        "MB",
        "ND",
        "NORM",
        "MOSAIC"
],
      "ImagedNucleus": "1H",
      "ImagingFrequency": 123.252185,
      "InPlanePhaseEncodingDirection": "COL",
      "MRAcquisitionType": "2D",
      "MagneticFieldStrength": 3.0,
      "Manufacturer": "SIEMENS",
      "ManufacturerModelName": "Prisma",
      "Modality": "MR",
      "NumberOfAverages": 1.0,
      "NumberOfPhaseEncodingSteps": 82,
      "PercentPhaseFieldOfView": 100.0,
      "PercentSampling": 100.0,
      "PerformedProcedureStepStartTime": "105755.814000",
      "PhotometricInterpretation": "MONOCHROME2",
      "PixelBandwidth": 3050.0,
      "PixelRepresentation": 0,
      "PixelSpacing": [2.6829268932343, 2.6829268932343],
      "ProtocolName": "func_run-02_task-social_acq-ap-mb8",
      "RepetitionTime": 460.0,
      "Rows": 656,
      "SAR": 0.1106222052071,
      "SamplesPerPixel": 1,
      "ScanOptions": "FS",
      "ScanningSequence": "EP",
      "SequenceName": "epfid2d1_82",
      "SequenceVariant": [
        "SK",
        "SS"
],
      "SeriesDescription": "func_run-02_task-social_acq-ap-mb8",
      "SeriesNumber": 14,
      "SeriesTime": "114109.936000",
      "SliceLocation": -50.707390615465,
      "SliceThickness": 2.7000000476837,
      "SmallestImagePixelValue": 0,
      "SoftwareVersions": "syngo MR E11",
      "SpacingBetweenSlices": 2.7000000350141,
      "SpecificCharacterSet": "ISO_IR 100",
      "StudyID": "6",
      "StudyTime": "105755.767000",
      "TransmitCoilName": "Body",
      "VariableFlipAngleFlag": "N",
      "WindowCenterWidthExplanation": "Algo1",
      "dBdt": 0.0},
    "slices": {}
  },
  "time": {
    "samples": {
      "AcquisitionNumber": [1, 2, 3, 4, 5, 6, 7, 8, 9, 10, 11, 12, 13, 14, 15, 16, 17, 18, 19, 20, 21, 22, 23, 24, 25, 26, 27, 28, 29, 30, 31, 32, 33, 34, 35, 36, 37, 38, 39, 40, 41, 42, 43, 44, 45, 46, 47, 48, 49, 50, 51, 52, 53, 54, 55, 56, 57, 58, 59, 60, 61, 62, 63, 64, 65, 66, 67, 68, 69, 70, 71, 72, 73, 74, 75, 76, 77, 78, 79, 80, 81, 82, 83, 84, 85, 86, 87, 88, 89, 90, 91, 92, 93, 94, 95, 96, 97, 98, 99, 100, 101, 102, 103, 104, 105, 106, 107, 108, 109, 110, 111, 112, 113, 114, 115, 116, 117, 118, 119, 120, 121, 122, 123, 124, 125, 126, 127, 128, 129, 130, 131, 132, 133, 134, 135, 136, 137, 138, 139, 140, 141, 142, 143, 144, 145, 146, 147, 148, 149, 150, 151, 152, 153, 154, 155, 156, 157, 158, 159, 160, 161, 162, 163, 164, 165, 166, 167, 168, 169, 170, 171, 172, 173, 174, 175, 176, 177, 178, 179, 180, 181, 182, 183, 184, 185, 186, 187, 188, 189, 190, 191, 192, 193, 194, 195, 196, 197, 198, 199, 200, 201, 202, 203, 204, 205, 206, 207, 208, 209, 210, 211, 212, 213, 214, 215, 216, 217, 218, 219, 220, 221, 222, 223, 224, 225, 226, 227, 228, 229, 230, 231, 232, 233, 234, 235, 236, 237, 238, 239, 240, 241, 242, 243, 244, 245, 246, 247, 248, 249, 250, 251, 252, 253, 254, 255, 256, 257, 258, 259, 260, 261, 262, 263, 264, 265, 266, 267, 268, 269, 270, 271, 272, 273, 274, 275, 276, 277, 278, 279, 280, 281, 282, 283, 284, 285, 286, 287, 288, 289, 290, 291, 292, 293, 294, 295, 296, 297, 298, 299, 300, 301, 302, 303, 304, 305, 306, 307, 308, 309, 310, 311, 312, 313, 314, 315, 316, 317, 318, 319, 320, 321, 322, 323, 324, 325, 326, 327, 328, 329, 330, 331, 332, 333, 334, 335, 336, 337, 338, 339, 340, 341, 342, 343, 344, 345, 346, 347, 348, 349, 350, 351, 352, 353, 354, 355, 356, 357, 358, 359, 360, 361, 362, 363, 364, 365, 366, 367, 368, 369, 370, 371, 372, 373, 374, 375, 376, 377, 378, 379, 380, 381, 382, 383, 384, 385, 386, 387, 388, 389, 390, 391, 392, 393, 394, 395, 396, 397, 398, 399, 400, 401, 402, 403, 404, 405, 406, 407, 408, 409, 410, 411, 412, 413, 414, 415, 416, 417, 418, 419, 420, 421, 422, 423, 424, 425, 426, 427, 428, 429, 430, 431, 432, 433, 434, 435, 436, 437, 438, 439, 440, 441, 442, 443, 444, 445, 446, 447, 448, 449, 450, 451, 452, 453, 454, 455, 456, 457, 458, 459, 460, 461, 462, 463, 464, 465, 466, 467, 468, 469, 470, 471, 472, 473, 474, 475, 476, 477, 478, 479, 480, 481, 482, 483, 484, 485, 486, 487, 488, 489, 490, 491, 492, 493, 494, 495, 496, 497, 498, 499, 500, 501, 502, 503, 504, 505, 506, 507, 508, 509, 510, 511, 512, 513, 514, 515, 516, 517, 518, 519, 520, 521, 522, 523, 524, 525, 526, 527, 528, 529, 530, 531, 532, 533, 534, 535, 536, 537, 538, 539, 540, 541, 542, 543, 544, 545, 546, 547, 548, 549, 550, 551, 552, 553, 554, 555, 556, 557, 558, 559, 560, 561, 562, 563, 564, 565, 566, 567, 568, 569, 570, 571, 572, 573, 574, 575, 576, 577, 578, 579, 580, 581, 582, 583, 584, 585, 586, 587, 588, 589, 590, 591, 592, 593, 594, 595, 596, 597, 598, 599, 600, 601, 602, 603, 604, 605, 606, 607, 608, 609, 610, 611, 612, 613, 614, 615, 616, 617, 618, 619, 620, 621, 622, 623, 624, 625, 626, 627, 628, 629, 630, 631, 632, 633, 634, 635, 636, 637, 638, 639, 640, 641, 642, 643, 644, 645, 646, 647, 648, 649, 650, 651, 652, 653, 654, 655, 656, 657, 658, 659, 660, 661, 662, 663, 664, 665, 666, 667, 668, 669, 670, 671, 672, 673, 674, 675, 676, 677, 678, 679, 680, 681, 682, 683, 684, 685, 686, 687, 688, 689, 690, 691, 692, 693, 694, 695, 696, 697, 698, 699, 700, 701, 702, 703, 704, 705, 706, 707, 708, 709, 710, 711, 712, 713, 714, 715, 716, 717, 718, 719, 720, 721, 722, 723, 724, 725, 726, 727, 728, 729, 730, 731, 732, 733, 734, 735, 736, 737, 738, 739, 740, 741, 742, 743, 744, 745, 746, 747, 748, 749, 750, 751, 752, 753, 754, 755, 756, 757, 758, 759, 760, 761, 762, 763, 764, 765, 766, 767, 768, 769, 770, 771, 772, 773, 774, 775, 776, 777, 778, 779, 780, 781, 782, 783, 784, 785, 786, 787, 788, 789, 790, 791, 792, 793, 794, 795, 796, 797, 798, 799, 800, 801, 802, 803, 804, 805, 806, 807, 808, 809, 810, 811, 812, 813, 814, 815, 816, 817, 818, 819, 820, 821, 822, 823, 824, 825, 826, 827, 828, 829, 830, 831, 832, 833, 834, 835, 836, 837, 838, 839, 840, 841, 842, 843, 844, 845, 846, 847, 848, 849, 850, 851, 852, 853, 854, 855, 856, 857, 858, 859, 860, 861, 862, 863, 864, 865, 866, 867, 868, 869, 870, 871, 872],
      "AcquisitionTime": ["114055.955000", "114056.415000", "114056.875000", "114057.335000", "114057.795000", "114058.255000", "114058.715000", "114059.175000", "114059.635000", "114100.095000", "114100.555000", "114101.015000", "114101.475000", "114101.935000", "114102.395000", "114102.855000", "114103.315000", "114103.775000", "114104.235000", "114104.695000", "114105.155000", "114105.615000", "114106.075000", "114106.535000", "114106.995000", "114107.455000", "114107.915000", "114108.375000", "114108.835000", "114109.295000", "114109.755000", "114110.215000", "114110.675000", "114111.135000", "114111.595000", "114112.055000", "114112.515000", "114112.975000", "114113.435000", "114113.895000", "114114.355000", "114114.815000", "114115.275000", "114115.735000", "114116.195000", "114116.655000", "114117.115000", "114117.575000", "114118.035000", "114118.495000", "114118.955000", "114119.415000", "114119.875000", "114120.335000", "114120.795000", "114121.255000", "114121.715000", "114122.175000", "114122.635000", "114123.095000", "114123.555000", "114124.015000", "114124.475000", "114124.935000", "114125.395000", "114125.855000", "114126.315000", "114126.775000", "114127.235000", "114127.695000", "114128.155000", "114128.615000", "114129.075000", "114129.535000", "114129.995000", "114130.455000", "114130.915000", "114131.375000", "114131.835000", "114132.295000", "114132.755000", "114133.215000", "114133.675000", "114134.135000", "114134.595000", "114135.055000", "114135.515000", "114135.975000", "114136.435000", "114136.895000", "114137.355000", "114137.815000", "114138.275000", "114138.735000", "114139.195000", "114139.655000", "114140.115000", "114140.575000", "114141.035000", "114141.495000", "114141.955000", "114142.415000", "114142.875000", "114143.335000", "114143.795000", "114144.255000", "114144.715000", "114145.175000", "114145.635000", "114146.095000", "114146.555000", "114147.015000", "114147.475000", "114147.935000", "114148.395000", "114148.855000", "114149.315000", "114149.775000", "114150.235000", "114150.695000", "114151.155000", "114151.615000", "114152.075000", "114152.535000", "114152.995000", "114153.455000", "114153.915000", "114154.375000", "114154.835000", "114155.295000", "114155.755000", "114156.215000", "114156.675000", "114157.135000", "114157.595000", "114158.055000", "114158.515000", "114158.975000", "114159.435000", "114159.895000", "114200.355000", "114200.815000", "114201.275000", "114201.735000", "114202.195000", "114202.655000", "114203.115000", "114203.575000", "114204.035000", "114204.495000", "114204.955000", "114205.415000", "114205.875000", "114206.335000", "114206.795000", "114207.255000", "114207.715000", "114208.175000", "114208.635000", "114209.095000", "114209.555000", "114210.015000", "114210.475000", "114210.935000", "114211.395000", "114211.855000", "114212.315000", "114212.775000", "114213.235000", "114213.695000", "114214.155000", "114214.615000", "114215.075000", "114215.535000", "114215.995000", "114216.455000", "114216.915000", "114217.375000", "114217.835000", "114218.295000", "114218.755000", "114219.215000", "114219.675000", "114220.135000", "114220.595000", "114221.055000", "114221.515000", "114221.975000", "114222.435000", "114222.895000", "114223.355000", "114223.815000", "114224.275000", "114224.735000", "114225.195000", "114225.655000", "114226.115000", "114226.575000", "114227.035000", "114227.495000", "114227.955000", "114228.415000", "114228.875000", "114229.335000", "114229.795000", "114230.255000", "114230.715000", "114231.175000", "114231.635000", "114232.095000", "114232.555000", "114233.015000", "114233.475000", "114233.935000", "114234.395000", "114234.855000", "114235.315000", "114235.775000", "114236.235000", "114236.695000", "114237.155000", "114237.615000", "114238.075000", "114238.535000", "114238.995000", "114239.455000", "114239.915000", "114240.375000", "114240.835000", "114241.295000", "114241.755000", "114242.215000", "114242.675000", "114243.135000", "114243.595000", "114244.055000", "114244.515000", "114244.975000", "114245.435000", "114245.895000", "114246.355000", "114246.815000", "114247.275000", "114247.735000", "114248.195000", "114248.655000", "114249.115000", "114249.575000", "114250.035000", "114250.495000", "114250.955000", "114251.415000", "114251.875000", "114252.335000", "114252.795000", "114253.255000", "114253.715000", "114254.175000", "114254.635000", "114255.095000", "114255.555000", "114256.015000", "114256.475000", "114256.935000", "114257.395000", "114257.855000", "114258.315000", "114258.775000", "114259.235000", "114259.695000", "114300.155000", "114300.615000", "114301.075000", "114301.535000", "114301.995000", "114302.455000", "114302.915000", "114303.375000", "114303.835000", "114304.295000", "114304.755000", "114305.215000", "114305.675000", "114306.135000", "114306.595000", "114307.055000", "114307.515000", "114307.975000", "114308.435000", "114308.895000", "114309.355000", "114309.815000", "114310.275000", "114310.735000", "114311.195000", "114311.655000", "114312.115000", "114312.575000", "114313.035000", "114313.495000", "114313.955000", "114314.415000", "114314.875000", "114315.335000", "114315.795000", "114316.255000", "114316.715000", "114317.175000", "114317.635000", "114318.095000", "114318.555000", "114319.015000", "114319.475000", "114319.935000", "114320.395000", "114320.855000", "114321.315000", "114321.775000", "114322.235000", "114322.695000", "114323.155000", "114323.615000", "114324.075000", "114324.535000", "114324.995000", "114325.455000", "114325.915000", "114326.375000", "114326.835000", "114327.295000", "114327.755000", "114328.215000", "114328.675000", "114329.135000", "114329.595000", "114330.055000", "114330.515000", "114330.975000", "114331.435000", "114331.895000", "114332.355000", "114332.815000", "114333.275000", "114333.735000", "114334.195000", "114334.655000", "114335.115000", "114335.575000", "114336.035000", "114336.495000", "114336.955000", "114337.415000", "114337.875000", "114338.335000", "114338.795000", "114339.255000", "114339.715000", "114340.175000", "114340.635000", "114341.095000", "114341.555000", "114342.015000", "114342.475000", "114342.935000", "114343.395000", "114343.855000", "114344.315000", "114344.775000", "114345.235000", "114345.695000", "114346.155000", "114346.615000", "114347.075000", "114347.535000", "114347.995000", "114348.455000", "114348.915000", "114349.375000", "114349.835000", "114350.295000", "114350.755000", "114351.215000", "114351.675000", "114352.135000", "114352.595000", "114353.055000", "114353.515000", "114353.975000", "114354.435000", "114354.895000", "114355.355000", "114355.815000", "114356.275000", "114356.735000", "114357.195000", "114357.655000", "114358.115000", "114358.575000", "114359.035000", "114359.495000", "114359.955000", "114400.415000", "114400.875000", "114401.335000", "114401.795000", "114402.255000", "114402.715000", "114403.175000", "114403.635000", "114404.095000", "114404.555000", "114405.015000", "114405.475000", "114405.935000", "114406.395000", "114406.855000", "114407.315000", "114407.775000", "114408.235000", "114408.695000", "114409.155000", "114409.615000", "114410.075000", "114410.535000", "114410.995000", "114411.455000", "114411.915000", "114412.375000", "114412.835000", "114413.295000", "114413.755000", "114414.215000", "114414.675000", "114415.135000", "114415.595000", "114416.055000", "114416.515000", "114416.975000", "114417.435000", "114417.895000", "114418.355000", "114418.815000", "114419.275000", "114419.735000", "114420.195000", "114420.655000", "114421.115000", "114421.575000", "114422.035000", "114422.495000", "114422.955000", "114423.415000", "114423.875000", "114424.335000", "114424.795000", "114425.255000", "114425.715000", "114426.175000", "114426.635000", "114427.095000", "114427.555000", "114428.015000", "114428.475000", "114428.935000", "114429.395000", "114429.855000", "114430.315000", "114430.775000", "114431.235000", "114431.695000", "114432.155000", "114432.615000", "114433.075000", "114433.535000", "114433.995000", "114434.455000", "114434.915000", "114435.375000", "114435.835000", "114436.295000", "114436.755000", "114437.215000", "114437.675000", "114438.135000", "114438.595000", "114439.055000", "114439.515000", "114439.975000", "114440.435000", "114440.895000", "114441.355000", "114441.815000", "114442.275000", "114442.735000", "114443.195000", "114443.655000", "114444.115000", "114444.575000", "114445.035000", "114445.495000", "114445.955000", "114446.415000", "114446.875000", "114447.335000", "114447.795000", "114448.255000", "114448.715000", "114449.175000", "114449.635000", "114450.095000", "114450.555000", "114451.015000", "114451.475000", "114451.935000", "114452.395000", "114452.855000", "114453.315000", "114453.775000", "114454.235000", "114454.695000", "114455.155000", "114455.615000", "114456.075000", "114456.535000", "114456.995000", "114457.455000", "114457.915000", "114458.375000", "114458.835000", "114459.295000", "114459.755000", "114500.215000", "114500.675000", "114501.135000", "114501.595000", "114502.055000", "114502.515000", "114502.975000", "114503.435000", "114503.895000", "114504.355000", "114504.815000", "114505.275000", "114505.735000", "114506.195000", "114506.655000", "114507.115000", "114507.575000", "114508.035000", "114508.495000", "114508.955000", "114509.415000", "114509.875000", "114510.335000", "114510.795000", "114511.255000", "114511.715000", "114512.175000", "114512.635000", "114513.095000", "114513.555000", "114514.015000", "114514.475000", "114514.935000", "114515.395000", "114515.855000", "114516.315000", "114516.775000", "114517.235000", "114517.695000", "114518.155000", "114518.615000", "114519.075000", "114519.535000", "114519.995000", "114520.455000", "114520.915000", "114521.375000", "114521.835000", "114522.295000", "114522.755000", "114523.215000", "114523.675000", "114524.135000", "114524.595000", "114525.055000", "114525.515000", "114525.975000", "114526.435000", "114526.895000", "114527.355000", "114527.815000", "114528.275000", "114528.735000", "114529.195000", "114529.655000", "114530.115000", "114530.575000", "114531.035000", "114531.495000", "114531.955000", "114532.415000", "114532.875000", "114533.335000", "114533.795000", "114534.255000", "114534.715000", "114535.175000", "114535.635000", "114536.095000", "114536.555000", "114537.015000", "114537.475000", "114537.935000", "114538.395000", "114538.855000", "114539.315000", "114539.775000", "114540.235000", "114540.695000", "114541.155000", "114541.615000", "114542.075000", "114542.535000", "114542.995000", "114543.455000", "114543.915000", "114544.375000", "114544.835000", "114545.295000", "114545.755000", "114546.215000", "114546.675000", "114547.135000", "114547.595000", "114548.055000", "114548.515000", "114548.975000", "114549.435000", "114549.895000", "114550.355000", "114550.815000", "114551.275000", "114551.735000", "114552.195000", "114552.655000", "114553.115000", "114553.575000", "114554.035000", "114554.495000", "114554.955000", "114555.415000", "114555.875000", "114556.335000", "114556.795000", "114557.255000", "114557.715000", "114558.175000", "114558.635000", "114559.095000", "114559.555000", "114600.015000", "114600.475000", "114600.935000", "114601.395000", "114601.855000", "114602.315000", "114602.775000", "114603.235000", "114603.695000", "114604.155000", "114604.615000", "114605.075000", "114605.535000", "114605.995000", "114606.455000", "114606.915000", "114607.375000", "114607.835000", "114608.295000", "114608.755000", "114609.215000", "114609.675000", "114610.135000", "114610.595000", "114611.055000", "114611.515000", "114611.975000", "114612.435000", "114612.895000", "114613.355000", "114613.815000", "114614.275000", "114614.735000", "114615.195000", "114615.655000", "114616.115000", "114616.575000", "114617.035000", "114617.495000", "114617.955000", "114618.415000", "114618.875000", "114619.335000", "114619.795000", "114620.255000", "114620.715000", "114621.175000", "114621.635000", "114622.095000", "114622.555000", "114623.015000", "114623.475000", "114623.935000", "114624.395000", "114624.855000", "114625.315000", "114625.775000", "114626.235000", "114626.695000", "114627.155000", "114627.615000", "114628.075000", "114628.535000", "114628.995000", "114629.455000", "114629.915000", "114630.375000", "114630.835000", "114631.295000", "114631.755000", "114632.215000", "114632.675000", "114633.135000", "114633.595000", "114634.055000", "114634.515000", "114634.975000", "114635.435000", "114635.895000", "114636.355000", "114636.815000", "114637.275000", "114637.735000", "114638.195000", "114638.655000", "114639.115000", "114639.575000", "114640.035000", "114640.495000", "114640.955000", "114641.415000", "114641.875000", "114642.335000", "114642.795000", "114643.255000", "114643.715000", "114644.175000", "114644.635000", "114645.095000", "114645.555000", "114646.015000", "114646.475000", "114646.935000", "114647.395000", "114647.855000", "114648.315000", "114648.775000", "114649.235000", "114649.695000", "114650.155000", "114650.615000", "114651.075000", "114651.535000", "114651.995000", "114652.455000", "114652.915000", "114653.375000", "114653.835000", "114654.295000", "114654.755000", "114655.215000", "114655.675000", "114656.135000", "114656.595000", "114657.055000", "114657.515000", "114657.975000", "114658.435000", "114658.895000", "114659.355000", "114659.815000", "114700.275000", "114700.735000", "114701.195000", "114701.655000", "114702.115000", "114702.575000", "114703.035000", "114703.495000", "114703.955000", "114704.415000", "114704.875000", "114705.335000", "114705.795000", "114706.255000", "114706.715000", "114707.175000", "114707.635000", "114708.095000", "114708.555000", "114709.015000", "114709.475000", "114709.935000", "114710.395000", "114710.855000", "114711.315000", "114711.775000", "114712.235000", "114712.695000", "114713.155000", "114713.615000", "114714.075000", "114714.535000", "114714.995000", "114715.455000", "114715.915000", "114716.375000", "114716.835000", "114717.295000", "114717.755000", "114718.215000", "114718.675000", "114719.135000", "114719.595000", "114720.055000", "114720.515000", "114720.975000", "114721.435000", "114721.895000", "114722.355000", "114722.815000", "114723.275000", "114723.735000", "114724.195000", "114724.655000", "114725.115000", "114725.575000", "114726.035000", "114726.495000", "114726.955000", "114727.415000", "114727.875000", "114728.335000", "114728.795000", "114729.255000", "114729.715000", "114730.175000", "114730.635000", "114731.095000", "114731.555000", "114732.015000", "114732.475000", "114732.935000", "114733.395000", "114733.855000", "114734.315000", "114734.775000", "114735.235000", "114735.695000", "114736.155000", "114736.615000"],
