{
  "AcquisitionMatrixPE": 82,
  "AcquisitionNumber": 1,
  "AcquisitionTime": "11:48:0.655000",
  "BandwidthPerPixelPhaseEncode": 24.888,
  "BaseResolution": 82,
  "BodyPartExamined": "BRAIN",
  "ConsistencyInfo": "N4_VE11C_LATEST_20160120",
  "ConversionSoftware": "dcm2niix",
  "ConversionSoftwareVersion": "v1.0.20201102",
  "DerivedVendorReportedEchoSpacing": 0.00049,
  "DeviceSerialNumber": "66112",
  "DwellTime": 2e-06,
  "EchoTime": 0.0272,
  "EchoTrainLength": 82,
  "EffectiveEchoSpacing": 0.00049,
  "FlipAngle": 44,
  "ImageComments": "Unaliased MB8/PE3",
  "ImageOrientationPatientDICOM": [0.997689, -0.0543164, 0.0408135, 0.0477479, 0.987902, 0.147543],
  "ImageType": [
    "ORIGINAL",
    "PRIMARY",
    "M",
    "MB",
    "ND",
    "NORM",
    "MOSAIC"
],
  "ImagingFrequency": 123.252,
  "InPlanePhaseEncodingDirectionDICOM": "COL",
  "InstitutionAddress": "Maynard 3,Hanover,NH,US,03755",
  "InstitutionName": "Dartmouth College - PBS",
  "InstitutionalDepartmentName": "Department",
  "MRAcquisitionType": "2D",
  "MagneticFieldStrength": 3,
  "Manufacturer": "Siemens",
  "ManufacturersModelName": "Prisma",
  "Modality": "MR",
  "MultibandAccelerationFactor": 8,
  "PartialFourier": 1,
  "PatientPosition": "HFS",
  "PercentPhaseFOV": 100,
  "PercentSampling": 100,
  "PhaseEncodingDirection": "j-",
  "PhaseEncodingSteps": 82,
  "PhaseResolution": 1,
  "PixelBandwidth": 3050,
  "ProcedureStepDescription": "Wager_Wager^1076_spacetop",
  "ProtocolName": "func_run-03_task-social_acq-ap-mb8",
  "PulseSequenceDetails": "%CustomerSeq%\\cmrr_mbep2d_bold",
  "ReceiveCoilActiveElements": "HEA;HEP",
  "ReceiveCoilName": "Head_32",
  "ReconMatrixPE": 82,
  "RepetitionTime": 0.46,
  "SAR": 0.110622,
  "ScanOptions": "FS",
  "ScanningSequence": "EP",
  "SequenceName": "epfid2d1_82",
  "SequenceVariant": "SK\\SS",
  "SeriesDescription": "func_run-03_task-social_acq-ap-mb8",
  "SeriesNumber": 16,
  "ShimSetting": [4142, -7760, -7247, 655, -33, -150, 51, 91],
  "SliceThickness": 2.7,
  "SliceTiming": [0, 0.2525, 0.0625, 0.315, 0.125, 0.3775, 0.19, 0, 0.2525, 0.0625, 0.315, 0.125, 0.3775, 0.19, 0, 0.2525, 0.0625, 0.315, 0.125, 0.3775, 0.19, 0, 0.2525, 0.0625, 0.315, 0.125, 0.3775, 0.19, 0, 0.2525, 0.0625, 0.315, 0.125, 0.3775, 0.19, 0, 0.2525, 0.0625, 0.315, 0.125, 0.3775, 0.19, 0, 0.2525, 0.0625, 0.315, 0.125, 0.3775, 0.19, 0, 0.2525, 0.0625, 0.315, 0.125, 0.3775, 0.19],
  "SoftwareVersions": "syngo MR E11",
  "SpacingBetweenSlices": 2.7,
  "StationName": "AWP66112",
  "TaskName": "social",
  "TotalReadoutTime": 0.03969,
  "TxRefAmp": 251.446,
  "WipMemBlock": "d8a8f0c9-5a79-4169-9ece-b5a31f0f2bfc||Sequence: R016 ve11c/master r/e634e98; Dec 19 2017 11:00:25 by eja",
  "dcmmeta_affine": [
    [-2.676727533340454, 0.12810412049293518, 0.13050124049186707, 106.7165756225586],
    [0.14572694897651672, 2.650470018386841, 0.3921830952167511, -108.0225830078125],
    [0.10949975997209549, -0.39584624767303467, 2.66817569732666, -40.65398025512695],
    [0.0, 0.0, 0.0, 1.0]
],
  "dcmmeta_reorient_transform": [
    [0.0, -1.0, 0.0, 81.0],
    [1.0, 0.0, 0.0, 0.0],
    [0.0, 0.0, 1.0, 0.0],
    [0.0, 0.0, 0.0, 1.0]
],
  "dcmmeta_shape": [82, 82, 56, 872],
  "dcmmeta_slice_dim": 2,
  "dcmmeta_version": 0.6,
  "global": {
    "const": {
      "AccessionNumber": "A003774",
      "AcquisitionMatrix": [82, 0, 0, 82],
      "AngioFlag": "N",
      "BitsAllocated": 16,
      "BitsStored": 16,
      "BodyPartExamined": "BRAIN",
      "Columns": 656,
      "EchoNumbers": 1,
      "EchoTime": 27.2,
      "EchoTrainLength": 82,
      "FlipAngle": 44.0,
      "HighBit": 15,
      "ImageOrientationPatient": [0.99768932165169, -0.0543164051923, 0.04081354663814, 0.04774790070073, 0.98790247182309, 0.14754268583875],
      "ImagePositionPatient": [-922.07969251745, -825.52678059001, -217.75182913823],
      "ImageType": [
        "ORIGINAL",
        "PRIMARY",
        "M",
        "MB",
        "ND",
        "NORM",
        "MOSAIC"
],
      "ImagedNucleus": "1H",
      "ImagingFrequency": 123.252188,
      "InPlanePhaseEncodingDirection": "COL",
      "MRAcquisitionType": "2D",
      "MagneticFieldStrength": 3.0,
      "Manufacturer": "SIEMENS",
      "ManufacturerModelName": "Prisma",
      "Modality": "MR",
      "NumberOfAverages": 1.0,
      "NumberOfPhaseEncodingSteps": 82,
      "PercentPhaseFieldOfView": 100.0,
      "PercentSampling": 100.0,
      "PerformedProcedureStepStartTime": "105755.814000",
      "PhotometricInterpretation": "MONOCHROME2",
      "PixelBandwidth": 3050.0,
      "PixelRepresentation": 0,
      "PixelSpacing": [2.6829268932343, 2.6829268932343],
      "ProtocolName": "func_run-03_task-social_acq-ap-mb8",
      "RepetitionTime": 460.0,
      "Rows": 656,
      "SAR": 0.1106222052071,
      "SamplesPerPixel": 1,
      "ScanOptions": "FS",
      "ScanningSequence": "EP",
      "SequenceName": "epfid2d1_82",
      "SequenceVariant": [
        "SK",
        "SS"
],
      "SeriesDescription": "func_run-03_task-social_acq-ap-mb8",
      "SeriesNumber": 16,
      "SeriesTime": "114830.008000",
      "SliceLocation": -50.707390615465,
      "SliceThickness": 2.7000000476837,
      "SmallestImagePixelValue": 0,
      "SoftwareVersions": "syngo MR E11",
      "SpacingBetweenSlices": 2.7000000350141,
      "SpecificCharacterSet": "ISO_IR 100",
      "StudyID": "6",
      "StudyTime": "105755.767000",
      "TransmitCoilName": "Body",
      "VariableFlipAngleFlag": "N",
      "WindowCenterWidthExplanation": "Algo1",
      "dBdt": 0.0},
    "slices": {}
  },
  "time": {
    "samples": {
      "AcquisitionNumber": [1, 2, 3, 4, 5, 6, 7, 8, 9, 10, 11, 12, 13, 14, 15, 16, 17, 18, 19, 20, 21, 22, 23, 24, 25, 26, 27, 28, 29, 30, 31, 32, 33, 34, 35, 36, 37, 38, 39, 40, 41, 42, 43, 44, 45, 46, 47, 48, 49, 50, 51, 52, 53, 54, 55, 56, 57, 58, 59, 60, 61, 62, 63, 64, 65, 66, 67, 68, 69, 70, 71, 72, 73, 74, 75, 76, 77, 78, 79, 80, 81, 82, 83, 84, 85, 86, 87, 88, 89, 90, 91, 92, 93, 94, 95, 96, 97, 98, 99, 100, 101, 102, 103, 104, 105, 106, 107, 108, 109, 110, 111, 112, 113, 114, 115, 116, 117, 118, 119, 120, 121, 122, 123, 124, 125, 126, 127, 128, 129, 130, 131, 132, 133, 134, 135, 136, 137, 138, 139, 140, 141, 142, 143, 144, 145, 146, 147, 148, 149, 150, 151, 152, 153, 154, 155, 156, 157, 158, 159, 160, 161, 162, 163, 164, 165, 166, 167, 168, 169, 170, 171, 172, 173, 174, 175, 176, 177, 178, 179, 180, 181, 182, 183, 184, 185, 186, 187, 188, 189, 190, 191, 192, 193, 194, 195, 196, 197, 198, 199, 200, 201, 202, 203, 204, 205, 206, 207, 208, 209, 210, 211, 212, 213, 214, 215, 216, 217, 218, 219, 220, 221, 222, 223, 224, 225, 226, 227, 228, 229, 230, 231, 232, 233, 234, 235, 236, 237, 238, 239, 240, 241, 242, 243, 244, 245, 246, 247, 248, 249, 250, 251, 252, 253, 254, 255, 256, 257, 258, 259, 260, 261, 262, 263, 264, 265, 266, 267, 268, 269, 270, 271, 272, 273, 274, 275, 276, 277, 278, 279, 280, 281, 282, 283, 284, 285, 286, 287, 288, 289, 290, 291, 292, 293, 294, 295, 296, 297, 298, 299, 300, 301, 302, 303, 304, 305, 306, 307, 308, 309, 310, 311, 312, 313, 314, 315, 316, 317, 318, 319, 320, 321, 322, 323, 324, 325, 326, 327, 328, 329, 330, 331, 332, 333, 334, 335, 336, 337, 338, 339, 340, 341, 342, 343, 344, 345, 346, 347, 348, 349, 350, 351, 352, 353, 354, 355, 356, 357, 358, 359, 360, 361, 362, 363, 364, 365, 366, 367, 368, 369, 370, 371, 372, 373, 374, 375, 376, 377, 378, 379, 380, 381, 382, 383, 384, 385, 386, 387, 388, 389, 390, 391, 392, 393, 394, 395, 396, 397, 398, 399, 400, 401, 402, 403, 404, 405, 406, 407, 408, 409, 410, 411, 412, 413, 414, 415, 416, 417, 418, 419, 420, 421, 422, 423, 424, 425, 426, 427, 428, 429, 430, 431, 432, 433, 434, 435, 436, 437, 438, 439, 440, 441, 442, 443, 444, 445, 446, 447, 448, 449, 450, 451, 452, 453, 454, 455, 456, 457, 458, 459, 460, 461, 462, 463, 464, 465, 466, 467, 468, 469, 470, 471, 472, 473, 474, 475, 476, 477, 478, 479, 480, 481, 482, 483, 484, 485, 486, 487, 488, 489, 490, 491, 492, 493, 494, 495, 496, 497, 498, 499, 500, 501, 502, 503, 504, 505, 506, 507, 508, 509, 510, 511, 512, 513, 514, 515, 516, 517, 518, 519, 520, 521, 522, 523, 524, 525, 526, 527, 528, 529, 530, 531, 532, 533, 534, 535, 536, 537, 538, 539, 540, 541, 542, 543, 544, 545, 546, 547, 548, 549, 550, 551, 552, 553, 554, 555, 556, 557, 558, 559, 560, 561, 562, 563, 564, 565, 566, 567, 568, 569, 570, 571, 572, 573, 574, 575, 576, 577, 578, 579, 580, 581, 582, 583, 584, 585, 586, 587, 588, 589, 590, 591, 592, 593, 594, 595, 596, 597, 598, 599, 600, 601, 602, 603, 604, 605, 606, 607, 608, 609, 610, 611, 612, 613, 614, 615, 616, 617, 618, 619, 620, 621, 622, 623, 624, 625, 626, 627, 628, 629, 630, 631, 632, 633, 634, 635, 636, 637, 638, 639, 640, 641, 642, 643, 644, 645, 646, 647, 648, 649, 650, 651, 652, 653, 654, 655, 656, 657, 658, 659, 660, 661, 662, 663, 664, 665, 666, 667, 668, 669, 670, 671, 672, 673, 674, 675, 676, 677, 678, 679, 680, 681, 682, 683, 684, 685, 686, 687, 688, 689, 690, 691, 692, 693, 694, 695, 696, 697, 698, 699, 700, 701, 702, 703, 704, 705, 706, 707, 708, 709, 710, 711, 712, 713, 714, 715, 716, 717, 718, 719, 720, 721, 722, 723, 724, 725, 726, 727, 728, 729, 730, 731, 732, 733, 734, 735, 736, 737, 738, 739, 740, 741, 742, 743, 744, 745, 746, 747, 748, 749, 750, 751, 752, 753, 754, 755, 756, 757, 758, 759, 760, 761, 762, 763, 764, 765, 766, 767, 768, 769, 770, 771, 772, 773, 774, 775, 776, 777, 778, 779, 780, 781, 782, 783, 784, 785, 786, 787, 788, 789, 790, 791, 792, 793, 794, 795, 796, 797, 798, 799, 800, 801, 802, 803, 804, 805, 806, 807, 808, 809, 810, 811, 812, 813, 814, 815, 816, 817, 818, 819, 820, 821, 822, 823, 824, 825, 826, 827, 828, 829, 830, 831, 832, 833, 834, 835, 836, 837, 838, 839, 840, 841, 842, 843, 844, 845, 846, 847, 848, 849, 850, 851, 852, 853, 854, 855, 856, 857, 858, 859, 860, 861, 862, 863, 864, 865, 866, 867, 868, 869, 870, 871, 872],
      "AcquisitionTime": ["114800.655000", "114801.115000", "114801.575000", "114802.035000", "114802.495000", "114802.955000", "114803.415000", "114803.875000", "114804.335000", "114804.795000", "114805.255000", "114805.715000", "114806.175000", "114806.635000", "114807.095000", "114807.555000", "114808.015000", "114808.475000", "114808.935000", "114809.395000", "114809.855000", "114810.315000", "114810.775000", "114811.235000", "114811.695000", "114812.155000", "114812.615000", "114813.075000", "114813.535000", "114813.995000", "114814.455000", "114814.915000", "114815.375000", "114815.835000", "114816.295000", "114816.755000", "114817.215000", "114817.675000", "114818.135000", "114818.595000", "114819.055000", "114819.515000", "114819.975000", "114820.435000", "114820.895000", "114821.355000", "114821.815000", "114822.275000", "114822.735000", "114823.195000", "114823.655000", "114824.115000", "114824.575000", "114825.035000", "114825.495000", "114825.955000", "114826.415000", "114826.875000", "114827.335000", "114827.795000", "114828.255000", "114828.715000", "114829.175000", "114829.635000", "114830.095000", "114830.555000", "114831.015000", "114831.475000", "114831.935000", "114832.395000", "114832.855000", "114833.315000", "114833.775000", "114834.235000", "114834.695000", "114835.155000", "114835.615000", "114836.075000", "114836.535000", "114836.995000", "114837.455000", "114837.915000", "114838.375000", "114838.835000", "114839.295000", "114839.755000", "114840.215000", "114840.675000", "114841.135000", "114841.595000", "114842.055000", "114842.515000", "114842.975000", "114843.435000", "114843.895000", "114844.355000", "114844.815000", "114845.275000", "114845.735000", "114846.195000", "114846.655000", "114847.115000", "114847.575000", "114848.035000", "114848.495000", "114848.955000", "114849.415000", "114849.875000", "114850.335000", "114850.795000", "114851.255000", "114851.715000", "114852.175000", "114852.635000", "114853.095000", "114853.555000", "114854.015000", "114854.475000", "114854.935000", "114855.395000", "114855.855000", "114856.315000", "114856.775000", "114857.235000", "114857.695000", "114858.155000", "114858.615000", "114859.075000", "114859.535000", "114859.995000", "114900.455000", "114900.915000", "114901.375000", "114901.835000", "114902.295000", "114902.755000", "114903.215000", "114903.675000", "114904.135000", "114904.595000", "114905.055000", "114905.515000", "114905.975000", "114906.435000", "114906.895000", "114907.355000", "114907.815000", "114908.275000", "114908.735000", "114909.195000", "114909.655000", "114910.115000", "114910.575000", "114911.035000", "114911.495000", "114911.955000", "114912.415000", "114912.875000", "114913.335000", "114913.795000", "114914.255000", "114914.715000", "114915.175000", "114915.635000", "114916.095000", "114916.555000", "114917.015000", "114917.475000", "114917.935000", "114918.395000", "114918.855000", "114919.315000", "114919.775000", "114920.235000", "114920.695000", "114921.155000", "114921.615000", "114922.075000", "114922.535000", "114922.995000", "114923.455000", "114923.915000", "114924.375000", "114924.835000", "114925.295000", "114925.755000", "114926.215000", "114926.675000", "114927.135000", "114927.595000", "114928.055000", "114928.515000", "114928.975000", "114929.435000", "114929.895000", "114930.355000", "114930.815000", "114931.275000", "114931.735000", "114932.195000", "114932.655000", "114933.115000", "114933.575000", "114934.035000", "114934.495000", "114934.955000", "114935.415000", "114935.875000", "114936.335000", "114936.795000", "114937.255000", "114937.715000", "114938.175000", "114938.635000", "114939.095000", "114939.555000", "114940.015000", "114940.475000", "114940.935000", "114941.395000", "114941.855000", "114942.315000", "114942.775000", "114943.235000", "114943.695000", "114944.155000", "114944.615000", "114945.075000", "114945.535000", "114945.995000", "114946.455000", "114946.915000", "114947.375000", "114947.835000", "114948.295000", "114948.755000", "114949.215000", "114949.675000", "114950.135000", "114950.595000", "114951.055000", "114951.515000", "114951.975000", "114952.435000", "114952.895000", "114953.355000", "114953.815000", "114954.275000", "114954.735000", "114955.195000", "114955.655000", "114956.115000", "114956.575000", "114957.035000", "114957.495000", "114957.955000", "114958.415000", "114958.875000", "114959.335000", "114959.795000", "115000.255000", "115000.715000", "115001.175000", "115001.635000", "115002.095000", "115002.555000", "115003.015000", "115003.475000", "115003.935000", "115004.395000", "115004.855000", "115005.315000", "115005.775000", "115006.235000", "115006.695000", "115007.155000", "115007.615000", "115008.075000", "115008.535000", "115008.995000", "115009.455000", "115009.915000", "115010.375000", "115010.835000", "115011.295000", "115011.755000", "115012.215000", "115012.675000", "115013.135000", "115013.595000", "115014.055000", "115014.515000", "115014.975000", "115015.435000", "115015.895000", "115016.355000", "115016.815000", "115017.275000", "115017.735000", "115018.195000", "115018.655000", "115019.115000", "115019.575000", "115020.035000", "115020.495000", "115020.955000", "115021.415000", "115021.875000", "115022.335000", "115022.795000", "115023.255000", "115023.715000", "115024.175000", "115024.635000", "115025.095000", "115025.555000", "115026.015000", "115026.475000", "115026.935000", "115027.395000", "115027.855000", "115028.315000", "115028.775000", "115029.235000", "115029.695000", "115030.155000", "115030.615000", "115031.075000", "115031.535000", "115031.995000", "115032.455000", "115032.915000", "115033.375000", "115033.835000", "115034.295000", "115034.755000", "115035.215000", "115035.675000", "115036.135000", "115036.595000", "115037.055000", "115037.515000", "115037.975000", "115038.435000", "115038.895000", "115039.355000", "115039.815000", "115040.275000", "115040.735000", "115041.195000", "115041.655000", "115042.115000", "115042.575000", "115043.035000", "115043.495000", "115043.955000", "115044.415000", "115044.875000", "115045.335000", "115045.795000", "115046.255000", "115046.715000", "115047.175000", "115047.635000", "115048.095000", "115048.555000", "115049.015000", "115049.475000", "115049.935000", "115050.395000", "115050.855000", "115051.315000", "115051.775000", "115052.235000", "115052.695000", "115053.155000", "115053.615000", "115054.075000", "115054.535000", "115054.995000", "115055.455000", "115055.915000", "115056.375000", "115056.835000", "115057.295000", "115057.755000", "115058.215000", "115058.675000", "115059.135000", "115059.595000", "115100.055000", "115100.515000", "115100.975000", "115101.435000", "115101.895000", "115102.355000", "115102.815000", "115103.275000", "115103.735000", "115104.195000", "115104.655000", "115105.115000", "115105.575000", "115106.035000", "115106.495000", "115106.955000", "115107.415000", "115107.875000", "115108.335000", "115108.795000", "115109.255000", "115109.715000", "115110.175000", "115110.635000", "115111.095000", "115111.555000", "115112.015000", "115112.475000", "115112.935000", "115113.395000", "115113.855000", "115114.315000", "115114.775000", "115115.235000", "115115.695000", "115116.155000", "115116.615000", "115117.075000", "115117.535000", "115117.995000", "115118.455000", "115118.915000", "115119.375000", "115119.835000", "115120.295000", "115120.755000", "115121.215000", "115121.675000", "115122.135000", "115122.595000", "115123.055000", "115123.515000", "115123.975000", "115124.435000", "115124.895000", "115125.355000", "115125.815000", "115126.275000", "115126.735000", "115127.195000", "115127.655000", "115128.115000", "115128.575000", "115129.035000", "115129.495000", "115129.955000", "115130.415000", "115130.875000", "115131.335000", "115131.795000", "115132.255000", "115132.715000", "115133.175000", "115133.635000", "115134.095000", "115134.555000", "115135.015000", "115135.475000", "115135.935000", "115136.395000", "115136.855000", "115137.315000", "115137.775000", "115138.235000", "115138.695000", "115139.155000", "115139.615000", "115140.075000", "115140.535000", "115140.995000", "115141.455000", "115141.915000", "115142.375000", "115142.835000", "115143.295000", "115143.755000", "115144.215000", "115144.675000", "115145.135000", "115145.595000", "115146.055000", "115146.515000", "115146.975000", "115147.435000", "115147.895000", "115148.355000", "115148.815000", "115149.275000", "115149.735000", "115150.195000", "115150.655000", "115151.115000", "115151.575000", "115152.035000", "115152.495000", "115152.955000", "115153.415000", "115153.875000", "115154.335000", "115154.795000", "115155.255000", "115155.715000", "115156.175000", "115156.635000", "115157.095000", "115157.555000", "115158.015000", "115158.475000", "115158.935000", "115159.395000", "115159.855000", "115200.315000", "115200.775000", "115201.235000", "115201.695000", "115202.155000", "115202.615000", "115203.075000", "115203.535000", "115203.995000", "115204.455000", "115204.915000", "115205.375000", "115205.835000", "115206.295000", "115206.755000", "115207.215000", "115207.675000", "115208.135000", "115208.595000", "115209.055000", "115209.515000", "115209.975000", "115210.435000", "115210.895000", "115211.355000", "115211.815000", "115212.275000", "115212.735000", "115213.195000", "115213.655000", "115214.115000", "115214.575000", "115215.035000", "115215.495000", "115215.955000", "115216.415000", "115216.875000", "115217.335000", "115217.795000", "115218.255000", "115218.715000", "115219.175000", "115219.635000", "115220.095000", "115220.555000", "115221.015000", "115221.475000", "115221.935000", "115222.395000", "115222.855000", "115223.315000", "115223.775000", "115224.235000", "115224.695000", "115225.155000", "115225.615000", "115226.075000", "115226.535000", "115226.995000", "115227.455000", "115227.915000", "115228.375000", "115228.835000", "115229.295000", "115229.755000", "115230.215000", "115230.675000", "115231.135000", "115231.595000", "115232.055000", "115232.515000", "115232.975000", "115233.435000", "115233.895000", "115234.355000", "115234.815000", "115235.275000", "115235.735000", "115236.195000", "115236.655000", "115237.115000", "115237.575000", "115238.035000", "115238.495000", "115238.955000", "115239.415000", "115239.875000", "115240.335000", "115240.795000", "115241.255000", "115241.715000", "115242.175000", "115242.635000", "115243.095000", "115243.555000", "115244.015000", "115244.475000", "115244.935000", "115245.395000", "115245.855000", "115246.315000", "115246.775000", "115247.235000", "115247.695000", "115248.155000", "115248.615000", "115249.075000", "115249.535000", "115249.995000", "115250.455000", "115250.915000", "115251.375000", "115251.835000", "115252.295000", "115252.755000", "115253.215000", "115253.675000", "115254.135000", "115254.595000", "115255.055000", "115255.515000", "115255.975000", "115256.435000", "115256.895000", "115257.355000", "115257.815000", "115258.275000", "115258.735000", "115259.195000", "115259.655000", "115300.115000", "115300.575000", "115301.035000", "115301.495000", "115301.955000", "115302.415000", "115302.875000", "115303.335000", "115303.795000", "115304.255000", "115304.715000", "115305.175000", "115305.635000", "115306.095000", "115306.555000", "115307.015000", "115307.475000", "115307.935000", "115308.395000", "115308.855000", "115309.315000", "115309.775000", "115310.235000", "115310.695000", "115311.155000", "115311.615000", "115312.075000", "115312.535000", "115312.995000", "115313.455000", "115313.915000", "115314.375000", "115314.835000", "115315.295000", "115315.755000", "115316.215000", "115316.675000", "115317.135000", "115317.595000", "115318.055000", "115318.515000", "115318.975000", "115319.435000", "115319.895000", "115320.355000", "115320.815000", "115321.275000", "115321.735000", "115322.195000", "115322.655000", "115323.115000", "115323.575000", "115324.035000", "115324.495000", "115324.955000", "115325.415000", "115325.875000", "115326.335000", "115326.795000", "115327.255000", "115327.715000", "115328.175000", "115328.635000", "115329.095000", "115329.555000", "115330.015000", "115330.475000", "115330.935000", "115331.395000", "115331.855000", "115332.315000", "115332.775000", "115333.235000", "115333.695000", "115334.155000", "115334.615000", "115335.075000", "115335.535000", "115335.995000", "115336.455000", "115336.915000", "115337.375000", "115337.835000", "115338.295000", "115338.755000", "115339.215000", "115339.675000", "115340.135000", "115340.595000", "115341.055000", "115341.515000", "115341.975000", "115342.435000", "115342.895000", "115343.355000", "115343.815000", "115344.275000", "115344.735000", "115345.195000", "115345.655000", "115346.115000", "115346.575000", "115347.035000", "115347.495000", "115347.955000", "115348.415000", "115348.875000", "115349.335000", "115349.795000", "115350.255000", "115350.715000", "115351.175000", "115351.635000", "115352.095000", "115352.555000", "115353.015000", "115353.475000", "115353.935000", "115354.395000", "115354.855000", "115355.315000", "115355.775000", "115356.235000", "115356.695000", "115357.155000", "115357.615000", "115358.075000", "115358.535000", "115358.995000", "115359.455000", "115359.915000", "115400.375000", "115400.835000", "115401.295000", "115401.755000", "115402.215000", "115402.675000", "115403.135000", "115403.595000", "115404.055000", "115404.515000", "115404.975000", "115405.435000", "115405.895000", "115406.355000", "115406.815000", "115407.275000", "115407.735000", "115408.195000", "115408.655000", "115409.115000", "115409.575000", "115410.035000", "115410.495000", "115410.955000", "115411.415000", "115411.875000", "115412.335000", "115412.795000", "115413.255000", "115413.715000", "115414.175000", "115414.635000", "115415.095000", "115415.555000", "115416.015000", "115416.475000", "115416.935000", "115417.395000", "115417.855000", "115418.315000", "115418.775000", "115419.235000", "115419.695000", "115420.155000", "115420.615000", "115421.075000", "115421.535000", "115421.995000", "115422.455000", "115422.915000", "115423.375000", "115423.835000", "115424.295000", "115424.755000", "115425.215000", "115425.675000", "115426.135000", "115426.595000", "115427.055000", "115427.515000", "115427.975000", "115428.435000", "115428.895000", "115429.355000", "115429.815000", "115430.275000", "115430.735000", "115431.195000", "115431.655000", "115432.115000", "115432.575000", "115433.035000", "115433.495000", "115433.955000", "115434.415000", "115434.875000", "115435.335000", "115435.795000", "115436.255000", "115436.715000", "115437.175000", "115437.635000", "115438.095000", "115438.555000", "115439.015000", "115439.475000", "115439.935000", "115440.395000", "115440.855000", "115441.315000"],
