{
  "AcquisitionMatrixPE": 82,
  "AcquisitionNumber": 1,
  "AcquisitionTime": "11:54:58.515000",
  "BandwidthPerPixelPhaseEncode": 24.888,
  "BaseResolution": 82,
  "BodyPartExamined": "BRAIN",
  "ConsistencyInfo": "N4_VE11C_LATEST_20160120",
  "ConversionSoftware": "dcm2niix",
  "ConversionSoftwareVersion": "v1.0.20201102",
  "DerivedVendorReportedEchoSpacing": 0.00049,
  "DeviceSerialNumber": "66112",
  "DwellTime": 2e-06,
  "EchoTime": 0.0272,
  "EchoTrainLength": 82,
  "EffectiveEchoSpacing": 0.00049,
  "FlipAngle": 44,
  "ImageComments": "Unaliased MB8/PE3",
  "ImageOrientationPatientDICOM": [0.997689, -0.0543164, 0.0408135, 0.0477479, 0.987902, 0.147543],
  "ImageType": [
    "ORIGINAL",
    "PRIMARY",
    "M",
    "MB",
    "ND",
    "NORM",
    "MOSAIC"
],
  "ImagingFrequency": 123.252,
  "InPlanePhaseEncodingDirectionDICOM": "COL",
  "InstitutionAddress": "Maynard 3,Hanover,NH,US,03755",
  "InstitutionName": "Dartmouth College - PBS",
  "InstitutionalDepartmentName": "Department",
  "MRAcquisitionType": "2D",
  "MagneticFieldStrength": 3,
  "Manufacturer": "Siemens",
  "ManufacturersModelName": "Prisma",
  "Modality": "MR",
  "MultibandAccelerationFactor": 8,
  "PartialFourier": 1,
  "PatientPosition": "HFS",
  "PercentPhaseFOV": 100,
  "PercentSampling": 100,
  "PhaseEncodingDirection": "j-",
  "PhaseEncodingSteps": 82,
  "PhaseResolution": 1,
  "PixelBandwidth": 3050,
  "ProcedureStepDescription": "Wager_Wager^1076_spacetop",
  "ProtocolName": "func_run-04_task-social_acq-ap-mb8",
  "PulseSequenceDetails": "%CustomerSeq%\\cmrr_mbep2d_bold",
  "ReceiveCoilActiveElements": "HEA;HEP",
  "ReceiveCoilName": "Head_32",
  "ReconMatrixPE": 82,
  "RepetitionTime": 0.46,
  "SAR": 0.110622,
  "ScanOptions": "FS",
  "ScanningSequence": "EP",
  "SequenceName": "epfid2d1_82",
  "SequenceVariant": "SK\\SS",
  "SeriesDescription": "func_run-04_task-social_acq-ap-mb8",
  "SeriesNumber": 18,
  "ShimSetting": [4142, -7760, -7247, 655, -33, -150, 51, 91],
  "SliceThickness": 2.7,
  "SliceTiming": [0, 0.25, 0.0625, 0.315, 0.125, 0.3775, 0.1875, 0, 0.25, 0.0625, 0.315, 0.125, 0.3775, 0.1875, 0, 0.25, 0.0625, 0.315, 0.125, 0.3775, 0.1875, 0, 0.25, 0.0625, 0.315, 0.125, 0.3775, 0.1875, 0, 0.25, 0.0625, 0.315, 0.125, 0.3775, 0.1875, 0, 0.25, 0.0625, 0.315, 0.125, 0.3775, 0.1875, 0, 0.25, 0.0625, 0.315, 0.125, 0.3775, 0.1875, 0, 0.25, 0.0625, 0.315, 0.125, 0.3775, 0.1875],
  "SoftwareVersions": "syngo MR E11",
  "SpacingBetweenSlices": 2.7,
  "StationName": "AWP66112",
  "TaskName": "social",
  "TotalReadoutTime": 0.03969,
  "TxRefAmp": 251.446,
  "WipMemBlock": "00db1a31-f82b-453e-8c00-ee2244632d0c||Sequence: R016 ve11c/master r/e634e98; Dec 19 2017 11:00:25 by eja",
  "dcmmeta_affine": [
    [-2.676727533340454, 0.12810412049293518, 0.13050124049186707, 106.7165756225586],
    [0.14572694897651672, 2.650470018386841, 0.3921830952167511, -108.0225830078125],
    [0.10949975997209549, -0.39584624767303467, 2.66817569732666, -40.65398025512695],
    [0.0, 0.0, 0.0, 1.0]
],
  "dcmmeta_reorient_transform": [
    [0.0, -1.0, 0.0, 81.0],
    [1.0, 0.0, 0.0, 0.0],
    [0.0, 0.0, 1.0, 0.0],
    [0.0, 0.0, 0.0, 1.0]
],
  "dcmmeta_shape": [82, 82, 56, 872],
  "dcmmeta_slice_dim": 2,
  "dcmmeta_version": 0.6,
  "global": {
    "const": {
      "AccessionNumber": "A003774",
      "AcquisitionMatrix": [82, 0, 0, 82],
      "AngioFlag": "N",
      "BitsAllocated": 16,
      "BitsStored": 16,
      "BodyPartExamined": "BRAIN",
      "Columns": 656,
      "EchoNumbers": 1,
      "EchoTime": 27.2,
      "EchoTrainLength": 82,
      "FlipAngle": 44.0,
      "HighBit": 15,
      "ImageOrientationPatient": [0.99768932165169, -0.0543164051923, 0.04081354663814, 0.04774790070073, 0.98790247182309, 0.14754268583875],
      "ImagePositionPatient": [-922.07969251745, -825.52678059001, -217.75182913823],
      "ImageType": [
        "ORIGINAL",
        "PRIMARY",
        "M",
        "MB",
        "ND",
        "NORM",
        "MOSAIC"
],
      "ImagedNucleus": "1H",
      "ImagingFrequency": 123.25219,
      "InPlanePhaseEncodingDirection": "COL",
      "MRAcquisitionType": "2D",
      "MagneticFieldStrength": 3.0,
      "Manufacturer": "SIEMENS",
      "ManufacturerModelName": "Prisma",
      "Modality": "MR",
      "NumberOfAverages": 1.0,
      "NumberOfPhaseEncodingSteps": 82,
      "PercentPhaseFieldOfView": 100.0,
      "PercentSampling": 100.0,
      "PerformedProcedureStepStartTime": "105755.814000",
      "PhotometricInterpretation": "MONOCHROME2",
      "PixelBandwidth": 3050.0,
      "PixelRepresentation": 0,
      "PixelSpacing": [2.6829268932343, 2.6829268932343],
      "ProtocolName": "func_run-04_task-social_acq-ap-mb8",
      "RepetitionTime": 460.0,
      "Rows": 656,
      "SAR": 0.1106222052071,
      "SamplesPerPixel": 1,
      "ScanOptions": "FS",
      "ScanningSequence": "EP",
      "SequenceName": "epfid2d1_82",
      "SequenceVariant": [
        "SK",
        "SS"
],
      "SeriesDescription": "func_run-04_task-social_acq-ap-mb8",
      "SeriesNumber": 18,
      "SeriesTime": "115510.078000",
      "SliceLocation": -50.707390615465,
      "SliceThickness": 2.7000000476837,
      "SmallestImagePixelValue": 0,
      "SoftwareVersions": "syngo MR E11",
      "SpacingBetweenSlices": 2.7000000350141,
      "SpecificCharacterSet": "ISO_IR 100",
      "StudyID": "6",
      "StudyTime": "105755.767000",
      "TransmitCoilName": "Body",
      "VariableFlipAngleFlag": "N",
      "WindowCenterWidthExplanation": "Algo1",
      "dBdt": 0.0},
    "slices": {}
  },
  "time": {
    "samples": {
      "AcquisitionNumber": [1, 2, 3, 4, 5, 6, 7, 8, 9, 10, 11, 12, 13, 14, 15, 16, 17, 18, 19, 20, 21, 22, 23, 24, 25, 26, 27, 28, 29, 30, 31, 32, 33, 34, 35, 36, 37, 38, 39, 40, 41, 42, 43, 44, 45, 46, 47, 48, 49, 50, 51, 52, 53, 54, 55, 56, 57, 58, 59, 60, 61, 62, 63, 64, 65, 66, 67, 68, 69, 70, 71, 72, 73, 74, 75, 76, 77, 78, 79, 80, 81, 82, 83, 84, 85, 86, 87, 88, 89, 90, 91, 92, 93, 94, 95, 96, 97, 98, 99, 100, 101, 102, 103, 104, 105, 106, 107, 108, 109, 110, 111, 112, 113, 114, 115, 116, 117, 118, 119, 120, 121, 122, 123, 124, 125, 126, 127, 128, 129, 130, 131, 132, 133, 134, 135, 136, 137, 138, 139, 140, 141, 142, 143, 144, 145, 146, 147, 148, 149, 150, 151, 152, 153, 154, 155, 156, 157, 158, 159, 160, 161, 162, 163, 164, 165, 166, 167, 168, 169, 170, 171, 172, 173, 174, 175, 176, 177, 178, 179, 180, 181, 182, 183, 184, 185, 186, 187, 188, 189, 190, 191, 192, 193, 194, 195, 196, 197, 198, 199, 200, 201, 202, 203, 204, 205, 206, 207, 208, 209, 210, 211, 212, 213, 214, 215, 216, 217, 218, 219, 220, 221, 222, 223, 224, 225, 226, 227, 228, 229, 230, 231, 232, 233, 234, 235, 236, 237, 238, 239, 240, 241, 242, 243, 244, 245, 246, 247, 248, 249, 250, 251, 252, 253, 254, 255, 256, 257, 258, 259, 260, 261, 262, 263, 264, 265, 266, 267, 268, 269, 270, 271, 272, 273, 274, 275, 276, 277, 278, 279, 280, 281, 282, 283, 284, 285, 286, 287, 288, 289, 290, 291, 292, 293, 294, 295, 296, 297, 298, 299, 300, 301, 302, 303, 304, 305, 306, 307, 308, 309, 310, 311, 312, 313, 314, 315, 316, 317, 318, 319, 320, 321, 322, 323, 324, 325, 326, 327, 328, 329, 330, 331, 332, 333, 334, 335, 336, 337, 338, 339, 340, 341, 342, 343, 344, 345, 346, 347, 348, 349, 350, 351, 352, 353, 354, 355, 356, 357, 358, 359, 360, 361, 362, 363, 364, 365, 366, 367, 368, 369, 370, 371, 372, 373, 374, 375, 376, 377, 378, 379, 380, 381, 382, 383, 384, 385, 386, 387, 388, 389, 390, 391, 392, 393, 394, 395, 396, 397, 398, 399, 400, 401, 402, 403, 404, 405, 406, 407, 408, 409, 410, 411, 412, 413, 414, 415, 416, 417, 418, 419, 420, 421, 422, 423, 424, 425, 426, 427, 428, 429, 430, 431, 432, 433, 434, 435, 436, 437, 438, 439, 440, 441, 442, 443, 444, 445, 446, 447, 448, 449, 450, 451, 452, 453, 454, 455, 456, 457, 458, 459, 460, 461, 462, 463, 464, 465, 466, 467, 468, 469, 470, 471, 472, 473, 474, 475, 476, 477, 478, 479, 480, 481, 482, 483, 484, 485, 486, 487, 488, 489, 490, 491, 492, 493, 494, 495, 496, 497, 498, 499, 500, 501, 502, 503, 504, 505, 506, 507, 508, 509, 510, 511, 512, 513, 514, 515, 516, 517, 518, 519, 520, 521, 522, 523, 524, 525, 526, 527, 528, 529, 530, 531, 532, 533, 534, 535, 536, 537, 538, 539, 540, 541, 542, 543, 544, 545, 546, 547, 548, 549, 550, 551, 552, 553, 554, 555, 556, 557, 558, 559, 560, 561, 562, 563, 564, 565, 566, 567, 568, 569, 570, 571, 572, 573, 574, 575, 576, 577, 578, 579, 580, 581, 582, 583, 584, 585, 586, 587, 588, 589, 590, 591, 592, 593, 594, 595, 596, 597, 598, 599, 600, 601, 602, 603, 604, 605, 606, 607, 608, 609, 610, 611, 612, 613, 614, 615, 616, 617, 618, 619, 620, 621, 622, 623, 624, 625, 626, 627, 628, 629, 630, 631, 632, 633, 634, 635, 636, 637, 638, 639, 640, 641, 642, 643, 644, 645, 646, 647, 648, 649, 650, 651, 652, 653, 654, 655, 656, 657, 658, 659, 660, 661, 662, 663, 664, 665, 666, 667, 668, 669, 670, 671, 672, 673, 674, 675, 676, 677, 678, 679, 680, 681, 682, 683, 684, 685, 686, 687, 688, 689, 690, 691, 692, 693, 694, 695, 696, 697, 698, 699, 700, 701, 702, 703, 704, 705, 706, 707, 708, 709, 710, 711, 712, 713, 714, 715, 716, 717, 718, 719, 720, 721, 722, 723, 724, 725, 726, 727, 728, 729, 730, 731, 732, 733, 734, 735, 736, 737, 738, 739, 740, 741, 742, 743, 744, 745, 746, 747, 748, 749, 750, 751, 752, 753, 754, 755, 756, 757, 758, 759, 760, 761, 762, 763, 764, 765, 766, 767, 768, 769, 770, 771, 772, 773, 774, 775, 776, 777, 778, 779, 780, 781, 782, 783, 784, 785, 786, 787, 788, 789, 790, 791, 792, 793, 794, 795, 796, 797, 798, 799, 800, 801, 802, 803, 804, 805, 806, 807, 808, 809, 810, 811, 812, 813, 814, 815, 816, 817, 818, 819, 820, 821, 822, 823, 824, 825, 826, 827, 828, 829, 830, 831, 832, 833, 834, 835, 836, 837, 838, 839, 840, 841, 842, 843, 844, 845, 846, 847, 848, 849, 850, 851, 852, 853, 854, 855, 856, 857, 858, 859, 860, 861, 862, 863, 864, 865, 866, 867, 868, 869, 870, 871, 872],
      "AcquisitionTime": ["115458.515000", "115458.975000", "115459.435000", "115459.895000", "115500.355000", "115500.815000", "115501.275000", "115501.735000", "115502.195000", "115502.655000", "115503.115000", "115503.575000", "115504.035000", "115504.495000", "115504.955000", "115505.415000", "115505.875000", "115506.335000", "115506.795000", "115507.255000", "115507.715000", "115508.175000", "115508.635000", "115509.095000", "115509.555000", "115510.015000", "115510.475000", "115510.935000", "115511.395000", "115511.855000", "115512.315000", "115512.775000", "115513.235000", "115513.695000", "115514.155000", "115514.615000", "115515.075000", "115515.535000", "115515.995000", "115516.455000", "115516.915000", "115517.375000", "115517.835000", "115518.295000", "115518.755000", "115519.215000", "115519.675000", "115520.135000", "115520.595000", "115521.055000", "115521.515000", "115521.975000", "115522.435000", "115522.895000", "115523.355000", "115523.815000", "115524.275000", "115524.735000", "115525.195000", "115525.655000", "115526.115000", "115526.575000", "115527.035000", "115527.495000", "115527.955000", "115528.415000", "115528.875000", "115529.335000", "115529.795000", "115530.255000", "115530.715000", "115531.175000", "115531.635000", "115532.095000", "115532.555000", "115533.015000", "115533.475000", "115533.935000", "115534.395000", "115534.855000", "115535.315000", "115535.775000", "115536.235000", "115536.695000", "115537.155000", "115537.615000", "115538.075000", "115538.535000", "115538.995000", "115539.455000", "115539.915000", "115540.375000", "115540.835000", "115541.295000", "115541.755000", "115542.215000", "115542.675000", "115543.135000", "115543.595000", "115544.055000", "115544.515000", "115544.975000", "115545.435000", "115545.895000", "115546.355000", "115546.815000", "115547.275000", "115547.735000", "115548.195000", "115548.655000", "115549.115000", "115549.575000", "115550.035000", "115550.495000", "115550.955000", "115551.415000", "115551.875000", "115552.335000", "115552.795000", "115553.255000", "115553.715000", "115554.175000", "115554.635000", "115555.095000", "115555.555000", "115556.015000", "115556.475000", "115556.935000", "115557.395000", "115557.855000", "115558.315000", "115558.775000", "115559.235000", "115559.695000", "115600.155000", "115600.615000", "115601.075000", "115601.535000", "115601.995000", "115602.455000", "115602.915000", "115603.375000", "115603.835000", "115604.295000", "115604.755000", "115605.215000", "115605.675000", "115606.135000", "115606.595000", "115607.055000", "115607.515000", "115607.975000", "115608.435000", "115608.895000", "115609.355000", "115609.815000", "115610.275000", "115610.735000", "115611.195000", "115611.655000", "115612.115000", "115612.575000", "115613.035000", "115613.495000", "115613.955000", "115614.415000", "115614.875000", "115615.335000", "115615.795000", "115616.255000", "115616.715000", "115617.175000", "115617.635000", "115618.095000", "115618.555000", "115619.015000", "115619.475000", "115619.935000", "115620.395000", "115620.855000", "115621.315000", "115621.775000", "115622.235000", "115622.695000", "115623.155000", "115623.615000", "115624.075000", "115624.535000", "115624.995000", "115625.455000", "115625.915000", "115626.375000", "115626.835000", "115627.295000", "115627.755000", "115628.215000", "115628.675000", "115629.135000", "115629.595000", "115630.055000", "115630.515000", "115630.975000", "115631.435000", "115631.895000", "115632.355000", "115632.815000", "115633.275000", "115633.735000", "115634.195000", "115634.655000", "115635.115000", "115635.575000", "115636.035000", "115636.495000", "115636.955000", "115637.415000", "115637.875000", "115638.335000", "115638.795000", "115639.255000", "115639.715000", "115640.175000", "115640.635000", "115641.095000", "115641.555000", "115642.015000", "115642.475000", "115642.935000", "115643.395000", "115643.855000", "115644.315000", "115644.775000", "115645.235000", "115645.695000", "115646.155000", "115646.615000", "115647.075000", "115647.535000", "115647.995000", "115648.455000", "115648.915000", "115649.375000", "115649.835000", "115650.295000", "115650.755000", "115651.215000", "115651.675000", "115652.135000", "115652.595000", "115653.055000", "115653.515000", "115653.975000", "115654.435000", "115654.895000", "115655.355000", "115655.815000", "115656.275000", "115656.735000", "115657.195000", "115657.655000", "115658.115000", "115658.575000", "115659.035000", "115659.495000", "115659.955000", "115700.415000", "115700.875000", "115701.335000", "115701.795000", "115702.255000", "115702.715000", "115703.175000", "115703.635000", "115704.095000", "115704.555000", "115705.015000", "115705.475000", "115705.935000", "115706.395000", "115706.855000", "115707.315000", "115707.775000", "115708.235000", "115708.695000", "115709.155000", "115709.615000", "115710.075000", "115710.535000", "115710.995000", "115711.455000", "115711.915000", "115712.375000", "115712.835000", "115713.295000", "115713.755000", "115714.215000", "115714.675000", "115715.135000", "115715.595000", "115716.055000", "115716.515000", "115716.975000", "115717.435000", "115717.895000", "115718.355000", "115718.815000", "115719.275000", "115719.735000", "115720.195000", "115720.655000", "115721.115000", "115721.575000", "115722.035000", "115722.495000", "115722.955000", "115723.415000", "115723.875000", "115724.335000", "115724.795000", "115725.255000", "115725.715000", "115726.175000", "115726.635000", "115727.095000", "115727.555000", "115728.015000", "115728.475000", "115728.935000", "115729.395000", "115729.855000", "115730.315000", "115730.775000", "115731.235000", "115731.695000", "115732.155000", "115732.615000", "115733.075000", "115733.535000", "115733.995000", "115734.455000", "115734.915000", "115735.375000", "115735.835000", "115736.295000", "115736.755000", "115737.215000", "115737.675000", "115738.135000", "115738.595000", "115739.055000", "115739.515000", "115739.975000", "115740.435000", "115740.895000", "115741.355000", "115741.815000", "115742.275000", "115742.735000", "115743.195000", "115743.655000", "115744.115000", "115744.575000", "115745.035000", "115745.495000", "115745.955000", "115746.415000", "115746.875000", "115747.335000", "115747.795000", "115748.255000", "115748.715000", "115749.175000", "115749.635000", "115750.095000", "115750.555000", "115751.015000", "115751.475000", "115751.935000", "115752.395000", "115752.855000", "115753.315000", "115753.775000", "115754.235000", "115754.695000", "115755.155000", "115755.615000", "115756.075000", "115756.535000", "115756.995000", "115757.455000", "115757.915000", "115758.375000", "115758.835000", "115759.295000", "115759.755000", "115800.215000", "115800.675000", "115801.135000", "115801.595000", "115802.055000", "115802.515000", "115802.975000", "115803.435000", "115803.895000", "115804.355000", "115804.815000", "115805.275000", "115805.735000", "115806.195000", "115806.655000", "115807.115000", "115807.575000", "115808.035000", "115808.495000", "115808.955000", "115809.415000", "115809.875000", "115810.335000", "115810.795000", "115811.255000", "115811.715000", "115812.175000", "115812.635000", "115813.095000", "115813.555000", "115814.015000", "115814.475000", "115814.935000", "115815.395000", "115815.855000", "115816.315000", "115816.775000", "115817.235000", "115817.695000", "115818.155000", "115818.615000", "115819.075000", "115819.535000", "115819.995000", "115820.455000", "115820.915000", "115821.375000", "115821.835000", "115822.295000", "115822.755000", "115823.215000", "115823.675000", "115824.135000", "115824.595000", "115825.055000", "115825.515000", "115825.975000", "115826.435000", "115826.895000", "115827.355000", "115827.815000", "115828.275000", "115828.735000", "115829.195000", "115829.655000", "115830.115000", "115830.575000", "115831.035000", "115831.495000", "115831.955000", "115832.415000", "115832.875000", "115833.335000", "115833.795000", "115834.255000", "115834.715000", "115835.175000", "115835.635000", "115836.095000", "115836.555000", "115837.015000", "115837.475000", "115837.935000", "115838.395000", "115838.855000", "115839.315000", "115839.775000", "115840.235000", "115840.695000", "115841.155000", "115841.615000", "115842.075000", "115842.535000", "115842.995000", "115843.455000", "115843.915000", "115844.375000", "115844.835000", "115845.295000", "115845.755000", "115846.215000", "115846.675000", "115847.135000", "115847.595000", "115848.055000", "115848.515000", "115848.975000", "115849.435000", "115849.895000", "115850.355000", "115850.815000", "115851.275000", "115851.735000", "115852.195000", "115852.655000", "115853.115000", "115853.575000", "115854.035000", "115854.495000", "115854.955000", "115855.415000", "115855.875000", "115856.335000", "115856.795000", "115857.255000", "115857.715000", "115858.175000", "115858.635000", "115859.095000", "115859.555000", "115900.015000", "115900.475000", "115900.935000", "115901.395000", "115901.855000", "115902.315000", "115902.775000", "115903.235000", "115903.695000", "115904.155000", "115904.615000", "115905.075000", "115905.535000", "115905.995000", "115906.455000", "115906.915000", "115907.375000", "115907.835000", "115908.295000", "115908.755000", "115909.215000", "115909.675000", "115910.135000", "115910.595000", "115911.055000", "115911.515000", "115911.975000", "115912.435000", "115912.895000", "115913.355000", "115913.815000", "115914.275000", "115914.735000", "115915.195000", "115915.655000", "115916.115000", "115916.575000", "115917.035000", "115917.495000", "115917.955000", "115918.415000", "115918.875000", "115919.335000", "115919.795000", "115920.255000", "115920.715000", "115921.175000", "115921.635000", "115922.095000", "115922.555000", "115923.015000", "115923.475000", "115923.935000", "115924.395000", "115924.855000", "115925.315000", "115925.775000", "115926.235000", "115926.695000", "115927.155000", "115927.615000", "115928.075000", "115928.535000", "115928.995000", "115929.455000", "115929.915000", "115930.375000", "115930.835000", "115931.295000", "115931.755000", "115932.215000", "115932.675000", "115933.135000", "115933.595000", "115934.055000", "115934.515000", "115934.975000", "115935.435000", "115935.895000", "115936.355000", "115936.815000", "115937.275000", "115937.735000", "115938.195000", "115938.655000", "115939.115000", "115939.575000", "115940.035000", "115940.495000", "115940.955000", "115941.415000", "115941.875000", "115942.335000", "115942.795000", "115943.255000", "115943.715000", "115944.175000", "115944.635000", "115945.095000", "115945.555000", "115946.015000", "115946.475000", "115946.935000", "115947.395000", "115947.855000", "115948.315000", "115948.775000", "115949.235000", "115949.695000", "115950.155000", "115950.615000", "115951.075000", "115951.535000", "115951.995000", "115952.455000", "115952.915000", "115953.375000", "115953.835000", "115954.295000", "115954.755000", "115955.215000", "115955.675000", "115956.135000", "115956.595000", "115957.055000", "115957.515000", "115957.975000", "115958.435000", "115958.895000", "115959.355000", "115959.815000", "120000.275000", "120000.735000", "120001.195000", "120001.655000", "120002.115000", "120002.575000", "120003.035000", "120003.495000", "120003.955000", "120004.415000", "120004.875000", "120005.335000", "120005.795000", "120006.255000", "120006.715000", "120007.175000", "120007.635000", "120008.095000", "120008.555000", "120009.015000", "120009.475000", "120009.935000", "120010.395000", "120010.855000", "120011.315000", "120011.775000", "120012.235000", "120012.695000", "120013.155000", "120013.615000", "120014.075000", "120014.535000", "120014.995000", "120015.455000", "120015.915000", "120016.375000", "120016.835000", "120017.295000", "120017.755000", "120018.215000", "120018.675000", "120019.135000", "120019.595000", "120020.055000", "120020.515000", "120020.975000", "120021.435000", "120021.895000", "120022.355000", "120022.815000", "120023.275000", "120023.735000", "120024.195000", "120024.655000", "120025.115000", "120025.575000", "120026.035000", "120026.495000", "120026.955000", "120027.415000", "120027.875000", "120028.335000", "120028.795000", "120029.255000", "120029.715000", "120030.175000", "120030.635000", "120031.095000", "120031.555000", "120032.015000", "120032.475000", "120032.935000", "120033.395000", "120033.855000", "120034.315000", "120034.775000", "120035.235000", "120035.695000", "120036.155000", "120036.615000", "120037.075000", "120037.535000", "120037.995000", "120038.455000", "120038.915000", "120039.375000", "120039.835000", "120040.295000", "120040.755000", "120041.215000", "120041.675000", "120042.135000", "120042.595000", "120043.055000", "120043.515000", "120043.975000", "120044.435000", "120044.895000", "120045.355000", "120045.815000", "120046.275000", "120046.735000", "120047.195000", "120047.655000", "120048.115000", "120048.575000", "120049.035000", "120049.495000", "120049.955000", "120050.415000", "120050.875000", "120051.335000", "120051.795000", "120052.255000", "120052.715000", "120053.175000", "120053.635000", "120054.095000", "120054.555000", "120055.015000", "120055.475000", "120055.935000", "120056.395000", "120056.855000", "120057.315000", "120057.775000", "120058.235000", "120058.695000", "120059.155000", "120059.615000", "120100.075000", "120100.535000", "120100.995000", "120101.455000", "120101.915000", "120102.375000", "120102.835000", "120103.295000", "120103.755000", "120104.215000", "120104.675000", "120105.135000", "120105.595000", "120106.055000", "120106.515000", "120106.975000", "120107.435000", "120107.895000", "120108.355000", "120108.815000", "120109.275000", "120109.735000", "120110.195000", "120110.655000", "120111.115000", "120111.575000", "120112.035000", "120112.495000", "120112.955000", "120113.415000", "120113.875000", "120114.335000", "120114.795000", "120115.255000", "120115.715000", "120116.175000", "120116.635000", "120117.095000", "120117.555000", "120118.015000", "120118.475000", "120118.935000", "120119.395000", "120119.855000", "120120.315000", "120120.775000", "120121.235000", "120121.695000", "120122.155000", "120122.615000", "120123.075000", "120123.535000", "120123.995000", "120124.455000", "120124.915000", "120125.375000", "120125.835000", "120126.295000", "120126.755000", "120127.215000", "120127.675000", "120128.135000", "120128.595000", "120129.055000", "120129.515000", "120129.975000", "120130.435000", "120130.895000", "120131.355000", "120131.815000", "120132.275000", "120132.735000", "120133.195000", "120133.655000", "120134.115000", "120134.575000", "120135.035000", "120135.495000", "120135.955000", "120136.415000", "120136.875000", "120137.335000", "120137.795000", "120138.255000", "120138.715000", "120139.175000"],
