{
  "AcquisitionMatrixPE": 82,
  "AcquisitionNumber": 1,
  "AcquisitionTime": "09:50:26.405000",
  "BandwidthPerPixelPhaseEncode": 24.888,
  "BaseResolution": 82,
  "BodyPartExamined": "BRAIN",
  "ConsistencyInfo": "N4_VE11E_LATEST_20181129",
  "ConversionSoftware": "dcm2niix",
  "ConversionSoftwareVersion": "v1.0.20201102",
  "DerivedVendorReportedEchoSpacing": 0.00049,
  "DeviceSerialNumber": "66112",
  "DwellTime": 2e-06,
  "EchoTime": 0.0272,
  "EchoTrainLength": 82,
  "EffectiveEchoSpacing": 0.00049,
  "FlipAngle": 44,
  "ImageComments": "Unaliased MB8/PE3",
  "ImageOrientationPatientDICOM": [0.999294, -0.00890636, -0.0364931, 0.00610445, 0.997075, -0.0761833],
  "ImageType": [
    "ORIGINAL",
    "PRIMARY",
    "M",
    "MB",
    "ND",
    "NORM",
    "MOSAIC"
],
  "ImagingFrequency": 123.252,
  "InPlanePhaseEncodingDirectionDICOM": "COL",
  "InstitutionAddress": "Maynard 3,Hanover,NH,US,03755",
  "InstitutionName": "Dartmouth College - PBS",
  "InstitutionalDepartmentName": "Department",
  "MRAcquisitionType": "2D",
  "MagneticFieldStrength": 3,
  "Manufacturer": "Siemens",
  "ManufacturersModelName": "Prisma",
  "Modality": "MR",
  "MultibandAccelerationFactor": 8,
  "PartialFourier": 1,
  "PatientPosition": "HFS",
  "PercentPhaseFOV": 100,
  "PercentSampling": 100,
  "PhaseEncodingDirection": "j-",
  "PhaseEncodingSteps": 82,
  "PhaseResolution": 1,
  "PixelBandwidth": 3050,
  "ProcedureStepDescription": "Wager_Wager^1076_spacetop",
  "ProtocolName": "func_run-03_task-social_acq-ap-mb8",
  "PulseSequenceDetails": "%CustomerSeq%\\cmrr_mbep2d_bold",
  "ReceiveCoilActiveElements": "HEA;HEP",
  "ReceiveCoilName": "Head_32",
  "ReconMatrixPE": 82,
  "RepetitionTime": 0.46,
  "SAR": 0.110915,
  "ScanOptions": "FS",
  "ScanningSequence": "EP",
  "SequenceName": "epfid2d1_82",
  "SequenceVariant": "SK\\SS",
  "SeriesDescription": "func_run-03_task-social_acq-ap-mb8",
  "SeriesNumber": 16,
  "ShimSetting": [4129, -7787, -7227, 496, -37, -255, -63, 76],
  "SliceThickness": 2.7,
  "SliceTiming": [0, 0.25, 0.0625, 0.3125, 0.125, 0.375, 0.1875, 0, 0.25, 0.0625, 0.3125, 0.125, 0.375, 0.1875, 0, 0.25, 0.0625, 0.3125, 0.125, 0.375, 0.1875, 0, 0.25, 0.0625, 0.3125, 0.125, 0.375, 0.1875, 0, 0.25, 0.0625, 0.3125, 0.125, 0.375, 0.1875, 0, 0.25, 0.0625, 0.3125, 0.125, 0.375, 0.1875, 0, 0.25, 0.0625, 0.3125, 0.125, 0.375, 0.1875, 0, 0.25, 0.0625, 0.3125, 0.125, 0.375, 0.1875],
  "SoftwareVersions": "syngo MR E11",
  "SpacingBetweenSlices": 2.7,
  "StationName": "AWP66112",
  "TaskName": "social",
  "TotalReadoutTime": 0.03969,
  "TxRefAmp": 252.261,
  "WipMemBlock": "a407bceb-00b8-40b5-bb20-2c7f27f6664b||Sequence: R016 ve11e/master r/434b28f1; Aug  7 2019 18:53:46 by eja",
  "dcmmeta_affine": [
    [-2.6810333728790283, 0.016377782449126244, -0.10007528960704803, 114.33978271484375],
    [0.023895101621747017, 2.675079822540283, -0.2049482762813568, -78.00537872314453],
    [-0.09790843725204468, 0.20439425110816956, 2.690349578857422, -70.11756134033203],
    [0.0, 0.0, 0.0, 1.0]
],
  "dcmmeta_reorient_transform": [
    [0.0, -1.0, 0.0, 81.0],
    [1.0, 0.0, 0.0, 0.0],
    [0.0, 0.0, 1.0, 0.0],
    [0.0, 0.0, 0.0, 1.0]
],
  "dcmmeta_shape": [82, 82, 56, 872],
  "dcmmeta_slice_dim": 2,
  "dcmmeta_version": 0.6,
  "global": {
    "const": {
      "AccessionNumber": "A003935",
      "AcquisitionMatrix": [82, 0, 0, 82],
      "AngioFlag": "N",
      "BitsAllocated": 16,
      "BitsStored": 16,
      "BodyPartExamined": "BRAIN",
      "Columns": 656,
      "EchoNumbers": 1,
      "EchoTime": 27.2,
      "EchoTrainLength": 82,
      "FlipAngle": 44.0,
      "HighBit": 15,
      "ImageOrientationPatient": [0.99929421457309, -0.0089063561613, -0.036493143749, 0.00610444635324, 0.997075142257, -0.0761833080661],
      "ImagePositionPatient": [-889.82336725685, -899.56606485647, 33.199240532595],
      "ImageType": [
        "ORIGINAL",
        "PRIMARY",
        "M",
        "MB",
        "ND",
        "NORM",
        "MOSAIC"
],
      "ImagedNucleus": "1H",
      "ImagingFrequency": 123.252145,
      "InPlanePhaseEncodingDirection": "COL",
      "MRAcquisitionType": "2D",
      "MagneticFieldStrength": 3.0,
      "Manufacturer": "SIEMENS",
      "ManufacturerModelName": "Prisma",
      "Modality": "MR",
      "NumberOfAverages": 1.0,
      "NumberOfPhaseEncodingSteps": 82,
      "PercentPhaseFieldOfView": 100.0,
      "PercentSampling": 100.0,
      "PerformedProcedureStepStartTime": "084702.278000",
      "PhotometricInterpretation": "MONOCHROME2",
      "PixelBandwidth": 3050.0,
      "PixelRepresentation": 0,
      "PixelSpacing": [2.6829268932343, 2.6829268932343],
      "ProtocolName": "func_run-03_task-social_acq-ap-mb8",
      "RepetitionTime": 460.0,
      "Rows": 656,
      "SAR": 0.11091509022297,
      "SamplesPerPixel": 1,
      "ScanOptions": "FS",
      "ScanningSequence": "EP",
      "SequenceName": "epfid2d1_82",
      "SequenceVariant": [
        "SK",
        "SS"
],
      "SeriesDescription": "func_run-03_task-social_acq-ap-mb8",
      "SeriesNumber": 16,
      "SeriesTime": "095037.898000",
      "SliceLocation": -68.18380748195,
      "SliceThickness": 2.7000000476837,
      "SmallestImagePixelValue": 0,
      "SoftwareVersions": "syngo MR E11",
      "SpacingBetweenSlices": 2.700000017068,
      "SpecificCharacterSet": "ISO_IR 100",
      "StudyID": "1",
      "StudyTime": "084702.098000",
      "TransmitCoilName": "Body",
      "VariableFlipAngleFlag": "N",
      "WindowCenterWidthExplanation": "Algo1"
    },
    "slices": {}
  },
  "time": {
    "samples": {
      "AcquisitionNumber": [1, 2, 3, 4, 5, 6, 7, 8, 9, 10, 11, 12, 13, 14, 15, 16, 17, 18, 19, 20, 21, 22, 23, 24, 25, 26, 27, 28, 29, 30, 31, 32, 33, 34, 35, 36, 37, 38, 39, 40, 41, 42, 43, 44, 45, 46, 47, 48, 49, 50, 51, 52, 53, 54, 55, 56, 57, 58, 59, 60, 61, 62, 63, 64, 65, 66, 67, 68, 69, 70, 71, 72, 73, 74, 75, 76, 77, 78, 79, 80, 81, 82, 83, 84, 85, 86, 87, 88, 89, 90, 91, 92, 93, 94, 95, 96, 97, 98, 99, 100, 101, 102, 103, 104, 105, 106, 107, 108, 109, 110, 111, 112, 113, 114, 115, 116, 117, 118, 119, 120, 121, 122, 123, 124, 125, 126, 127, 128, 129, 130, 131, 132, 133, 134, 135, 136, 137, 138, 139, 140, 141, 142, 143, 144, 145, 146, 147, 148, 149, 150, 151, 152, 153, 154, 155, 156, 157, 158, 159, 160, 161, 162, 163, 164, 165, 166, 167, 168, 169, 170, 171, 172, 173, 174, 175, 176, 177, 178, 179, 180, 181, 182, 183, 184, 185, 186, 187, 188, 189, 190, 191, 192, 193, 194, 195, 196, 197, 198, 199, 200, 201, 202, 203, 204, 205, 206, 207, 208, 209, 210, 211, 212, 213, 214, 215, 216, 217, 218, 219, 220, 221, 222, 223, 224, 225, 226, 227, 228, 229, 230, 231, 232, 233, 234, 235, 236, 237, 238, 239, 240, 241, 242, 243, 244, 245, 246, 247, 248, 249, 250, 251, 252, 253, 254, 255, 256, 257, 258, 259, 260, 261, 262, 263, 264, 265, 266, 267, 268, 269, 270, 271, 272, 273, 274, 275, 276, 277, 278, 279, 280, 281, 282, 283, 284, 285, 286, 287, 288, 289, 290, 291, 292, 293, 294, 295, 296, 297, 298, 299, 300, 301, 302, 303, 304, 305, 306, 307, 308, 309, 310, 311, 312, 313, 314, 315, 316, 317, 318, 319, 320, 321, 322, 323, 324, 325, 326, 327, 328, 329, 330, 331, 332, 333, 334, 335, 336, 337, 338, 339, 340, 341, 342, 343, 344, 345, 346, 347, 348, 349, 350, 351, 352, 353, 354, 355, 356, 357, 358, 359, 360, 361, 362, 363, 364, 365, 366, 367, 368, 369, 370, 371, 372, 373, 374, 375, 376, 377, 378, 379, 380, 381, 382, 383, 384, 385, 386, 387, 388, 389, 390, 391, 392, 393, 394, 395, 396, 397, 398, 399, 400, 401, 402, 403, 404, 405, 406, 407, 408, 409, 410, 411, 412, 413, 414, 415, 416, 417, 418, 419, 420, 421, 422, 423, 424, 425, 426, 427, 428, 429, 430, 431, 432, 433, 434, 435, 436, 437, 438, 439, 440, 441, 442, 443, 444, 445, 446, 447, 448, 449, 450, 451, 452, 453, 454, 455, 456, 457, 458, 459, 460, 461, 462, 463, 464, 465, 466, 467, 468, 469, 470, 471, 472, 473, 474, 475, 476, 477, 478, 479, 480, 481, 482, 483, 484, 485, 486, 487, 488, 489, 490, 491, 492, 493, 494, 495, 496, 497, 498, 499, 500, 501, 502, 503, 504, 505, 506, 507, 508, 509, 510, 511, 512, 513, 514, 515, 516, 517, 518, 519, 520, 521, 522, 523, 524, 525, 526, 527, 528, 529, 530, 531, 532, 533, 534, 535, 536, 537, 538, 539, 540, 541, 542, 543, 544, 545, 546, 547, 548, 549, 550, 551, 552, 553, 554, 555, 556, 557, 558, 559, 560, 561, 562, 563, 564, 565, 566, 567, 568, 569, 570, 571, 572, 573, 574, 575, 576, 577, 578, 579, 580, 581, 582, 583, 584, 585, 586, 587, 588, 589, 590, 591, 592, 593, 594, 595, 596, 597, 598, 599, 600, 601, 602, 603, 604, 605, 606, 607, 608, 609, 610, 611, 612, 613, 614, 615, 616, 617, 618, 619, 620, 621, 622, 623, 624, 625, 626, 627, 628, 629, 630, 631, 632, 633, 634, 635, 636, 637, 638, 639, 640, 641, 642, 643, 644, 645, 646, 647, 648, 649, 650, 651, 652, 653, 654, 655, 656, 657, 658, 659, 660, 661, 662, 663, 664, 665, 666, 667, 668, 669, 670, 671, 672, 673, 674, 675, 676, 677, 678, 679, 680, 681, 682, 683, 684, 685, 686, 687, 688, 689, 690, 691, 692, 693, 694, 695, 696, 697, 698, 699, 700, 701, 702, 703, 704, 705, 706, 707, 708, 709, 710, 711, 712, 713, 714, 715, 716, 717, 718, 719, 720, 721, 722, 723, 724, 725, 726, 727, 728, 729, 730, 731, 732, 733, 734, 735, 736, 737, 738, 739, 740, 741, 742, 743, 744, 745, 746, 747, 748, 749, 750, 751, 752, 753, 754, 755, 756, 757, 758, 759, 760, 761, 762, 763, 764, 765, 766, 767, 768, 769, 770, 771, 772, 773, 774, 775, 776, 777, 778, 779, 780, 781, 782, 783, 784, 785, 786, 787, 788, 789, 790, 791, 792, 793, 794, 795, 796, 797, 798, 799, 800, 801, 802, 803, 804, 805, 806, 807, 808, 809, 810, 811, 812, 813, 814, 815, 816, 817, 818, 819, 820, 821, 822, 823, 824, 825, 826, 827, 828, 829, 830, 831, 832, 833, 834, 835, 836, 837, 838, 839, 840, 841, 842, 843, 844, 845, 846, 847, 848, 849, 850, 851, 852, 853, 854, 855, 856, 857, 858, 859, 860, 861, 862, 863, 864, 865, 866, 867, 868, 869, 870, 871, 872],
      "AcquisitionTime": ["095026.405000", "095026.865000", "095027.325000", "095027.785000", "095028.245000", "095028.705000", "095029.165000", "095029.625000", "095030.085000", "095030.545000", "095031.005000", "095031.465000", "095031.925000", "095032.385000", "095032.845000", "095033.305000", "095033.765000", "095034.225000", "095034.685000", "095035.145000", "095035.605000", "095036.065000", "095036.525000", "095036.985000", "095037.445000", "095037.905000", "095038.365000", "095038.825000", "095039.285000", "095039.745000", "095040.205000", "095040.665000", "095041.125000", "095041.585000", "095042.045000", "095042.505000", "095042.965000", "095043.425000", "095043.885000", "095044.345000", "095044.805000", "095045.265000", "095045.725000", "095046.185000", "095046.645000", "095047.105000", "095047.565000", "095048.025000", "095048.485000", "095048.945000", "095049.405000", "095049.865000", "095050.325000", "095050.785000", "095051.245000", "095051.705000", "095052.165000", "095052.625000", "095053.085000", "095053.545000", "095054.005000", "095054.465000", "095054.925000", "095055.385000", "095055.845000", "095056.305000", "095056.765000", "095057.225000", "095057.685000", "095058.145000", "095058.605000", "095059.065000", "095059.525000", "095059.985000", "095100.445000", "095100.905000", "095101.365000", "095101.825000", "095102.285000", "095102.745000", "095103.205000", "095103.665000", "095104.125000", "095104.585000", "095105.045000", "095105.505000", "095105.965000", "095106.425000", "095106.885000", "095107.345000", "095107.805000", "095108.265000", "095108.725000", "095109.185000", "095109.645000", "095110.105000", "095110.565000", "095111.025000", "095111.485000", "095111.945000", "095112.405000", "095112.865000", "095113.325000", "095113.785000", "095114.245000", "095114.705000", "095115.165000", "095115.625000", "095116.085000", "095116.545000", "095117.005000", "095117.465000", "095117.925000", "095118.385000", "095118.845000", "095119.305000", "095119.765000", "095120.225000", "095120.685000", "095121.145000", "095121.605000", "095122.065000", "095122.525000", "095122.985000", "095123.445000", "095123.905000", "095124.365000", "095124.825000", "095125.285000", "095125.745000", "095126.205000", "095126.665000", "095127.125000", "095127.585000", "095128.045000", "095128.505000", "095128.965000", "095129.425000", "095129.885000", "095130.345000", "095130.805000", "095131.265000", "095131.725000", "095132.185000", "095132.645000", "095133.105000", "095133.565000", "095134.025000", "095134.485000", "095134.945000", "095135.405000", "095135.865000", "095136.325000", "095136.785000", "095137.245000", "095137.705000", "095138.165000", "095138.625000", "095139.085000", "095139.545000", "095140.005000", "095140.465000", "095140.925000", "095141.385000", "095141.845000", "095142.305000", "095142.765000", "095143.225000", "095143.685000", "095144.145000", "095144.605000", "095145.065000", "095145.525000", "095145.985000", "095146.445000", "095146.905000", "095147.365000", "095147.825000", "095148.285000", "095148.745000", "095149.205000", "095149.665000", "095150.125000", "095150.585000", "095151.045000", "095151.505000", "095151.965000", "095152.425000", "095152.885000", "095153.345000", "095153.805000", "095154.265000", "095154.725000", "095155.185000", "095155.645000", "095156.105000", "095156.565000", "095157.025000", "095157.485000", "095157.945000", "095158.405000", "095158.865000", "095159.325000", "095159.785000", "095200.245000", "095200.705000", "095201.165000", "095201.625000", "095202.085000", "095202.545000", "095203.005000", "095203.465000", "095203.925000", "095204.385000", "095204.845000", "095205.305000", "095205.765000", "095206.225000", "095206.685000", "095207.145000", "095207.605000", "095208.065000", "095208.525000", "095208.985000", "095209.445000", "095209.905000", "095210.365000", "095210.825000", "095211.285000", "095211.745000", "095212.205000", "095212.665000", "095213.125000", "095213.585000", "095214.045000", "095214.505000", "095214.965000", "095215.425000", "095215.885000", "095216.345000", "095216.805000", "095217.265000", "095217.725000", "095218.185000", "095218.645000", "095219.105000", "095219.565000", "095220.025000", "095220.485000", "095220.945000", "095221.405000", "095221.865000", "095222.325000", "095222.785000", "095223.245000", "095223.705000", "095224.165000", "095224.625000", "095225.085000", "095225.545000", "095226.005000", "095226.465000", "095226.925000", "095227.385000", "095227.845000", "095228.305000", "095228.765000", "095229.225000", "095229.685000", "095230.145000", "095230.605000", "095231.065000", "095231.525000", "095231.985000", "095232.445000", "095232.905000", "095233.365000", "095233.825000", "095234.285000", "095234.745000", "095235.205000", "095235.665000", "095236.125000", "095236.585000", "095237.045000", "095237.505000", "095237.965000", "095238.425000", "095238.885000", "095239.345000", "095239.805000", "095240.265000", "095240.725000", "095241.185000", "095241.645000", "095242.105000", "095242.565000", "095243.025000", "095243.485000", "095243.945000", "095244.405000", "095244.865000", "095245.325000", "095245.785000", "095246.245000", "095246.705000", "095247.165000", "095247.625000", "095248.085000", "095248.545000", "095249.005000", "095249.465000", "095249.925000", "095250.385000", "095250.845000", "095251.305000", "095251.765000", "095252.225000", "095252.685000", "095253.145000", "095253.605000", "095254.065000", "095254.525000", "095254.985000", "095255.445000", "095255.905000", "095256.365000", "095256.825000", "095257.285000", "095257.745000", "095258.205000", "095258.665000", "095259.125000", "095259.585000", "095300.045000", "095300.505000", "095300.965000", "095301.425000", "095301.885000", "095302.345000", "095302.805000", "095303.265000", "095303.725000", "095304.185000", "095304.645000", "095305.105000", "095305.565000", "095306.025000", "095306.485000", "095306.945000", "095307.405000", "095307.865000", "095308.325000", "095308.785000", "095309.245000", "095309.705000", "095310.165000", "095310.625000", "095311.085000", "095311.545000", "095312.005000", "095312.465000", "095312.925000", "095313.385000", "095313.845000", "095314.305000", "095314.765000", "095315.225000", "095315.685000", "095316.145000", "095316.605000", "095317.065000", "095317.525000", "095317.985000", "095318.445000", "095318.905000", "095319.365000", "095319.825000", "095320.285000", "095320.745000", "095321.205000", "095321.665000", "095322.125000", "095322.585000", "095323.045000", "095323.505000", "095323.965000", "095324.425000", "095324.885000", "095325.345000", "095325.805000", "095326.265000", "095326.725000", "095327.185000", "095327.645000", "095328.105000", "095328.565000", "095329.025000", "095329.485000", "095329.945000", "095330.405000", "095330.865000", "095331.325000", "095331.785000", "095332.245000", "095332.705000", "095333.165000", "095333.625000", "095334.085000", "095334.545000", "095335.005000", "095335.465000", "095335.925000", "095336.385000", "095336.845000", "095337.305000", "095337.765000", "095338.225000", "095338.685000", "095339.145000", "095339.605000", "095340.065000", "095340.525000", "095340.985000", "095341.445000", "095341.905000", "095342.365000", "095342.825000", "095343.285000", "095343.745000", "095344.205000", "095344.665000", "095345.125000", "095345.585000", "095346.045000", "095346.505000", "095346.965000", "095347.425000", "095347.885000", "095348.345000", "095348.805000", "095349.265000", "095349.725000", "095350.185000", "095350.645000", "095351.105000", "095351.565000", "095352.025000", "095352.485000", "095352.945000", "095353.405000", "095353.865000", "095354.325000", "095354.785000", "095355.245000", "095355.705000", "095356.165000", "095356.625000", "095357.085000", "095357.545000", "095358.005000", "095358.465000", "095358.925000", "095359.385000", "095359.845000", "095400.305000", "095400.765000", "095401.225000", "095401.685000", "095402.145000", "095402.605000", "095403.065000", "095403.525000", "095403.985000", "095404.445000", "095404.905000", "095405.365000", "095405.825000", "095406.285000", "095406.745000", "095407.205000", "095407.665000", "095408.125000", "095408.585000", "095409.045000", "095409.505000", "095409.965000", "095410.425000", "095410.885000", "095411.345000", "095411.805000", "095412.265000", "095412.725000", "095413.185000", "095413.645000", "095414.105000", "095414.565000", "095415.025000", "095415.485000", "095415.945000", "095416.405000", "095416.865000", "095417.325000", "095417.785000", "095418.245000", "095418.705000", "095419.165000", "095419.625000", "095420.085000", "095420.545000", "095421.005000", "095421.465000", "095421.925000", "095422.385000", "095422.845000", "095423.305000", "095423.765000", "095424.225000", "095424.685000", "095425.145000", "095425.605000", "095426.065000", "095426.525000", "095426.985000", "095427.445000", "095427.905000", "095428.365000", "095428.825000", "095429.285000", "095429.745000", "095430.205000", "095430.665000", "095431.125000", "095431.585000", "095432.045000", "095432.505000", "095432.965000", "095433.425000", "095433.885000", "095434.345000", "095434.805000", "095435.265000", "095435.725000", "095436.185000", "095436.645000", "095437.105000", "095437.565000", "095438.025000", "095438.485000", "095438.945000", "095439.405000", "095439.865000", "095440.325000", "095440.785000", "095441.245000", "095441.705000", "095442.165000", "095442.625000", "095443.085000", "095443.545000", "095444.005000", "095444.465000", "095444.925000", "095445.385000", "095445.845000", "095446.305000", "095446.765000", "095447.225000", "095447.685000", "095448.145000", "095448.605000", "095449.065000", "095449.525000", "095449.985000", "095450.445000", "095450.905000", "095451.365000", "095451.825000", "095452.285000", "095452.745000", "095453.205000", "095453.665000", "095454.125000", "095454.585000", "095455.045000", "095455.505000", "095455.965000", "095456.425000", "095456.885000", "095457.345000", "095457.805000", "095458.265000", "095458.725000", "095459.185000", "095459.645000", "095500.105000", "095500.565000", "095501.025000", "095501.485000", "095501.945000", "095502.405000", "095502.865000", "095503.325000", "095503.785000", "095504.245000", "095504.705000", "095505.165000", "095505.625000", "095506.085000", "095506.545000", "095507.005000", "095507.465000", "095507.925000", "095508.385000", "095508.845000", "095509.305000", "095509.765000", "095510.225000", "095510.685000", "095511.145000", "095511.605000", "095512.065000", "095512.525000", "095512.985000", "095513.445000", "095513.905000", "095514.365000", "095514.825000", "095515.285000", "095515.745000", "095516.205000", "095516.665000", "095517.125000", "095517.585000", "095518.045000", "095518.505000", "095518.965000", "095519.425000", "095519.885000", "095520.345000", "095520.805000", "095521.265000", "095521.725000", "095522.185000", "095522.645000", "095523.105000", "095523.565000", "095524.025000", "095524.485000", "095524.945000", "095525.405000", "095525.865000", "095526.325000", "095526.785000", "095527.245000", "095527.705000", "095528.165000", "095528.625000", "095529.085000", "095529.545000", "095530.005000", "095530.465000", "095530.925000", "095531.385000", "095531.845000", "095532.305000", "095532.765000", "095533.225000", "095533.685000", "095534.145000", "095534.605000", "095535.065000", "095535.525000", "095535.985000", "095536.445000", "095536.905000", "095537.365000", "095537.825000", "095538.285000", "095538.745000", "095539.205000", "095539.665000", "095540.125000", "095540.585000", "095541.045000", "095541.505000", "095541.965000", "095542.425000", "095542.885000", "095543.345000", "095543.805000", "095544.265000", "095544.725000", "095545.185000", "095545.645000", "095546.105000", "095546.565000", "095547.025000", "095547.485000", "095547.945000", "095548.405000", "095548.865000", "095549.325000", "095549.785000", "095550.245000", "095550.705000", "095551.165000", "095551.625000", "095552.085000", "095552.545000", "095553.005000", "095553.465000", "095553.925000", "095554.385000", "095554.845000", "095555.305000", "095555.765000", "095556.225000", "095556.685000", "095557.145000", "095557.605000", "095558.065000", "095558.525000", "095558.985000", "095559.445000", "095559.905000", "095600.365000", "095600.825000", "095601.285000", "095601.745000", "095602.205000", "095602.665000", "095603.125000", "095603.585000", "095604.045000", "095604.505000", "095604.965000", "095605.425000", "095605.885000", "095606.345000", "095606.805000", "095607.265000", "095607.725000", "095608.185000", "095608.645000", "095609.105000", "095609.565000", "095610.025000", "095610.485000", "095610.945000", "095611.405000", "095611.865000", "095612.325000", "095612.785000", "095613.245000", "095613.705000", "095614.165000", "095614.625000", "095615.085000", "095615.545000", "095616.005000", "095616.465000", "095616.925000", "095617.385000", "095617.845000", "095618.305000", "095618.765000", "095619.225000", "095619.685000", "095620.145000", "095620.605000", "095621.065000", "095621.525000", "095621.985000", "095622.445000", "095622.905000", "095623.365000", "095623.825000", "095624.285000", "095624.745000", "095625.205000", "095625.665000", "095626.125000", "095626.585000", "095627.045000", "095627.505000", "095627.965000", "095628.425000", "095628.885000", "095629.345000", "095629.805000", "095630.265000", "095630.725000", "095631.185000", "095631.645000", "095632.105000", "095632.565000", "095633.025000", "095633.485000", "095633.945000", "095634.405000", "095634.865000", "095635.325000", "095635.785000", "095636.245000", "095636.705000", "095637.165000", "095637.625000", "095638.085000", "095638.545000", "095639.005000", "095639.465000", "095639.925000", "095640.385000", "095640.845000", "095641.305000", "095641.765000", "095642.225000", "095642.685000", "095643.145000", "095643.605000", "095644.065000", "095644.525000", "095644.985000", "095645.445000", "095645.905000", "095646.365000", "095646.825000", "095647.285000", "095647.745000", "095648.205000", "095648.665000", "095649.125000", "095649.585000", "095650.045000", "095650.505000", "095650.965000", "095651.425000", "095651.885000", "095652.345000", "095652.805000", "095653.265000", "095653.725000", "095654.185000", "095654.645000", "095655.105000", "095655.565000", "095656.025000", "095656.485000", "095656.945000", "095657.405000", "095657.865000", "095658.325000", "095658.785000", "095659.245000", "095659.705000", "095700.165000", "095700.625000", "095701.085000", "095701.545000", "095702.005000", "095702.465000", "095702.925000", "095703.385000", "095703.845000", "095704.305000", "095704.765000", "095705.225000", "095705.685000", "095706.145000", "095706.605000", "095707.065000"],
