{
  "AcquisitionMatrixPE": 82,
  "AcquisitionNumber": 1,
  "AcquisitionTime": "09:41:7.295000",
  "BandwidthPerPixelPhaseEncode": 24.888,
  "BaseResolution": 82,
  "BodyPartExamined": "BRAIN",
  "ConsistencyInfo": "N4_VE11E_LATEST_20181129",
  "ConversionSoftware": "dcm2niix",
  "ConversionSoftwareVersion": "v1.0.20201102",
  "DerivedVendorReportedEchoSpacing": 0.00049,
  "DeviceSerialNumber": "66112",
  "DwellTime": 2e-06,
  "EchoTime": 0.0272,
  "EchoTrainLength": 82,
  "EffectiveEchoSpacing": 0.00049,
  "FlipAngle": 44,
  "ImageComments": "Unaliased MB8/PE3",
  "ImageOrientationPatientDICOM": [0.999294, -0.00890636, -0.0364931, 0.00610445, 0.997075, -0.0761833],
  "ImageType": [
    "ORIGINAL",
    "PRIMARY",
    "M",
    "MB",
    "ND",
    "NORM",
    "MOSAIC"
],
  "ImagingFrequency": 123.252,
  "InPlanePhaseEncodingDirectionDICOM": "COL",
  "InstitutionAddress": "Maynard 3,Hanover,NH,US,03755",
  "InstitutionName": "Dartmouth College - PBS",
  "InstitutionalDepartmentName": "Department",
  "MRAcquisitionType": "2D",
  "MagneticFieldStrength": 3,
  "Manufacturer": "Siemens",
  "ManufacturersModelName": "Prisma",
  "Modality": "MR",
  "MultibandAccelerationFactor": 8,
  "PartialFourier": 1,
  "PatientPosition": "HFS",
  "PercentPhaseFOV": 100,
  "PercentSampling": 100,
  "PhaseEncodingDirection": "j-",
  "PhaseEncodingSteps": 82,
  "PhaseResolution": 1,
  "PixelBandwidth": 3050,
  "ProcedureStepDescription": "Wager_Wager^1076_spacetop",
  "ProtocolName": "func_run-02_task-social_acq-ap-mb8",
  "PulseSequenceDetails": "%CustomerSeq%\\cmrr_mbep2d_bold",
  "ReceiveCoilActiveElements": "HEA;HEP",
  "ReceiveCoilName": "Head_32",
  "ReconMatrixPE": 82,
  "RepetitionTime": 0.46,
  "SAR": 0.110915,
  "ScanOptions": "FS",
  "ScanningSequence": "EP",
  "SequenceName": "epfid2d1_82",
  "SequenceVariant": "SK\\SS",
  "SeriesDescription": "func_run-02_task-social_acq-ap-mb8",
  "SeriesNumber": 14,
  "ShimSetting": [4129, -7787, -7227, 496, -37, -255, -63, 76],
  "SliceThickness": 2.7,
  "SliceTiming": [0, 0.2525, 0.0625, 0.315, 0.1275, 0.3775, 0.19, 0, 0.2525, 0.0625, 0.315, 0.1275, 0.3775, 0.19, 0, 0.2525, 0.0625, 0.315, 0.1275, 0.3775, 0.19, 0, 0.2525, 0.0625, 0.315, 0.1275, 0.3775, 0.19, 0, 0.2525, 0.0625, 0.315, 0.1275, 0.3775, 0.19, 0, 0.2525, 0.0625, 0.315, 0.1275, 0.3775, 0.19, 0, 0.2525, 0.0625, 0.315, 0.1275, 0.3775, 0.19, 0, 0.2525, 0.0625, 0.315, 0.1275, 0.3775, 0.19],
  "SoftwareVersions": "syngo MR E11",
  "SpacingBetweenSlices": 2.7,
  "StationName": "AWP66112",
  "TaskName": "social",
  "TotalReadoutTime": 0.03969,
  "TxRefAmp": 252.261,
  "WipMemBlock": "0481c002-c1b1-4a54-b3ca-7fd48e95745b||Sequence: R016 ve11e/master r/434b28f1; Aug  7 2019 18:53:46 by eja",
  "dcmmeta_affine": [
    [-2.6810333728790283, 0.016377782449126244, -0.10007528960704803, 114.33978271484375],
    [0.023895101621747017, 2.675079822540283, -0.2049482762813568, -78.00537872314453],
    [-0.09790843725204468, 0.20439425110816956, 2.690349578857422, -70.11756134033203],
    [0.0, 0.0, 0.0, 1.0]
],
  "dcmmeta_reorient_transform": [
    [0.0, -1.0, 0.0, 81.0],
    [1.0, 0.0, 0.0, 0.0],
    [0.0, 0.0, 1.0, 0.0],
    [0.0, 0.0, 0.0, 1.0]
],
  "dcmmeta_shape": [82, 82, 56, 872],
  "dcmmeta_slice_dim": 2,
  "dcmmeta_version": 0.6,
  "global": {
    "const": {
      "AccessionNumber": "A003935",
      "AcquisitionMatrix": [82, 0, 0, 82],
      "AngioFlag": "N",
      "BitsAllocated": 16,
      "BitsStored": 16,
      "BodyPartExamined": "BRAIN",
      "Columns": 656,
      "EchoNumbers": 1,
      "EchoTime": 27.2,
      "EchoTrainLength": 82,
      "FlipAngle": 44.0,
      "HighBit": 15,
      "ImageOrientationPatient": [0.99929421457309, -0.0089063561613, -0.036493143749, 0.00610444635324, 0.997075142257, -0.0761833080661],
      "ImagePositionPatient": [-889.82336725685, -899.56606485647, 33.199240532595],
      "ImageType": [
        "ORIGINAL",
        "PRIMARY",
        "M",
        "MB",
        "ND",
        "NORM",
        "MOSAIC"
],
      "ImagedNucleus": "1H",
      "ImagingFrequency": 123.25214,
      "InPlanePhaseEncodingDirection": "COL",
      "MRAcquisitionType": "2D",
      "MagneticFieldStrength": 3.0,
      "Manufacturer": "SIEMENS",
      "ManufacturerModelName": "Prisma",
      "Modality": "MR",
      "NumberOfAverages": 1.0,
      "NumberOfPhaseEncodingSteps": 82,
      "PercentPhaseFieldOfView": 100.0,
      "PercentSampling": 100.0,
      "PerformedProcedureStepStartTime": "084702.278000",
      "PhotometricInterpretation": "MONOCHROME2",
      "PixelBandwidth": 3050.0,
      "PixelRepresentation": 0,
      "PixelSpacing": [2.6829268932343, 2.6829268932343],
      "ProtocolName": "func_run-02_task-social_acq-ap-mb8",
      "RepetitionTime": 460.0,
      "Rows": 656,
      "SAR": 0.11091509022297,
      "SamplesPerPixel": 1,
      "ScanOptions": "FS",
      "ScanningSequence": "EP",
      "SequenceName": "epfid2d1_82",
      "SequenceVariant": [
        "SK",
        "SS"
],
      "SeriesDescription": "func_run-02_task-social_acq-ap-mb8",
      "SeriesNumber": 14,
      "SeriesTime": "094117.797000",
      "SliceLocation": -68.18380748195,
      "SliceThickness": 2.7000000476837,
      "SmallestImagePixelValue": 0,
      "SoftwareVersions": "syngo MR E11",
      "SpacingBetweenSlices": 2.700000017068,
      "SpecificCharacterSet": "ISO_IR 100",
      "StudyID": "1",
      "StudyTime": "084702.098000",
      "TransmitCoilName": "Body",
      "VariableFlipAngleFlag": "N",
      "WindowCenterWidthExplanation": "Algo1"
    },
    "slices": {}
  },
  "time": {
    "samples": {
      "AcquisitionNumber": [1, 2, 3, 4, 5, 6, 7, 8, 9, 10, 11, 12, 13, 14, 15, 16, 17, 18, 19, 20, 21, 22, 23, 24, 25, 26, 27, 28, 29, 30, 31, 32, 33, 34, 35, 36, 37, 38, 39, 40, 41, 42, 43, 44, 45, 46, 47, 48, 49, 50, 51, 52, 53, 54, 55, 56, 57, 58, 59, 60, 61, 62, 63, 64, 65, 66, 67, 68, 69, 70, 71, 72, 73, 74, 75, 76, 77, 78, 79, 80, 81, 82, 83, 84, 85, 86, 87, 88, 89, 90, 91, 92, 93, 94, 95, 96, 97, 98, 99, 100, 101, 102, 103, 104, 105, 106, 107, 108, 109, 110, 111, 112, 113, 114, 115, 116, 117, 118, 119, 120, 121, 122, 123, 124, 125, 126, 127, 128, 129, 130, 131, 132, 133, 134, 135, 136, 137, 138, 139, 140, 141, 142, 143, 144, 145, 146, 147, 148, 149, 150, 151, 152, 153, 154, 155, 156, 157, 158, 159, 160, 161, 162, 163, 164, 165, 166, 167, 168, 169, 170, 171, 172, 173, 174, 175, 176, 177, 178, 179, 180, 181, 182, 183, 184, 185, 186, 187, 188, 189, 190, 191, 192, 193, 194, 195, 196, 197, 198, 199, 200, 201, 202, 203, 204, 205, 206, 207, 208, 209, 210, 211, 212, 213, 214, 215, 216, 217, 218, 219, 220, 221, 222, 223, 224, 225, 226, 227, 228, 229, 230, 231, 232, 233, 234, 235, 236, 237, 238, 239, 240, 241, 242, 243, 244, 245, 246, 247, 248, 249, 250, 251, 252, 253, 254, 255, 256, 257, 258, 259, 260, 261, 262, 263, 264, 265, 266, 267, 268, 269, 270, 271, 272, 273, 274, 275, 276, 277, 278, 279, 280, 281, 282, 283, 284, 285, 286, 287, 288, 289, 290, 291, 292, 293, 294, 295, 296, 297, 298, 299, 300, 301, 302, 303, 304, 305, 306, 307, 308, 309, 310, 311, 312, 313, 314, 315, 316, 317, 318, 319, 320, 321, 322, 323, 324, 325, 326, 327, 328, 329, 330, 331, 332, 333, 334, 335, 336, 337, 338, 339, 340, 341, 342, 343, 344, 345, 346, 347, 348, 349, 350, 351, 352, 353, 354, 355, 356, 357, 358, 359, 360, 361, 362, 363, 364, 365, 366, 367, 368, 369, 370, 371, 372, 373, 374, 375, 376, 377, 378, 379, 380, 381, 382, 383, 384, 385, 386, 387, 388, 389, 390, 391, 392, 393, 394, 395, 396, 397, 398, 399, 400, 401, 402, 403, 404, 405, 406, 407, 408, 409, 410, 411, 412, 413, 414, 415, 416, 417, 418, 419, 420, 421, 422, 423, 424, 425, 426, 427, 428, 429, 430, 431, 432, 433, 434, 435, 436, 437, 438, 439, 440, 441, 442, 443, 444, 445, 446, 447, 448, 449, 450, 451, 452, 453, 454, 455, 456, 457, 458, 459, 460, 461, 462, 463, 464, 465, 466, 467, 468, 469, 470, 471, 472, 473, 474, 475, 476, 477, 478, 479, 480, 481, 482, 483, 484, 485, 486, 487, 488, 489, 490, 491, 492, 493, 494, 495, 496, 497, 498, 499, 500, 501, 502, 503, 504, 505, 506, 507, 508, 509, 510, 511, 512, 513, 514, 515, 516, 517, 518, 519, 520, 521, 522, 523, 524, 525, 526, 527, 528, 529, 530, 531, 532, 533, 534, 535, 536, 537, 538, 539, 540, 541, 542, 543, 544, 545, 546, 547, 548, 549, 550, 551, 552, 553, 554, 555, 556, 557, 558, 559, 560, 561, 562, 563, 564, 565, 566, 567, 568, 569, 570, 571, 572, 573, 574, 575, 576, 577, 578, 579, 580, 581, 582, 583, 584, 585, 586, 587, 588, 589, 590, 591, 592, 593, 594, 595, 596, 597, 598, 599, 600, 601, 602, 603, 604, 605, 606, 607, 608, 609, 610, 611, 612, 613, 614, 615, 616, 617, 618, 619, 620, 621, 622, 623, 624, 625, 626, 627, 628, 629, 630, 631, 632, 633, 634, 635, 636, 637, 638, 639, 640, 641, 642, 643, 644, 645, 646, 647, 648, 649, 650, 651, 652, 653, 654, 655, 656, 657, 658, 659, 660, 661, 662, 663, 664, 665, 666, 667, 668, 669, 670, 671, 672, 673, 674, 675, 676, 677, 678, 679, 680, 681, 682, 683, 684, 685, 686, 687, 688, 689, 690, 691, 692, 693, 694, 695, 696, 697, 698, 699, 700, 701, 702, 703, 704, 705, 706, 707, 708, 709, 710, 711, 712, 713, 714, 715, 716, 717, 718, 719, 720, 721, 722, 723, 724, 725, 726, 727, 728, 729, 730, 731, 732, 733, 734, 735, 736, 737, 738, 739, 740, 741, 742, 743, 744, 745, 746, 747, 748, 749, 750, 751, 752, 753, 754, 755, 756, 757, 758, 759, 760, 761, 762, 763, 764, 765, 766, 767, 768, 769, 770, 771, 772, 773, 774, 775, 776, 777, 778, 779, 780, 781, 782, 783, 784, 785, 786, 787, 788, 789, 790, 791, 792, 793, 794, 795, 796, 797, 798, 799, 800, 801, 802, 803, 804, 805, 806, 807, 808, 809, 810, 811, 812, 813, 814, 815, 816, 817, 818, 819, 820, 821, 822, 823, 824, 825, 826, 827, 828, 829, 830, 831, 832, 833, 834, 835, 836, 837, 838, 839, 840, 841, 842, 843, 844, 845, 846, 847, 848, 849, 850, 851, 852, 853, 854, 855, 856, 857, 858, 859, 860, 861, 862, 863, 864, 865, 866, 867, 868, 869, 870, 871, 872],
      "AcquisitionTime": ["094107.295000", "094107.755000", "094108.215000", "094108.675000", "094109.135000", "094109.595000", "094110.055000", "094110.515000", "094110.975000", "094111.435000", "094111.895000", "094112.355000", "094112.815000", "094113.275000", "094113.735000", "094114.195000", "094114.655000", "094115.115000", "094115.575000", "094116.035000", "094116.495000", "094116.955000", "094117.415000", "094117.875000", "094118.335000", "094118.795000", "094119.255000", "094119.715000", "094120.175000", "094120.635000", "094121.095000", "094121.555000", "094122.015000", "094122.475000", "094122.935000", "094123.395000", "094123.855000", "094124.315000", "094124.775000", "094125.235000", "094125.695000", "094126.155000", "094126.615000", "094127.075000", "094127.535000", "094127.995000", "094128.455000", "094128.915000", "094129.375000", "094129.835000", "094130.295000", "094130.755000", "094131.215000", "094131.675000", "094132.135000", "094132.595000", "094133.055000", "094133.515000", "094133.975000", "094134.435000", "094134.895000", "094135.355000", "094135.815000", "094136.275000", "094136.735000", "094137.195000", "094137.655000", "094138.115000", "094138.575000", "094139.035000", "094139.495000", "094139.955000", "094140.415000", "094140.875000", "094141.335000", "094141.795000", "094142.255000", "094142.715000", "094143.175000", "094143.635000", "094144.095000", "094144.555000", "094145.015000", "094145.475000", "094145.935000", "094146.395000", "094146.855000", "094147.315000", "094147.775000", "094148.235000", "094148.695000", "094149.155000", "094149.615000", "094150.075000", "094150.535000", "094150.995000", "094151.455000", "094151.915000", "094152.375000", "094152.835000", "094153.295000", "094153.755000", "094154.215000", "094154.675000", "094155.135000", "094155.595000", "094156.055000", "094156.515000", "094156.975000", "094157.435000", "094157.895000", "094158.355000", "094158.815000", "094159.275000", "094159.735000", "094200.195000", "094200.655000", "094201.115000", "094201.575000", "094202.035000", "094202.495000", "094202.955000", "094203.415000", "094203.875000", "094204.335000", "094204.795000", "094205.255000", "094205.715000", "094206.175000", "094206.635000", "094207.095000", "094207.555000", "094208.015000", "094208.475000", "094208.935000", "094209.395000", "094209.855000", "094210.315000", "094210.775000", "094211.235000", "094211.695000", "094212.155000", "094212.615000", "094213.075000", "094213.535000", "094213.995000", "094214.455000", "094214.915000", "094215.375000", "094215.835000", "094216.295000", "094216.755000", "094217.215000", "094217.675000", "094218.135000", "094218.595000", "094219.055000", "094219.515000", "094219.975000", "094220.435000", "094220.895000", "094221.355000", "094221.815000", "094222.275000", "094222.735000", "094223.195000", "094223.655000", "094224.115000", "094224.575000", "094225.035000", "094225.495000", "094225.955000", "094226.415000", "094226.875000", "094227.335000", "094227.795000", "094228.255000", "094228.715000", "094229.175000", "094229.635000", "094230.095000", "094230.555000", "094231.015000", "094231.475000", "094231.935000", "094232.395000", "094232.855000", "094233.315000", "094233.775000", "094234.235000", "094234.695000", "094235.155000", "094235.615000", "094236.075000", "094236.535000", "094236.995000", "094237.455000", "094237.915000", "094238.375000", "094238.835000", "094239.295000", "094239.755000", "094240.215000", "094240.675000", "094241.135000", "094241.595000", "094242.055000", "094242.515000", "094242.975000", "094243.435000", "094243.895000", "094244.355000", "094244.815000", "094245.275000", "094245.735000", "094246.195000", "094246.655000", "094247.115000", "094247.575000", "094248.035000", "094248.495000", "094248.955000", "094249.415000", "094249.875000", "094250.335000", "094250.795000", "094251.255000", "094251.715000", "094252.175000", "094252.635000", "094253.095000", "094253.555000", "094254.015000", "094254.475000", "094254.935000", "094255.395000", "094255.855000", "094256.315000", "094256.775000", "094257.235000", "094257.695000", "094258.155000", "094258.615000", "094259.075000", "094259.535000", "094259.995000", "094300.455000", "094300.915000", "094301.375000", "094301.835000", "094302.295000", "094302.755000", "094303.215000", "094303.675000", "094304.135000", "094304.595000", "094305.055000", "094305.515000", "094305.975000", "094306.435000", "094306.895000", "094307.355000", "094307.815000", "094308.275000", "094308.735000", "094309.195000", "094309.655000", "094310.115000", "094310.575000", "094311.035000", "094311.495000", "094311.955000", "094312.415000", "094312.875000", "094313.335000", "094313.795000", "094314.255000", "094314.715000", "094315.175000", "094315.635000", "094316.095000", "094316.555000", "094317.015000", "094317.475000", "094317.935000", "094318.395000", "094318.855000", "094319.315000", "094319.775000", "094320.235000", "094320.695000", "094321.155000", "094321.615000", "094322.075000", "094322.535000", "094322.995000", "094323.455000", "094323.915000", "094324.375000", "094324.835000", "094325.295000", "094325.755000", "094326.215000", "094326.675000", "094327.135000", "094327.595000", "094328.055000", "094328.515000", "094328.975000", "094329.435000", "094329.895000", "094330.355000", "094330.815000", "094331.275000", "094331.735000", "094332.195000", "094332.655000", "094333.115000", "094333.575000", "094334.035000", "094334.495000", "094334.955000", "094335.415000", "094335.875000", "094336.335000", "094336.795000", "094337.255000", "094337.715000", "094338.175000", "094338.635000", "094339.095000", "094339.555000", "094340.015000", "094340.475000", "094340.935000", "094341.395000", "094341.855000", "094342.315000", "094342.775000", "094343.235000", "094343.695000", "094344.155000", "094344.615000", "094345.075000", "094345.535000", "094345.995000", "094346.455000", "094346.915000", "094347.375000", "094347.835000", "094348.295000", "094348.755000", "094349.215000", "094349.675000", "094350.135000", "094350.595000", "094351.055000", "094351.515000", "094351.975000", "094352.435000", "094352.895000", "094353.355000", "094353.815000", "094354.275000", "094354.735000", "094355.195000", "094355.655000", "094356.115000", "094356.575000", "094357.035000", "094357.495000", "094357.955000", "094358.415000", "094358.875000", "094359.335000", "094359.795000", "094400.255000", "094400.715000", "094401.175000", "094401.635000", "094402.095000", "094402.555000", "094403.015000", "094403.475000", "094403.935000", "094404.395000", "094404.855000", "094405.315000", "094405.775000", "094406.235000", "094406.695000", "094407.155000", "094407.615000", "094408.075000", "094408.535000", "094408.995000", "094409.455000", "094409.915000", "094410.375000", "094410.835000", "094411.295000", "094411.755000", "094412.215000", "094412.675000", "094413.135000", "094413.595000", "094414.055000", "094414.515000", "094414.975000", "094415.435000", "094415.895000", "094416.355000", "094416.815000", "094417.275000", "094417.735000", "094418.195000", "094418.655000", "094419.115000", "094419.575000", "094420.035000", "094420.495000", "094420.955000", "094421.415000", "094421.875000", "094422.335000", "094422.795000", "094423.255000", "094423.715000", "094424.175000", "094424.635000", "094425.095000", "094425.555000", "094426.015000", "094426.475000", "094426.935000", "094427.395000", "094427.855000", "094428.315000", "094428.775000", "094429.235000", "094429.695000", "094430.155000", "094430.615000", "094431.075000", "094431.535000", "094431.995000", "094432.455000", "094432.915000", "094433.375000", "094433.835000", "094434.295000", "094434.755000", "094435.215000", "094435.675000", "094436.135000", "094436.595000", "094437.055000", "094437.515000", "094437.975000", "094438.435000", "094438.895000", "094439.355000", "094439.815000", "094440.275000", "094440.735000", "094441.195000", "094441.655000", "094442.115000", "094442.575000", "094443.035000", "094443.495000", "094443.955000", "094444.415000", "094444.875000", "094445.335000", "094445.795000", "094446.255000", "094446.715000", "094447.175000", "094447.635000", "094448.095000", "094448.555000", "094449.015000", "094449.475000", "094449.935000", "094450.395000", "094450.855000", "094451.315000", "094451.775000", "094452.235000", "094452.695000", "094453.155000", "094453.615000", "094454.075000", "094454.535000", "094454.995000", "094455.455000", "094455.915000", "094456.375000", "094456.835000", "094457.295000", "094457.755000", "094458.215000", "094458.675000", "094459.135000", "094459.595000", "094500.055000", "094500.515000", "094500.975000", "094501.435000", "094501.895000", "094502.355000", "094502.815000", "094503.275000", "094503.735000", "094504.195000", "094504.655000", "094505.115000", "094505.575000", "094506.035000", "094506.495000", "094506.955000", "094507.415000", "094507.875000", "094508.335000", "094508.795000", "094509.255000", "094509.715000", "094510.175000", "094510.635000", "094511.095000", "094511.555000", "094512.015000", "094512.475000", "094512.935000", "094513.395000", "094513.855000", "094514.315000", "094514.775000", "094515.235000", "094515.695000", "094516.155000", "094516.615000", "094517.075000", "094517.535000", "094517.995000", "094518.455000", "094518.915000", "094519.375000", "094519.835000", "094520.295000", "094520.755000", "094521.215000", "094521.675000", "094522.135000", "094522.595000", "094523.055000", "094523.515000", "094523.975000", "094524.435000", "094524.895000", "094525.355000", "094525.815000", "094526.275000", "094526.735000", "094527.195000", "094527.655000", "094528.115000", "094528.575000", "094529.035000", "094529.495000", "094529.955000", "094530.415000", "094530.875000", "094531.335000", "094531.795000", "094532.255000", "094532.715000", "094533.175000", "094533.635000", "094534.095000", "094534.555000", "094535.015000", "094535.475000", "094535.935000", "094536.395000", "094536.855000", "094537.315000", "094537.775000", "094538.235000", "094538.695000", "094539.155000", "094539.615000", "094540.075000", "094540.535000", "094540.995000", "094541.455000", "094541.915000", "094542.375000", "094542.835000", "094543.295000", "094543.755000", "094544.215000", "094544.675000", "094545.135000", "094545.595000", "094546.055000", "094546.515000", "094546.975000", "094547.435000", "094547.895000", "094548.355000", "094548.815000", "094549.275000", "094549.735000", "094550.195000", "094550.655000", "094551.115000", "094551.575000", "094552.035000", "094552.495000", "094552.955000", "094553.415000", "094553.875000", "094554.335000", "094554.795000", "094555.255000", "094555.715000", "094556.175000", "094556.635000", "094557.095000", "094557.555000", "094558.015000", "094558.475000", "094558.935000", "094559.395000", "094559.855000", "094600.315000", "094600.775000", "094601.235000", "094601.695000", "094602.155000", "094602.615000", "094603.075000", "094603.535000", "094603.995000", "094604.455000", "094604.915000", "094605.375000", "094605.835000", "094606.295000", "094606.755000", "094607.215000", "094607.675000", "094608.135000", "094608.595000", "094609.055000", "094609.515000", "094609.975000", "094610.435000", "094610.895000", "094611.355000", "094611.815000", "094612.275000", "094612.735000", "094613.195000", "094613.655000", "094614.115000", "094614.575000", "094615.035000", "094615.495000", "094615.955000", "094616.415000", "094616.875000", "094617.335000", "094617.795000", "094618.255000", "094618.715000", "094619.175000", "094619.635000", "094620.095000", "094620.555000", "094621.015000", "094621.475000", "094621.935000", "094622.395000", "094622.855000", "094623.315000", "094623.775000", "094624.235000", "094624.695000", "094625.155000", "094625.615000", "094626.075000", "094626.535000", "094626.995000", "094627.455000", "094627.915000", "094628.375000", "094628.835000", "094629.295000", "094629.755000", "094630.215000", "094630.675000", "094631.135000", "094631.595000", "094632.055000", "094632.515000", "094632.975000", "094633.435000", "094633.895000", "094634.355000", "094634.815000", "094635.275000", "094635.735000", "094636.195000", "094636.655000", "094637.115000", "094637.575000", "094638.035000", "094638.495000", "094638.955000", "094639.415000", "094639.875000", "094640.335000", "094640.795000", "094641.255000", "094641.715000", "094642.175000", "094642.635000", "094643.095000", "094643.555000", "094644.015000", "094644.475000", "094644.935000", "094645.395000", "094645.855000", "094646.315000", "094646.775000", "094647.235000", "094647.695000", "094648.155000", "094648.615000", "094649.075000", "094649.535000", "094649.995000", "094650.455000", "094650.915000", "094651.375000", "094651.835000", "094652.295000", "094652.755000", "094653.215000", "094653.675000", "094654.135000", "094654.595000", "094655.055000", "094655.515000", "094655.975000", "094656.435000", "094656.895000", "094657.355000", "094657.815000", "094658.275000", "094658.735000", "094659.195000", "094659.655000", "094700.115000", "094700.575000", "094701.035000", "094701.495000", "094701.955000", "094702.415000", "094702.875000", "094703.335000", "094703.795000", "094704.255000", "094704.715000", "094705.175000", "094705.635000", "094706.095000", "094706.555000", "094707.015000", "094707.475000", "094707.935000", "094708.395000", "094708.855000", "094709.315000", "094709.775000", "094710.235000", "094710.695000", "094711.155000", "094711.615000", "094712.075000", "094712.535000", "094712.995000", "094713.455000", "094713.915000", "094714.375000", "094714.835000", "094715.295000", "094715.755000", "094716.215000", "094716.675000", "094717.135000", "094717.595000", "094718.055000", "094718.515000", "094718.975000", "094719.435000", "094719.895000", "094720.355000", "094720.815000", "094721.275000", "094721.735000", "094722.195000", "094722.655000", "094723.115000", "094723.575000", "094724.035000", "094724.495000", "094724.955000", "094725.415000", "094725.875000", "094726.335000", "094726.795000", "094727.255000", "094727.715000", "094728.175000", "094728.635000", "094729.095000", "094729.555000", "094730.015000", "094730.475000", "094730.935000", "094731.395000", "094731.855000", "094732.315000", "094732.775000", "094733.235000", "094733.695000", "094734.155000", "094734.615000", "094735.075000", "094735.535000", "094735.995000", "094736.455000", "094736.915000", "094737.375000", "094737.835000", "094738.295000", "094738.755000", "094739.215000", "094739.675000", "094740.135000", "094740.595000", "094741.055000", "094741.515000", "094741.975000", "094742.435000", "094742.895000", "094743.355000", "094743.815000", "094744.275000", "094744.735000", "094745.195000", "094745.655000", "094746.115000", "094746.575000", "094747.035000", "094747.495000", "094747.955000"],
