{
  "AcquisitionMatrixPE": 82,
  "AcquisitionNumber": 1,
  "AcquisitionTime": "09:59:38.205000",
  "BandwidthPerPixelPhaseEncode": 24.888,
  "BaseResolution": 82,
  "BodyPartExamined": "BRAIN",
  "ConsistencyInfo": "N4_VE11E_LATEST_20181129",
  "ConversionSoftware": "dcm2niix",
  "ConversionSoftwareVersion": "v1.0.20201102",
  "DerivedVendorReportedEchoSpacing": 0.00049,
  "DeviceSerialNumber": "66112",
  "DwellTime": 2e-06,
  "EchoTime": 0.0272,
  "EchoTrainLength": 82,
  "EffectiveEchoSpacing": 0.00049,
  "FlipAngle": 44,
  "ImageComments": "Unaliased MB8/PE3",
  "ImageOrientationPatientDICOM": [0.999294, -0.00890636, -0.0364931, 0.00610445, 0.997075, -0.0761833],
  "ImageType": [
    "ORIGINAL",
    "PRIMARY",
    "M",
    "MB",
    "ND",
    "NORM",
    "MOSAIC"
],
  "ImagingFrequency": 123.252,
  "InPlanePhaseEncodingDirectionDICOM": "COL",
  "InstitutionAddress": "Maynard 3,Hanover,NH,US,03755",
  "InstitutionName": "Dartmouth College - PBS",
  "InstitutionalDepartmentName": "Department",
  "MRAcquisitionType": "2D",
  "MagneticFieldStrength": 3,
  "Manufacturer": "Siemens",
  "ManufacturersModelName": "Prisma",
  "Modality": "MR",
  "MultibandAccelerationFactor": 8,
  "PartialFourier": 1,
  "PatientPosition": "HFS",
  "PercentPhaseFOV": 100,
  "PercentSampling": 100,
  "PhaseEncodingDirection": "j-",
  "PhaseEncodingSteps": 82,
  "PhaseResolution": 1,
  "PixelBandwidth": 3050,
  "ProcedureStepDescription": "Wager_Wager^1076_spacetop",
  "ProtocolName": "func_run-04_task-social_acq-ap-mb8",
  "PulseSequenceDetails": "%CustomerSeq%\\cmrr_mbep2d_bold",
  "ReceiveCoilActiveElements": "HEA;HEP",
  "ReceiveCoilName": "Head_32",
  "ReconMatrixPE": 82,
  "RepetitionTime": 0.46,
  "SAR": 0.110915,
  "ScanOptions": "FS",
  "ScanningSequence": "EP",
  "SequenceName": "epfid2d1_82",
  "SequenceVariant": "SK\\SS",
  "SeriesDescription": "func_run-04_task-social_acq-ap-mb8",
  "SeriesNumber": 18,
  "ShimSetting": [4129, -7787, -7227, 496, -37, -255, -63, 76],
  "SliceThickness": 2.7,
  "SliceTiming": [0, 0.2525, 0.065, 0.315, 0.1275, 0.3775, 0.19, 0, 0.2525, 0.065, 0.315, 0.1275, 0.3775, 0.19, 0, 0.2525, 0.065, 0.315, 0.1275, 0.3775, 0.19, 0, 0.2525, 0.065, 0.315, 0.1275, 0.3775, 0.19, 0, 0.2525, 0.065, 0.315, 0.1275, 0.3775, 0.19, 0, 0.2525, 0.065, 0.315, 0.1275, 0.3775, 0.19, 0, 0.2525, 0.065, 0.315, 0.1275, 0.3775, 0.19, 0, 0.2525, 0.065, 0.315, 0.1275, 0.3775, 0.19],
  "SoftwareVersions": "syngo MR E11",
  "SpacingBetweenSlices": 2.7,
  "StationName": "AWP66112",
  "TaskName": "social",
  "TotalReadoutTime": 0.03969,
  "TxRefAmp": 252.261,
  "WipMemBlock": "4f297618-5dbc-4872-83cd-0521c845ffe9||Sequence: R016 ve11e/master r/434b28f1; Aug  7 2019 18:53:46 by eja",
  "dcmmeta_affine": [
    [-2.6810333728790283, 0.016377782449126244, -0.10007528960704803, 114.33978271484375],
    [0.023895101621747017, 2.675079822540283, -0.2049482762813568, -78.00537872314453],
    [-0.09790843725204468, 0.20439425110816956, 2.690349578857422, -70.11756134033203],
    [0.0, 0.0, 0.0, 1.0]
],
  "dcmmeta_reorient_transform": [
    [0.0, -1.0, 0.0, 81.0],
    [1.0, 0.0, 0.0, 0.0],
    [0.0, 0.0, 1.0, 0.0],
    [0.0, 0.0, 0.0, 1.0]
],
  "dcmmeta_shape": [82, 82, 56, 872],
  "dcmmeta_slice_dim": 2,
  "dcmmeta_version": 0.6,
  "global": {
    "const": {
      "AccessionNumber": "A003935",
      "AcquisitionMatrix": [82, 0, 0, 82],
      "AngioFlag": "N",
      "BitsAllocated": 16,
      "BitsStored": 16,
      "BodyPartExamined": "BRAIN",
      "Columns": 656,
      "EchoNumbers": 1,
      "EchoTime": 27.2,
      "EchoTrainLength": 82,
      "FlipAngle": 44.0,
      "HighBit": 15,
      "ImageOrientationPatient": [0.99929421457309, -0.0089063561613, -0.036493143749, 0.00610444635324, 0.997075142257, -0.0761833080661],
      "ImagePositionPatient": [-889.82336725685, -899.56606485647, 33.199240532595],
      "ImageType": [
        "ORIGINAL",
        "PRIMARY",
        "M",
        "MB",
        "ND",
        "NORM",
        "MOSAIC"
],
      "ImagedNucleus": "1H",
      "ImagingFrequency": 123.252147,
      "InPlanePhaseEncodingDirection": "COL",
      "MRAcquisitionType": "2D",
      "MagneticFieldStrength": 3.0,
      "Manufacturer": "SIEMENS",
      "ManufacturerModelName": "Prisma",
      "Modality": "MR",
      "NumberOfAverages": 1.0,
      "NumberOfPhaseEncodingSteps": 82,
      "PercentPhaseFieldOfView": 100.0,
      "PercentSampling": 100.0,
      "PerformedProcedureStepStartTime": "084702.278000",
      "PhotometricInterpretation": "MONOCHROME2",
      "PixelBandwidth": 3050.0,
      "PixelRepresentation": 0,
      "PixelSpacing": [2.6829268932343, 2.6829268932343],
      "ProtocolName": "func_run-04_task-social_acq-ap-mb8",
      "RepetitionTime": 460.0,
      "Rows": 656,
      "SAR": 0.11091509022297,
      "SamplesPerPixel": 1,
      "ScanOptions": "FS",
      "ScanningSequence": "EP",
      "SequenceName": "epfid2d1_82",
      "SequenceVariant": [
        "SK",
        "SS"
],
      "SeriesDescription": "func_run-04_task-social_acq-ap-mb8",
      "SeriesNumber": 18,
      "SeriesTime": "095958.003000",
      "SliceLocation": -68.18380748195,
      "SliceThickness": 2.7000000476837,
      "SmallestImagePixelValue": 0,
      "SoftwareVersions": "syngo MR E11",
      "SpacingBetweenSlices": 2.700000017068,
      "SpecificCharacterSet": "ISO_IR 100",
      "StudyID": "1",
      "StudyTime": "084702.098000",
      "TransmitCoilName": "Body",
      "VariableFlipAngleFlag": "N",
      "WindowCenterWidthExplanation": "Algo1"
    },
    "slices": {}
  },
  "time": {
    "samples": {
      "AcquisitionNumber": [1, 2, 3, 4, 5, 6, 7, 8, 9, 10, 11, 12, 13, 14, 15, 16, 17, 18, 19, 20, 21, 22, 23, 24, 25, 26, 27, 28, 29, 30, 31, 32, 33, 34, 35, 36, 37, 38, 39, 40, 41, 42, 43, 44, 45, 46, 47, 48, 49, 50, 51, 52, 53, 54, 55, 56, 57, 58, 59, 60, 61, 62, 63, 64, 65, 66, 67, 68, 69, 70, 71, 72, 73, 74, 75, 76, 77, 78, 79, 80, 81, 82, 83, 84, 85, 86, 87, 88, 89, 90, 91, 92, 93, 94, 95, 96, 97, 98, 99, 100, 101, 102, 103, 104, 105, 106, 107, 108, 109, 110, 111, 112, 113, 114, 115, 116, 117, 118, 119, 120, 121, 122, 123, 124, 125, 126, 127, 128, 129, 130, 131, 132, 133, 134, 135, 136, 137, 138, 139, 140, 141, 142, 143, 144, 145, 146, 147, 148, 149, 150, 151, 152, 153, 154, 155, 156, 157, 158, 159, 160, 161, 162, 163, 164, 165, 166, 167, 168, 169, 170, 171, 172, 173, 174, 175, 176, 177, 178, 179, 180, 181, 182, 183, 184, 185, 186, 187, 188, 189, 190, 191, 192, 193, 194, 195, 196, 197, 198, 199, 200, 201, 202, 203, 204, 205, 206, 207, 208, 209, 210, 211, 212, 213, 214, 215, 216, 217, 218, 219, 220, 221, 222, 223, 224, 225, 226, 227, 228, 229, 230, 231, 232, 233, 234, 235, 236, 237, 238, 239, 240, 241, 242, 243, 244, 245, 246, 247, 248, 249, 250, 251, 252, 253, 254, 255, 256, 257, 258, 259, 260, 261, 262, 263, 264, 265, 266, 267, 268, 269, 270, 271, 272, 273, 274, 275, 276, 277, 278, 279, 280, 281, 282, 283, 284, 285, 286, 287, 288, 289, 290, 291, 292, 293, 294, 295, 296, 297, 298, 299, 300, 301, 302, 303, 304, 305, 306, 307, 308, 309, 310, 311, 312, 313, 314, 315, 316, 317, 318, 319, 320, 321, 322, 323, 324, 325, 326, 327, 328, 329, 330, 331, 332, 333, 334, 335, 336, 337, 338, 339, 340, 341, 342, 343, 344, 345, 346, 347, 348, 349, 350, 351, 352, 353, 354, 355, 356, 357, 358, 359, 360, 361, 362, 363, 364, 365, 366, 367, 368, 369, 370, 371, 372, 373, 374, 375, 376, 377, 378, 379, 380, 381, 382, 383, 384, 385, 386, 387, 388, 389, 390, 391, 392, 393, 394, 395, 396, 397, 398, 399, 400, 401, 402, 403, 404, 405, 406, 407, 408, 409, 410, 411, 412, 413, 414, 415, 416, 417, 418, 419, 420, 421, 422, 423, 424, 425, 426, 427, 428, 429, 430, 431, 432, 433, 434, 435, 436, 437, 438, 439, 440, 441, 442, 443, 444, 445, 446, 447, 448, 449, 450, 451, 452, 453, 454, 455, 456, 457, 458, 459, 460, 461, 462, 463, 464, 465, 466, 467, 468, 469, 470, 471, 472, 473, 474, 475, 476, 477, 478, 479, 480, 481, 482, 483, 484, 485, 486, 487, 488, 489, 490, 491, 492, 493, 494, 495, 496, 497, 498, 499, 500, 501, 502, 503, 504, 505, 506, 507, 508, 509, 510, 511, 512, 513, 514, 515, 516, 517, 518, 519, 520, 521, 522, 523, 524, 525, 526, 527, 528, 529, 530, 531, 532, 533, 534, 535, 536, 537, 538, 539, 540, 541, 542, 543, 544, 545, 546, 547, 548, 549, 550, 551, 552, 553, 554, 555, 556, 557, 558, 559, 560, 561, 562, 563, 564, 565, 566, 567, 568, 569, 570, 571, 572, 573, 574, 575, 576, 577, 578, 579, 580, 581, 582, 583, 584, 585, 586, 587, 588, 589, 590, 591, 592, 593, 594, 595, 596, 597, 598, 599, 600, 601, 602, 603, 604, 605, 606, 607, 608, 609, 610, 611, 612, 613, 614, 615, 616, 617, 618, 619, 620, 621, 622, 623, 624, 625, 626, 627, 628, 629, 630, 631, 632, 633, 634, 635, 636, 637, 638, 639, 640, 641, 642, 643, 644, 645, 646, 647, 648, 649, 650, 651, 652, 653, 654, 655, 656, 657, 658, 659, 660, 661, 662, 663, 664, 665, 666, 667, 668, 669, 670, 671, 672, 673, 674, 675, 676, 677, 678, 679, 680, 681, 682, 683, 684, 685, 686, 687, 688, 689, 690, 691, 692, 693, 694, 695, 696, 697, 698, 699, 700, 701, 702, 703, 704, 705, 706, 707, 708, 709, 710, 711, 712, 713, 714, 715, 716, 717, 718, 719, 720, 721, 722, 723, 724, 725, 726, 727, 728, 729, 730, 731, 732, 733, 734, 735, 736, 737, 738, 739, 740, 741, 742, 743, 744, 745, 746, 747, 748, 749, 750, 751, 752, 753, 754, 755, 756, 757, 758, 759, 760, 761, 762, 763, 764, 765, 766, 767, 768, 769, 770, 771, 772, 773, 774, 775, 776, 777, 778, 779, 780, 781, 782, 783, 784, 785, 786, 787, 788, 789, 790, 791, 792, 793, 794, 795, 796, 797, 798, 799, 800, 801, 802, 803, 804, 805, 806, 807, 808, 809, 810, 811, 812, 813, 814, 815, 816, 817, 818, 819, 820, 821, 822, 823, 824, 825, 826, 827, 828, 829, 830, 831, 832, 833, 834, 835, 836, 837, 838, 839, 840, 841, 842, 843, 844, 845, 846, 847, 848, 849, 850, 851, 852, 853, 854, 855, 856, 857, 858, 859, 860, 861, 862, 863, 864, 865, 866, 867, 868, 869, 870, 871, 872],
      "AcquisitionTime": ["095938.205000", "095938.665000", "095939.125000", "095939.585000", "095940.045000", "095940.505000", "095940.965000", "095941.425000", "095941.885000", "095942.345000", "095942.805000", "095943.265000", "095943.725000", "095944.185000", "095944.645000", "095945.105000", "095945.565000", "095946.025000", "095946.485000", "095946.945000", "095947.405000", "095947.865000", "095948.325000", "095948.785000", "095949.245000", "095949.705000", "095950.165000", "095950.625000", "095951.085000", "095951.545000", "095952.005000", "095952.465000", "095952.925000", "095953.385000", "095953.845000", "095954.305000", "095954.765000", "095955.225000", "095955.685000", "095956.145000", "095956.605000", "095957.065000", "095957.525000", "095957.985000", "095958.445000", "095958.905000", "095959.365000", "095959.825000", "100000.285000", "100000.745000", "100001.205000", "100001.665000", "100002.125000", "100002.585000", "100003.045000", "100003.505000", "100003.965000", "100004.425000", "100004.885000", "100005.345000", "100005.805000", "100006.265000", "100006.725000", "100007.185000", "100007.645000", "100008.105000", "100008.565000", "100009.025000", "100009.485000", "100009.945000", "100010.405000", "100010.865000", "100011.325000", "100011.785000", "100012.245000", "100012.705000", "100013.165000", "100013.625000", "100014.085000", "100014.545000", "100015.005000", "100015.465000", "100015.925000", "100016.385000", "100016.845000", "100017.305000", "100017.765000", "100018.225000", "100018.685000", "100019.145000", "100019.605000", "100020.065000", "100020.525000", "100020.985000", "100021.445000", "100021.905000", "100022.365000", "100022.825000", "100023.285000", "100023.745000", "100024.205000", "100024.665000", "100025.125000", "100025.585000", "100026.045000", "100026.505000", "100026.965000", "100027.425000", "100027.885000", "100028.345000", "100028.805000", "100029.265000", "100029.725000", "100030.185000", "100030.645000", "100031.105000", "100031.565000", "100032.025000", "100032.485000", "100032.945000", "100033.405000", "100033.865000", "100034.325000", "100034.785000", "100035.245000", "100035.705000", "100036.165000", "100036.625000", "100037.085000", "100037.545000", "100038.005000", "100038.465000", "100038.925000", "100039.385000", "100039.845000", "100040.305000", "100040.765000", "100041.225000", "100041.685000", "100042.145000", "100042.605000", "100043.065000", "100043.525000", "100043.985000", "100044.445000", "100044.905000", "100045.365000", "100045.825000", "100046.285000", "100046.745000", "100047.205000", "100047.665000", "100048.125000", "100048.585000", "100049.045000", "100049.505000", "100049.965000", "100050.425000", "100050.885000", "100051.345000", "100051.805000", "100052.265000", "100052.725000", "100053.185000", "100053.645000", "100054.105000", "100054.565000", "100055.025000", "100055.485000", "100055.945000", "100056.405000", "100056.865000", "100057.325000", "100057.785000", "100058.245000", "100058.705000", "100059.165000", "100059.625000", "100100.085000", "100100.545000", "100101.005000", "100101.465000", "100101.925000", "100102.385000", "100102.845000", "100103.305000", "100103.765000", "100104.225000", "100104.685000", "100105.145000", "100105.605000", "100106.065000", "100106.525000", "100106.985000", "100107.445000", "100107.905000", "100108.365000", "100108.825000", "100109.285000", "100109.745000", "100110.205000", "100110.665000", "100111.125000", "100111.585000", "100112.045000", "100112.505000", "100112.965000", "100113.425000", "100113.885000", "100114.345000", "100114.805000", "100115.265000", "100115.725000", "100116.185000", "100116.645000", "100117.105000", "100117.565000", "100118.025000", "100118.485000", "100118.945000", "100119.405000", "100119.865000", "100120.325000", "100120.785000", "100121.245000", "100121.705000", "100122.165000", "100122.625000", "100123.085000", "100123.545000", "100124.005000", "100124.465000", "100124.925000", "100125.385000", "100125.845000", "100126.305000", "100126.765000", "100127.225000", "100127.685000", "100128.145000", "100128.605000", "100129.065000", "100129.525000", "100129.985000", "100130.445000", "100130.905000", "100131.365000", "100131.825000", "100132.285000", "100132.745000", "100133.205000", "100133.665000", "100134.125000", "100134.585000", "100135.045000", "100135.505000", "100135.965000", "100136.425000", "100136.885000", "100137.345000", "100137.805000", "100138.265000", "100138.725000", "100139.185000", "100139.645000", "100140.105000", "100140.565000", "100141.025000", "100141.485000", "100141.945000", "100142.405000", "100142.865000", "100143.325000", "100143.785000", "100144.245000", "100144.705000", "100145.165000", "100145.625000", "100146.085000", "100146.545000", "100147.005000", "100147.465000", "100147.925000", "100148.385000", "100148.845000", "100149.305000", "100149.765000", "100150.225000", "100150.685000", "100151.145000", "100151.605000", "100152.065000", "100152.525000", "100152.985000", "100153.445000", "100153.905000", "100154.365000", "100154.825000", "100155.285000", "100155.745000", "100156.205000", "100156.665000", "100157.125000", "100157.585000", "100158.045000", "100158.505000", "100158.965000", "100159.425000", "100159.885000", "100200.345000", "100200.805000", "100201.265000", "100201.725000", "100202.185000", "100202.645000", "100203.105000", "100203.565000", "100204.025000", "100204.485000", "100204.945000", "100205.405000", "100205.865000", "100206.325000", "100206.785000", "100207.245000", "100207.705000", "100208.165000", "100208.625000", "100209.085000", "100209.545000", "100210.005000", "100210.465000", "100210.925000", "100211.385000", "100211.845000", "100212.305000", "100212.765000", "100213.225000", "100213.685000", "100214.145000", "100214.605000", "100215.065000", "100215.525000", "100215.985000", "100216.445000", "100216.905000", "100217.365000", "100217.825000", "100218.285000", "100218.745000", "100219.205000", "100219.665000", "100220.125000", "100220.585000", "100221.045000", "100221.505000", "100221.965000", "100222.425000", "100222.885000", "100223.345000", "100223.805000", "100224.265000", "100224.725000", "100225.185000", "100225.645000", "100226.105000", "100226.565000", "100227.025000", "100227.485000", "100227.945000", "100228.405000", "100228.865000", "100229.325000", "100229.785000", "100230.245000", "100230.705000", "100231.165000", "100231.625000", "100232.085000", "100232.545000", "100233.005000", "100233.465000", "100233.925000", "100234.385000", "100234.845000", "100235.305000", "100235.765000", "100236.225000", "100236.685000", "100237.145000", "100237.605000", "100238.065000", "100238.525000", "100238.985000", "100239.445000", "100239.905000", "100240.365000", "100240.825000", "100241.285000", "100241.745000", "100242.205000", "100242.665000", "100243.125000", "100243.585000", "100244.045000", "100244.505000", "100244.965000", "100245.425000", "100245.885000", "100246.345000", "100246.805000", "100247.265000", "100247.725000", "100248.185000", "100248.645000", "100249.105000", "100249.565000", "100250.025000", "100250.485000", "100250.945000", "100251.405000", "100251.865000", "100252.325000", "100252.785000", "100253.245000", "100253.705000", "100254.165000", "100254.625000", "100255.085000", "100255.545000", "100256.005000", "100256.465000", "100256.925000", "100257.385000", "100257.845000", "100258.305000", "100258.765000", "100259.225000", "100259.685000", "100300.145000", "100300.605000", "100301.065000", "100301.525000", "100301.985000", "100302.445000", "100302.905000", "100303.365000", "100303.825000", "100304.285000", "100304.745000", "100305.205000", "100305.665000", "100306.125000", "100306.585000", "100307.045000", "100307.505000", "100307.965000", "100308.425000", "100308.885000", "100309.345000", "100309.805000", "100310.265000", "100310.725000", "100311.185000", "100311.645000", "100312.105000", "100312.565000", "100313.025000", "100313.485000", "100313.945000", "100314.405000", "100314.865000", "100315.325000", "100315.785000", "100316.245000", "100316.705000", "100317.165000", "100317.625000", "100318.085000", "100318.545000", "100319.005000", "100319.465000", "100319.925000", "100320.385000", "100320.845000", "100321.305000", "100321.765000", "100322.225000", "100322.685000", "100323.145000", "100323.605000", "100324.065000", "100324.525000", "100324.985000", "100325.445000", "100325.905000", "100326.365000", "100326.825000", "100327.285000", "100327.745000", "100328.205000", "100328.665000", "100329.125000", "100329.585000", "100330.045000", "100330.505000", "100330.965000", "100331.425000", "100331.885000", "100332.345000", "100332.805000", "100333.265000", "100333.725000", "100334.185000", "100334.645000", "100335.105000", "100335.565000", "100336.025000", "100336.485000", "100336.945000", "100337.405000", "100337.865000", "100338.325000", "100338.785000", "100339.245000", "100339.705000", "100340.165000", "100340.625000", "100341.085000", "100341.545000", "100342.005000", "100342.465000", "100342.925000", "100343.385000", "100343.845000", "100344.305000", "100344.765000", "100345.225000", "100345.685000", "100346.145000", "100346.605000", "100347.065000", "100347.525000", "100347.985000", "100348.445000", "100348.905000", "100349.365000", "100349.825000", "100350.285000", "100350.745000", "100351.205000", "100351.665000", "100352.125000", "100352.585000", "100353.045000", "100353.505000", "100353.965000", "100354.425000", "100354.885000", "100355.345000", "100355.805000", "100356.265000", "100356.725000", "100357.185000", "100357.645000", "100358.105000", "100358.565000", "100359.025000", "100359.485000", "100359.945000", "100400.405000", "100400.865000", "100401.325000", "100401.785000", "100402.245000", "100402.705000", "100403.165000", "100403.625000", "100404.085000", "100404.545000", "100405.005000", "100405.465000", "100405.925000", "100406.385000", "100406.845000", "100407.305000", "100407.765000", "100408.225000", "100408.685000", "100409.145000", "100409.605000", "100410.065000", "100410.525000", "100410.985000", "100411.445000", "100411.905000", "100412.365000", "100412.825000", "100413.285000", "100413.745000", "100414.205000", "100414.665000", "100415.125000", "100415.585000", "100416.045000", "100416.505000", "100416.965000", "100417.425000", "100417.885000", "100418.345000", "100418.805000", "100419.265000", "100419.725000", "100420.185000", "100420.645000", "100421.105000", "100421.565000", "100422.025000", "100422.485000", "100422.945000", "100423.405000", "100423.865000", "100424.325000", "100424.785000", "100425.245000", "100425.705000", "100426.165000", "100426.625000", "100427.085000", "100427.545000", "100428.005000", "100428.465000", "100428.925000", "100429.385000", "100429.845000", "100430.305000", "100430.765000", "100431.225000", "100431.685000", "100432.145000", "100432.605000", "100433.065000", "100433.525000", "100433.985000", "100434.445000", "100434.905000", "100435.365000", "100435.825000", "100436.285000", "100436.745000", "100437.205000", "100437.665000", "100438.125000", "100438.585000", "100439.045000", "100439.505000", "100439.965000", "100440.425000", "100440.885000", "100441.345000", "100441.805000", "100442.265000", "100442.725000", "100443.185000", "100443.645000", "100444.105000", "100444.565000", "100445.025000", "100445.485000", "100445.945000", "100446.405000", "100446.865000", "100447.325000", "100447.785000", "100448.245000", "100448.705000", "100449.165000", "100449.625000", "100450.085000", "100450.545000", "100451.005000", "100451.465000", "100451.925000", "100452.385000", "100452.845000", "100453.305000", "100453.765000", "100454.225000", "100454.685000", "100455.145000", "100455.605000", "100456.065000", "100456.525000", "100456.985000", "100457.445000", "100457.905000", "100458.365000", "100458.825000", "100459.285000", "100459.745000", "100500.205000", "100500.665000", "100501.125000", "100501.585000", "100502.045000", "100502.505000", "100502.965000", "100503.425000", "100503.885000", "100504.345000", "100504.805000", "100505.265000", "100505.725000", "100506.185000", "100506.645000", "100507.105000", "100507.565000", "100508.025000", "100508.485000", "100508.945000", "100509.405000", "100509.865000", "100510.325000", "100510.785000", "100511.245000", "100511.705000", "100512.165000", "100512.625000", "100513.085000", "100513.545000", "100514.005000", "100514.465000", "100514.925000", "100515.385000", "100515.845000", "100516.305000", "100516.765000", "100517.225000", "100517.685000", "100518.145000", "100518.605000", "100519.065000", "100519.525000", "100519.985000", "100520.445000", "100520.905000", "100521.365000", "100521.825000", "100522.285000", "100522.745000", "100523.205000", "100523.665000", "100524.125000", "100524.585000", "100525.045000", "100525.505000", "100525.965000", "100526.425000", "100526.885000", "100527.345000", "100527.805000", "100528.265000", "100528.725000", "100529.185000", "100529.645000", "100530.105000", "100530.565000", "100531.025000", "100531.485000", "100531.945000", "100532.405000", "100532.865000", "100533.325000", "100533.785000", "100534.245000", "100534.705000", "100535.165000", "100535.625000", "100536.085000", "100536.545000", "100537.005000", "100537.465000", "100537.925000", "100538.385000", "100538.845000", "100539.305000", "100539.765000", "100540.225000", "100540.685000", "100541.145000", "100541.605000", "100542.065000", "100542.525000", "100542.985000", "100543.445000", "100543.905000", "100544.365000", "100544.825000", "100545.285000", "100545.745000", "100546.205000", "100546.665000", "100547.125000", "100547.585000", "100548.045000", "100548.505000", "100548.965000", "100549.425000", "100549.885000", "100550.345000", "100550.805000", "100551.265000", "100551.725000", "100552.185000", "100552.645000", "100553.105000", "100553.565000", "100554.025000", "100554.485000", "100554.945000", "100555.405000", "100555.865000", "100556.325000", "100556.785000", "100557.245000", "100557.705000", "100558.165000", "100558.625000", "100559.085000", "100559.545000", "100600.005000", "100600.465000", "100600.925000", "100601.385000", "100601.845000", "100602.305000", "100602.765000", "100603.225000", "100603.685000", "100604.145000", "100604.605000", "100605.065000", "100605.525000", "100605.985000", "100606.445000", "100606.905000", "100607.365000", "100607.825000", "100608.285000", "100608.745000", "100609.205000", "100609.665000", "100610.125000", "100610.585000", "100611.045000", "100611.505000", "100611.965000", "100612.425000", "100612.885000", "100613.345000", "100613.805000", "100614.265000", "100614.725000", "100615.185000", "100615.645000", "100616.105000", "100616.565000", "100617.025000", "100617.485000", "100617.945000", "100618.405000", "100618.865000"],
