{
  "AcquisitionMatrixPE": 82,
  "AcquisitionNumber": 1,
  "AcquisitionTime": "10:06:50.560000",
  "BandwidthPerPixelPhaseEncode": 24.888,
  "BaseResolution": 82,
  "BodyPartExamined": "BRAIN",
  "ConsistencyInfo": "N4_VE11E_LATEST_20181129",
  "ConversionSoftware": "dcm2niix",
  "ConversionSoftwareVersion": "v1.0.20201102",
  "DerivedVendorReportedEchoSpacing": 0.00049,
  "DeviceSerialNumber": "66112",
  "DwellTime": 2e-06,
  "EchoTime": 0.0272,
  "EchoTrainLength": 82,
  "EffectiveEchoSpacing": 0.00049,
  "FlipAngle": 44,
  "ImageComments": "Unaliased MB8/PE3",
  "ImageOrientationPatientDICOM": [0.999294, -0.00890636, -0.0364931, 0.00610445, 0.997075, -0.0761833],
  "ImageType": [
    "ORIGINAL",
    "PRIMARY",
    "M",
    "MB",
    "ND",
    "NORM",
    "MOSAIC"
],
  "ImagingFrequency": 123.252,
  "InPlanePhaseEncodingDirectionDICOM": "COL",
  "InstitutionAddress": "Maynard 3,Hanover,NH,US,03755",
  "InstitutionName": "Dartmouth College - PBS",
  "InstitutionalDepartmentName": "Department",
  "MRAcquisitionType": "2D",
  "MagneticFieldStrength": 3,
  "Manufacturer": "Siemens",
  "ManufacturersModelName": "Prisma",
  "Modality": "MR",
  "MultibandAccelerationFactor": 8,
  "PartialFourier": 1,
  "PatientPosition": "HFS",
  "PercentPhaseFOV": 100,
  "PercentSampling": 100,
  "PhaseEncodingDirection": "j-",
  "PhaseEncodingSteps": 82,
  "PhaseResolution": 1,
  "PixelBandwidth": 3050,
  "ProcedureStepDescription": "Wager_Wager^1076_spacetop",
  "ProtocolName": "func_run-05_task-social_acq-ap-mb8",
  "PulseSequenceDetails": "%CustomerSeq%\\cmrr_mbep2d_bold",
  "ReceiveCoilActiveElements": "HEA;HEP",
  "ReceiveCoilName": "Head_32",
  "ReconMatrixPE": 82,
  "RepetitionTime": 0.46,
  "SAR": 0.110915,
  "ScanOptions": "FS",
  "ScanningSequence": "EP",
  "SequenceName": "epfid2d1_82",
  "SequenceVariant": "SK\\SS",
  "SeriesDescription": "func_run-05_task-social_acq-ap-mb8",
  "SeriesNumber": 20,
  "ShimSetting": [4129, -7787, -7227, 496, -37, -255, -63, 76],
  "SliceThickness": 2.7,
  "SliceTiming": [0, 0.25, 0.0625, 0.3125, 0.125, 0.375, 0.1875, 0, 0.25, 0.0625, 0.3125, 0.125, 0.375, 0.1875, 0, 0.25, 0.0625, 0.3125, 0.125, 0.375, 0.1875, 0, 0.25, 0.0625, 0.3125, 0.125, 0.375, 0.1875, 0, 0.25, 0.0625, 0.3125, 0.125, 0.375, 0.1875, 0, 0.25, 0.0625, 0.3125, 0.125, 0.375, 0.1875, 0, 0.25, 0.0625, 0.3125, 0.125, 0.375, 0.1875, 0, 0.25, 0.0625, 0.3125, 0.125, 0.375, 0.1875],
  "SoftwareVersions": "syngo MR E11",
  "SpacingBetweenSlices": 2.7,
  "StationName": "AWP66112",
  "TaskName": "social",
  "TotalReadoutTime": 0.03969,
  "TxRefAmp": 252.261,
  "WipMemBlock": "e80dd847-abd4-4706-b484-93e71f2abeae||Sequence: R016 ve11e/master r/434b28f1; Aug  7 2019 18:53:46 by eja",
  "dcmmeta_affine": [
    [-2.6810333728790283, 0.016377782449126244, -0.10007528960704803, 114.33978271484375],
    [0.023895101621747017, 2.675079822540283, -0.2049482762813568, -78.00537872314453],
    [-0.09790843725204468, 0.20439425110816956, 2.690349578857422, -70.11756134033203],
    [0.0, 0.0, 0.0, 1.0]
],
  "dcmmeta_reorient_transform": [
    [0.0, -1.0, 0.0, 81.0],
    [1.0, 0.0, 0.0, 0.0],
    [0.0, 0.0, 1.0, 0.0],
    [0.0, 0.0, 0.0, 1.0]
],
  "dcmmeta_shape": [82, 82, 56, 872],
  "dcmmeta_slice_dim": 2,
  "dcmmeta_version": 0.6,
  "global": {
    "const": {
      "AccessionNumber": "A003935",
      "AcquisitionMatrix": [82, 0, 0, 82],
      "AngioFlag": "N",
      "BitsAllocated": 16,
      "BitsStored": 16,
      "BodyPartExamined": "BRAIN",
      "Columns": 656,
      "EchoNumbers": 1,
      "EchoTime": 27.2,
      "EchoTrainLength": 82,
      "FlipAngle": 44.0,
      "HighBit": 15,
      "ImageOrientationPatient": [0.99929421457309, -0.0089063561613, -0.036493143749, 0.00610444635324, 0.997075142257, -0.0761833080661],
      "ImagePositionPatient": [-889.82336725685, -899.56606485647, 33.199240532595],
      "ImageType": [
        "ORIGINAL",
        "PRIMARY",
        "M",
        "MB",
        "ND",
        "NORM",
        "MOSAIC"
],
      "ImagedNucleus": "1H",
      "ImagingFrequency": 123.252154,
      "InPlanePhaseEncodingDirection": "COL",
      "MRAcquisitionType": "2D",
      "MagneticFieldStrength": 3.0,
      "Manufacturer": "SIEMENS",
      "ManufacturerModelName": "Prisma",
      "Modality": "MR",
      "NumberOfAverages": 1.0,
      "NumberOfPhaseEncodingSteps": 82,
      "PercentPhaseFieldOfView": 100.0,
      "PercentSampling": 100.0,
      "PerformedProcedureStepStartTime": "084702.278000",
      "PhotometricInterpretation": "MONOCHROME2",
      "PixelBandwidth": 3050.0,
      "PixelRepresentation": 0,
      "PixelSpacing": [2.6829268932343, 2.6829268932343],
      "ProtocolName": "func_run-05_task-social_acq-ap-mb8",
      "RepetitionTime": 460.0,
      "Rows": 656,
      "SAR": 0.11091509022297,
      "SamplesPerPixel": 1,
      "ScanOptions": "FS",
      "ScanningSequence": "EP",
      "SequenceName": "epfid2d1_82",
      "SequenceVariant": [
        "SK",
        "SS"
],
      "SeriesDescription": "func_run-05_task-social_acq-ap-mb8",
      "SeriesNumber": 20,
      "SeriesTime": "100717.798000",
      "SliceLocation": -68.18380748195,
      "SliceThickness": 2.7000000476837,
      "SmallestImagePixelValue": 0,
      "SoftwareVersions": "syngo MR E11",
      "SpacingBetweenSlices": 2.700000017068,
      "SpecificCharacterSet": "ISO_IR 100",
      "StudyID": "1",
      "StudyTime": "084702.098000",
      "TransmitCoilName": "Body",
      "VariableFlipAngleFlag": "N",
      "WindowCenterWidthExplanation": "Algo1"
    },
    "slices": {}
  },
  "time": {
    "samples": {
      "AcquisitionNumber": [1, 2, 3, 4, 5, 6, 7, 8, 9, 10, 11, 12, 13, 14, 15, 16, 17, 18, 19, 20, 21, 22, 23, 24, 25, 26, 27, 28, 29, 30, 31, 32, 33, 34, 35, 36, 37, 38, 39, 40, 41, 42, 43, 44, 45, 46, 47, 48, 49, 50, 51, 52, 53, 54, 55, 56, 57, 58, 59, 60, 61, 62, 63, 64, 65, 66, 67, 68, 69, 70, 71, 72, 73, 74, 75, 76, 77, 78, 79, 80, 81, 82, 83, 84, 85, 86, 87, 88, 89, 90, 91, 92, 93, 94, 95, 96, 97, 98, 99, 100, 101, 102, 103, 104, 105, 106, 107, 108, 109, 110, 111, 112, 113, 114, 115, 116, 117, 118, 119, 120, 121, 122, 123, 124, 125, 126, 127, 128, 129, 130, 131, 132, 133, 134, 135, 136, 137, 138, 139, 140, 141, 142, 143, 144, 145, 146, 147, 148, 149, 150, 151, 152, 153, 154, 155, 156, 157, 158, 159, 160, 161, 162, 163, 164, 165, 166, 167, 168, 169, 170, 171, 172, 173, 174, 175, 176, 177, 178, 179, 180, 181, 182, 183, 184, 185, 186, 187, 188, 189, 190, 191, 192, 193, 194, 195, 196, 197, 198, 199, 200, 201, 202, 203, 204, 205, 206, 207, 208, 209, 210, 211, 212, 213, 214, 215, 216, 217, 218, 219, 220, 221, 222, 223, 224, 225, 226, 227, 228, 229, 230, 231, 232, 233, 234, 235, 236, 237, 238, 239, 240, 241, 242, 243, 244, 245, 246, 247, 248, 249, 250, 251, 252, 253, 254, 255, 256, 257, 258, 259, 260, 261, 262, 263, 264, 265, 266, 267, 268, 269, 270, 271, 272, 273, 274, 275, 276, 277, 278, 279, 280, 281, 282, 283, 284, 285, 286, 287, 288, 289, 290, 291, 292, 293, 294, 295, 296, 297, 298, 299, 300, 301, 302, 303, 304, 305, 306, 307, 308, 309, 310, 311, 312, 313, 314, 315, 316, 317, 318, 319, 320, 321, 322, 323, 324, 325, 326, 327, 328, 329, 330, 331, 332, 333, 334, 335, 336, 337, 338, 339, 340, 341, 342, 343, 344, 345, 346, 347, 348, 349, 350, 351, 352, 353, 354, 355, 356, 357, 358, 359, 360, 361, 362, 363, 364, 365, 366, 367, 368, 369, 370, 371, 372, 373, 374, 375, 376, 377, 378, 379, 380, 381, 382, 383, 384, 385, 386, 387, 388, 389, 390, 391, 392, 393, 394, 395, 396, 397, 398, 399, 400, 401, 402, 403, 404, 405, 406, 407, 408, 409, 410, 411, 412, 413, 414, 415, 416, 417, 418, 419, 420, 421, 422, 423, 424, 425, 426, 427, 428, 429, 430, 431, 432, 433, 434, 435, 436, 437, 438, 439, 440, 441, 442, 443, 444, 445, 446, 447, 448, 449, 450, 451, 452, 453, 454, 455, 456, 457, 458, 459, 460, 461, 462, 463, 464, 465, 466, 467, 468, 469, 470, 471, 472, 473, 474, 475, 476, 477, 478, 479, 480, 481, 482, 483, 484, 485, 486, 487, 488, 489, 490, 491, 492, 493, 494, 495, 496, 497, 498, 499, 500, 501, 502, 503, 504, 505, 506, 507, 508, 509, 510, 511, 512, 513, 514, 515, 516, 517, 518, 519, 520, 521, 522, 523, 524, 525, 526, 527, 528, 529, 530, 531, 532, 533, 534, 535, 536, 537, 538, 539, 540, 541, 542, 543, 544, 545, 546, 547, 548, 549, 550, 551, 552, 553, 554, 555, 556, 557, 558, 559, 560, 561, 562, 563, 564, 565, 566, 567, 568, 569, 570, 571, 572, 573, 574, 575, 576, 577, 578, 579, 580, 581, 582, 583, 584, 585, 586, 587, 588, 589, 590, 591, 592, 593, 594, 595, 596, 597, 598, 599, 600, 601, 602, 603, 604, 605, 606, 607, 608, 609, 610, 611, 612, 613, 614, 615, 616, 617, 618, 619, 620, 621, 622, 623, 624, 625, 626, 627, 628, 629, 630, 631, 632, 633, 634, 635, 636, 637, 638, 639, 640, 641, 642, 643, 644, 645, 646, 647, 648, 649, 650, 651, 652, 653, 654, 655, 656, 657, 658, 659, 660, 661, 662, 663, 664, 665, 666, 667, 668, 669, 670, 671, 672, 673, 674, 675, 676, 677, 678, 679, 680, 681, 682, 683, 684, 685, 686, 687, 688, 689, 690, 691, 692, 693, 694, 695, 696, 697, 698, 699, 700, 701, 702, 703, 704, 705, 706, 707, 708, 709, 710, 711, 712, 713, 714, 715, 716, 717, 718, 719, 720, 721, 722, 723, 724, 725, 726, 727, 728, 729, 730, 731, 732, 733, 734, 735, 736, 737, 738, 739, 740, 741, 742, 743, 744, 745, 746, 747, 748, 749, 750, 751, 752, 753, 754, 755, 756, 757, 758, 759, 760, 761, 762, 763, 764, 765, 766, 767, 768, 769, 770, 771, 772, 773, 774, 775, 776, 777, 778, 779, 780, 781, 782, 783, 784, 785, 786, 787, 788, 789, 790, 791, 792, 793, 794, 795, 796, 797, 798, 799, 800, 801, 802, 803, 804, 805, 806, 807, 808, 809, 810, 811, 812, 813, 814, 815, 816, 817, 818, 819, 820, 821, 822, 823, 824, 825, 826, 827, 828, 829, 830, 831, 832, 833, 834, 835, 836, 837, 838, 839, 840, 841, 842, 843, 844, 845, 846, 847, 848, 849, 850, 851, 852, 853, 854, 855, 856, 857, 858, 859, 860, 861, 862, 863, 864, 865, 866, 867, 868, 869, 870, 871, 872],
      "AcquisitionTime": ["100650.560000", "100651.020000", "100651.480000", "100651.940000", "100652.400000", "100652.860000", "100653.320000", "100653.780000", "100654.240000", "100654.700000", "100655.160000", "100655.620000", "100656.080000", "100656.540000", "100657.000000", "100657.460000", "100657.920000", "100658.380000", "100658.840000", "100659.300000", "100659.760000", "100700.220000", "100700.680000", "100701.140000", "100701.600000", "100702.060000", "100702.520000", "100702.980000", "100703.440000", "100703.900000", "100704.360000", "100704.820000", "100705.280000", "100705.740000", "100706.200000", "100706.660000", "100707.120000", "100707.580000", "100708.040000", "100708.500000", "100708.960000", "100709.420000", "100709.880000", "100710.340000", "100710.800000", "100711.260000", "100711.720000", "100712.180000", "100712.640000", "100713.100000", "100713.560000", "100714.020000", "100714.480000", "100714.940000", "100715.400000", "100715.860000", "100716.320000", "100716.780000", "100717.240000", "100717.700000", "100718.160000", "100718.620000", "100719.080000", "100719.540000", "100720.000000", "100720.460000", "100720.920000", "100721.380000", "100721.840000", "100722.300000", "100722.760000", "100723.220000", "100723.680000", "100724.140000", "100724.600000", "100725.060000", "100725.520000", "100725.980000", "100726.440000", "100726.900000", "100727.360000", "100727.820000", "100728.280000", "100728.740000", "100729.200000", "100729.660000", "100730.120000", "100730.580000", "100731.040000", "100731.500000", "100731.960000", "100732.420000", "100732.880000", "100733.340000", "100733.800000", "100734.260000", "100734.720000", "100735.180000", "100735.640000", "100736.100000", "100736.560000", "100737.020000", "100737.480000", "100737.940000", "100738.400000", "100738.860000", "100739.320000", "100739.780000", "100740.240000", "100740.700000", "100741.160000", "100741.620000", "100742.080000", "100742.540000", "100743.000000", "100743.460000", "100743.920000", "100744.380000", "100744.840000", "100745.300000", "100745.760000", "100746.220000", "100746.680000", "100747.140000", "100747.600000", "100748.060000", "100748.520000", "100748.980000", "100749.440000", "100749.900000", "100750.360000", "100750.820000", "100751.280000", "100751.740000", "100752.200000", "100752.660000", "100753.120000", "100753.580000", "100754.040000", "100754.500000", "100754.960000", "100755.420000", "100755.880000", "100756.340000", "100756.800000", "100757.260000", "100757.720000", "100758.180000", "100758.640000", "100759.100000", "100759.560000", "100800.020000", "100800.480000", "100800.940000", "100801.400000", "100801.860000", "100802.320000", "100802.780000", "100803.240000", "100803.700000", "100804.160000", "100804.620000", "100805.080000", "100805.540000", "100806.000000", "100806.460000", "100806.920000", "100807.380000", "100807.840000", "100808.300000", "100808.760000", "100809.220000", "100809.680000", "100810.140000", "100810.600000", "100811.060000", "100811.520000", "100811.980000", "100812.440000", "100812.900000", "100813.360000", "100813.820000", "100814.280000", "100814.740000", "100815.200000", "100815.660000", "100816.120000", "100816.580000", "100817.040000", "100817.500000", "100817.960000", "100818.420000", "100818.880000", "100819.340000", "100819.800000", "100820.260000", "100820.720000", "100821.180000", "100821.640000", "100822.100000", "100822.560000", "100823.020000", "100823.480000", "100823.940000", "100824.400000", "100824.860000", "100825.320000", "100825.780000", "100826.240000", "100826.700000", "100827.160000", "100827.620000", "100828.080000", "100828.540000", "100829.000000", "100829.460000", "100829.920000", "100830.380000", "100830.840000", "100831.300000", "100831.760000", "100832.220000", "100832.680000", "100833.140000", "100833.600000", "100834.060000", "100834.520000", "100834.980000", "100835.440000", "100835.900000", "100836.360000", "100836.820000", "100837.280000", "100837.740000", "100838.200000", "100838.660000", "100839.120000", "100839.580000", "100840.040000", "100840.500000", "100840.960000", "100841.420000", "100841.880000", "100842.340000", "100842.800000", "100843.260000", "100843.720000", "100844.180000", "100844.640000", "100845.100000", "100845.560000", "100846.020000", "100846.480000", "100846.940000", "100847.400000", "100847.860000", "100848.320000", "100848.780000", "100849.240000", "100849.700000", "100850.160000", "100850.620000", "100851.080000", "100851.540000", "100852.000000", "100852.460000", "100852.920000", "100853.380000", "100853.840000", "100854.300000", "100854.760000", "100855.220000", "100855.680000", "100856.140000", "100856.600000", "100857.060000", "100857.520000", "100857.980000", "100858.440000", "100858.900000", "100859.360000", "100859.820000", "100900.280000", "100900.740000", "100901.200000", "100901.660000", "100902.120000", "100902.580000", "100903.040000", "100903.500000", "100903.960000", "100904.420000", "100904.880000", "100905.340000", "100905.800000", "100906.260000", "100906.720000", "100907.180000", "100907.640000", "100908.100000", "100908.560000", "100909.020000", "100909.480000", "100909.940000", "100910.400000", "100910.860000", "100911.320000", "100911.780000", "100912.240000", "100912.700000", "100913.160000", "100913.620000", "100914.080000", "100914.540000", "100915.000000", "100915.460000", "100915.920000", "100916.380000", "100916.840000", "100917.300000", "100917.760000", "100918.220000", "100918.680000", "100919.140000", "100919.600000", "100920.060000", "100920.520000", "100920.980000", "100921.440000", "100921.900000", "100922.360000", "100922.820000", "100923.280000", "100923.740000", "100924.200000", "100924.660000", "100925.120000", "100925.580000", "100926.040000", "100926.500000", "100926.960000", "100927.420000", "100927.880000", "100928.340000", "100928.800000", "100929.260000", "100929.720000", "100930.180000", "100930.640000", "100931.100000", "100931.560000", "100932.020000", "100932.480000", "100932.940000", "100933.400000", "100933.860000", "100934.320000", "100934.780000", "100935.240000", "100935.700000", "100936.160000", "100936.620000", "100937.080000", "100937.540000", "100938.000000", "100938.460000", "100938.920000", "100939.380000", "100939.840000", "100940.300000", "100940.760000", "100941.220000", "100941.680000", "100942.140000", "100942.600000", "100943.060000", "100943.520000", "100943.980000", "100944.440000", "100944.900000", "100945.360000", "100945.820000", "100946.280000", "100946.740000", "100947.200000", "100947.660000", "100948.120000", "100948.580000", "100949.040000", "100949.500000", "100949.960000", "100950.420000", "100950.880000", "100951.340000", "100951.800000", "100952.260000", "100952.720000", "100953.180000", "100953.640000", "100954.100000", "100954.560000", "100955.020000", "100955.480000", "100955.940000", "100956.400000", "100956.860000", "100957.320000", "100957.780000", "100958.240000", "100958.700000", "100959.160000", "100959.620000", "101000.080000", "101000.540000", "101001.000000", "101001.460000", "101001.920000", "101002.380000", "101002.840000", "101003.300000", "101003.760000", "101004.220000", "101004.680000", "101005.140000", "101005.600000", "101006.060000", "101006.520000", "101006.980000", "101007.440000", "101007.900000", "101008.360000", "101008.820000", "101009.280000", "101009.740000", "101010.200000", "101010.660000", "101011.120000", "101011.580000", "101012.040000", "101012.500000", "101012.960000", "101013.420000", "101013.880000", "101014.340000", "101014.800000", "101015.260000", "101015.720000", "101016.180000", "101016.640000", "101017.100000", "101017.560000", "101018.020000", "101018.480000", "101018.940000", "101019.400000", "101019.860000", "101020.320000", "101020.780000", "101021.240000", "101021.700000", "101022.160000", "101022.620000", "101023.080000", "101023.540000", "101024.000000", "101024.460000", "101024.920000", "101025.380000", "101025.840000", "101026.300000", "101026.760000", "101027.220000", "101027.680000", "101028.140000", "101028.600000", "101029.060000", "101029.520000", "101029.980000", "101030.440000", "101030.900000", "101031.360000", "101031.820000", "101032.280000", "101032.740000", "101033.200000", "101033.660000", "101034.120000", "101034.580000", "101035.040000", "101035.500000", "101035.960000", "101036.420000", "101036.880000", "101037.340000", "101037.800000", "101038.260000", "101038.720000", "101039.180000", "101039.640000", "101040.100000", "101040.560000", "101041.020000", "101041.480000", "101041.940000", "101042.400000", "101042.860000", "101043.320000", "101043.780000", "101044.240000", "101044.700000", "101045.160000", "101045.620000", "101046.080000", "101046.540000", "101047.000000", "101047.460000", "101047.920000", "101048.380000", "101048.840000", "101049.300000", "101049.760000", "101050.220000", "101050.680000", "101051.140000", "101051.600000", "101052.060000", "101052.520000", "101052.980000", "101053.440000", "101053.900000", "101054.360000", "101054.820000", "101055.280000", "101055.740000", "101056.200000", "101056.660000", "101057.120000", "101057.580000", "101058.040000", "101058.500000", "101058.960000", "101059.420000", "101059.880000", "101100.340000", "101100.800000", "101101.260000", "101101.720000", "101102.180000", "101102.640000", "101103.100000", "101103.560000", "101104.020000", "101104.480000", "101104.940000", "101105.400000", "101105.860000", "101106.320000", "101106.780000", "101107.240000", "101107.700000", "101108.160000", "101108.620000", "101109.080000", "101109.540000", "101110.000000", "101110.460000", "101110.920000", "101111.380000", "101111.840000", "101112.300000", "101112.760000", "101113.220000", "101113.680000", "101114.140000", "101114.600000", "101115.060000", "101115.520000", "101115.980000", "101116.440000", "101116.900000", "101117.360000", "101117.820000", "101118.280000", "101118.740000", "101119.200000", "101119.660000", "101120.120000", "101120.580000", "101121.040000", "101121.500000", "101121.960000", "101122.420000", "101122.880000", "101123.340000", "101123.800000", "101124.260000", "101124.720000", "101125.180000", "101125.640000", "101126.100000", "101126.560000", "101127.020000", "101127.480000", "101127.940000", "101128.400000", "101128.860000", "101129.320000", "101129.780000", "101130.240000", "101130.700000", "101131.160000", "101131.620000", "101132.080000", "101132.540000", "101133.000000", "101133.460000", "101133.920000", "101134.380000", "101134.840000", "101135.300000", "101135.760000", "101136.220000", "101136.680000", "101137.140000", "101137.600000", "101138.060000", "101138.520000", "101138.980000", "101139.440000", "101139.900000", "101140.360000", "101140.820000", "101141.280000", "101141.740000", "101142.200000", "101142.660000", "101143.120000", "101143.580000", "101144.040000", "101144.500000", "101144.960000", "101145.420000", "101145.880000", "101146.340000", "101146.800000", "101147.260000", "101147.720000", "101148.180000", "101148.640000", "101149.100000", "101149.560000", "101150.020000", "101150.480000", "101150.940000", "101151.400000", "101151.860000", "101152.320000", "101152.780000", "101153.240000", "101153.700000", "101154.160000", "101154.620000", "101155.080000", "101155.540000", "101156.000000", "101156.460000", "101156.920000", "101157.380000", "101157.840000", "101158.300000", "101158.760000", "101159.220000", "101159.680000", "101200.140000", "101200.600000", "101201.060000", "101201.520000", "101201.980000", "101202.440000", "101202.900000", "101203.360000", "101203.820000", "101204.280000", "101204.740000", "101205.200000", "101205.660000", "101206.120000", "101206.580000", "101207.040000", "101207.500000", "101207.960000", "101208.420000", "101208.880000", "101209.340000", "101209.800000", "101210.260000", "101210.720000", "101211.180000", "101211.640000", "101212.100000", "101212.560000", "101213.020000", "101213.480000", "101213.940000", "101214.400000", "101214.860000", "101215.320000", "101215.780000", "101216.240000", "101216.700000", "101217.160000", "101217.620000", "101218.080000", "101218.540000", "101219.000000", "101219.460000", "101219.920000", "101220.380000", "101220.840000", "101221.300000", "101221.760000", "101222.220000", "101222.680000", "101223.140000", "101223.600000", "101224.060000", "101224.520000", "101224.980000", "101225.440000", "101225.900000", "101226.360000", "101226.820000", "101227.280000", "101227.740000", "101228.200000", "101228.660000", "101229.120000", "101229.580000", "101230.040000", "101230.500000", "101230.960000", "101231.420000", "101231.880000", "101232.340000", "101232.800000", "101233.260000", "101233.720000", "101234.180000", "101234.640000", "101235.100000", "101235.560000", "101236.020000", "101236.480000", "101236.940000", "101237.400000", "101237.860000", "101238.320000", "101238.780000", "101239.240000", "101239.700000", "101240.160000", "101240.620000", "101241.080000", "101241.540000", "101242.000000", "101242.460000", "101242.920000", "101243.380000", "101243.840000", "101244.300000", "101244.760000", "101245.220000", "101245.680000", "101246.140000", "101246.600000", "101247.060000", "101247.520000", "101247.980000", "101248.440000", "101248.900000", "101249.360000", "101249.820000", "101250.280000", "101250.740000", "101251.200000", "101251.660000", "101252.120000", "101252.580000", "101253.040000", "101253.500000", "101253.960000", "101254.420000", "101254.880000", "101255.340000", "101255.800000", "101256.260000", "101256.720000", "101257.180000", "101257.640000", "101258.100000", "101258.560000", "101259.020000", "101259.480000", "101259.940000", "101300.400000", "101300.860000", "101301.320000", "101301.780000", "101302.240000", "101302.700000", "101303.160000", "101303.620000", "101304.080000", "101304.540000", "101305.000000", "101305.460000", "101305.920000", "101306.380000", "101306.840000", "101307.300000", "101307.760000", "101308.220000", "101308.680000", "101309.140000", "101309.600000", "101310.060000", "101310.520000", "101310.980000", "101311.440000", "101311.900000", "101312.360000", "101312.820000", "101313.280000", "101313.740000", "101314.200000", "101314.660000", "101315.120000", "101315.580000", "101316.040000", "101316.500000", "101316.960000", "101317.420000", "101317.880000", "101318.340000", "101318.800000", "101319.260000", "101319.720000", "101320.180000", "101320.640000", "101321.100000", "101321.560000", "101322.020000", "101322.480000", "101322.940000", "101323.400000", "101323.860000", "101324.320000", "101324.780000", "101325.240000", "101325.700000", "101326.160000", "101326.620000", "101327.080000", "101327.540000", "101328.000000", "101328.460000", "101328.920000", "101329.380000", "101329.840000", "101330.300000", "101330.760000", "101331.220000"],
