{
  "AcquisitionMatrixPE": 82,
  "AcquisitionNumber": 1,
  "AcquisitionTime": "09:34:7.385000",
  "BandwidthPerPixelPhaseEncode": 24.888,
  "BaseResolution": 82,
  "BodyPartExamined": "BRAIN",
  "ConsistencyInfo": "N4_VE11E_LATEST_20181129",
  "ConversionSoftware": "dcm2niix",
  "ConversionSoftwareVersion": "v1.0.20201102",
  "DerivedVendorReportedEchoSpacing": 0.00049,
  "DeviceSerialNumber": "66112",
  "DwellTime": 2e-06,
  "EchoTime": 0.0272,
  "EchoTrainLength": 82,
  "EffectiveEchoSpacing": 0.00049,
  "FlipAngle": 44,
  "ImageComments": "Unaliased MB8/PE3",
  "ImageOrientationPatientDICOM": [0.999294, -0.00890636, -0.0364931, 0.00610445, 0.997075, -0.0761833],
  "ImageType": [
    "ORIGINAL",
    "PRIMARY",
    "M",
    "MB",
    "ND",
    "NORM",
    "MOSAIC"
],
  "ImagingFrequency": 123.252,
  "InPlanePhaseEncodingDirectionDICOM": "COL",
  "InstitutionAddress": "Maynard 3,Hanover,NH,US,03755",
  "InstitutionName": "Dartmouth College - PBS",
  "InstitutionalDepartmentName": "Department",
  "MRAcquisitionType": "2D",
  "MagneticFieldStrength": 3,
  "Manufacturer": "Siemens",
  "ManufacturersModelName": "Prisma",
  "Modality": "MR",
  "MultibandAccelerationFactor": 8,
  "PartialFourier": 1,
  "PatientPosition": "HFS",
  "PercentPhaseFOV": 100,
  "PercentSampling": 100,
  "PhaseEncodingDirection": "j-",
  "PhaseEncodingSteps": 82,
  "PhaseResolution": 1,
  "PixelBandwidth": 3050,
  "ProcedureStepDescription": "Wager_Wager^1076_spacetop",
  "ProtocolName": "func_run-01_task-social_acq-ap-mb8",
  "PulseSequenceDetails": "%CustomerSeq%\\cmrr_mbep2d_bold",
  "ReceiveCoilActiveElements": "HEA;HEP",
  "ReceiveCoilName": "Head_32",
  "ReconMatrixPE": 82,
  "RepetitionTime": 0.46,
  "SAR": 0.110915,
  "ScanOptions": "FS",
  "ScanningSequence": "EP",
  "SequenceName": "epfid2d1_82",
  "SequenceVariant": "SK\\SS",
  "SeriesDescription": "func_run-01_task-social_acq-ap-mb8",
  "SeriesNumber": 12,
  "ShimSetting": [4129, -7787, -7227, 496, -37, -255, -63, 76],
  "SliceThickness": 2.7,
  "SliceTiming": [0, 0.2525, 0.0625, 0.315, 0.1275, 0.3775, 0.19, 0, 0.2525, 0.0625, 0.315, 0.1275, 0.3775, 0.19, 0, 0.2525, 0.0625, 0.315, 0.1275, 0.3775, 0.19, 0, 0.2525, 0.0625, 0.315, 0.1275, 0.3775, 0.19, 0, 0.2525, 0.0625, 0.315, 0.1275, 0.3775, 0.19, 0, 0.2525, 0.0625, 0.315, 0.1275, 0.3775, 0.19, 0, 0.2525, 0.0625, 0.315, 0.1275, 0.3775, 0.19, 0, 0.2525, 0.0625, 0.315, 0.1275, 0.3775, 0.19],
  "SoftwareVersions": "syngo MR E11",
  "SpacingBetweenSlices": 2.7,
  "StationName": "AWP66112",
  "TaskName": "social",
  "TotalReadoutTime": 0.03969,
  "TxRefAmp": 252.261,
  "WipMemBlock": "d8e51f72-a7fd-4903-913f-339c3a24eab4||Sequence: R016 ve11e/master r/434b28f1; Aug  7 2019 18:53:46 by eja",
  "dcmmeta_affine": [
    [-2.6810333728790283, 0.016377782449126244, -0.10007528960704803, 114.33978271484375],
    [0.023895101621747017, 2.675079822540283, -0.2049482762813568, -78.00537872314453],
    [-0.09790843725204468, 0.20439425110816956, 2.690349578857422, -70.11756134033203],
    [0.0, 0.0, 0.0, 1.0]
],
  "dcmmeta_reorient_transform": [
    [0.0, -1.0, 0.0, 81.0],
    [1.0, 0.0, 0.0, 0.0],
    [0.0, 0.0, 1.0, 0.0],
    [0.0, 0.0, 0.0, 1.0]
],
  "dcmmeta_shape": [82, 82, 56, 872],
  "dcmmeta_slice_dim": 2,
  "dcmmeta_version": 0.6,
  "global": {
    "const": {
      "AccessionNumber": "A003935",
      "AcquisitionMatrix": [82, 0, 0, 82],
      "AngioFlag": "N",
      "BitsAllocated": 16,
      "BitsStored": 16,
      "BodyPartExamined": "BRAIN",
      "Columns": 656,
      "EchoNumbers": 1,
      "EchoTime": 27.2,
      "EchoTrainLength": 82,
      "FlipAngle": 44.0,
      "HighBit": 15,
      "ImageOrientationPatient": [0.99929421457309, -0.0089063561613, -0.036493143749, 0.00610444635324, 0.997075142257, -0.0761833080661],
      "ImagePositionPatient": [-889.82336725685, -899.56606485647, 33.199240532595],
      "ImageType": [
        "ORIGINAL",
        "PRIMARY",
        "M",
        "MB",
        "ND",
        "NORM",
        "MOSAIC"
],
      "ImagedNucleus": "1H",
      "ImagingFrequency": 123.252136,
      "InPlanePhaseEncodingDirection": "COL",
      "MRAcquisitionType": "2D",
      "MagneticFieldStrength": 3.0,
      "Manufacturer": "SIEMENS",
      "ManufacturerModelName": "Prisma",
      "Modality": "MR",
      "NumberOfAverages": 1.0,
      "NumberOfPhaseEncodingSteps": 82,
      "PercentPhaseFieldOfView": 100.0,
      "PercentSampling": 100.0,
      "PerformedProcedureStepStartTime": "084702.278000",
      "PhotometricInterpretation": "MONOCHROME2",
      "PixelBandwidth": 3050.0,
      "PixelRepresentation": 0,
      "PixelSpacing": [2.6829268932343, 2.6829268932343],
      "ProtocolName": "func_run-01_task-social_acq-ap-mb8",
      "RepetitionTime": 460.0,
      "Rows": 656,
      "SAR": 0.11091509022297,
      "SamplesPerPixel": 1,
      "ScanOptions": "FS",
      "ScanningSequence": "EP",
      "SequenceName": "epfid2d1_82",
      "SequenceVariant": [
        "SK",
        "SS"
],
      "SeriesDescription": "func_run-01_task-social_acq-ap-mb8",
      "SeriesNumber": 12,
      "SeriesTime": "093417.985000",
      "SliceLocation": -68.18380748195,
      "SliceThickness": 2.7000000476837,
      "SmallestImagePixelValue": 0,
      "SoftwareVersions": "syngo MR E11",
      "SpacingBetweenSlices": 2.700000017068,
      "SpecificCharacterSet": "ISO_IR 100",
      "StudyID": "1",
      "StudyTime": "084702.098000",
      "TransmitCoilName": "Body",
      "VariableFlipAngleFlag": "N",
      "WindowCenterWidthExplanation": "Algo1"
    },
    "slices": {}
  },
  "time": {
    "samples": {
      "AcquisitionNumber": [1, 2, 3, 4, 5, 6, 7, 8, 9, 10, 11, 12, 13, 14, 15, 16, 17, 18, 19, 20, 21, 22, 23, 24, 25, 26, 27, 28, 29, 30, 31, 32, 33, 34, 35, 36, 37, 38, 39, 40, 41, 42, 43, 44, 45, 46, 47, 48, 49, 50, 51, 52, 53, 54, 55, 56, 57, 58, 59, 60, 61, 62, 63, 64, 65, 66, 67, 68, 69, 70, 71, 72, 73, 74, 75, 76, 77, 78, 79, 80, 81, 82, 83, 84, 85, 86, 87, 88, 89, 90, 91, 92, 93, 94, 95, 96, 97, 98, 99, 100, 101, 102, 103, 104, 105, 106, 107, 108, 109, 110, 111, 112, 113, 114, 115, 116, 117, 118, 119, 120, 121, 122, 123, 124, 125, 126, 127, 128, 129, 130, 131, 132, 133, 134, 135, 136, 137, 138, 139, 140, 141, 142, 143, 144, 145, 146, 147, 148, 149, 150, 151, 152, 153, 154, 155, 156, 157, 158, 159, 160, 161, 162, 163, 164, 165, 166, 167, 168, 169, 170, 171, 172, 173, 174, 175, 176, 177, 178, 179, 180, 181, 182, 183, 184, 185, 186, 187, 188, 189, 190, 191, 192, 193, 194, 195, 196, 197, 198, 199, 200, 201, 202, 203, 204, 205, 206, 207, 208, 209, 210, 211, 212, 213, 214, 215, 216, 217, 218, 219, 220, 221, 222, 223, 224, 225, 226, 227, 228, 229, 230, 231, 232, 233, 234, 235, 236, 237, 238, 239, 240, 241, 242, 243, 244, 245, 246, 247, 248, 249, 250, 251, 252, 253, 254, 255, 256, 257, 258, 259, 260, 261, 262, 263, 264, 265, 266, 267, 268, 269, 270, 271, 272, 273, 274, 275, 276, 277, 278, 279, 280, 281, 282, 283, 284, 285, 286, 287, 288, 289, 290, 291, 292, 293, 294, 295, 296, 297, 298, 299, 300, 301, 302, 303, 304, 305, 306, 307, 308, 309, 310, 311, 312, 313, 314, 315, 316, 317, 318, 319, 320, 321, 322, 323, 324, 325, 326, 327, 328, 329, 330, 331, 332, 333, 334, 335, 336, 337, 338, 339, 340, 341, 342, 343, 344, 345, 346, 347, 348, 349, 350, 351, 352, 353, 354, 355, 356, 357, 358, 359, 360, 361, 362, 363, 364, 365, 366, 367, 368, 369, 370, 371, 372, 373, 374, 375, 376, 377, 378, 379, 380, 381, 382, 383, 384, 385, 386, 387, 388, 389, 390, 391, 392, 393, 394, 395, 396, 397, 398, 399, 400, 401, 402, 403, 404, 405, 406, 407, 408, 409, 410, 411, 412, 413, 414, 415, 416, 417, 418, 419, 420, 421, 422, 423, 424, 425, 426, 427, 428, 429, 430, 431, 432, 433, 434, 435, 436, 437, 438, 439, 440, 441, 442, 443, 444, 445, 446, 447, 448, 449, 450, 451, 452, 453, 454, 455, 456, 457, 458, 459, 460, 461, 462, 463, 464, 465, 466, 467, 468, 469, 470, 471, 472, 473, 474, 475, 476, 477, 478, 479, 480, 481, 482, 483, 484, 485, 486, 487, 488, 489, 490, 491, 492, 493, 494, 495, 496, 497, 498, 499, 500, 501, 502, 503, 504, 505, 506, 507, 508, 509, 510, 511, 512, 513, 514, 515, 516, 517, 518, 519, 520, 521, 522, 523, 524, 525, 526, 527, 528, 529, 530, 531, 532, 533, 534, 535, 536, 537, 538, 539, 540, 541, 542, 543, 544, 545, 546, 547, 548, 549, 550, 551, 552, 553, 554, 555, 556, 557, 558, 559, 560, 561, 562, 563, 564, 565, 566, 567, 568, 569, 570, 571, 572, 573, 574, 575, 576, 577, 578, 579, 580, 581, 582, 583, 584, 585, 586, 587, 588, 589, 590, 591, 592, 593, 594, 595, 596, 597, 598, 599, 600, 601, 602, 603, 604, 605, 606, 607, 608, 609, 610, 611, 612, 613, 614, 615, 616, 617, 618, 619, 620, 621, 622, 623, 624, 625, 626, 627, 628, 629, 630, 631, 632, 633, 634, 635, 636, 637, 638, 639, 640, 641, 642, 643, 644, 645, 646, 647, 648, 649, 650, 651, 652, 653, 654, 655, 656, 657, 658, 659, 660, 661, 662, 663, 664, 665, 666, 667, 668, 669, 670, 671, 672, 673, 674, 675, 676, 677, 678, 679, 680, 681, 682, 683, 684, 685, 686, 687, 688, 689, 690, 691, 692, 693, 694, 695, 696, 697, 698, 699, 700, 701, 702, 703, 704, 705, 706, 707, 708, 709, 710, 711, 712, 713, 714, 715, 716, 717, 718, 719, 720, 721, 722, 723, 724, 725, 726, 727, 728, 729, 730, 731, 732, 733, 734, 735, 736, 737, 738, 739, 740, 741, 742, 743, 744, 745, 746, 747, 748, 749, 750, 751, 752, 753, 754, 755, 756, 757, 758, 759, 760, 761, 762, 763, 764, 765, 766, 767, 768, 769, 770, 771, 772, 773, 774, 775, 776, 777, 778, 779, 780, 781, 782, 783, 784, 785, 786, 787, 788, 789, 790, 791, 792, 793, 794, 795, 796, 797, 798, 799, 800, 801, 802, 803, 804, 805, 806, 807, 808, 809, 810, 811, 812, 813, 814, 815, 816, 817, 818, 819, 820, 821, 822, 823, 824, 825, 826, 827, 828, 829, 830, 831, 832, 833, 834, 835, 836, 837, 838, 839, 840, 841, 842, 843, 844, 845, 846, 847, 848, 849, 850, 851, 852, 853, 854, 855, 856, 857, 858, 859, 860, 861, 862, 863, 864, 865, 866, 867, 868, 869, 870, 871, 872],
      "AcquisitionTime": ["093407.385000", "093407.845000", "093408.305000", "093408.765000", "093409.225000", "093409.685000", "093410.145000", "093410.605000", "093411.065000", "093411.525000", "093411.985000", "093412.445000", "093412.905000", "093413.365000", "093413.825000", "093414.285000", "093414.745000", "093415.205000", "093415.665000", "093416.125000", "093416.585000", "093417.045000", "093417.505000", "093417.965000", "093418.425000", "093418.885000", "093419.345000", "093419.805000", "093420.265000", "093420.725000", "093421.185000", "093421.645000", "093422.105000", "093422.565000", "093423.025000", "093423.485000", "093423.945000", "093424.405000", "093424.865000", "093425.325000", "093425.785000", "093426.245000", "093426.705000", "093427.165000", "093427.625000", "093428.085000", "093428.545000", "093429.005000", "093429.465000", "093429.925000", "093430.385000", "093430.845000", "093431.305000", "093431.765000", "093432.225000", "093432.685000", "093433.145000", "093433.605000", "093434.065000", "093434.525000", "093434.985000", "093435.445000", "093435.905000", "093436.365000", "093436.825000", "093437.285000", "093437.745000", "093438.205000", "093438.665000", "093439.125000", "093439.585000", "093440.045000", "093440.505000", "093440.965000", "093441.425000", "093441.885000", "093442.345000", "093442.805000", "093443.265000", "093443.725000", "093444.185000", "093444.645000", "093445.105000", "093445.565000", "093446.025000", "093446.485000", "093446.945000", "093447.405000", "093447.865000", "093448.325000", "093448.785000", "093449.245000", "093449.705000", "093450.165000", "093450.625000", "093451.085000", "093451.545000", "093452.005000", "093452.465000", "093452.925000", "093453.385000", "093453.845000", "093454.305000", "093454.765000", "093455.225000", "093455.685000", "093456.145000", "093456.605000", "093457.065000", "093457.525000", "093457.985000", "093458.445000", "093458.905000", "093459.365000", "093459.825000", "093500.285000", "093500.745000", "093501.205000", "093501.665000", "093502.125000", "093502.585000", "093503.045000", "093503.505000", "093503.965000", "093504.425000", "093504.885000", "093505.345000", "093505.805000", "093506.265000", "093506.725000", "093507.185000", "093507.645000", "093508.105000", "093508.565000", "093509.025000", "093509.485000", "093509.945000", "093510.405000", "093510.865000", "093511.325000", "093511.785000", "093512.245000", "093512.705000", "093513.165000", "093513.625000", "093514.085000", "093514.545000", "093515.005000", "093515.465000", "093515.925000", "093516.385000", "093516.845000", "093517.305000", "093517.765000", "093518.225000", "093518.685000", "093519.145000", "093519.605000", "093520.065000", "093520.525000", "093520.985000", "093521.445000", "093521.905000", "093522.365000", "093522.825000", "093523.285000", "093523.745000", "093524.205000", "093524.665000", "093525.125000", "093525.585000", "093526.045000", "093526.505000", "093526.965000", "093527.425000", "093527.885000", "093528.345000", "093528.805000", "093529.265000", "093529.725000", "093530.185000", "093530.645000", "093531.105000", "093531.565000", "093532.025000", "093532.485000", "093532.945000", "093533.405000", "093533.865000", "093534.325000", "093534.785000", "093535.245000", "093535.705000", "093536.165000", "093536.625000", "093537.085000", "093537.545000", "093538.005000", "093538.465000", "093538.925000", "093539.385000", "093539.845000", "093540.305000", "093540.765000", "093541.225000", "093541.685000", "093542.145000", "093542.605000", "093543.065000", "093543.525000", "093543.985000", "093544.445000", "093544.905000", "093545.365000", "093545.825000", "093546.285000", "093546.745000", "093547.205000", "093547.665000", "093548.125000", "093548.585000", "093549.045000", "093549.505000", "093549.965000", "093550.425000", "093550.885000", "093551.345000", "093551.805000", "093552.265000", "093552.725000", "093553.185000", "093553.645000", "093554.105000", "093554.565000", "093555.025000", "093555.485000", "093555.945000", "093556.405000", "093556.865000", "093557.325000", "093557.785000", "093558.245000", "093558.705000", "093559.165000", "093559.625000", "093600.085000", "093600.545000", "093601.005000", "093601.465000", "093601.925000", "093602.385000", "093602.845000", "093603.305000", "093603.765000", "093604.225000", "093604.685000", "093605.145000", "093605.605000", "093606.065000", "093606.525000", "093606.985000", "093607.445000", "093607.905000", "093608.365000", "093608.825000", "093609.285000", "093609.745000", "093610.205000", "093610.665000", "093611.125000", "093611.585000", "093612.045000", "093612.505000", "093612.965000", "093613.425000", "093613.885000", "093614.345000", "093614.805000", "093615.265000", "093615.725000", "093616.185000", "093616.645000", "093617.105000", "093617.565000", "093618.025000", "093618.485000", "093618.945000", "093619.405000", "093619.865000", "093620.325000", "093620.785000", "093621.245000", "093621.705000", "093622.165000", "093622.625000", "093623.085000", "093623.545000", "093624.005000", "093624.465000", "093624.925000", "093625.385000", "093625.845000", "093626.305000", "093626.765000", "093627.225000", "093627.685000", "093628.145000", "093628.605000", "093629.065000", "093629.525000", "093629.985000", "093630.445000", "093630.905000", "093631.365000", "093631.825000", "093632.285000", "093632.745000", "093633.205000", "093633.665000", "093634.125000", "093634.585000", "093635.045000", "093635.505000", "093635.965000", "093636.425000", "093636.885000", "093637.345000", "093637.805000", "093638.265000", "093638.725000", "093639.185000", "093639.645000", "093640.105000", "093640.565000", "093641.025000", "093641.485000", "093641.945000", "093642.405000", "093642.865000", "093643.325000", "093643.785000", "093644.245000", "093644.705000", "093645.165000", "093645.625000", "093646.085000", "093646.545000", "093647.005000", "093647.465000", "093647.925000", "093648.385000", "093648.845000", "093649.305000", "093649.765000", "093650.225000", "093650.685000", "093651.145000", "093651.605000", "093652.065000", "093652.525000", "093652.985000", "093653.445000", "093653.905000", "093654.365000", "093654.825000", "093655.285000", "093655.745000", "093656.205000", "093656.665000", "093657.125000", "093657.585000", "093658.045000", "093658.505000", "093658.965000", "093659.425000", "093659.885000", "093700.345000", "093700.805000", "093701.265000", "093701.725000", "093702.185000", "093702.645000", "093703.105000", "093703.565000", "093704.025000", "093704.485000", "093704.945000", "093705.405000", "093705.865000", "093706.325000", "093706.785000", "093707.245000", "093707.705000", "093708.165000", "093708.625000", "093709.085000", "093709.545000", "093710.005000", "093710.465000", "093710.925000", "093711.385000", "093711.845000", "093712.305000", "093712.765000", "093713.225000", "093713.685000", "093714.145000", "093714.605000", "093715.065000", "093715.525000", "093715.985000", "093716.445000", "093716.905000", "093717.365000", "093717.825000", "093718.285000", "093718.745000", "093719.205000", "093719.665000", "093720.125000", "093720.585000", "093721.045000", "093721.505000", "093721.965000", "093722.425000", "093722.885000", "093723.345000", "093723.805000", "093724.265000", "093724.725000", "093725.185000", "093725.645000", "093726.105000", "093726.565000", "093727.025000", "093727.485000", "093727.945000", "093728.405000", "093728.865000", "093729.325000", "093729.785000", "093730.245000", "093730.705000", "093731.165000", "093731.625000", "093732.085000", "093732.545000", "093733.005000", "093733.465000", "093733.925000", "093734.385000", "093734.845000", "093735.305000", "093735.765000", "093736.225000", "093736.685000", "093737.145000", "093737.605000", "093738.065000", "093738.525000", "093738.985000", "093739.445000", "093739.905000", "093740.365000", "093740.825000", "093741.285000", "093741.745000", "093742.205000", "093742.665000", "093743.125000", "093743.585000", "093744.045000", "093744.505000", "093744.965000", "093745.425000", "093745.885000", "093746.345000", "093746.805000", "093747.265000", "093747.725000", "093748.185000", "093748.645000", "093749.105000", "093749.565000", "093750.025000", "093750.485000", "093750.945000", "093751.405000", "093751.865000", "093752.325000", "093752.785000", "093753.245000", "093753.705000", "093754.165000", "093754.625000", "093755.085000", "093755.545000", "093756.005000", "093756.465000", "093756.925000", "093757.385000", "093757.845000", "093758.305000", "093758.765000", "093759.225000", "093759.685000", "093800.145000", "093800.605000", "093801.065000", "093801.525000", "093801.985000", "093802.445000", "093802.905000", "093803.365000", "093803.825000", "093804.285000", "093804.745000", "093805.205000", "093805.665000", "093806.125000", "093806.585000", "093807.045000", "093807.505000", "093807.965000", "093808.425000", "093808.885000", "093809.345000", "093809.805000", "093810.265000", "093810.725000", "093811.185000", "093811.645000", "093812.105000", "093812.565000", "093813.025000", "093813.485000", "093813.945000", "093814.405000", "093814.865000", "093815.325000", "093815.785000", "093816.245000", "093816.705000", "093817.165000", "093817.625000", "093818.085000", "093818.545000", "093819.005000", "093819.465000", "093819.925000", "093820.385000", "093820.845000", "093821.305000", "093821.765000", "093822.225000", "093822.685000", "093823.145000", "093823.605000", "093824.065000", "093824.525000", "093824.985000", "093825.445000", "093825.905000", "093826.365000", "093826.825000", "093827.285000", "093827.745000", "093828.205000", "093828.665000", "093829.125000", "093829.585000", "093830.045000", "093830.505000", "093830.965000", "093831.425000", "093831.885000", "093832.345000", "093832.805000", "093833.265000", "093833.725000", "093834.185000", "093834.645000", "093835.105000", "093835.565000", "093836.025000", "093836.485000", "093836.945000", "093837.405000", "093837.865000", "093838.325000", "093838.785000", "093839.245000", "093839.705000", "093840.165000", "093840.625000", "093841.085000", "093841.545000", "093842.005000", "093842.465000", "093842.925000", "093843.385000", "093843.845000", "093844.305000", "093844.765000", "093845.225000", "093845.685000", "093846.145000", "093846.605000", "093847.065000", "093847.525000", "093847.985000", "093848.445000", "093848.905000", "093849.365000", "093849.825000", "093850.285000", "093850.745000", "093851.205000", "093851.665000", "093852.125000", "093852.585000", "093853.045000", "093853.505000", "093853.965000", "093854.425000", "093854.885000", "093855.345000", "093855.805000", "093856.265000", "093856.725000", "093857.185000", "093857.645000", "093858.105000", "093858.565000", "093859.025000", "093859.485000", "093859.945000", "093900.405000", "093900.865000", "093901.325000", "093901.785000", "093902.245000", "093902.705000", "093903.165000", "093903.625000", "093904.085000", "093904.545000", "093905.005000", "093905.465000", "093905.925000", "093906.385000", "093906.845000", "093907.305000", "093907.765000", "093908.225000", "093908.685000", "093909.145000", "093909.605000", "093910.065000", "093910.525000", "093910.985000", "093911.445000", "093911.905000", "093912.365000", "093912.825000", "093913.285000", "093913.745000", "093914.205000", "093914.665000", "093915.125000", "093915.585000", "093916.045000", "093916.505000", "093916.965000", "093917.425000", "093917.885000", "093918.345000", "093918.805000", "093919.265000", "093919.725000", "093920.185000", "093920.645000", "093921.105000", "093921.565000", "093922.025000", "093922.485000", "093922.945000", "093923.405000", "093923.865000", "093924.325000", "093924.785000", "093925.245000", "093925.705000", "093926.165000", "093926.625000", "093927.085000", "093927.545000", "093928.005000", "093928.465000", "093928.925000", "093929.385000", "093929.845000", "093930.305000", "093930.765000", "093931.225000", "093931.685000", "093932.145000", "093932.605000", "093933.065000", "093933.525000", "093933.985000", "093934.445000", "093934.905000", "093935.365000", "093935.825000", "093936.285000", "093936.745000", "093937.205000", "093937.665000", "093938.125000", "093938.585000", "093939.045000", "093939.505000", "093939.965000", "093940.425000", "093940.885000", "093941.345000", "093941.805000", "093942.265000", "093942.725000", "093943.185000", "093943.645000", "093944.105000", "093944.565000", "093945.025000", "093945.485000", "093945.945000", "093946.405000", "093946.865000", "093947.325000", "093947.785000", "093948.245000", "093948.705000", "093949.165000", "093949.625000", "093950.085000", "093950.545000", "093951.005000", "093951.465000", "093951.925000", "093952.385000", "093952.845000", "093953.305000", "093953.765000", "093954.225000", "093954.685000", "093955.145000", "093955.605000", "093956.065000", "093956.525000", "093956.985000", "093957.445000", "093957.905000", "093958.365000", "093958.825000", "093959.285000", "093959.745000", "094000.205000", "094000.665000", "094001.125000", "094001.585000", "094002.045000", "094002.505000", "094002.965000", "094003.425000", "094003.885000", "094004.345000", "094004.805000", "094005.265000", "094005.725000", "094006.185000", "094006.645000", "094007.105000", "094007.565000", "094008.025000", "094008.485000", "094008.945000", "094009.405000", "094009.865000", "094010.325000", "094010.785000", "094011.245000", "094011.705000", "094012.165000", "094012.625000", "094013.085000", "094013.545000", "094014.005000", "094014.465000", "094014.925000", "094015.385000", "094015.845000", "094016.305000", "094016.765000", "094017.225000", "094017.685000", "094018.145000", "094018.605000", "094019.065000", "094019.525000", "094019.985000", "094020.445000", "094020.905000", "094021.365000", "094021.825000", "094022.285000", "094022.745000", "094023.205000", "094023.665000", "094024.125000", "094024.585000", "094025.045000", "094025.505000", "094025.965000", "094026.425000", "094026.885000", "094027.345000", "094027.805000", "094028.265000", "094028.725000", "094029.185000", "094029.645000", "094030.105000", "094030.565000", "094031.025000", "094031.485000", "094031.945000", "094032.405000", "094032.865000", "094033.325000", "094033.785000", "094034.245000", "094034.705000", "094035.165000", "094035.625000", "094036.085000", "094036.545000", "094037.005000", "094037.465000", "094037.925000", "094038.385000", "094038.845000", "094039.305000", "094039.765000", "094040.225000", "094040.685000", "094041.145000", "094041.605000", "094042.065000", "094042.525000", "094042.985000", "094043.445000", "094043.905000", "094044.365000", "094044.825000", "094045.285000", "094045.745000", "094046.205000", "094046.665000", "094047.125000", "094047.585000", "094048.045000"],
