{
  "AcquisitionMatrixPE": 82,
  "AcquisitionNumber": 1,
  "AcquisitionTime": "10:23:38.745000",
  "BandwidthPerPixelPhaseEncode": 24.888,
  "BaseResolution": 82,
  "BodyPartExamined": "BRAIN",
  "ConsistencyInfo": "N4_VE11E_LATEST_20181129",
  "ConversionSoftware": "dcm2niix",
  "ConversionSoftwareVersion": "v1.0.20201102",
  "DerivedVendorReportedEchoSpacing": 0.00049,
  "DeviceSerialNumber": "66112",
  "DwellTime": 2e-06,
  "EchoTime": 0.0272,
  "EchoTrainLength": 82,
  "EffectiveEchoSpacing": 0.00049,
  "FlipAngle": 44,
  "ImageComments": "Unaliased MB8/PE3",
  "ImageOrientationPatientDICOM": [0.999455, -0.0153731, -0.0291973, 0.0141305, 0.999005, -0.0422983],
  "ImageType": [
    "ORIGINAL",
    "PRIMARY",
    "M",
    "MB",
    "ND",
    "NORM",
    "MOSAIC"
],
  "ImagingFrequency": 123.252,
  "InPlanePhaseEncodingDirectionDICOM": "COL",
  "InstitutionAddress": "Maynard 3,Hanover,NH,US,03755",
  "InstitutionName": "Dartmouth College - PBS",
  "InstitutionalDepartmentName": "Department",
  "MRAcquisitionType": "2D",
  "MagneticFieldStrength": 3,
  "Manufacturer": "Siemens",
  "ManufacturersModelName": "Prisma",
  "Modality": "MR",
  "MultibandAccelerationFactor": 8,
  "PartialFourier": 1,
  "PatientPosition": "HFS",
  "PercentPhaseFOV": 100,
  "PercentSampling": 100,
  "PhaseEncodingDirection": "j-",
  "PhaseEncodingSteps": 82,
  "PhaseResolution": 1,
  "PixelBandwidth": 3050,
  "ProcedureStepDescription": "Wager_Wager^1076_spacetop",
  "ProtocolName": "func_run-01_task-alignvideo_acq-ap-mb8",
  "PulseSequenceDetails": "%CustomerSeq%\\cmrr_mbep2d_bold",
  "ReceiveCoilActiveElements": "HEA;HEP",
  "ReceiveCoilName": "Head_32",
  "ReconMatrixPE": 82,
  "RepetitionTime": 0.46,
  "SAR": 0.111044,
  "ScanOptions": "FS",
  "ScanningSequence": "EP",
  "SequenceName": "epfid2d1_82",
  "SequenceVariant": "SK\\SS",
  "SeriesDescription": "func_run-01_task-alignvideo_acq-ap-mb8",
  "SeriesNumber": 30,
  "ShimSetting": [4128, -7779, -7224, 543, -48, -209, -65, 80],
  "SliceThickness": 2.7,
  "SliceTiming": [0, 0.2525, 0.0625, 0.315, 0.1275, 0.3775, 0.19, 0, 0.2525, 0.0625, 0.315, 0.1275, 0.3775, 0.19, 0, 0.2525, 0.0625, 0.315, 0.1275, 0.3775, 0.19, 0, 0.2525, 0.0625, 0.315, 0.1275, 0.3775, 0.19, 0, 0.2525, 0.0625, 0.315, 0.1275, 0.3775, 0.19, 0, 0.2525, 0.0625, 0.315, 0.1275, 0.3775, 0.19, 0, 0.2525, 0.0625, 0.315, 0.1275, 0.3775, 0.19, 0, 0.2525, 0.0625, 0.315, 0.1275, 0.3775, 0.19],
  "SoftwareVersions": "syngo MR E11",
  "SpacingBetweenSlices": 2.7,
  "StationName": "AWP66112",
  "TaskName": "alignvideo",
  "TotalReadoutTime": 0.03969,
  "TxRefAmp": 252.261,
  "WipMemBlock": "e1739dfb-ac08-4999-b469-85f996563ab8||Sequence: R016 ve11e/master r/434b28f1; Aug  7 2019 18:53:46 by eja",
  "dcmmeta_affine": [
    [-2.6814658641815186, 0.03791101649403572, -0.08050985634326935, 113.02560424804688],
    [0.04124480485916138, 2.680257558822632, -0.11302917450666428, -88.03277587890625],
    [-0.07833411544561386, 0.11348314583301544, 2.6964313983917236, -63.34183120727539],
    [0.0, 0.0, 0.0, 1.0]
],
  "dcmmeta_reorient_transform": [
    [0.0, -1.0, 0.0, 81.0],
    [1.0, 0.0, 0.0, 0.0],
    [0.0, 0.0, 1.0, 0.0],
    [0.0, 0.0, 0.0, 1.0]
],
  "dcmmeta_shape": [82, 82, 56, 1073],
  "dcmmeta_slice_dim": 2,
  "dcmmeta_version": 0.6,
  "global": {
    "const": {
      "AccessionNumber": "A003935",
      "AcquisitionMatrix": [82, 0, 0, 82],
      "AngioFlag": "N",
      "BitsAllocated": 16,
      "BitsStored": 16,
      "BodyPartExamined": "BRAIN",
      "Columns": 656,
      "EchoNumbers": 1,
      "EchoTime": 27.2,
      "EchoTrainLength": 82,
      "FlipAngle": 44.0,
      "HighBit": 15,
      "ImageOrientationPatient": [0.99945544618955, -0.0153730627544, -0.0291972605496, 0.01413046949906, 0.99900509852146, -0.0422982619011],
      "ImagePositionPatient": [-896.55757294893, -886.46477862546, 0.90185532406889],
      "ImageType": [
        "ORIGINAL",
        "PRIMARY",
        "M",
        "MB",
        "ND",
        "NORM",
        "MOSAIC"
],
      "ImagedNucleus": "1H",
      "ImagingFrequency": 123.252152,
      "InPlanePhaseEncodingDirection": "COL",
      "MRAcquisitionType": "2D",
      "MagneticFieldStrength": 3.0,
      "Manufacturer": "SIEMENS",
      "ManufacturerModelName": "Prisma",
      "Modality": "MR",
      "NumberOfAverages": 1.0,
      "NumberOfPhaseEncodingSteps": 82,
      "PercentPhaseFieldOfView": 100.0,
      "PercentSampling": 100.0,
      "PerformedProcedureStepStartTime": "084702.278000",
      "PhotometricInterpretation": "MONOCHROME2",
      "PixelBandwidth": 3050.0,
      "PixelRepresentation": 0,
      "PixelSpacing": [2.6829268932343, 2.6829268932343],
      "ProtocolName": "func_run-01_task-alignvideo_acq-ap-mb8",
      "RepetitionTime": 460.0,
      "Rows": 656,
      "SAR": 0.1110444373704,
      "SamplesPerPixel": 1,
      "ScanOptions": "FS",
      "ScanningSequence": "EP",
      "SequenceName": "epfid2d1_82",
      "SequenceVariant": [
        "SK",
        "SS"
],
      "SeriesDescription": "func_run-01_task-alignvideo_acq-ap-mb8",
      "SeriesNumber": 30,
      "SeriesTime": "102357.988000",
      "SliceLocation": -62.943079305235,
      "SliceThickness": 2.7000000476837,
      "SmallestImagePixelValue": 0,
      "SoftwareVersions": "syngo MR E11",
      "SpacingBetweenSlices": 2.6999999343454,
      "SpecificCharacterSet": "ISO_IR 100",
      "StudyID": "1",
      "StudyTime": "084702.098000",
      "TransmitCoilName": "Body",
      "VariableFlipAngleFlag": "N",
      "WindowCenterWidthExplanation": "Algo1"
    },
    "slices": {}
  },
  "time": {
    "samples": {
      "AcquisitionNumber": [1, 2, 3, 4, 5, 6, 7, 8, 9, 10, 11, 12, 13, 14, 15, 16, 17, 18, 19, 20, 21, 22, 23, 24, 25, 26, 27, 28, 29, 30, 31, 32, 33, 34, 35, 36, 37, 38, 39, 40, 41, 42, 43, 44, 45, 46, 47, 48, 49, 50, 51, 52, 53, 54, 55, 56, 57, 58, 59, 60, 61, 62, 63, 64, 65, 66, 67, 68, 69, 70, 71, 72, 73, 74, 75, 76, 77, 78, 79, 80, 81, 82, 83, 84, 85, 86, 87, 88, 89, 90, 91, 92, 93, 94, 95, 96, 97, 98, 99, 100, 101, 102, 103, 104, 105, 106, 107, 108, 109, 110, 111, 112, 113, 114, 115, 116, 117, 118, 119, 120, 121, 122, 123, 124, 125, 126, 127, 128, 129, 130, 131, 132, 133, 134, 135, 136, 137, 138, 139, 140, 141, 142, 143, 144, 145, 146, 147, 148, 149, 150, 151, 152, 153, 154, 155, 156, 157, 158, 159, 160, 161, 162, 163, 164, 165, 166, 167, 168, 169, 170, 171, 172, 173, 174, 175, 176, 177, 178, 179, 180, 181, 182, 183, 184, 185, 186, 187, 188, 189, 190, 191, 192, 193, 194, 195, 196, 197, 198, 199, 200, 201, 202, 203, 204, 205, 206, 207, 208, 209, 210, 211, 212, 213, 214, 215, 216, 217, 218, 219, 220, 221, 222, 223, 224, 225, 226, 227, 228, 229, 230, 231, 232, 233, 234, 235, 236, 237, 238, 239, 240, 241, 242, 243, 244, 245, 246, 247, 248, 249, 250, 251, 252, 253, 254, 255, 256, 257, 258, 259, 260, 261, 262, 263, 264, 265, 266, 267, 268, 269, 270, 271, 272, 273, 274, 275, 276, 277, 278, 279, 280, 281, 282, 283, 284, 285, 286, 287, 288, 289, 290, 291, 292, 293, 294, 295, 296, 297, 298, 299, 300, 301, 302, 303, 304, 305, 306, 307, 308, 309, 310, 311, 312, 313, 314, 315, 316, 317, 318, 319, 320, 321, 322, 323, 324, 325, 326, 327, 328, 329, 330, 331, 332, 333, 334, 335, 336, 337, 338, 339, 340, 341, 342, 343, 344, 345, 346, 347, 348, 349, 350, 351, 352, 353, 354, 355, 356, 357, 358, 359, 360, 361, 362, 363, 364, 365, 366, 367, 368, 369, 370, 371, 372, 373, 374, 375, 376, 377, 378, 379, 380, 381, 382, 383, 384, 385, 386, 387, 388, 389, 390, 391, 392, 393, 394, 395, 396, 397, 398, 399, 400, 401, 402, 403, 404, 405, 406, 407, 408, 409, 410, 411, 412, 413, 414, 415, 416, 417, 418, 419, 420, 421, 422, 423, 424, 425, 426, 427, 428, 429, 430, 431, 432, 433, 434, 435, 436, 437, 438, 439, 440, 441, 442, 443, 444, 445, 446, 447, 448, 449, 450, 451, 452, 453, 454, 455, 456, 457, 458, 459, 460, 461, 462, 463, 464, 465, 466, 467, 468, 469, 470, 471, 472, 473, 474, 475, 476, 477, 478, 479, 480, 481, 482, 483, 484, 485, 486, 487, 488, 489, 490, 491, 492, 493, 494, 495, 496, 497, 498, 499, 500, 501, 502, 503, 504, 505, 506, 507, 508, 509, 510, 511, 512, 513, 514, 515, 516, 517, 518, 519, 520, 521, 522, 523, 524, 525, 526, 527, 528, 529, 530, 531, 532, 533, 534, 535, 536, 537, 538, 539, 540, 541, 542, 543, 544, 545, 546, 547, 548, 549, 550, 551, 552, 553, 554, 555, 556, 557, 558, 559, 560, 561, 562, 563, 564, 565, 566, 567, 568, 569, 570, 571, 572, 573, 574, 575, 576, 577, 578, 579, 580, 581, 582, 583, 584, 585, 586, 587, 588, 589, 590, 591, 592, 593, 594, 595, 596, 597, 598, 599, 600, 601, 602, 603, 604, 605, 606, 607, 608, 609, 610, 611, 612, 613, 614, 615, 616, 617, 618, 619, 620, 621, 622, 623, 624, 625, 626, 627, 628, 629, 630, 631, 632, 633, 634, 635, 636, 637, 638, 639, 640, 641, 642, 643, 644, 645, 646, 647, 648, 649, 650, 651, 652, 653, 654, 655, 656, 657, 658, 659, 660, 661, 662, 663, 664, 665, 666, 667, 668, 669, 670, 671, 672, 673, 674, 675, 676, 677, 678, 679, 680, 681, 682, 683, 684, 685, 686, 687, 688, 689, 690, 691, 692, 693, 694, 695, 696, 697, 698, 699, 700, 701, 702, 703, 704, 705, 706, 707, 708, 709, 710, 711, 712, 713, 714, 715, 716, 717, 718, 719, 720, 721, 722, 723, 724, 725, 726, 727, 728, 729, 730, 731, 732, 733, 734, 735, 736, 737, 738, 739, 740, 741, 742, 743, 744, 745, 746, 747, 748, 749, 750, 751, 752, 753, 754, 755, 756, 757, 758, 759, 760, 761, 762, 763, 764, 765, 766, 767, 768, 769, 770, 771, 772, 773, 774, 775, 776, 777, 778, 779, 780, 781, 782, 783, 784, 785, 786, 787, 788, 789, 790, 791, 792, 793, 794, 795, 796, 797, 798, 799, 800, 801, 802, 803, 804, 805, 806, 807, 808, 809, 810, 811, 812, 813, 814, 815, 816, 817, 818, 819, 820, 821, 822, 823, 824, 825, 826, 827, 828, 829, 830, 831, 832, 833, 834, 835, 836, 837, 838, 839, 840, 841, 842, 843, 844, 845, 846, 847, 848, 849, 850, 851, 852, 853, 854, 855, 856, 857, 858, 859, 860, 861, 862, 863, 864, 865, 866, 867, 868, 869, 870, 871, 872, 873, 874, 875, 876, 877, 878, 879, 880, 881, 882, 883, 884, 885, 886, 887, 888, 889, 890, 891, 892, 893, 894, 895, 896, 897, 898, 899, 900, 901, 902, 903, 904, 905, 906, 907, 908, 909, 910, 911, 912, 913, 914, 915, 916, 917, 918, 919, 920, 921, 922, 923, 924, 925, 926, 927, 928, 929, 930, 931, 932, 933, 934, 935, 936, 937, 938, 939, 940, 941, 942, 943, 944, 945, 946, 947, 948, 949, 950, 951, 952, 953, 954, 955, 956, 957, 958, 959, 960, 961, 962, 963, 964, 965, 966, 967, 968, 969, 970, 971, 972, 973, 974, 975, 976, 977, 978, 979, 980, 981, 982, 983, 984, 985, 986, 987, 988, 989, 990, 991, 992, 993, 994, 995, 996, 997, 998, 999, 1000, 1001, 1002, 1003, 1004, 1005, 1006, 1007, 1008, 1009, 1010, 1011, 1012, 1013, 1014, 1015, 1016, 1017, 1018, 1019, 1020, 1021, 1022, 1023, 1024, 1025, 1026, 1027, 1028, 1029, 1030, 1031, 1032, 1033, 1034, 1035, 1036, 1037, 1038, 1039, 1040, 1041, 1042, 1043, 1044, 1045, 1046, 1047, 1048, 1049, 1050, 1051, 1052, 1053, 1054, 1055, 1056, 1057, 1058, 1059, 1060, 1061, 1062, 1063, 1064, 1065, 1066, 1067, 1068, 1069, 1070, 1071, 1072, 1073],
      "AcquisitionTime": ["102338.745000", "102339.205000", "102339.665000", "102340.125000", "102340.585000", "102341.045000", "102341.505000", "102341.965000", "102342.425000", "102342.885000", "102343.345000", "102343.805000", "102344.265000", "102344.725000", "102345.185000", "102345.645000", "102346.105000", "102346.565000", "102347.025000", "102347.485000", "102347.945000", "102348.405000", "102348.865000", "102349.325000", "102349.785000", "102350.245000", "102350.705000", "102351.165000", "102351.625000", "102352.085000", "102352.545000", "102353.005000", "102353.465000", "102353.925000", "102354.385000", "102354.845000", "102355.305000", "102355.765000", "102356.225000", "102356.685000", "102357.145000", "102357.605000", "102358.065000", "102358.525000", "102358.985000", "102359.445000", "102359.905000", "102400.365000", "102400.825000", "102401.285000", "102401.745000", "102402.205000", "102402.665000", "102403.125000", "102403.585000", "102404.045000", "102404.505000", "102404.965000", "102405.425000", "102405.885000", "102406.345000", "102406.805000", "102407.265000", "102407.725000", "102408.185000", "102408.645000", "102409.105000", "102409.565000", "102410.025000", "102410.485000", "102410.945000", "102411.405000", "102411.865000", "102412.325000", "102412.785000", "102413.245000", "102413.705000", "102414.165000", "102414.625000", "102415.085000", "102415.545000", "102416.005000", "102416.465000", "102416.925000", "102417.385000", "102417.845000", "102418.305000", "102418.765000", "102419.225000", "102419.685000", "102420.145000", "102420.605000", "102421.065000", "102421.525000", "102421.985000", "102422.445000", "102422.905000", "102423.365000", "102423.825000", "102424.285000", "102424.745000", "102425.205000", "102425.665000", "102426.125000", "102426.585000", "102427.045000", "102427.505000", "102427.965000", "102428.425000", "102428.885000", "102429.345000", "102429.805000", "102430.265000", "102430.725000", "102431.185000", "102431.645000", "102432.105000", "102432.565000", "102433.025000", "102433.485000", "102433.945000", "102434.405000", "102434.865000", "102435.325000", "102435.785000", "102436.245000", "102436.705000", "102437.165000", "102437.625000", "102438.085000", "102438.545000", "102439.005000", "102439.465000", "102439.925000", "102440.385000", "102440.845000", "102441.305000", "102441.765000", "102442.225000", "102442.685000", "102443.145000", "102443.605000", "102444.065000", "102444.525000", "102444.985000", "102445.445000", "102445.905000", "102446.365000", "102446.825000", "102447.285000", "102447.745000", "102448.205000", "102448.665000", "102449.125000", "102449.585000", "102450.045000", "102450.505000", "102450.965000", "102451.425000", "102451.885000", "102452.345000", "102452.805000", "102453.265000", "102453.725000", "102454.185000", "102454.645000", "102455.105000", "102455.565000", "102456.025000", "102456.485000", "102456.945000", "102457.405000", "102457.865000", "102458.325000", "102458.785000", "102459.245000", "102459.705000", "102500.165000", "102500.625000", "102501.085000", "102501.545000", "102502.005000", "102502.465000", "102502.925000", "102503.385000", "102503.845000", "102504.305000", "102504.765000", "102505.225000", "102505.685000", "102506.145000", "102506.605000", "102507.065000", "102507.525000", "102507.985000", "102508.445000", "102508.905000", "102509.365000", "102509.825000", "102510.285000", "102510.745000", "102511.205000", "102511.665000", "102512.125000", "102512.585000", "102513.045000", "102513.505000", "102513.965000", "102514.425000", "102514.885000", "102515.345000", "102515.805000", "102516.265000", "102516.725000", "102517.185000", "102517.645000", "102518.105000", "102518.565000", "102519.025000", "102519.485000", "102519.945000", "102520.405000", "102520.865000", "102521.325000", "102521.785000", "102522.245000", "102522.705000", "102523.165000", "102523.625000", "102524.085000", "102524.545000", "102525.005000", "102525.465000", "102525.925000", "102526.385000", "102526.845000", "102527.305000", "102527.765000", "102528.225000", "102528.685000", "102529.145000", "102529.605000", "102530.065000", "102530.525000", "102530.985000", "102531.445000", "102531.905000", "102532.365000", "102532.825000", "102533.285000", "102533.745000", "102534.205000", "102534.665000", "102535.125000", "102535.585000", "102536.045000", "102536.505000", "102536.965000", "102537.425000", "102537.885000", "102538.345000", "102538.805000", "102539.265000", "102539.725000", "102540.185000", "102540.645000", "102541.105000", "102541.565000", "102542.025000", "102542.485000", "102542.945000", "102543.405000", "102543.865000", "102544.325000", "102544.785000", "102545.245000", "102545.705000", "102546.165000", "102546.625000", "102547.085000", "102547.545000", "102548.005000", "102548.465000", "102548.925000", "102549.385000", "102549.845000", "102550.305000", "102550.765000", "102551.225000", "102551.685000", "102552.145000", "102552.605000", "102553.065000", "102553.525000", "102553.985000", "102554.445000", "102554.905000", "102555.365000", "102555.825000", "102556.285000", "102556.745000", "102557.205000", "102557.665000", "102558.125000", "102558.585000", "102559.045000", "102559.505000", "102559.965000", "102600.425000", "102600.885000", "102601.345000", "102601.805000", "102602.265000", "102602.725000", "102603.185000", "102603.645000", "102604.105000", "102604.565000", "102605.025000", "102605.485000", "102605.945000", "102606.405000", "102606.865000", "102607.325000", "102607.785000", "102608.245000", "102608.705000", "102609.165000", "102609.625000", "102610.085000", "102610.545000", "102611.005000", "102611.465000", "102611.925000", "102612.385000", "102612.845000", "102613.305000", "102613.765000", "102614.225000", "102614.685000", "102615.145000", "102615.605000", "102616.065000", "102616.525000", "102616.985000", "102617.445000", "102617.905000", "102618.365000", "102618.825000", "102619.285000", "102619.745000", "102620.205000", "102620.665000", "102621.125000", "102621.585000", "102622.045000", "102622.505000", "102622.965000", "102623.425000", "102623.885000", "102624.345000", "102624.805000", "102625.265000", "102625.725000", "102626.185000", "102626.645000", "102627.105000", "102627.565000", "102628.025000", "102628.485000", "102628.945000", "102629.405000", "102629.865000", "102630.325000", "102630.785000", "102631.245000", "102631.705000", "102632.165000", "102632.625000", "102633.085000", "102633.545000", "102634.005000", "102634.465000", "102634.925000", "102635.385000", "102635.845000", "102636.305000", "102636.765000", "102637.225000", "102637.685000", "102638.145000", "102638.605000", "102639.065000", "102639.525000", "102639.985000", "102640.445000", "102640.905000", "102641.365000", "102641.825000", "102642.285000", "102642.745000", "102643.205000", "102643.665000", "102644.125000", "102644.585000", "102645.045000", "102645.505000", "102645.965000", "102646.425000", "102646.885000", "102647.345000", "102647.805000", "102648.265000", "102648.725000", "102649.185000", "102649.645000", "102650.105000", "102650.565000", "102651.025000", "102651.485000", "102651.945000", "102652.405000", "102652.865000", "102653.325000", "102653.785000", "102654.245000", "102654.705000", "102655.165000", "102655.625000", "102656.085000", "102656.545000", "102657.005000", "102657.465000", "102657.925000", "102658.385000", "102658.845000", "102659.305000", "102659.765000", "102700.225000", "102700.685000", "102701.145000", "102701.605000", "102702.065000", "102702.525000", "102702.985000", "102703.445000", "102703.905000", "102704.365000", "102704.825000", "102705.285000", "102705.745000", "102706.205000", "102706.665000", "102707.125000", "102707.585000", "102708.045000", "102708.505000", "102708.965000", "102709.425000", "102709.885000", "102710.345000", "102710.805000", "102711.265000", "102711.725000", "102712.185000", "102712.645000", "102713.105000", "102713.565000", "102714.025000", "102714.485000", "102714.945000", "102715.405000", "102715.865000", "102716.325000", "102716.785000", "102717.245000", "102717.705000", "102718.165000", "102718.625000", "102719.085000", "102719.545000", "102720.005000", "102720.465000", "102720.925000", "102721.385000", "102721.845000", "102722.305000", "102722.765000", "102723.225000", "102723.685000", "102724.145000", "102724.605000", "102725.065000", "102725.525000", "102725.985000", "102726.445000", "102726.905000", "102727.365000", "102727.825000", "102728.285000", "102728.745000", "102729.205000", "102729.665000", "102730.125000", "102730.585000", "102731.045000", "102731.505000", "102731.965000", "102732.425000", "102732.885000", "102733.345000", "102733.805000", "102734.265000", "102734.725000", "102735.185000", "102735.645000", "102736.105000", "102736.565000", "102737.025000", "102737.485000", "102737.945000", "102738.405000", "102738.865000", "102739.325000", "102739.785000", "102740.245000", "102740.705000", "102741.165000", "102741.625000", "102742.085000", "102742.545000", "102743.005000", "102743.465000", "102743.925000", "102744.385000", "102744.845000", "102745.305000", "102745.765000", "102746.225000", "102746.685000", "102747.145000", "102747.605000", "102748.065000", "102748.525000", "102748.985000", "102749.445000", "102749.905000", "102750.365000", "102750.825000", "102751.285000", "102751.745000", "102752.205000", "102752.665000", "102753.125000", "102753.585000", "102754.045000", "102754.505000", "102754.965000", "102755.425000", "102755.885000", "102756.345000", "102756.805000", "102757.265000", "102757.725000", "102758.185000", "102758.645000", "102759.105000", "102759.565000", "102800.025000", "102800.485000", "102800.945000", "102801.405000", "102801.865000", "102802.325000", "102802.785000", "102803.245000", "102803.705000", "102804.165000", "102804.625000", "102805.085000", "102805.545000", "102806.005000", "102806.465000", "102806.925000", "102807.385000", "102807.845000", "102808.305000", "102808.765000", "102809.225000", "102809.685000", "102810.145000", "102810.605000", "102811.065000", "102811.525000", "102811.985000", "102812.445000", "102812.905000", "102813.365000", "102813.825000", "102814.285000", "102814.745000", "102815.205000", "102815.665000", "102816.125000", "102816.585000", "102817.045000", "102817.505000", "102817.965000", "102818.425000", "102818.885000", "102819.345000", "102819.805000", "102820.265000", "102820.725000", "102821.185000", "102821.645000", "102822.105000", "102822.565000", "102823.025000", "102823.485000", "102823.945000", "102824.405000", "102824.865000", "102825.325000", "102825.785000", "102826.245000", "102826.705000", "102827.165000", "102827.625000", "102828.085000", "102828.545000", "102829.005000", "102829.465000", "102829.925000", "102830.385000", "102830.845000", "102831.305000", "102831.765000", "102832.225000", "102832.685000", "102833.145000", "102833.605000", "102834.065000", "102834.525000", "102834.985000", "102835.445000", "102835.905000", "102836.365000", "102836.825000", "102837.285000", "102837.745000", "102838.205000", "102838.665000", "102839.125000", "102839.585000", "102840.045000", "102840.505000", "102840.965000", "102841.425000", "102841.885000", "102842.345000", "102842.805000", "102843.265000", "102843.725000", "102844.185000", "102844.645000", "102845.105000", "102845.565000", "102846.025000", "102846.485000", "102846.945000", "102847.405000", "102847.865000", "102848.325000", "102848.785000", "102849.245000", "102849.705000", "102850.165000", "102850.625000", "102851.085000", "102851.545000", "102852.005000", "102852.465000", "102852.925000", "102853.385000", "102853.845000", "102854.305000", "102854.765000", "102855.225000", "102855.685000", "102856.145000", "102856.605000", "102857.065000", "102857.525000", "102857.985000", "102858.445000", "102858.905000", "102859.365000", "102859.825000", "102900.285000", "102900.745000", "102901.205000", "102901.665000", "102902.125000", "102902.585000", "102903.045000", "102903.505000", "102903.965000", "102904.425000", "102904.885000", "102905.345000", "102905.805000", "102906.265000", "102906.725000", "102907.185000", "102907.645000", "102908.105000", "102908.565000", "102909.025000", "102909.485000", "102909.945000", "102910.405000", "102910.865000", "102911.325000", "102911.785000", "102912.245000", "102912.705000", "102913.165000", "102913.625000", "102914.085000", "102914.545000", "102915.005000", "102915.465000", "102915.925000", "102916.385000", "102916.845000", "102917.305000", "102917.765000", "102918.225000", "102918.685000", "102919.145000", "102919.605000", "102920.065000", "102920.525000", "102920.985000", "102921.445000", "102921.905000", "102922.365000", "102922.825000", "102923.285000", "102923.745000", "102924.205000", "102924.665000", "102925.125000", "102925.585000", "102926.045000", "102926.505000", "102926.965000", "102927.425000", "102927.885000", "102928.345000", "102928.805000", "102929.265000", "102929.725000", "102930.185000", "102930.645000", "102931.105000", "102931.565000", "102932.025000", "102932.485000", "102932.945000", "102933.405000", "102933.865000", "102934.325000", "102934.785000", "102935.245000", "102935.705000", "102936.165000", "102936.625000", "102937.085000", "102937.545000", "102938.005000", "102938.465000", "102938.925000", "102939.385000", "102939.845000", "102940.305000", "102940.765000", "102941.225000", "102941.685000", "102942.145000", "102942.605000", "102943.065000", "102943.525000", "102943.985000", "102944.445000", "102944.905000", "102945.365000", "102945.825000", "102946.285000", "102946.745000", "102947.205000", "102947.665000", "102948.125000", "102948.585000", "102949.045000", "102949.505000", "102949.965000", "102950.425000", "102950.885000", "102951.345000", "102951.805000", "102952.265000", "102952.725000", "102953.185000", "102953.645000", "102954.105000", "102954.565000", "102955.025000", "102955.485000", "102955.945000", "102956.405000", "102956.865000", "102957.325000", "102957.785000", "102958.245000", "102958.705000", "102959.165000", "102959.625000", "103000.085000", "103000.545000", "103001.005000", "103001.465000", "103001.925000", "103002.385000", "103002.845000", "103003.305000", "103003.765000", "103004.225000", "103004.685000", "103005.145000", "103005.605000", "103006.065000", "103006.525000", "103006.985000", "103007.445000", "103007.905000", "103008.365000", "103008.825000", "103009.285000", "103009.745000", "103010.205000", "103010.665000", "103011.125000", "103011.585000", "103012.045000", "103012.505000", "103012.965000", "103013.425000", "103013.885000", "103014.345000", "103014.805000", "103015.265000", "103015.725000", "103016.185000", "103016.645000", "103017.105000", "103017.565000", "103018.025000", "103018.485000", "103018.945000", "103019.405000", "103019.865000", "103020.325000", "103020.785000", "103021.245000", "103021.705000", "103022.165000", "103022.625000", "103023.085000", "103023.545000", "103024.005000", "103024.465000", "103024.925000", "103025.385000", "103025.845000", "103026.305000", "103026.765000", "103027.225000", "103027.685000", "103028.145000", "103028.605000", "103029.065000", "103029.525000", "103029.985000", "103030.445000", "103030.905000", "103031.365000", "103031.825000", "103032.285000", "103032.745000", "103033.205000", "103033.665000", "103034.125000", "103034.585000", "103035.045000", "103035.505000", "103035.965000", "103036.425000", "103036.885000", "103037.345000", "103037.805000", "103038.265000", "103038.725000", "103039.185000", "103039.645000", "103040.105000", "103040.565000", "103041.025000", "103041.485000", "103041.945000", "103042.405000", "103042.865000", "103043.325000", "103043.785000", "103044.245000", "103044.705000", "103045.165000", "103045.625000", "103046.085000", "103046.545000", "103047.005000", "103047.465000", "103047.925000", "103048.385000", "103048.845000", "103049.305000", "103049.765000", "103050.225000", "103050.685000", "103051.145000", "103051.605000", "103052.065000", "103052.525000", "103052.985000", "103053.445000", "103053.905000", "103054.365000", "103054.825000", "103055.285000", "103055.745000", "103056.205000", "103056.665000", "103057.125000", "103057.585000", "103058.045000", "103058.505000", "103058.965000", "103059.425000", "103059.885000", "103100.345000", "103100.805000", "103101.265000", "103101.725000", "103102.185000", "103102.645000", "103103.105000", "103103.565000", "103104.025000", "103104.485000", "103104.945000", "103105.405000", "103105.865000", "103106.325000", "103106.785000", "103107.245000", "103107.705000", "103108.165000", "103108.625000", "103109.085000", "103109.545000", "103110.005000", "103110.465000", "103110.925000", "103111.385000", "103111.845000", "103112.305000", "103112.765000", "103113.225000", "103113.685000", "103114.145000", "103114.605000", "103115.065000", "103115.525000", "103115.985000", "103116.445000", "103116.905000", "103117.365000", "103117.825000", "103118.285000", "103118.745000", "103119.205000", "103119.665000", "103120.125000", "103120.585000", "103121.045000", "103121.505000", "103121.965000", "103122.425000", "103122.885000", "103123.345000", "103123.805000", "103124.265000", "103124.725000", "103125.185000", "103125.645000", "103126.105000", "103126.565000", "103127.025000", "103127.485000", "103127.945000", "103128.405000", "103128.865000", "103129.325000", "103129.785000", "103130.245000", "103130.705000", "103131.165000", "103131.625000", "103132.085000", "103132.545000", "103133.005000", "103133.465000", "103133.925000", "103134.385000", "103134.845000", "103135.305000", "103135.765000", "103136.225000", "103136.685000", "103137.145000", "103137.605000", "103138.065000", "103138.525000", "103138.985000", "103139.445000", "103139.905000", "103140.365000", "103140.825000", "103141.285000", "103141.745000", "103142.205000", "103142.665000", "103143.125000", "103143.585000", "103144.045000", "103144.505000", "103144.965000", "103145.425000", "103145.885000", "103146.345000", "103146.805000", "103147.265000", "103147.725000", "103148.185000", "103148.645000", "103149.105000", "103149.565000", "103150.025000", "103150.485000", "103150.945000", "103151.405000", "103151.865000"],
