{
  "AcquisitionMatrixPE": 82,
  "AcquisitionNumber": 1,
  "AcquisitionTime": "13:49:34.740000",
  "BandwidthPerPixelPhaseEncode": 24.888,
  "BaseResolution": 82,
  "BodyPartExamined": "BRAIN",
  "ConsistencyInfo": "N4_VE11C_LATEST_20160120",
  "ConversionSoftware": "dcm2niix",
  "ConversionSoftwareVersion": "v1.0.20201102",
  "DerivedVendorReportedEchoSpacing": 0.00049,
  "DeviceSerialNumber": "66112",
  "DwellTime": 2e-06,
  "EchoTime": 0.0272,
  "EchoTrainLength": 82,
  "EffectiveEchoSpacing": 0.00049,
  "FlipAngle": 44,
  "ImageComments": "Unaliased MB8/PE3",
  "ImageOrientationPatientDICOM": [0.999663, 0.0199532, 0.0165818, -0.02094, 0.997879, 0.0616367],
  "ImageType": [
    "ORIGINAL",
    "PRIMARY",
    "M",
    "MB",
    "ND",
    "NORM",
    "MOSAIC"
],
  "ImagingFrequency": 123.252,
  "InPlanePhaseEncodingDirectionDICOM": "COL",
  "InstitutionAddress": "Maynard 3,Hanover,NH,US,03755",
  "InstitutionName": "Dartmouth College - PBS",
  "InstitutionalDepartmentName": "Department",
  "MRAcquisitionType": "2D",
  "MagneticFieldStrength": 3,
  "Manufacturer": "Siemens",
  "ManufacturersModelName": "Prisma",
  "Modality": "MR",
  "MultibandAccelerationFactor": 8,
  "PartialFourier": 1,
  "PatientPosition": "HFS",
  "PercentPhaseFOV": 100,
  "PercentSampling": 100,
  "PhaseEncodingDirection": "j-",
  "PhaseEncodingSteps": 82,
  "PhaseResolution": 1,
  "PixelBandwidth": 3050,
  "ProcedureStepDescription": "Wager_Wager^1076_spacetop",
  "ProtocolName": "func_run-03_task-alignvideo_acq-ap-mb8",
  "PulseSequenceDetails": "%CustomerSeq%\\cmrr_mbep2d_bold",
  "ReceiveCoilActiveElements": "HEA;HEP",
  "ReceiveCoilName": "Head_32",
  "ReconMatrixPE": 82,
  "RepetitionTime": 0.46,
  "SAR": 0.112758,
  "ScanOptions": "FS",
  "ScanningSequence": "EP",
  "SequenceName": "epfid2d1_82",
  "SequenceVariant": "SK\\SS",
  "SeriesDescription": "func_run-03_task-alignvideo_acq-ap-mb8",
  "SeriesNumber": 32,
  "ShimSetting": [4164, -7737, -7211, 506, -21, 0, 3, 64],
  "SliceThickness": 2.7,
  "SliceTiming": [0, 0.25, 0.0625, 0.3125, 0.125, 0.375, 0.1875, 0, 0.25, 0.0625, 0.3125, 0.125, 0.375, 0.1875, 0, 0.25, 0.0625, 0.3125, 0.125, 0.375, 0.1875, 0, 0.25, 0.0625, 0.3125, 0.125, 0.375, 0.1875, 0, 0.25, 0.0625, 0.3125, 0.125, 0.375, 0.1875, 0, 0.25, 0.0625, 0.3125, 0.125, 0.375, 0.1875, 0, 0.25, 0.0625, 0.3125, 0.125, 0.375, 0.1875, 0, 0.25, 0.0625, 0.3125, 0.125, 0.375, 0.1875],
  "SoftwareVersions": "syngo MR E11",
  "SpacingBetweenSlices": 2.7,
  "StationName": "AWP66112",
  "TaskName": "alignvideo",
  "TotalReadoutTime": 0.03969,
  "TxRefAmp": 248.321,
  "WipMemBlock": "afb61c62-a442-4986-9282-557a21059cb6||Sequence: R016 ve11c/master r/e634e98; Dec 19 2017 11:00:25 by eja",
  "dcmmeta_affine": [
    [-2.682023763656616, -0.05618039518594742, 0.04135528951883316, 114.60176086425781],
    [-0.05353295058012009, 2.677236318588257, 0.16730061173439026, -97.16290283203125],
    [0.044487740844488144, -0.16536679863929749, 2.6944944858551025, -34.367713928222656],
    [0.0, 0.0, 0.0, 1.0]
],
  "dcmmeta_reorient_transform": [
    [0.0, -1.0, 0.0, 81.0],
    [1.0, 0.0, 0.0, 0.0],
    [0.0, 0.0, 1.0, 0.0],
    [0.0, 0.0, 0.0, 1.0]
],
  "dcmmeta_shape": [82, 82, 56, 1065],
  "dcmmeta_slice_dim": 2,
  "dcmmeta_version": 0.6,
  "global": {
    "const": {
      "AccessionNumber": "A003456",
      "AcquisitionMatrix": [82, 0, 0, 82],
      "AngioFlag": "N",
      "BitsAllocated": 16,
      "BitsStored": 16,
      "BodyPartExamined": "BRAIN",
      "Columns": 656,
      "EchoNumbers": 1,
      "EchoTime": 27.2,
      "EchoTrainLength": 82,
      "FlipAngle": 44.0,
      "HighBit": 15,
      "ImageOrientationPatient": [0.99966340050127, 0.01995319073045, 0.01658179356748, -0.0209399649854, 0.99787896738436, 0.06163671242313],
      "ImagePositionPatient": [-863.66821244911, -903.42401757852, -107.990676958],
      "ImageType": [
        "ORIGINAL",
        "PRIMARY",
        "M",
        "MB",
        "ND",
        "NORM",
        "MOSAIC"
],
      "ImagedNucleus": "1H",
      "ImagingFrequency": 123.252132,
      "InPlanePhaseEncodingDirection": "COL",
      "MRAcquisitionType": "2D",
      "MagneticFieldStrength": 3.0,
      "Manufacturer": "SIEMENS",
      "ManufacturerModelName": "Prisma",
      "Modality": "MR",
      "NumberOfAverages": 1.0,
      "NumberOfPhaseEncodingSteps": 82,
      "PercentPhaseFieldOfView": 100.0,
      "PercentSampling": 100.0,
      "PerformedProcedureStepStartTime": "114845.744000",
      "PhotometricInterpretation": "MONOCHROME2",
      "PixelBandwidth": 3050.0,
      "PixelRepresentation": 0,
      "PixelSpacing": [2.6829268932343, 2.6829268932343],
      "ProtocolName": "func_run-03_task-alignvideo_acq-ap-mb8",
      "RepetitionTime": 460.0,
      "Rows": 656,
      "SAR": 0.11275812940648,
      "SamplesPerPixel": 1,
      "ScanOptions": "FS",
      "ScanningSequence": "EP",
      "SequenceName": "epfid2d1_82",
      "SequenceVariant": [
        "SK",
        "SS"
],
      "SeriesDescription": "func_run-03_task-alignvideo_acq-ap-mb8",
      "SeriesNumber": 32,
      "SeriesTime": "134955.953000",
      "SliceLocation": -38.562830494548,
      "SliceThickness": 2.7000000476837,
      "SmallestImagePixelValue": 0,
      "SoftwareVersions": "syngo MR E11",
      "SpacingBetweenSlices": 2.6999999871708,
      "SpecificCharacterSet": "ISO_IR 100",
      "StudyID": "3",
      "StudyTime": "114845.654000",
      "TransmitCoilName": "Body",
      "VariableFlipAngleFlag": "N",
      "WindowCenterWidthExplanation": "Algo1",
      "dBdt": 0.0},
    "slices": {}
  },
  "time": {
    "samples": {
      "AcquisitionNumber": [1, 2, 3, 4, 5, 6, 7, 8, 9, 10, 11, 12, 13, 14, 15, 16, 17, 18, 19, 20, 21, 22, 23, 24, 25, 26, 27, 28, 29, 30, 31, 32, 33, 34, 35, 36, 37, 38, 39, 40, 41, 42, 43, 44, 45, 46, 47, 48, 49, 50, 51, 52, 53, 54, 55, 56, 57, 58, 59, 60, 61, 62, 63, 64, 65, 66, 67, 68, 69, 70, 71, 72, 73, 74, 75, 76, 77, 78, 79, 80, 81, 82, 83, 84, 85, 86, 87, 88, 89, 90, 91, 92, 93, 94, 95, 96, 97, 98, 99, 100, 101, 102, 103, 104, 105, 106, 107, 108, 109, 110, 111, 112, 113, 114, 115, 116, 117, 118, 119, 120, 121, 122, 123, 124, 125, 126, 127, 128, 129, 130, 131, 132, 133, 134, 135, 136, 137, 138, 139, 140, 141, 142, 143, 144, 145, 146, 147, 148, 149, 150, 151, 152, 153, 154, 155, 156, 157, 158, 159, 160, 161, 162, 163, 164, 165, 166, 167, 168, 169, 170, 171, 172, 173, 174, 175, 176, 177, 178, 179, 180, 181, 182, 183, 184, 185, 186, 187, 188, 189, 190, 191, 192, 193, 194, 195, 196, 197, 198, 199, 200, 201, 202, 203, 204, 205, 206, 207, 208, 209, 210, 211, 212, 213, 214, 215, 216, 217, 218, 219, 220, 221, 222, 223, 224, 225, 226, 227, 228, 229, 230, 231, 232, 233, 234, 235, 236, 237, 238, 239, 240, 241, 242, 243, 244, 245, 246, 247, 248, 249, 250, 251, 252, 253, 254, 255, 256, 257, 258, 259, 260, 261, 262, 263, 264, 265, 266, 267, 268, 269, 270, 271, 272, 273, 274, 275, 276, 277, 278, 279, 280, 281, 282, 283, 284, 285, 286, 287, 288, 289, 290, 291, 292, 293, 294, 295, 296, 297, 298, 299, 300, 301, 302, 303, 304, 305, 306, 307, 308, 309, 310, 311, 312, 313, 314, 315, 316, 317, 318, 319, 320, 321, 322, 323, 324, 325, 326, 327, 328, 329, 330, 331, 332, 333, 334, 335, 336, 337, 338, 339, 340, 341, 342, 343, 344, 345, 346, 347, 348, 349, 350, 351, 352, 353, 354, 355, 356, 357, 358, 359, 360, 361, 362, 363, 364, 365, 366, 367, 368, 369, 370, 371, 372, 373, 374, 375, 376, 377, 378, 379, 380, 381, 382, 383, 384, 385, 386, 387, 388, 389, 390, 391, 392, 393, 394, 395, 396, 397, 398, 399, 400, 401, 402, 403, 404, 405, 406, 407, 408, 409, 410, 411, 412, 413, 414, 415, 416, 417, 418, 419, 420, 421, 422, 423, 424, 425, 426, 427, 428, 429, 430, 431, 432, 433, 434, 435, 436, 437, 438, 439, 440, 441, 442, 443, 444, 445, 446, 447, 448, 449, 450, 451, 452, 453, 454, 455, 456, 457, 458, 459, 460, 461, 462, 463, 464, 465, 466, 467, 468, 469, 470, 471, 472, 473, 474, 475, 476, 477, 478, 479, 480, 481, 482, 483, 484, 485, 486, 487, 488, 489, 490, 491, 492, 493, 494, 495, 496, 497, 498, 499, 500, 501, 502, 503, 504, 505, 506, 507, 508, 509, 510, 511, 512, 513, 514, 515, 516, 517, 518, 519, 520, 521, 522, 523, 524, 525, 526, 527, 528, 529, 530, 531, 532, 533, 534, 535, 536, 537, 538, 539, 540, 541, 542, 543, 544, 545, 546, 547, 548, 549, 550, 551, 552, 553, 554, 555, 556, 557, 558, 559, 560, 561, 562, 563, 564, 565, 566, 567, 568, 569, 570, 571, 572, 573, 574, 575, 576, 577, 578, 579, 580, 581, 582, 583, 584, 585, 586, 587, 588, 589, 590, 591, 592, 593, 594, 595, 596, 597, 598, 599, 600, 601, 602, 603, 604, 605, 606, 607, 608, 609, 610, 611, 612, 613, 614, 615, 616, 617, 618, 619, 620, 621, 622, 623, 624, 625, 626, 627, 628, 629, 630, 631, 632, 633, 634, 635, 636, 637, 638, 639, 640, 641, 642, 643, 644, 645, 646, 647, 648, 649, 650, 651, 652, 653, 654, 655, 656, 657, 658, 659, 660, 661, 662, 663, 664, 665, 666, 667, 668, 669, 670, 671, 672, 673, 674, 675, 676, 677, 678, 679, 680, 681, 682, 683, 684, 685, 686, 687, 688, 689, 690, 691, 692, 693, 694, 695, 696, 697, 698, 699, 700, 701, 702, 703, 704, 705, 706, 707, 708, 709, 710, 711, 712, 713, 714, 715, 716, 717, 718, 719, 720, 721, 722, 723, 724, 725, 726, 727, 728, 729, 730, 731, 732, 733, 734, 735, 736, 737, 738, 739, 740, 741, 742, 743, 744, 745, 746, 747, 748, 749, 750, 751, 752, 753, 754, 755, 756, 757, 758, 759, 760, 761, 762, 763, 764, 765, 766, 767, 768, 769, 770, 771, 772, 773, 774, 775, 776, 777, 778, 779, 780, 781, 782, 783, 784, 785, 786, 787, 788, 789, 790, 791, 792, 793, 794, 795, 796, 797, 798, 799, 800, 801, 802, 803, 804, 805, 806, 807, 808, 809, 810, 811, 812, 813, 814, 815, 816, 817, 818, 819, 820, 821, 822, 823, 824, 825, 826, 827, 828, 829, 830, 831, 832, 833, 834, 835, 836, 837, 838, 839, 840, 841, 842, 843, 844, 845, 846, 847, 848, 849, 850, 851, 852, 853, 854, 855, 856, 857, 858, 859, 860, 861, 862, 863, 864, 865, 866, 867, 868, 869, 870, 871, 872, 873, 874, 875, 876, 877, 878, 879, 880, 881, 882, 883, 884, 885, 886, 887, 888, 889, 890, 891, 892, 893, 894, 895, 896, 897, 898, 899, 900, 901, 902, 903, 904, 905, 906, 907, 908, 909, 910, 911, 912, 913, 914, 915, 916, 917, 918, 919, 920, 921, 922, 923, 924, 925, 926, 927, 928, 929, 930, 931, 932, 933, 934, 935, 936, 937, 938, 939, 940, 941, 942, 943, 944, 945, 946, 947, 948, 949, 950, 951, 952, 953, 954, 955, 956, 957, 958, 959, 960, 961, 962, 963, 964, 965, 966, 967, 968, 969, 970, 971, 972, 973, 974, 975, 976, 977, 978, 979, 980, 981, 982, 983, 984, 985, 986, 987, 988, 989, 990, 991, 992, 993, 994, 995, 996, 997, 998, 999, 1000, 1001, 1002, 1003, 1004, 1005, 1006, 1007, 1008, 1009, 1010, 1011, 1012, 1013, 1014, 1015, 1016, 1017, 1018, 1019, 1020, 1021, 1022, 1023, 1024, 1025, 1026, 1027, 1028, 1029, 1030, 1031, 1032, 1033, 1034, 1035, 1036, 1037, 1038, 1039, 1040, 1041, 1042, 1043, 1044, 1045, 1046, 1047, 1048, 1049, 1050, 1051, 1052, 1053, 1054, 1055, 1056, 1057, 1058, 1059, 1060, 1061, 1062, 1063, 1064, 1065],
      "AcquisitionTime": ["134934.740000", "134935.200000", "134935.660000", "134936.120000", "134936.580000", "134937.040000", "134937.500000", "134937.960000", "134938.420000", "134938.880000", "134939.340000", "134939.800000", "134940.260000", "134940.720000", "134941.180000", "134941.640000", "134942.100000", "134942.560000", "134943.020000", "134943.480000", "134943.940000", "134944.400000", "134944.860000", "134945.320000", "134945.780000", "134946.240000", "134946.700000", "134947.160000", "134947.620000", "134948.080000", "134948.540000", "134949.000000", "134949.460000", "134949.920000", "134950.380000", "134950.840000", "134951.300000", "134951.760000", "134952.220000", "134952.680000", "134953.140000", "134953.600000", "134954.060000", "134954.520000", "134954.980000", "134955.440000", "134955.900000", "134956.360000", "134956.820000", "134957.280000", "134957.740000", "134958.200000", "134958.660000", "134959.120000", "134959.580000", "135000.040000", "135000.500000", "135000.960000", "135001.420000", "135001.880000", "135002.340000", "135002.800000", "135003.260000", "135003.720000", "135004.180000", "135004.640000", "135005.100000", "135005.560000", "135006.020000", "135006.480000", "135006.940000", "135007.400000", "135007.860000", "135008.320000", "135008.780000", "135009.240000", "135009.700000", "135010.160000", "135010.620000", "135011.080000", "135011.540000", "135012.000000", "135012.460000", "135012.920000", "135013.380000", "135013.840000", "135014.300000", "135014.760000", "135015.220000", "135015.680000", "135016.140000", "135016.600000", "135017.060000", "135017.520000", "135017.980000", "135018.440000", "135018.900000", "135019.360000", "135019.820000", "135020.280000", "135020.740000", "135021.200000", "135021.660000", "135022.120000", "135022.580000", "135023.040000", "135023.500000", "135023.960000", "135024.420000", "135024.880000", "135025.340000", "135025.800000", "135026.260000", "135026.720000", "135027.180000", "135027.640000", "135028.100000", "135028.560000", "135029.020000", "135029.480000", "135029.940000", "135030.400000", "135030.860000", "135031.320000", "135031.780000", "135032.240000", "135032.700000", "135033.160000", "135033.620000", "135034.080000", "135034.540000", "135035.000000", "135035.460000", "135035.920000", "135036.380000", "135036.840000", "135037.300000", "135037.760000", "135038.220000", "135038.680000", "135039.140000", "135039.600000", "135040.060000", "135040.520000", "135040.980000", "135041.440000", "135041.900000", "135042.360000", "135042.820000", "135043.280000", "135043.740000", "135044.200000", "135044.660000", "135045.120000", "135045.580000", "135046.040000", "135046.500000", "135046.960000", "135047.420000", "135047.880000", "135048.340000", "135048.800000", "135049.260000", "135049.720000", "135050.180000", "135050.640000", "135051.100000", "135051.560000", "135052.020000", "135052.480000", "135052.940000", "135053.400000", "135053.860000", "135054.320000", "135054.780000", "135055.240000", "135055.700000", "135056.160000", "135056.620000", "135057.080000", "135057.540000", "135058.000000", "135058.460000", "135058.920000", "135059.380000", "135059.840000", "135100.300000", "135100.760000", "135101.220000", "135101.680000", "135102.140000", "135102.600000", "135103.060000", "135103.520000", "135103.980000", "135104.440000", "135104.900000", "135105.360000", "135105.820000", "135106.280000", "135106.740000", "135107.200000", "135107.660000", "135108.120000", "135108.580000", "135109.040000", "135109.500000", "135109.960000", "135110.420000", "135110.880000", "135111.340000", "135111.800000", "135112.260000", "135112.720000", "135113.180000", "135113.640000", "135114.100000", "135114.560000", "135115.020000", "135115.480000", "135115.940000", "135116.400000", "135116.860000", "135117.320000", "135117.780000", "135118.240000", "135118.700000", "135119.160000", "135119.620000", "135120.080000", "135120.540000", "135121.000000", "135121.460000", "135121.920000", "135122.380000", "135122.840000", "135123.300000", "135123.760000", "135124.220000", "135124.680000", "135125.140000", "135125.600000", "135126.060000", "135126.520000", "135126.980000", "135127.440000", "135127.900000", "135128.360000", "135128.820000", "135129.280000", "135129.740000", "135130.200000", "135130.660000", "135131.120000", "135131.580000", "135132.040000", "135132.500000", "135132.960000", "135133.420000", "135133.880000", "135134.340000", "135134.800000", "135135.260000", "135135.720000", "135136.180000", "135136.640000", "135137.100000", "135137.560000", "135138.020000", "135138.480000", "135138.940000", "135139.400000", "135139.860000", "135140.320000", "135140.780000", "135141.240000", "135141.700000", "135142.160000", "135142.620000", "135143.080000", "135143.540000", "135144.000000", "135144.460000", "135144.920000", "135145.380000", "135145.840000", "135146.300000", "135146.760000", "135147.220000", "135147.680000", "135148.140000", "135148.600000", "135149.060000", "135149.520000", "135149.980000", "135150.440000", "135150.900000", "135151.360000", "135151.820000", "135152.280000", "135152.740000", "135153.200000", "135153.660000", "135154.120000", "135154.580000", "135155.040000", "135155.500000", "135155.960000", "135156.420000", "135156.880000", "135157.340000", "135157.800000", "135158.260000", "135158.720000", "135159.180000", "135159.640000", "135200.100000", "135200.560000", "135201.020000", "135201.480000", "135201.940000", "135202.400000", "135202.860000", "135203.320000", "135203.780000", "135204.240000", "135204.700000", "135205.160000", "135205.620000", "135206.080000", "135206.540000", "135207.000000", "135207.460000", "135207.920000", "135208.380000", "135208.840000", "135209.300000", "135209.760000", "135210.220000", "135210.680000", "135211.140000", "135211.600000", "135212.060000", "135212.520000", "135212.980000", "135213.440000", "135213.900000", "135214.360000", "135214.820000", "135215.280000", "135215.740000", "135216.200000", "135216.660000", "135217.120000", "135217.580000", "135218.040000", "135218.500000", "135218.960000", "135219.420000", "135219.880000", "135220.340000", "135220.800000", "135221.260000", "135221.720000", "135222.180000", "135222.640000", "135223.100000", "135223.560000", "135224.020000", "135224.480000", "135224.940000", "135225.400000", "135225.860000", "135226.320000", "135226.780000", "135227.240000", "135227.700000", "135228.160000", "135228.620000", "135229.080000", "135229.540000", "135230.000000", "135230.460000", "135230.920000", "135231.380000", "135231.840000", "135232.300000", "135232.760000", "135233.220000", "135233.680000", "135234.140000", "135234.600000", "135235.060000", "135235.520000", "135235.980000", "135236.440000", "135236.900000", "135237.360000", "135237.820000", "135238.280000", "135238.740000", "135239.200000", "135239.660000", "135240.120000", "135240.580000", "135241.040000", "135241.500000", "135241.960000", "135242.420000", "135242.880000", "135243.340000", "135243.800000", "135244.260000", "135244.720000", "135245.180000", "135245.640000", "135246.100000", "135246.560000", "135247.020000", "135247.480000", "135247.940000", "135248.400000", "135248.860000", "135249.320000", "135249.780000", "135250.240000", "135250.700000", "135251.160000", "135251.620000", "135252.080000", "135252.540000", "135253.000000", "135253.460000", "135253.920000", "135254.380000", "135254.840000", "135255.300000", "135255.760000", "135256.220000", "135256.680000", "135257.140000", "135257.600000", "135258.060000", "135258.520000", "135258.980000", "135259.440000", "135259.900000", "135300.360000", "135300.820000", "135301.280000", "135301.740000", "135302.200000", "135302.660000", "135303.120000", "135303.580000", "135304.040000", "135304.500000", "135304.960000", "135305.420000", "135305.880000", "135306.340000", "135306.800000", "135307.260000", "135307.720000", "135308.180000", "135308.640000", "135309.100000", "135309.560000", "135310.020000", "135310.480000", "135310.940000", "135311.400000", "135311.860000", "135312.320000", "135312.780000", "135313.240000", "135313.700000", "135314.160000", "135314.620000", "135315.080000", "135315.540000", "135316.000000", "135316.460000", "135316.920000", "135317.380000", "135317.840000", "135318.300000", "135318.760000", "135319.220000", "135319.680000", "135320.140000", "135320.600000", "135321.060000", "135321.520000", "135321.980000", "135322.440000", "135322.900000", "135323.360000", "135323.820000", "135324.280000", "135324.740000", "135325.200000", "135325.660000", "135326.120000", "135326.580000", "135327.040000", "135327.500000", "135327.960000", "135328.420000", "135328.880000", "135329.340000", "135329.800000", "135330.260000", "135330.720000", "135331.180000", "135331.640000", "135332.100000", "135332.560000", "135333.020000", "135333.480000", "135333.940000", "135334.400000", "135334.860000", "135335.320000", "135335.780000", "135336.240000", "135336.700000", "135337.160000", "135337.620000", "135338.080000", "135338.540000", "135339.000000", "135339.460000", "135339.920000", "135340.380000", "135340.840000", "135341.300000", "135341.760000", "135342.220000", "135342.680000", "135343.140000", "135343.600000", "135344.060000", "135344.520000", "135344.980000", "135345.440000", "135345.900000", "135346.360000", "135346.820000", "135347.280000", "135347.740000", "135348.200000", "135348.660000", "135349.120000", "135349.580000", "135350.040000", "135350.500000", "135350.960000", "135351.420000", "135351.880000", "135352.340000", "135352.800000", "135353.260000", "135353.720000", "135354.180000", "135354.640000", "135355.100000", "135355.560000", "135356.020000", "135356.480000", "135356.940000", "135357.400000", "135357.860000", "135358.320000", "135358.780000", "135359.240000", "135359.700000", "135400.160000", "135400.620000", "135401.080000", "135401.540000", "135402.000000", "135402.460000", "135402.920000", "135403.380000", "135403.840000", "135404.300000", "135404.760000", "135405.220000", "135405.680000", "135406.140000", "135406.600000", "135407.060000", "135407.520000", "135407.980000", "135408.440000", "135408.900000", "135409.360000", "135409.820000", "135410.280000", "135410.740000", "135411.200000", "135411.660000", "135412.120000", "135412.580000", "135413.040000", "135413.500000", "135413.960000", "135414.420000", "135414.880000", "135415.340000", "135415.800000", "135416.260000", "135416.720000", "135417.180000", "135417.640000", "135418.100000", "135418.560000", "135419.020000", "135419.480000", "135419.940000", "135420.400000", "135420.860000", "135421.320000", "135421.780000", "135422.240000", "135422.700000", "135423.160000", "135423.620000", "135424.080000", "135424.540000", "135425.000000", "135425.460000", "135425.920000", "135426.380000", "135426.840000", "135427.300000", "135427.760000", "135428.220000", "135428.680000", "135429.140000", "135429.600000", "135430.060000", "135430.520000", "135430.980000", "135431.440000", "135431.900000", "135432.360000", "135432.820000", "135433.280000", "135433.740000", "135434.200000", "135434.660000", "135435.120000", "135435.580000", "135436.040000", "135436.500000", "135436.960000", "135437.420000", "135437.880000", "135438.340000", "135438.800000", "135439.260000", "135439.720000", "135440.180000", "135440.640000", "135441.100000", "135441.560000", "135442.020000", "135442.480000", "135442.940000", "135443.400000", "135443.860000", "135444.320000", "135444.780000", "135445.240000", "135445.700000", "135446.160000", "135446.620000", "135447.080000", "135447.540000", "135448.000000", "135448.460000", "135448.920000", "135449.380000", "135449.840000", "135450.300000", "135450.760000", "135451.220000", "135451.680000", "135452.140000", "135452.600000", "135453.060000", "135453.520000", "135453.980000", "135454.440000", "135454.900000", "135455.360000", "135455.820000", "135456.280000", "135456.740000", "135457.200000", "135457.660000", "135458.120000", "135458.580000", "135459.040000", "135459.500000", "135459.960000", "135500.420000", "135500.880000", "135501.340000", "135501.800000", "135502.260000", "135502.720000", "135503.180000", "135503.640000", "135504.100000", "135504.560000", "135505.020000", "135505.480000", "135505.940000", "135506.400000", "135506.860000", "135507.320000", "135507.780000", "135508.240000", "135508.700000", "135509.160000", "135509.620000", "135510.080000", "135510.540000", "135511.000000", "135511.460000", "135511.920000", "135512.380000", "135512.840000", "135513.300000", "135513.760000", "135514.220000", "135514.680000", "135515.140000", "135515.600000", "135516.060000", "135516.520000", "135516.980000", "135517.440000", "135517.900000", "135518.360000", "135518.820000", "135519.280000", "135519.740000", "135520.200000", "135520.660000", "135521.120000", "135521.580000", "135522.040000", "135522.500000", "135522.960000", "135523.420000", "135523.880000", "135524.340000", "135524.800000", "135525.260000", "135525.720000", "135526.180000", "135526.640000", "135527.100000", "135527.560000", "135528.020000", "135528.480000", "135528.940000", "135529.400000", "135529.860000", "135530.320000", "135530.780000", "135531.240000", "135531.700000", "135532.160000", "135532.620000", "135533.080000", "135533.540000", "135534.000000", "135534.460000", "135534.920000", "135535.380000", "135535.840000", "135536.300000", "135536.760000", "135537.220000", "135537.680000", "135538.140000", "135538.600000", "135539.060000", "135539.520000", "135539.980000", "135540.440000", "135540.900000", "135541.360000", "135541.820000", "135542.280000", "135542.740000", "135543.200000", "135543.660000", "135544.120000", "135544.580000", "135545.040000", "135545.500000", "135545.960000", "135546.420000", "135546.880000", "135547.340000", "135547.800000", "135548.260000", "135548.720000", "135549.180000", "135549.640000", "135550.100000", "135550.560000", "135551.020000", "135551.480000", "135551.940000", "135552.400000", "135552.860000", "135553.320000", "135553.780000", "135554.240000", "135554.700000", "135555.160000", "135555.620000", "135556.080000", "135556.540000", "135557.000000", "135557.460000", "135557.920000", "135558.380000", "135558.840000", "135559.300000", "135559.760000", "135600.220000", "135600.680000", "135601.140000", "135601.600000", "135602.060000", "135602.520000", "135602.980000", "135603.440000", "135603.900000", "135604.360000", "135604.820000", "135605.280000", "135605.740000", "135606.200000", "135606.660000", "135607.120000", "135607.580000", "135608.040000", "135608.500000", "135608.960000", "135609.420000", "135609.880000", "135610.340000", "135610.800000", "135611.260000", "135611.720000", "135612.180000", "135612.640000", "135613.100000", "135613.560000", "135614.020000", "135614.480000", "135614.940000", "135615.400000", "135615.860000", "135616.320000", "135616.780000", "135617.240000", "135617.700000", "135618.160000", "135618.620000", "135619.080000", "135619.540000", "135620.000000", "135620.460000", "135620.920000", "135621.380000", "135621.840000", "135622.300000", "135622.760000", "135623.220000", "135623.680000", "135624.140000", "135624.600000", "135625.060000", "135625.520000", "135625.980000", "135626.440000", "135626.900000", "135627.360000", "135627.820000", "135628.280000", "135628.740000", "135629.200000", "135629.660000", "135630.120000", "135630.580000", "135631.040000", "135631.500000", "135631.960000", "135632.420000", "135632.880000", "135633.340000", "135633.800000", "135634.260000", "135634.720000", "135635.180000", "135635.640000", "135636.100000", "135636.560000", "135637.020000", "135637.480000", "135637.940000", "135638.400000", "135638.860000", "135639.320000", "135639.780000", "135640.240000", "135640.700000", "135641.160000", "135641.620000", "135642.080000", "135642.540000", "135643.000000", "135643.460000", "135643.920000", "135644.380000", "135644.840000", "135645.300000", "135645.760000", "135646.220000", "135646.680000", "135647.140000", "135647.600000", "135648.060000", "135648.520000", "135648.980000", "135649.440000", "135649.900000", "135650.360000", "135650.820000", "135651.280000", "135651.740000", "135652.200000", "135652.660000", "135653.120000", "135653.580000", "135654.040000", "135654.500000", "135654.960000", "135655.420000", "135655.880000", "135656.340000", "135656.800000", "135657.260000", "135657.720000", "135658.180000", "135658.640000", "135659.100000", "135659.560000", "135700.020000", "135700.480000", "135700.940000", "135701.400000", "135701.860000", "135702.320000", "135702.780000", "135703.240000", "135703.700000", "135704.160000", "135704.620000", "135705.080000", "135705.540000", "135706.000000", "135706.460000", "135706.920000", "135707.380000", "135707.840000", "135708.300000", "135708.760000", "135709.220000", "135709.680000", "135710.140000", "135710.600000", "135711.060000", "135711.520000", "135711.980000", "135712.440000", "135712.900000", "135713.360000", "135713.820000", "135714.280000", "135714.740000", "135715.200000", "135715.660000", "135716.120000", "135716.580000", "135717.040000", "135717.500000", "135717.960000", "135718.420000", "135718.880000", "135719.340000", "135719.800000", "135720.260000", "135720.720000", "135721.180000", "135721.640000", "135722.100000", "135722.560000", "135723.020000", "135723.480000", "135723.940000", "135724.400000", "135724.860000", "135725.320000", "135725.780000", "135726.240000", "135726.700000", "135727.160000", "135727.620000", "135728.080000", "135728.540000", "135729.000000", "135729.460000", "135729.920000", "135730.380000", "135730.840000", "135731.300000", "135731.760000", "135732.220000", "135732.680000", "135733.140000", "135733.600000", "135734.060000", "135734.520000", "135734.980000", "135735.440000", "135735.900000", "135736.360000", "135736.820000", "135737.280000", "135737.740000", "135738.200000", "135738.660000", "135739.120000", "135739.580000", "135740.040000", "135740.500000", "135740.960000", "135741.420000", "135741.880000", "135742.340000", "135742.800000", "135743.260000", "135743.720000", "135744.180000"],
