{
  "AcquisitionMatrixPE": 140,
  "AcquisitionNumber": 1,
  "AcquisitionTime": "19:52:48.052500",
  "BandwidthPerPixelPhaseEncode": 10.352,
  "BaseResolution": 140,
  "BodyPartExamined": "BRAIN",
  "ConsistencyInfo": "N4_VE11E_LATEST_20181129",
  "ConversionSoftware": "dcm2niix",
  "ConversionSoftwareVersion": "v1.0.20201102",
  "DerivedVendorReportedEchoSpacing": 0.000689998,
  "DeviceSerialNumber": "66112",
  "DiffusionScheme": "Monopolar",
  "DwellTime": 2.1e-06,
  "EchoTime": 0.0884,
  "EchoTrainLength": 105,
  "EffectiveEchoSpacing": 0.000689998,
  "FlipAngle": 90,
  "ImageComments": "Unaliased MB3/PE3 SENSE1",
  "ImageOrientationPatientDICOM": [0.994863, -0.0378438, 0.0938887, 0.0118078, 0.964543, 0.263661],
  "ImageType": [
    "ORIGINAL",
    "PRIMARY",
    "DIFFUSION",
    "NONE",
    "MB",
    "ND",
    "MOSAIC"
],
  "ImagingFrequency": 123.259,
  "InPlanePhaseEncodingDirectionDICOM": "COL",
  "InstitutionAddress": "Maynard 3,Hanover,NH,US,03755",
  "InstitutionName": "Dartmouth College - PBS",
  "InstitutionalDepartmentName": "Department",
  "MRAcquisitionType": "2D",
  "MagneticFieldStrength": 3,
  "Manufacturer": "Siemens",
  "ManufacturersModelName": "Prisma",
  "Modality": "MR",
  "MultibandAccelerationFactor": 3,
  "PartialFourier": 0.75,
  "PatientPosition": "HFS",
  "PercentPhaseFOV": 100,
  "PercentSampling": 100,
  "PhaseEncodingDirection": "j-",
  "PhaseEncodingSteps": 105,
  "PhaseResolution": 1,
  "PixelBandwidth": 1700,
  "ProcedureStepDescription": "Wager_Wager^1076_spacetop",
  "ProtocolName": "dwi_acq-96dir-6b0-mb",
  "PulseSequenceDetails": "%CustomerSeq%\\cmrr_mbep2d_diff",
  "ReceiveCoilActiveElements": "HEA;HEP",
  "ReceiveCoilName": "Head_32",
  "ReconMatrixPE": 140,
  "RepetitionTime": 4.11,
  "SAR": 0.220586,
  "ScanOptions": "PFP\\FS",
  "ScanningSequence": "EP",
  "SequenceName": "ep_b5#1",
  "SequenceVariant": "SK\\SS",
  "SeriesDescription": "dwi_acq-96dir-6b0-mb",
  "SeriesNumber": 8,
  "ShimSetting": [4248, -7812, -7290, 109, -136, -49, -108, 34],
  "SliceThickness": 1.7,
  "SliceTiming": [0, 2.1225, 0.1525, 2.2725, 0.305, 2.425, 0.455, 2.575, 0.6075, 2.7275, 0.7575, 2.88, 0.91, 3.03, 1.0625, 3.1825, 1.2125, 3.3325, 1.365, 3.485, 1.515, 3.6375, 1.6675, 3.7875, 1.8175, 3.94, 1.97, 0, 2.1225, 0.1525, 2.2725, 0.305, 2.425, 0.455, 2.575, 0.6075, 2.7275, 0.7575, 2.88, 0.91, 3.03, 1.0625, 3.1825, 1.2125, 3.3325, 1.365, 3.485, 1.515, 3.6375, 1.6675, 3.7875, 1.8175, 3.94, 1.97, 0, 2.1225, 0.1525, 2.2725, 0.305, 2.425, 0.455, 2.575, 0.6075, 2.7275, 0.7575, 2.88, 0.91, 3.03, 1.0625, 3.1825, 1.2125, 3.3325, 1.365, 3.485, 1.515, 3.6375, 1.6675, 3.7875, 1.8175, 3.94, 1.97],
  "SoftwareVersions": "syngo MR E11",
  "SpacingBetweenSlices": 1.7,
  "StationName": "AWP66112",
  "TotalReadoutTime": 0.0959097,
  "TxRefAmp": 230.817,
  "WipMemBlock": "4073059f-f7fb-45ee-b98b-406499411f79||Sequence: R016 ve11e/master r/434b28f1; Aug  7 2019 19:06:17 by eja",
  "dcmmeta_affine": [
    [-1.7054797410964966, 0.020242005586624146, 0.1709139049053192, 114.65472412109375],
    [0.06487508863210678, 1.6535024642944336, 0.44403696060180664, -107.52194213867188],
    [0.16095197200775146, -0.45199063420295715, 1.632059931755066, -56.49372100830078],
    [0.0, 0.0, 0.0, 1.0]
],
  "dcmmeta_reorient_transform": [
    [0.0, -1.0, 0.0, 139.0],
    [1.0, 0.0, 0.0, 0.0],
    [0.0, 0.0, 1.0, 0.0],
    [0.0, 0.0, 0.0, 1.0]
],
  "dcmmeta_shape": [140, 140, 81, 103],
  "dcmmeta_slice_dim": 2,
  "dcmmeta_version": 0.6,
  "global": {
    "const": {
      "AccessionNumber": "A004478",
      "AcquisitionMatrix": [140, 0, 0, 140],
      "AngioFlag": "N",
      "BitsAllocated": 16,
      "BitsStored": 16,
      "BodyPartExamined": "BRAIN",
      "Columns": 1260,
      "EchoNumbers": 1,
      "EchoTime": 88.4,
      "EchoTrainLength": 105,
      "FlipAngle": 90.0,
      "HighBit": 15,
      "ImageOrientationPatient": [0.99486319042899, -0.0378438017926, 0.09388865211156, 0.01180783649189, 0.9645430754311, 0.26366120426656],
      "ImagePositionPatient": [-1083.8725574947, -1011.9462064595, -462.5682850648],
      "ImageType": [
        "ORIGINAL",
        "PRIMARY",
        "DIFFUSION",
        "NONE",
        "MB",
        "ND",
        "MOSAIC"
],
      "ImagedNucleus": "1H",
      "ImagingFrequency": 123.259109,
      "InPlanePhaseEncodingDirection": "COL",
      "MRAcquisitionType": "2D",
      "MagneticFieldStrength": 3.0,
      "Manufacturer": "SIEMENS",
      "ManufacturerModelName": "Prisma",
      "Modality": "MR",
      "NumberOfAverages": 1.0,
      "NumberOfPhaseEncodingSteps": 105,
      "PercentPhaseFieldOfView": 100.0,
      "PercentSampling": 100.0,
      "PerformedProcedureStepStartTime": "193430.055000",
      "PhotometricInterpretation": "MONOCHROME2",
      "PixelBandwidth": 1700.0,
      "PixelRepresentation": 0,
      "PixelSpacing": [1.7142857313156, 1.7142857313156],
      "ProtocolName": "dwi_acq-96dir-6b0-mb",
      "RepetitionTime": 4110.0,
      "Rows": 1260,
      "SAR": 0.22058633933674,
      "SamplesPerPixel": 1,
      "ScanOptions": [
        "PFP",
        "FS"
],
      "ScanningSequence": "EP",
      "SequenceVariant": [
        "SK",
        "SS"
],
      "SeriesDescription": "dwi_acq-96dir-6b0-mb",
      "SeriesNumber": 8,
      "SeriesTime": "195411.916000",
      "SliceLocation": -70.793392149469,
      "SliceThickness": 1.7000000476837,
      "SmallestImagePixelValue": 0,
      "SoftwareVersions": "syngo MR E11",
      "SpacingBetweenSlices": 1.7000000110329,
      "SpecificCharacterSet": "ISO_IR 100",
      "StudyID": "1",
      "StudyTime": "193429.908000",
      "TransmitCoilName": "Body",
      "VariableFlipAngleFlag": "N",
      "WindowCenterWidthExplanation": "Algo1"
    },
    "slices": {}
  },
  "time": {
    "samples": {
      "AcquisitionNumber": [1, 2, 3, 4, 5, 6, 7, 8, 9, 10, 11, 12, 13, 14, 15, 16, 17, 18, 19, 20, 21, 22, 23, 24, 25, 26, 27, 28, 29, 30, 31, 32, 33, 34, 35, 36, 37, 38, 39, 40, 41, 42, 43, 44, 45, 46, 47, 48, 49, 50, 51, 52, 53, 54, 55, 56, 57, 58, 59, 60, 61, 62, 63, 64, 65, 66, 67, 68, 69, 70, 71, 72, 73, 74, 75, 76, 77, 78, 79, 80, 81, 82, 83, 84, 85, 86, 87, 88, 89, 90, 91, 92, 93, 94, 95, 96, 97, 98, 99, 100, 101, 102, 103],
      "AcquisitionTime": ["195248.052500", "195252.162500", "195256.272500", "195300.382500", "195304.492500", "195308.602500", "195312.712500", "195316.822500", "195320.932500", "195325.042500", "195329.152500", "195333.262500", "195337.372500", "195341.482500", "195345.592500", "195349.702500", "195353.812500", "195357.922500", "195402.032500", "195406.142500", "195410.252500", "195414.362500", "195418.472500", "195422.582500", "195426.692500", "195430.802500", "195434.912500", "195439.022500", "195443.132500", "195447.242500", "195451.352500", "195455.462500", "195459.572500", "195503.682500", "195507.792500", "195511.902500", "195516.012500", "195520.122500", "195524.232500", "195528.342500", "195532.452500", "195536.562500", "195540.672500", "195544.782500", "195548.892500", "195553.002500", "195557.112500", "195601.222500", "195605.332500", "195609.442500", "195613.552500", "195617.662500", "195621.772500", "195625.882500", "195629.992500", "195634.102500", "195638.212500", "195642.322500", "195646.432500", "195650.542500", "195654.652500", "195658.762500", "195702.872500", "195706.982500", "195711.092500", "195715.202500", "195719.312500", "195723.422500", "195727.532500", "195731.642500", "195735.752500", "195739.862500", "195743.972500", "195748.082500", "195752.192500", "195756.302500", "195800.412500", "195804.522500", "195808.632500", "195812.742500", "195816.852500", "195820.962500", "195825.072500", "195829.182500", "195833.292500", "195837.402500", "195841.512500", "195845.622500", "195849.732500", "195853.842500", "195857.952500", "195902.062500", "195906.172500", "195910.282500", "195914.392500", "195918.502500", "195922.612500", "195926.722500", "195930.832500", "195934.942500", "195939.052500", "195943.162500", "195947.272500"],
      "ContentTime": ["195411.920000", "195411.924000", "195411.927000", "195411.959000", "195411.962000", "195411.965000", "195411.968000", "195411.971000", "195411.974000", "195411.977000", "195411.980000", "195411.983000", "195411.986000", "195411.989000", "195411.992000", "195411.995000", "195411.998000", "195412.002000", "195412.005000", "195412.008000", "195551.915000", "195551.931000", "195551.934000", "195551.937000", "195551.940000", "195551.943000", "195551.946000", "195551.949000", "195551.952000", "195551.955000", "195551.958000", "195551.961000", "195551.964000", "195551.967000", "195551.970000", "195551.973000", "195551.976000", "195551.979000", "195551.982000", "195551.985000", "195551.988000", "195551.991000", "195551.994000", "195551.997000", "195731.915000", "195731.918000", "195731.921000", "195731.924000", "195731.927000", "195731.930000", "195731.933000", "195731.936000", "195731.939000", "195731.942000", "195731.945000", "195731.948000", "195731.951000", "195731.965000", "195731.968000", "195731.971000", "195731.974000", "195731.977000", "195731.980000", "195731.983000", "195731.986000", "195731.989000", "195731.992000", "195731.995000", "195851.915000", "195851.918000", "195851.921000", "195851.924000", "195851.927000", "195851.930000", "195851.933000", "195851.936000", "195851.939000", "195851.942000", "195851.945000", "195851.948000", "195851.951000", "195851.954000", "195851.957000", "195851.960000", "195851.963000", "195851.966000", "195851.969000", "195851.972000", "195952.436000", "195952.440000", "195952.443000", "195952.446000", "195952.449000", "195952.452000", "195952.455000", "195952.458000", "195952.461000", "195952.464000", "195952.467000", "195952.469000", "195952.472000", "195952.475000", "195952.478000"],
      "InstanceCreationTime": ["195411.920000", "195411.924000", "195411.927000", "195411.959000", "195411.962000", "195411.965000", "195411.968000", "195411.971000", "195411.974000", "195411.977000", "195411.980000", "195411.983000", "195411.986000", "195411.989000", "195411.992000", "195411.995000", "195411.998000", "195412.002000", "195412.005000", "195412.008000", "195551.915000", "195551.931000", "195551.934000", "195551.937000", "195551.940000", "195551.943000", "195551.946000", "195551.949000", "195551.952000", "195551.955000", "195551.958000", "195551.961000", "195551.964000", "195551.967000", "195551.970000", "195551.973000", "195551.976000", "195551.979000", "195551.982000", "195551.985000", "195551.988000", "195551.991000", "195551.994000", "195551.997000", "195731.915000", "195731.918000", "195731.921000", "195731.924000", "195731.927000", "195731.930000", "195731.933000", "195731.936000", "195731.939000", "195731.942000", "195731.945000", "195731.948000", "195731.951000", "195731.965000", "195731.968000", "195731.971000", "195731.974000", "195731.977000", "195731.980000", "195731.983000", "195731.986000", "195731.989000", "195731.992000", "195731.995000", "195851.915000", "195851.918000", "195851.921000", "195851.924000", "195851.927000", "195851.930000", "195851.933000", "195851.936000", "195851.939000", "195851.942000", "195851.945000", "195851.948000", "195851.951000", "195851.954000", "195851.957000", "195851.960000", "195851.963000", "195851.966000", "195851.969000", "195851.972000", "195952.436000", "195952.440000", "195952.443000", "195952.446000", "195952.449000", "195952.452000", "195952.455000", "195952.458000", "195952.461000", "195952.464000", "195952.467000", "195952.469000", "195952.472000", "195952.475000", "195952.478000"],
      "InstanceNumber": [1, 2, 3, 4, 5, 6, 7, 8, 9, 10, 11, 12, 13, 14, 15, 16, 17, 18, 19, 20, 21, 22, 23, 24, 25, 26, 27, 28, 29, 30, 31, 32, 33, 34, 35, 36, 37, 38, 39, 40, 41, 42, 43, 44, 45, 46, 47, 48, 49, 50, 51, 52, 53, 54, 55, 56, 57, 58, 59, 60, 61, 62, 63, 64, 65, 66, 67, 68, 69, 70, 71, 72, 73, 74, 75, 76, 77, 78, 79, 80, 81, 82, 83, 84, 85, 86, 87, 88, 89, 90, 91, 92, 93, 94, 95, 96, 97, 98, 99, 100, 101, 102, 103],
      "LargestImagePixelValue": [65535, 65535, 51403, 48988, 49791, 51656, 49187, 48874, 65535, 35933, 36547, 35536, 35110, 33852, 33858, 35530, 35460, 36395, 34333, 33935, 33723, 35143, 36509, 35120, 65535, 18649, 17818, 19489, 14610, 14202, 19656, 18857, 18099, 16036, 17617, 17047, 18347, 16683, 17134, 16300, 65535, 9885, 10150, 11734, 12274, 10171, 9076, 9314, 10482, 10004, 11318, 10550, 10458, 10664, 10757, 10087, 10177, 9800, 10374, 11120, 10684, 10394, 9242, 10195, 9726, 9781, 10344, 9032, 10311, 11302, 11048, 10194, 10076, 65535, 11073, 9736, 11766, 10649, 10704, 10207, 11464, 10365, 8953, 12999, 11764, 12108, 11237, 13485, 12762, 13885, 12864, 10871, 11555, 11203, 11590, 11184, 11291, 11018, 12186, 11772, 11577, 10588, 65535],
      "SequenceName": [
 "ep_b5#1",
 "ep_b5#1",
 "ep_b500#2",
 "ep_b500#3",
 "ep_b500#4",
 "ep_b505#5",
 "ep_b495#6",
 "ep_b500#7",
 "ep_b5#8",
 "ep_b1000#9",
 "ep_b1005#10",
 "ep_b1000#11",
 "ep_b1005#12",
 "ep_b995#13",
 "ep_b995#14",
 "ep_b1005#15",
 "ep_b1000#16",
 "ep_b1000#17",
 "ep_b995#18",
 "ep_b1000#19",
 "ep_b995#20",
 "ep_b1000#21",
 "ep_b1005#22",
 "ep_b1005#23",
 "ep_b5#24",
 "ep_b2000#25",
 "ep_b2000#26",
 "ep_b1995#27",
 "ep_b1995#28",
 "ep_b2005#29",
 "ep_b2010#30",
 "ep_b2005#31",
 "ep_b2005#32",
 "ep_b1995#33",
 "ep_b1990#34",
 "ep_b1995#35",
 "ep_b2005#36",
 "ep_b2000#37",
 "ep_b2010#38",
 "ep_b2000#39",
 "ep_b5#40",
 "ep_b3000#41",
 "ep_b3005#42",
 "ep_b3010#43",
 "ep_b3010#44",
 "ep_b2995#45",
 "ep_b2995#46",
 "ep_b2990#47",
 "ep_b3005#48",
 "ep_b3000#49",
 "ep_b2990#50",
 "ep_b2990#51",
 "ep_b2995#52",
 "ep_b2995#53",
 "ep_b3010#54",
 "ep_b3000#55",
 "ep_b2995#56",
 "ep_b3000#57",
 "ep_b2990#58",
 "ep_b2990#59",
 "ep_b3000#60",
 "ep_b2990#61",
 "ep_b2990#62",
 "ep_b2995#63",
 "ep_b3005#64",
 "ep_b3010#65",
 "ep_b3000#66",
 "ep_b3005#67",
 "ep_b3010#68",
 "ep_b3005#69",
 "ep_b3005#70",
 "ep_b3010#71",
 "ep_b2990#72",
 "ep_b5#73",
 "ep_b3010#74",
 "ep_b3000#75",
 "ep_b3005#76",
 "ep_b3005#77",
 "ep_b2995#78",
 "ep_b3000#79",
 "ep_b2995#80",
 "ep_b3010#81",
 "ep_b3010#82",
 "ep_b3005#83",
 "ep_b2995#84",
 "ep_b3000#85",
 "ep_b3005#86",
 "ep_b3010#87",
 "ep_b2990#88",
 "ep_b3010#89",
 "ep_b2990#90",
 "ep_b2995#91",
 "ep_b2995#92",
 "ep_b2995#93",
 "ep_b3005#94",
 "ep_b3005#95",
 "ep_b2995#96",
 "ep_b3000#97",
 "ep_b2990#98",
 "ep_b3000#99",
 "ep_b3000#100",
 "ep_b2995#101",
 "ep_b5#102"
],
      "WindowCenter": [10267.0, 10254.0, 7314.0, 7345.0, 7281.0, 7293.0, 7381.0, 7322.0, 10244.0, 5559.0, 5567.0, 5556.0, 5491.0, 5583.0, 5556.0, 5542.0, 5633.0, 5632.0, 5573.0, 5529.0, 5627.0, 5580.0, 5570.0, 5611.0, 10244.0, 3506.0, 3513.0, 3556.0, 3330.0, 2850.0, 3208.0, 3554.0, 3558.0, 3574.0, 3575.0, 3527.0, 3497.0, 3587.0, 3554.0, 3350.0, 10084.0, 2364.0, 2435.0, 2501.0, 2557.0, 2489.0, 2530.0, 2495.0, 2501.0, 2417.0, 2490.0, 2481.0, 2473.0, 2476.0, 2513.0, 2430.0, 2445.0, 2520.0, 2499.0, 2506.0, 2531.0, 2459.0, 2507.0, 2533.0, 2554.0, 2505.0, 2457.0, 2474.0, 2489.0, 2483.0, 2469.0, 2559.0, 2515.0, 10235.0, 2520.0, 2459.0, 2429.0, 2485.0, 2487.0, 2488.0, 2480.0, 2482.0, 2487.0, 2501.0, 2505.0, 2299.0, 2467.0, 2487.0, 2509.0, 2501.0, 2522.0, 2488.0, 2472.0, 2502.0, 2484.0, 2490.0, 2601.0, 2473.0, 2523.0, 2471.0, 2453.0, 2495.0, 10155.0],
      "WindowWidth": [23075.0, 23036.0, 15566.0, 15626.0, 15491.0, 15532.0, 15692.0, 15587.0, 22939.0, 11991.0, 12016.0, 11972.0, 11880.0, 12055.0, 12002.0, 11966.0, 12129.0, 12135.0, 12019.0, 11940.0, 12110.0, 12034.0, 12016.0, 12072.0, 22945.0, 7968.0, 7992.0, 8076.0, 7578.0, 6593.0, 7340.0, 8055.0, 8073.0, 8114.0, 8100.0, 8022.0, 7967.0, 8129.0, 8045.0, 7664.0, 22520.0, 5720.0, 5865.0, 5984.0, 6079.0, 5999.0, 6112.0, 6003.0, 6015.0, 5845.0, 5949.0, 5939.0, 5957.0, 5970.0, 6034.0, 5869.0, 5898.0, 6062.0, 5989.0, 5984.0, 6080.0, 5920.0, 6034.0, 6090.0, 6145.0, 6023.0, 5920.0, 5990.0, 5990.0, 5974.0, 5943.0, 6129.0, 6022.0, 22956.0, 6016.0, 5943.0, 5838.0, 5981.0, 5972.0, 5986.0, 5954.0, 5950.0, 6011.0, 5982.0, 6000.0, 5551.0, 5923.0, 5945.0, 6006.0, 5971.0, 6034.0, 5978.0, 5937.0, 6017.0, 5969.0, 5995.0, 6214.0, 5952.0, 6029.0, 5941.0, 5894.0, 6013.0, 22661.0]
    },
    "slices": {}
  }
}