{
  "AcquisitionMatrixPE": 140,
  "AcquisitionNumber": 1,
  "AcquisitionTime": "17:41:1.045000",
  "BandwidthPerPixelPhaseEncode": 10.352,
  "BaseResolution": 140,
  "BodyPartExamined": "BRAIN",
  "ConsistencyInfo": "N4_VE11E_LATEST_20181129",
  "ConversionSoftware": "dcm2niix",
  "ConversionSoftwareVersion": "v1.0.20201102",
  "DerivedVendorReportedEchoSpacing": 0.000689998,
  "DeviceSerialNumber": "66112",
  "DiffusionScheme": "Monopolar",
  "DwellTime": 2.1e-06,
  "EchoTime": 0.088,
  "EchoTrainLength": 105,
  "EffectiveEchoSpacing": 0.000689998,
  "FlipAngle": 90,
  "ImageComments": "Unaliased MB3/PE3",
  "ImageOrientationPatientDICOM": [0.991261, -0.0466579, 0.123389, 0.0396399, 0.997486, 0.0587343],
  "ImageType": [
    "ORIGINAL",
    "PRIMARY",
    "DIFFUSION",
    "NONE",
    "MB",
    "ND"
],
  "ImagingFrequency": 123.259,
  "InPlanePhaseEncodingDirectionDICOM": "COL",
  "InstitutionAddress": "Maynard 3,Hanover,NH,US,03755",
  "InstitutionName": "Dartmouth College - PBS",
  "InstitutionalDepartmentName": "Department",
  "IntendedFor": [
    "ses-01/dwi/sub-0103_ses-01_acq-96dirX6b0Xmb_dwi.nii.gz"
],
  "MRAcquisitionType": "2D",
  "MagneticFieldStrength": 3,
  "Manufacturer": "Siemens",
  "ManufacturersModelName": "Prisma",
  "Modality": "MR",
  "MultibandAccelerationFactor": 3,
  "PartialFourier": 0.75,
  "PatientPosition": "HFS",
  "PercentPhaseFOV": 100,
  "PercentSampling": 100,
  "PhaseEncodingDirection": "j-",
  "PhaseEncodingSteps": 105,
  "PhaseResolution": 1,
  "PixelBandwidth": 1700,
  "ProcedureStepDescription": "Wager_Wager^1076_spacetop",
  "ProtocolName": "dwi_acq-discorr-AP",
  "PulseSequenceDetails": "%CustomerSeq%\\cmrr_mbep2d_diff",
  "ReceiveCoilActiveElements": "HEA;HEP",
  "ReceiveCoilName": "Head_32",
  "ReconMatrixPE": 140,
  "RepetitionTime": 4.1,
  "SAR": 0.138265,
  "ScanOptions": "PFP\\FS",
  "ScanningSequence": "EP",
  "SequenceName": "ep_b0",
  "SequenceVariant": "SK\\SS",
  "SeriesDescription": "dwi_acq-discorr-AP",
  "SeriesNumber": 7,
  "ShimSetting": [4265, -7757, -7223, 166, -83, -79, -100, 34],
  "SliceThickness": 1.7,
  "SliceTiming": [0, 2.10938, 0.15625, 2.26562, 0.29688, 2.42188, 0.45312, 2.5625, 0.60938, 2.71875, 0.75, 2.875, 0.90625, 3.01562, 1.0625, 3.17188, 1.20312, 3.32812, 1.35938, 3.46875, 1.51562, 3.625, 1.65625, 3.78125, 1.8125, 3.92188, 1.96875, 0, 2.10938, 0.15625, 2.26562, 0.29688, 2.42188, 0.45312, 2.5625, 0.60938, 2.71875, 0.75, 2.875, 0.90625, 3.01562, 1.0625, 3.17188, 1.20312, 3.32812, 1.35938, 3.46875, 1.51562, 3.625, 1.65625, 3.78125, 1.8125, 3.92188, 1.96875, 0, 2.10938, 0.15625, 2.26562, 0.29688, 2.42188, 0.45312, 2.5625, 0.60938, 2.71875, 0.75, 2.875, 0.90625, 3.01562, 1.0625, 3.17188, 1.20312, 3.32812, 1.35938, 3.46875, 1.51562, 3.625, 1.65625, 3.78125, 1.8125, 3.92188, 1.96875],
  "SoftwareVersions": "syngo MR E11",
  "SpacingBetweenSlices": 1.7,
  "StationName": "AWP66112",
  "TotalReadoutTime": 0.0959097,
  "TxRefAmp": 235.904,
  "WipMemBlock": "df75f523-17ef-4f0a-bb38-d18d7cef5c0f||Sequence: R016 ve11e/master r/434b28f1; Aug  7 2019 19:06:17 by eja",
  "dcmmeta_affine": [
    [-1.699304461479187, 0.06795409321784973, 0.21389198303222656, 106.88499450683594],
    [0.07998497784137726, 1.7099765539169312, 0.09066009521484375, -90.4173355102539],
    [0.21152345836162567, -0.10068737715482712, 1.684051513671875, -63.2333984375],
    [0.0, 0.0, 0.0, 1.0]
],
  "dcmmeta_reorient_transform": [
    [0.0, -1.0, 0.0, 139.0],
    [1.0, 0.0, 0.0, 0.0],
    [0.0, 0.0, -1.0, 80.0],
    [0.0, 0.0, 0.0, 1.0]
],
  "dcmmeta_shape": [140, 140, 81],
  "dcmmeta_slice_dim": 2,
  "dcmmeta_version": 0.6,
  "global": {
    "const": {
      "AccessionNumber": "A004354",
      "AcquisitionMatrix": [140, 0, 0, 140],
      "AcquisitionNumber": 1,
      "AngioFlag": "N",
      "BitsAllocated": 16,
      "BitsStored": 16,
      "BodyPartExamined": "BRAIN",
      "Columns": 140,
      "EchoNumbers": 1,
      "EchoTime": 88.0,
      "EchoTrainLength": 105,
      "FlipAngle": 90.0,
      "HighBit": 15,
      "ImageOrientationPatient": [0.99126095079151, -0.046657904598, 0.12338868414257, 0.03963988805678, 0.99748632111378, 0.05873430399478],
      "ImageType": [
        "ORIGINAL",
        "PRIMARY",
        "DIFFUSION",
        "NONE",
        "MB",
        "ND"
],
      "ImagedNucleus": "1H",
      "ImagingFrequency": 123.259095,
      "InPlanePhaseEncodingDirection": "COL",
      "MRAcquisitionType": "2D",
      "MagneticFieldStrength": 3.0,
      "Manufacturer": "SIEMENS",
      "ManufacturerModelName": "Prisma",
      "Modality": "MR",
      "NumberOfAverages": 1.0,
      "NumberOfPhaseEncodingSteps": 105,
      "PercentPhaseFieldOfView": 100.0,
      "PercentSampling": 100.0,
      "PerformedProcedureStepStartTime": "172533.920000",
      "PhotometricInterpretation": "MONOCHROME2",
      "PixelBandwidth": 1700.0,
      "PixelRepresentation": 0,
      "PixelSpacing": [1.7142857313156, 1.7142857313156],
      "ProtocolName": "dwi_acq-discorr-AP",
      "RepetitionTime": 4100.0,
      "Rows": 140,
      "SAR": 0.13826547389549,
      "SamplesPerPixel": 1,
      "ScanOptions": [
        "PFP",
        "FS"
],
      "ScanningSequence": "EP",
      "SequenceName": "ep_b0",
      "SequenceVariant": [
        "SK",
        "SS"
],
      "SeriesDescription": "dwi_acq-discorr-AP",
      "SeriesNumber": 7,
      "SeriesTime": "174105.329000",
      "SliceThickness": 1.7000000476837,
      "SmallestImagePixelValue": 0,
      "SoftwareVersions": "syngo MR E11",
      "SpacingBetweenSlices": 1.7,
      "SpecificCharacterSet": "ISO_IR 100",
      "StudyID": "1",
      "StudyTime": "172533.858000",
      "TransmitCoilName": "Body",
      "VariableFlipAngleFlag": "N",
      "WindowCenterWidthExplanation": "Algo1"
    },
    "slices": {
      "AcquisitionTime": ["174101.045000", "174103.160000", "174101.197500", "174103.312500", "174101.347500", "174103.462500", "174101.497500", "174103.615000", "174101.650000", "174103.765000", "174101.800000", "174103.917500", "174101.952500", "174104.067500", "174102.102500", "174104.217500", "174102.255000", "174104.370000", "174102.405000", "174104.520000", "174102.557500", "174104.672500", "174102.707500", "174104.822500", "174102.857500", "174104.975000", "174103.010000", "174101.045000", "174103.160000", "174101.197500", "174103.312500", "174101.347500", "174103.462500", "174101.497500", "174103.615000", "174101.650000", "174103.765000", "174101.800000", "174103.917500", "174101.952500", "174104.067500", "174102.102500", "174104.217500", "174102.255000", "174104.370000", "174102.405000", "174104.520000", "174102.557500", "174104.672500", "174102.707500", "174104.822500", "174102.857500", "174104.975000", "174103.010000", "174101.045000", "174103.160000", "174101.197500", "174103.312500", "174101.347500", "174103.462500", "174101.497500", "174103.615000", "174101.650000", "174103.765000", "174101.800000", "174103.917500", "174101.952500", "174104.067500", "174102.102500", "174104.217500", "174102.255000", "174104.370000", "174102.405000", "174104.520000", "174102.557500", "174104.672500", "174102.707500", "174104.822500", "174102.857500", "174104.975000", "174103.010000"],
      "ContentTime": ["174105.332000", "174105.434000", "174105.338000", "174105.441000", "174105.344000", "174105.447000", "174105.350000", "174105.453000", "174105.356000", "174105.460000", "174105.362000", "174105.467000", "174105.368000", "174105.473000", "174105.374000", "174105.479000", "174105.384000", "174105.485000", "174105.390000", "174105.491000", "174105.396000", "174105.497000", "174105.402000", "174105.505000", "174105.422000", "174105.510000", "174105.428000", "174105.335000", "174105.437000", "174105.340000", "174105.443000", "174105.346000", "174105.449000", "174105.352000", "174105.456000", "174105.358000", "174105.462000", "174105.364000", "174105.468000", "174105.370000", "174105.474000", "174105.376000", "174105.481000", "174105.386000", "174105.487000", "174105.392000", "174105.493000", "174105.398000", "174105.500000", "174105.408000", "174105.506000", "174105.424000", "174105.512000", "174105.430000", "174105.337000", "174105.439000", "174105.342000", "174105.445000", "174105.348000", "174105.451000", "174105.354000", "174105.458000", "174105.360000", "174105.464000", "174105.366000", "174105.471000", "174105.372000", "174105.477000", "174105.378000", "174105.483000", "174105.388000", "174105.489000", "174105.394000", "174105.495000", "174105.400000", "174105.503000", "174105.410000", "174105.508000", "174105.426000", "174105.514000", "174105.432000"],
      "CsaImage.GSWDDataType": [
        "predicted",
        "predicted",
        "predicted",
        "predicted",
        "predicted",
        "predicted",
        "predicted",
        "predicted",
        "predicted",
        "predicted",
        "predicted",
        "predicted",
        "predicted",
        "predicted",
        "predicted",
        "predicted",
        "predicted",
        "predicted",
        "predicted",
        "predicted",
        "predicted",
        "predicted",
        "predicted",
        "measured",
        "predicted",
        "measured",
        "predicted",
        "predicted",
        "predicted",
        "predicted",
        "predicted",
        "predicted",
        "predicted",
        "predicted",
        "predicted",
        "predicted",
        "predicted",
        "predicted",
        "predicted",
        "predicted",
        "predicted",
        "predicted",
        "predicted",
        "predicted",
        "predicted",
        "predicted",
        "predicted",
        "predicted",
        "predicted",
        "predicted",
        "measured",
        "predicted",
        "measured",
        "predicted",
        "predicted",
        "predicted",
        "predicted",
        "predicted",
        "predicted",
        "predicted",
        "predicted",
        "predicted",
        "predicted",
        "predicted",
        "predicted",
        "predicted",
        "predicted",
        "predicted",
        "predicted",
        "predicted",
        "predicted",
        "predicted",
        "predicted",
        "predicted",
        "predicted",
        "predicted",
        "predicted",
        "measured",
        "predicted",
        "measured",
        "predicted"
],
      "CsaImage.ICE_Dims": [
        "X_1_1_1_1_1_1_1_1_1_1_1_209",
        "X_1_1_1_1_1_1_42_1_1_2_1_209",
        "X_1_1_1_1_1_1_2_1_1_3_1_209",
        "X_1_1_1_1_1_1_43_1_1_4_1_209",
        "X_1_1_1_1_1_1_3_1_1_5_1_209",
        "X_1_1_1_1_1_1_44_1_1_6_1_209",
        "X_1_1_1_1_1_1_4_1_1_7_1_209",
        "X_1_1_1_1_1_1_45_1_1_8_1_209",
        "X_1_1_1_1_1_1_5_1_1_9_1_209",
        "X_1_1_1_1_1_1_46_1_1_10_1_209",
        "X_1_1_1_1_1_1_6_1_1_11_1_209",
        "X_1_1_1_1_1_1_47_1_1_12_1_209",
        "X_1_1_1_1_1_1_7_1_1_13_1_209",
        "X_1_1_1_1_1_1_48_1_1_14_1_209",
        "X_1_1_1_1_1_1_8_1_1_15_1_209",
        "X_1_1_1_1_1_1_49_1_1_16_1_209",
        "X_1_1_1_1_1_1_9_1_1_17_1_209",
        "X_1_1_1_1_1_1_50_1_1_18_1_209",
        "X_1_1_1_1_1_1_10_1_1_19_1_209",
        "X_1_1_1_1_1_1_51_1_1_20_1_209",
        "X_1_1_1_1_1_1_11_1_1_21_1_209",
        "X_1_1_1_1_1_1_52_1_1_22_1_209",
        "X_1_1_1_1_1_1_12_1_1_23_1_209",
        "X_1_1_1_1_1_1_53_1_1_24_1_209",
        "X_1_1_1_1_1_1_13_1_1_25_1_209",
        "X_1_1_1_1_1_1_54_1_1_26_1_209",
        "X_1_1_1_1_1_1_14_1_1_27_1_209",
        "X_1_1_1_1_1_1_55_1_1_28_1_209",
        "X_1_1_1_1_1_1_15_1_1_29_1_209",
        "X_1_1_1_1_1_1_56_1_1_30_1_209",
        "X_1_1_1_1_1_1_16_1_1_31_1_209",
        "X_1_1_1_1_1_1_57_1_1_32_1_209",
        "X_1_1_1_1_1_1_17_1_1_33_1_209",
        "X_1_1_1_1_1_1_58_1_1_34_1_209",
        "X_1_1_1_1_1_1_18_1_1_35_1_209",
        "X_1_1_1_1_1_1_59_1_1_36_1_209",
        "X_1_1_1_1_1_1_19_1_1_37_1_209",
        "X_1_1_1_1_1_1_60_1_1_38_1_209",
        "X_1_1_1_1_1_1_20_1_1_39_1_209",
        "X_1_1_1_1_1_1_61_1_1_40_1_209",
        "X_1_1_1_1_1_1_21_1_1_41_1_209",
        "X_1_1_1_1_1_1_62_1_1_42_1_209",
        "X_1_1_1_1_1_1_22_1_1_43_1_209",
        "X_1_1_1_1_1_1_63_1_1_44_1_209",
        "X_1_1_1_1_1_1_23_1_1_45_1_209",
        "X_1_1_1_1_1_1_64_1_1_46_1_209",
        "X_1_1_1_1_1_1_24_1_1_47_1_209",
        "X_1_1_1_1_1_1_65_1_1_48_1_209",
        "X_1_1_1_1_1_1_25_1_1_49_1_209",
        "X_1_1_1_1_1_1_66_1_1_50_1_209",
        "X_1_1_1_1_1_1_26_1_1_51_1_209",
        "X_1_1_1_1_1_1_67_1_1_52_1_209",
        "X_1_1_1_1_1_1_27_1_1_53_1_209",
        "X_1_1_1_1_1_1_68_1_1_54_1_209",
        "X_1_1_1_1_1_1_28_1_1_55_1_209",
        "X_1_1_1_1_1_1_69_1_1_56_1_209",
        "X_1_1_1_1_1_1_29_1_1_57_1_209",
        "X_1_1_1_1_1_1_70_1_1_58_1_209",
        "X_1_1_1_1_1_1_30_1_1_59_1_209",
        "X_1_1_1_1_1_1_71_1_1_60_1_209",
        "X_1_1_1_1_1_1_31_1_1_61_1_209",
        "X_1_1_1_1_1_1_72_1_1_62_1_209",
        "X_1_1_1_1_1_1_32_1_1_63_1_209",
        "X_1_1_1_1_1_1_73_1_1_64_1_209",
        "X_1_1_1_1_1_1_33_1_1_65_1_209",
        "X_1_1_1_1_1_1_74_1_1_66_1_209",
        "X_1_1_1_1_1_1_34_1_1_67_1_209",
        "X_1_1_1_1_1_1_75_1_1_68_1_209",
        "X_1_1_1_1_1_1_35_1_1_69_1_209",
        "X_1_1_1_1_1_1_76_1_1_70_1_209",
        "X_1_1_1_1_1_1_36_1_1_71_1_209",
        "X_1_1_1_1_1_1_77_1_1_72_1_209",
        "X_1_1_1_1_1_1_37_1_1_73_1_209",
        "X_1_1_1_1_1_1_78_1_1_74_1_209",
        "X_1_1_1_1_1_1_38_1_1_75_1_209",
        "X_1_1_1_1_1_1_79_1_1_76_1_209",
        "X_1_1_1_1_1_1_39_1_1_77_1_209",
        "X_1_1_1_1_1_1_80_1_1_78_1_209",
        "X_1_1_1_1_1_1_40_1_1_79_1_209",
        "X_1_1_1_1_1_1_81_1_1_80_1_209",
        "X_1_1_1_1_1_1_41_1_1_81_1_209"
],
      "CsaImage.ProtocolSliceNumber": [0, 1, 2, 3, 4, 5, 6, 7, 8, 9, 10, 11, 12, 13, 14, 15, 16, 17, 18, 19, 20, 21, 22, 23, 24, 25, 26, 27, 28, 29, 30, 31, 32, 33, 34, 35, 36, 37, 38, 39, 40, 41, 42, 43, 44, 45, 46, 47, 48, 49, 50, 51, 52, 53, 54, 55, 56, 57, 58, 59, 60, 61, 62, 63, 64, 65, 66, 67, 68, 69, 70, 71, 72, 73, 74, 75, 76, 77, 78, 79, 80],
      "CsaImage.RFSWDDataType": [
        "predicted",
        "predicted",
        "predicted",
        "predicted",
        "predicted",
        "predicted",
        "predicted",
        "predicted",
        "predicted",
        "predicted",
        "predicted",
        "predicted",
        "predicted",
        "predicted",
        "predicted",
        "predicted",
        "predicted",
        "predicted",
        "predicted",
        "predicted",
        "predicted",
        "predicted",
        "predicted",
        "measured",
        "predicted",
        "measured",
        "predicted",
        "predicted",
        "predicted",
        "predicted",
        "predicted",
        "predicted",
        "predicted",
        "predicted",
        "predicted",
        "predicted",
        "predicted",
        "predicted",
        "predicted",
        "predicted",
        "predicted",
        "predicted",
        "predicted",
        "predicted",
        "predicted",
        "predicted",
        "predicted",
        "predicted",
        "predicted",
        "predicted",
        "measured",
        "predicted",
        "measured",
        "predicted",
        "predicted",
        "predicted",
        "predicted",
        "predicted",
        "predicted",
        "predicted",
        "predicted",
        "predicted",
        "predicted",
        "predicted",
        "predicted",
        "predicted",
        "predicted",
        "predicted",
        "predicted",
        "predicted",
        "predicted",
        "predicted",
        "predicted",
        "predicted",
        "predicted",
        "predicted",
        "predicted",
        "measured",
        "predicted",
        "measured",
        "predicted"
],
      "CsaImage.SlicePosition_PCS": [
        [-116.33059897, -147.26934825, -77.22896915],
        [-116.54449096, -147.36000834, -75.54491764],
        [-116.75838342, -147.45066844, -73.86086612],
        [-116.9722754, -147.54133235, -72.17681461],
        [-117.18616786, -147.63199244, -70.4927631],
        [-117.40005984, -147.72265254, -68.80871158],
        [-117.61395182, -147.81331264, -67.12466007],
        [-117.82784428, -147.90397273, -65.44060474],
        [-118.04173627, -147.99463664, -63.75655323],
        [-118.25562873, -148.08529674, -62.07250171],
        [-118.46952071, -148.17595683, -60.3884502],
        [-118.68341317, -148.26661693, -58.70439869],
        [-118.89730515, -148.35727702, -57.02034717],
        [-119.11119761, -148.44794093, -55.33629566],
        [-119.3250896, -148.53860103, -53.65224415],
        [-119.53898206, -148.62926112, -51.96819072],
        [-119.75287404, -148.71992122, -50.28413921],
        [-119.96676626, -148.81058131, -48.6000877],
        [-120.18065848, -148.90124522, -46.91603618],
        [-120.3945507, -148.99190532, -45.23198467],
        [-120.60844292, -149.08256541, -43.54793125],
        [-120.82233515, -149.17322551, -41.86387973],
        [-121.03622737, -149.2638856, -40.17982822],
        [-121.25011959, -149.35454951, -38.49577671],
        [-121.46401157, -149.44520961, -36.81172424],
        [-121.67790379, -149.5358697, -35.12767273],
        [-121.89179613, -149.6265298, -33.44362026],
        [-122.10568836, -149.71718989, -31.75956875],
        [-122.31958046, -149.80784999, -30.07551723],
        [-122.53347268, -149.8985139, -28.39146476],
        [-122.7473649, -149.98917399, -26.70741325],
        [-122.96125712, -150.07983409, -25.02336126],
        [-123.17514928, -150.17049418, -23.33930939],
        [-123.38904151, -150.26115428, -21.65525746],
        [-123.60293372, -150.35181819, -19.97120553],
        [-123.81682592, -150.44247828, -18.28715377],
        [-124.03071811, -150.53313838, -16.60310178],
        [-124.24461033, -150.62379847, -14.91904979],
        [-124.45850255, -150.71445857, -13.23499828],
        [-124.67239471, -150.80512248, -11.55094581],
        [-124.886287, -150.89578258, -9.8668943],
        [-125.1001791, -150.98644267, -8.18284279],
        [-125.31407132, -151.07710277, -6.49879032],
        [-125.52796354, -151.16776286, -4.8147388],
        [-125.74185576, -151.25842677, -3.13068729],
        [-125.95574798, -151.34908687, -1.44663578],
        [-126.16964021, -151.43974696, 0.23741764],
        [-126.38353243, -151.53040706, 1.92146916],
        [-126.59742465, -151.62106715, 3.60552067],
        [-126.81131687, -151.71173106, 5.28957218],
        [-127.02520885, -151.80239116, 6.9736237],
        [-127.23910107, -151.89305125, 8.65767712],
        [-127.4529933, -151.98371135, 10.34172863],
        [-127.66688552, -152.07437144, 12.02578015],
        [-127.88077798, -152.16503535, 13.70983166],
        [-128.09466996, -152.25569545, 15.39388317],
        [-128.30856242, -152.34635554, 17.07793469],
        [-128.5224544, -152.43701564, 18.7619862],
        [-128.73634639, -152.52767573, 20.44603772],
        [-128.95023885, -152.61833964, 22.13009304],
        [-129.16413083, -152.70899974, 23.81414456],
        [-129.37802329, -152.79965983, 25.49819607],
        [-129.59191527, -152.89031993, 27.18224758],
        [-129.80580773, -152.98098002, 28.8662991],
        [-130.01969971, -153.07164393, 30.55035061],
        [-130.23359217, -153.16230403, 32.23440213],
        [-130.44748416, -153.25296412, 33.91845364],
        [-130.66137662, -153.34362422, 35.60250515],
        [-130.8752686, -153.43428431, 37.28655667],
        [-131.08916106, -153.52494822, 38.97061199],
        [-131.30305304, -153.61560832, 40.65466351],
        [-131.51694503, -153.70626842, 42.33871502],
        [-131.73083749, -153.79692851, 44.02276654],
        [-131.94472947, -153.88758861, 45.70681805],
        [-132.15862145, -153.97825252, 47.39086956],
        [-132.37251439, -154.06891261, 49.07492108],
        [-132.58640637, -154.15957271, 50.75897259],
        [-132.80029836, -154.2502328, 52.4430241],
        [-133.01419034, -154.3408929, 54.12707562],
        [-133.22808328, -154.43155681, 55.81112713],
        [-133.44197526, -154.5222169, 57.49517865]
],
      "CsaImage.TimeAfterStart": [16.4, 18.515, 16.55, 18.6675, 16.7025, 18.8175, 16.8525, 18.9675, 17.005, 19.12, 17.155, 19.27, 17.3075, 19.4225, 17.4575, 19.5725, 17.6075, 19.725, 17.76, 19.875, 17.91, 20.0275, 18.0625, 20.1775, 18.2125, 20.3275, 18.365, 16.4, 18.515, 16.55, 18.6675, 16.7025, 18.8175, 16.8525, 18.9675, 17.005, 19.12, 17.155, 19.27, 17.3075, 19.4225, 17.4575, 19.5725, 17.6075, 19.725, 17.76, 19.875, 17.91, 20.0275, 18.0625, 20.1775, 18.2125, 20.3275, 18.365, 16.4, 18.515, 16.55, 18.6675, 16.7025, 18.8175, 16.8525, 18.9675, 17.005, 19.12, 17.155, 19.27, 17.3075, 19.4225, 17.4575, 19.5725, 17.6075, 19.725, 17.76, 19.875, 17.91, 20.0275, 18.0625, 20.1775, 18.2125, 20.3275, 18.365],
      "ImagePositionPatient": [
        [-116.33059897248, -147.26934824915, -77.228969151255],
        [-116.54449095551, -147.36000834437, -75.544917637583],
        [-116.75838341538, -147.45066843958, -73.860866123911],
        [-116.97227539842, -147.54133234949, -72.176814610239],
        [-117.18616785828, -147.63199244471, -70.492763096567],
        [-117.40005984132, -147.72265253992, -68.808711582896],
        [-117.61395182435, -147.81331263514, -67.124660069224],
        [-117.82784428422, -147.90397273035, -65.440604740855],
        [-118.04173626725, -147.99463664027, -63.756553227183],
        [-118.25562872712, -148.08529673548, -62.072501713511],
        [-118.46952071015, -148.1759568307, -60.388450199839],
        [-118.68341317002, -148.26661692591, -58.704398686167],
        [-118.89730515305, -148.35727702113, -57.020347172495],
        [-119.11119761292, -148.44794093104, -55.336295658823],
        [-119.32508959596, -148.53860102625, -53.652244145151],
        [-119.53898205582, -148.62926112147, -51.968190724131],
        [-119.75287403886, -148.71992121668, -50.284139210459],
        [-119.96676626031, -148.8105813119, -48.600087696787],
        [-120.18065848176, -148.90124522181, -46.916036183115],
        [-120.39455070321, -148.99190531702, -45.231984669443],
        [-120.60844292466, -149.08256541224, -43.547931248423],
        [-120.82233514611, -149.17322550745, -41.863879734751],
        [-121.03622736756, -149.26388560267, -40.179828221079],
        [-121.25011958901, -149.35454951258, -38.495776707407],
        [-121.46401157204, -149.4452096078, -36.811724240061],
        [-121.6779037935, -149.53586970301, -35.127672726389],
        [-121.89179613416, -149.62652979823, -33.443620259043],
        [-122.10568835561, -149.71718989344, -31.759568745371],
        [-122.31958045785, -149.80784998866, -30.075517231699],
        [-122.5334726793, -149.89851389857, -28.391464764353],
        [-122.74736490075, -149.98917399378, -26.707413250681],
        [-122.9612571222, -150.079834089, -25.023361260172],
        [-123.17514928405, -150.17049418421, -23.339309388872],
        [-123.3890415055, -150.26115427943, -21.655257457968],
        [-123.6029337195, -150.35181818934, -19.971205527064],
        [-123.8168259186, -150.44247828455, -18.287153774973],
        [-124.03071811025, -150.53313837977, -16.603101784464],
        [-124.2446103317, -150.62379847498, -14.919049793955],
        [-124.45850255315, -150.7144585702, -13.234998280283],
        [-124.67239471499, -150.80512248011, -11.550945812937],
        [-124.88628699605, -150.89578257533, -9.8668942992652],
        [-125.10017909829, -150.98644267054, -8.1828427855933],
        [-125.31407131974, -151.07710276575, -6.4987903182471],
        [-125.52796354119, -151.16776286097, -4.8147388045752],
        [-125.74185576264, -151.25842677088, -3.1306872909034],
        [-125.95574798409, -151.3490868661, -1.4466357772315],
        [-126.16964020554, -151.43974696131, 0.23741764378901],
        [-126.38353242699, -151.53040705653, 1.9214691574609],
        [-126.59742464845, -151.62106715174, 3.6055206711328],
        [-126.8113168699, -151.71173106165, 5.2895721848046],
        [-127.02520885293, -151.80239115687, 6.9736236984765],
        [-127.23910107438, -151.89305125208, 8.657677119497],
        [-127.45299329583, -151.9837113473, 10.341728633169],
        [-127.66688551728, -152.07437144251, 12.025780146841],
        [-127.88077797715, -152.16503535242, 13.709831660513],
        [-128.09466996018, -152.25569544764, 15.393883174185],
        [-128.30856242005, -152.34635554285, 17.077934687856],
        [-128.52245440308, -152.43701563807, 18.761986201528],
        [-128.73634638612, -152.52767573328, 20.4460377152],
        [-128.95023884599, -152.6183396432, 22.130093043569],
        [-129.16413082902, -152.70899973841, 23.814144557241],
        [-129.37802328889, -152.79965983363, 25.498196070913],
        [-129.59191527192, -152.89031992884, 27.182247584585],
        [-129.80580773179, -152.98098002406, 28.866299098257],
        [-130.01969971482, -153.07164393397, 30.550350611929],
        [-130.23359217469, -153.16230402918, 32.234402125601],
        [-130.44748415772, -153.2529641244, 33.918453639272],
        [-130.66137661759, -153.34362421961, 35.602505152944],
        [-130.87526860062, -153.43428431483, 37.286556666616],
        [-131.08916106049, -153.52494822474, 38.970611994985],
        [-131.30305304353, -153.61560831995, 40.654663508657],
        [-131.51694502656, -153.70626841517, 42.338715022329],
        [-131.73083748643, -153.79692851038, 44.022766536001],
        [-131.94472946946, -153.8875886056, 45.706818049673],
        [-132.15862145249, -153.97825251551, 47.390869563345],
        [-132.3725143892, -154.06891261073, 49.074921077017],
        [-132.58640637223, -154.15957270594, 50.758972590688],
        [-132.80029835526, -154.25023280116, 52.44302410436],
        [-133.0141903383, -154.34089289637, 54.127075618032],
        [-133.228083275, -154.43155680628, 55.811127131704],
        [-133.44197525803, -154.5222169015, 57.495178645376]
],
      "InstanceCreationTime": ["174105.332000", "174105.434000", "174105.338000", "174105.441000", "174105.344000", "174105.447000", "174105.350000", "174105.453000", "174105.356000", "174105.460000", "174105.362000", "174105.467000", "174105.368000", "174105.473000", "174105.374000", "174105.479000", "174105.384000", "174105.485000", "174105.390000", "174105.491000", "174105.396000", "174105.497000", "174105.402000", "174105.505000", "174105.422000", "174105.510000", "174105.428000", "174105.335000", "174105.437000", "174105.340000", "174105.443000", "174105.346000", "174105.449000", "174105.352000", "174105.456000", "174105.358000", "174105.462000", "174105.364000", "174105.468000", "174105.370000", "174105.474000", "174105.376000", "174105.481000", "174105.386000", "174105.487000", "174105.392000", "174105.493000", "174105.398000", "174105.500000", "174105.408000", "174105.506000", "174105.424000", "174105.512000", "174105.430000", "174105.337000", "174105.439000", "174105.342000", "174105.445000", "174105.348000", "174105.451000", "174105.354000", "174105.458000", "174105.360000", "174105.464000", "174105.366000", "174105.471000", "174105.372000", "174105.477000", "174105.378000", "174105.483000", "174105.388000", "174105.489000", "174105.394000", "174105.495000", "174105.400000", "174105.503000", "174105.410000", "174105.508000", "174105.426000", "174105.514000", "174105.432000"],
      "InstanceNumber": [1, 2, 3, 4, 5, 6, 7, 8, 9, 10, 11, 12, 13, 14, 15, 16, 17, 18, 19, 20, 21, 22, 23, 24, 25, 26, 27, 28, 29, 30, 31, 32, 33, 34, 35, 36, 37, 38, 39, 40, 41, 42, 43, 44, 45, 46, 47, 48, 49, 50, 51, 52, 53, 54, 55, 56, 57, 58, 59, 60, 61, 62, 63, 64, 65, 66, 67, 68, 69, 70, 71, 72, 73, 74, 75, 76, 77, 78, 79, 80, 81],
      "LargestImagePixelValue": [19493, 26720, 25562, 21774, 24293, 27369, 35280, 36408, 35805, 45533, 39175, 36835, 33829, 32601, 25341, 24752, 21687, 30063, 34884, 45319, 57335, 65535, 59450, 41777, 44539, 30766, 29475, 31218, 31404, 35438, 40527, 42690, 45076, 40951, 39232, 26821, 26066, 27390, 34382, 35159, 36283, 34422, 35120, 40657, 43374, 41747, 38153, 35497, 35435, 39937, 42494, 36340, 36486, 38055, 35643, 37592, 35827, 42894, 40889, 46395, 38657, 39980, 37803, 55853, 60760, 41578, 49170, 47631, 44873, 47757, 42654, 35288, 39057, 37984, 41489, 59681, 31311, 10694, 8772, 8538, 10141],
      "SliceLocation": [-54.014011141991, -52.314011573177, -50.614011944367, -48.914012172115, -47.214012543305, -45.514012974491, -43.814013405676, -42.114009997956, -40.414010225704, -38.714010596894, -37.014011028079, -35.31401139927, -33.614011830455, -31.914011998208, -30.214012429393, -28.514010911128, -26.814011342314, -25.114011743501, -23.414011941252, -21.71401234244, -20.014010854172, -18.31401125536, -16.614011656548, -14.914011854298, -13.214011340756, -11.514011741944, -9.8140111834051, -8.1140115845929, -6.4140120007795, -4.7140112538023, -3.0140116549901, -1.3140115838141, 0.38598836177154, 2.0859883739021, 3.7859885885326, 5.4859884207144, 7.1859884881407, 8.8859885593167, 10.585988158129, 12.285988897607, 13.985988503918, 15.685988087732, 17.385988631272, 19.085988230084, 20.785988032333, 22.485987631145, 24.185989119413, 25.885988718225, 27.585988317037, 29.285988119287, 30.985987688102, 32.685989176369, 34.385988775181, 36.085988373993, 37.785988206241, 39.485987775055, 41.185987403865, 42.885986972679, 44.585986541494, 46.285990152652, 47.985989721466, 49.685989350276, 51.385988919091, 53.085988547901, 54.785988320153, 56.485987948962, 58.185987517777, 59.885987146587, 61.585986715401, 63.285990326559, 64.985989895374, 66.685989464188, 68.385989092998, 70.085988661813, 71.785988434065, 73.48598812287, 75.185987691684, 76.885987260499, 78.585986829313, 80.285986721556, 81.98598629037],
