{
  "AcquisitionMatrixPE": 82,
  "AcquisitionNumber": 1,
  "AcquisitionTime": "11:51:4.952500",
  "BandwidthPerPixelPhaseEncode": 24.888,
  "BaseResolution": 82,
  "BodyPartExamined": "BRAIN",
  "ConsistencyInfo": "N4_VE11C_LATEST_20160120",
  "ConversionSoftware": "dcm2niix",
  "ConversionSoftwareVersion": "v1.0.20201102",
  "DerivedVendorReportedEchoSpacing": 0.00049,
  "DeviceSerialNumber": "66112",
  "DwellTime": 2e-06,
  "EchoTime": 0.0272,
  "EchoTrainLength": 82,
  "EffectiveEchoSpacing": 0.00049,
  "FlipAngle": 44,
  "ImageComments": "Unaliased MB8/PE3",
  "ImageOrientationPatientDICOM": [0.996126, 0.0875468, 0.00822924, -0.0876753, 0.981696, 0.169073],
  "ImageType": [
    "ORIGINAL",
    "PRIMARY",
    "M",
    "MB",
    "ND",
    "NORM",
    "MOSAIC"
],
  "ImagingFrequency": 123.252,
  "InPlanePhaseEncodingDirectionDICOM": "COL",
  "InstitutionAddress": "Maynard 3,Hanover,NH,US,03755",
  "InstitutionName": "Dartmouth College - PBS",
  "InstitutionalDepartmentName": "Department",
  "MRAcquisitionType": "2D",
  "MagneticFieldStrength": 3,
  "Manufacturer": "Siemens",
  "ManufacturersModelName": "Prisma",
  "Modality": "MR",
  "MultibandAccelerationFactor": 8,
  "PartialFourier": 1,
  "PatientPosition": "HFS",
  "PercentPhaseFOV": 100,
  "PercentSampling": 100,
  "PhaseEncodingDirection": "j-",
  "PhaseEncodingSteps": 82,
  "PhaseResolution": 1,
  "PixelBandwidth": 3050,
  "ProcedureStepDescription": "Wager_Wager^1076_spacetop",
  "ProtocolName": "func_run-06_task-social_acq-ap-mb8",
  "PulseSequenceDetails": "%CustomerSeq%\\cmrr_mbep2d_bold",
  "ReceiveCoilActiveElements": "HEA;HEP",
  "ReceiveCoilName": "Head_32",
  "ReconMatrixPE": 82,
  "RepetitionTime": 0.46,
  "SAR": 0.101686,
  "ScanOptions": "FS",
  "ScanningSequence": "EP",
  "SequenceName": "epfid2d1_82",
  "SequenceVariant": "SK\\SS",
  "SeriesDescription": "func_run-06_task-social_acq-ap-mb8",
  "SeriesNumber": 18,
  "ShimSetting": [4147, -7813, -7176, 518, -44, -231, 122, -1],
  "SliceThickness": 2.7,
  "SliceTiming": [0, 0.25, 0.0625, 0.3125, 0.125, 0.375, 0.1875, 0, 0.25, 0.0625, 0.3125, 0.125, 0.375, 0.1875, 0, 0.25, 0.0625, 0.3125, 0.125, 0.375, 0.1875, 0, 0.25, 0.0625, 0.3125, 0.125, 0.375, 0.1875, 0, 0.25, 0.0625, 0.3125, 0.125, 0.375, 0.1875, 0, 0.25, 0.0625, 0.3125, 0.125, 0.375, 0.1875, 0, 0.25, 0.0625, 0.3125, 0.125, 0.375, 0.1875, 0, 0.25, 0.0625, 0.3125, 0.125, 0.375, 0.1875],
  "SoftwareVersions": "syngo MR E11",
  "SpacingBetweenSlices": 2.7,
  "StationName": "AWP66112",
  "TaskName": "social",
  "TotalReadoutTime": 0.03969,
  "TxRefAmp": 265.328,
  "WipMemBlock": "2556964a-0988-46ad-932f-4dd9dbfe677d||Sequence: R016 ve11c/master r/e634e98; Dec 19 2017 11:00:25 by eja",
  "dcmmeta_affine": [
    [-2.672534465789795, -0.23522651195526123, -0.018152572214603424, 123.28961181640625],
    [-0.2348816990852356, 2.633819103240967, 0.45667657256126404, -76.55280303955078],
    [0.022078460082411766, -0.4536101818084717, 2.661036729812622, -27.590028762817383],
    [0.0, 0.0, 0.0, 1.0]
],
  "dcmmeta_reorient_transform": [
    [0.0, -1.0, 0.0, 81.0],
    [1.0, 0.0, 0.0, 0.0],
    [0.0, 0.0, 1.0, 0.0],
    [0.0, 0.0, 0.0, 1.0]
],
  "dcmmeta_shape": [82, 82, 56, 872],
  "dcmmeta_slice_dim": 2,
  "dcmmeta_version": 0.6,
  "global": {
    "const": {
      "AccessionNumber": "A003849",
      "AcquisitionMatrix": [82, 0, 0, 82],
      "AngioFlag": "N",
      "BitsAllocated": 16,
      "BitsStored": 16,
      "BodyPartExamined": "BRAIN",
      "Columns": 656,
      "EchoNumbers": 1,
      "EchoTime": 27.2,
      "EchoTrainLength": 82,
      "FlipAngle": 44.0,
      "HighBit": 15,
      "ImageOrientationPatient": [0.99612641521514, 0.08754681292192, 0.00822924406265, -0.0876753319321, 0.98169618264109, 0.16907288711829],
      "ImagePositionPatient": [-803.74361535833, -960.10366787049, -200.85509897728],
      "ImageType": [
        "ORIGINAL",
        "PRIMARY",
        "M",
        "MB",
        "ND",
        "NORM",
        "MOSAIC"
],
      "ImagedNucleus": "1H",
      "ImagingFrequency": 123.252115,
      "InPlanePhaseEncodingDirection": "COL",
      "MRAcquisitionType": "2D",
      "MagneticFieldStrength": 3.0,
      "Manufacturer": "SIEMENS",
      "ManufacturerModelName": "Prisma",
      "Modality": "MR",
      "NumberOfAverages": 1.0,
      "NumberOfPhaseEncodingSteps": 82,
      "PercentPhaseFieldOfView": 100.0,
      "PercentSampling": 100.0,
      "PerformedProcedureStepStartTime": "103842.172000",
      "PhotometricInterpretation": "MONOCHROME2",
      "PixelBandwidth": 3050.0,
      "PixelRepresentation": 0,
      "PixelSpacing": [2.6829268932343, 2.6829268932343],
      "ProtocolName": "func_run-06_task-social_acq-ap-mb8",
      "RepetitionTime": 460.0,
      "Rows": 656,
      "SAR": 0.10168632623559,
      "SamplesPerPixel": 1,
      "ScanOptions": "FS",
      "ScanningSequence": "EP",
      "SequenceName": "epfid2d1_82",
      "SequenceVariant": [
        "SK",
        "SS"
],
      "SeriesDescription": "func_run-06_task-social_acq-ap-mb8",
      "SeriesNumber": 18,
      "SeriesTime": "115125.851000",
      "SliceLocation": -40.968881003997,
      "SliceThickness": 2.7000000476837,
      "SmallestImagePixelValue": 0,
      "SoftwareVersions": "syngo MR E11",
      "SpacingBetweenSlices": 2.6999999284667,
      "SpecificCharacterSet": "ISO_IR 100",
      "StudyID": "1",
      "StudyTime": "103842.038000",
      "TransmitCoilName": "Body",
      "VariableFlipAngleFlag": "N",
      "WindowCenterWidthExplanation": "Algo1",
      "dBdt": 0.0},
    "slices": {}
  },
  "time": {
    "samples": {
      "AcquisitionNumber": [1, 2, 3, 4, 5, 6, 7, 8, 9, 10, 11, 12, 13, 14, 15, 16, 17, 18, 19, 20, 21, 22, 23, 24, 25, 26, 27, 28, 29, 30, 31, 32, 33, 34, 35, 36, 37, 38, 39, 40, 41, 42, 43, 44, 45, 46, 47, 48, 49, 50, 51, 52, 53, 54, 55, 56, 57, 58, 59, 60, 61, 62, 63, 64, 65, 66, 67, 68, 69, 70, 71, 72, 73, 74, 75, 76, 77, 78, 79, 80, 81, 82, 83, 84, 85, 86, 87, 88, 89, 90, 91, 92, 93, 94, 95, 96, 97, 98, 99, 100, 101, 102, 103, 104, 105, 106, 107, 108, 109, 110, 111, 112, 113, 114, 115, 116, 117, 118, 119, 120, 121, 122, 123, 124, 125, 126, 127, 128, 129, 130, 131, 132, 133, 134, 135, 136, 137, 138, 139, 140, 141, 142, 143, 144, 145, 146, 147, 148, 149, 150, 151, 152, 153, 154, 155, 156, 157, 158, 159, 160, 161, 162, 163, 164, 165, 166, 167, 168, 169, 170, 171, 172, 173, 174, 175, 176, 177, 178, 179, 180, 181, 182, 183, 184, 185, 186, 187, 188, 189, 190, 191, 192, 193, 194, 195, 196, 197, 198, 199, 200, 201, 202, 203, 204, 205, 206, 207, 208, 209, 210, 211, 212, 213, 214, 215, 216, 217, 218, 219, 220, 221, 222, 223, 224, 225, 226, 227, 228, 229, 230, 231, 232, 233, 234, 235, 236, 237, 238, 239, 240, 241, 242, 243, 244, 245, 246, 247, 248, 249, 250, 251, 252, 253, 254, 255, 256, 257, 258, 259, 260, 261, 262, 263, 264, 265, 266, 267, 268, 269, 270, 271, 272, 273, 274, 275, 276, 277, 278, 279, 280, 281, 282, 283, 284, 285, 286, 287, 288, 289, 290, 291, 292, 293, 294, 295, 296, 297, 298, 299, 300, 301, 302, 303, 304, 305, 306, 307, 308, 309, 310, 311, 312, 313, 314, 315, 316, 317, 318, 319, 320, 321, 322, 323, 324, 325, 326, 327, 328, 329, 330, 331, 332, 333, 334, 335, 336, 337, 338, 339, 340, 341, 342, 343, 344, 345, 346, 347, 348, 349, 350, 351, 352, 353, 354, 355, 356, 357, 358, 359, 360, 361, 362, 363, 364, 365, 366, 367, 368, 369, 370, 371, 372, 373, 374, 375, 376, 377, 378, 379, 380, 381, 382, 383, 384, 385, 386, 387, 388, 389, 390, 391, 392, 393, 394, 395, 396, 397, 398, 399, 400, 401, 402, 403, 404, 405, 406, 407, 408, 409, 410, 411, 412, 413, 414, 415, 416, 417, 418, 419, 420, 421, 422, 423, 424, 425, 426, 427, 428, 429, 430, 431, 432, 433, 434, 435, 436, 437, 438, 439, 440, 441, 442, 443, 444, 445, 446, 447, 448, 449, 450, 451, 452, 453, 454, 455, 456, 457, 458, 459, 460, 461, 462, 463, 464, 465, 466, 467, 468, 469, 470, 471, 472, 473, 474, 475, 476, 477, 478, 479, 480, 481, 482, 483, 484, 485, 486, 487, 488, 489, 490, 491, 492, 493, 494, 495, 496, 497, 498, 499, 500, 501, 502, 503, 504, 505, 506, 507, 508, 509, 510, 511, 512, 513, 514, 515, 516, 517, 518, 519, 520, 521, 522, 523, 524, 525, 526, 527, 528, 529, 530, 531, 532, 533, 534, 535, 536, 537, 538, 539, 540, 541, 542, 543, 544, 545, 546, 547, 548, 549, 550, 551, 552, 553, 554, 555, 556, 557, 558, 559, 560, 561, 562, 563, 564, 565, 566, 567, 568, 569, 570, 571, 572, 573, 574, 575, 576, 577, 578, 579, 580, 581, 582, 583, 584, 585, 586, 587, 588, 589, 590, 591, 592, 593, 594, 595, 596, 597, 598, 599, 600, 601, 602, 603, 604, 605, 606, 607, 608, 609, 610, 611, 612, 613, 614, 615, 616, 617, 618, 619, 620, 621, 622, 623, 624, 625, 626, 627, 628, 629, 630, 631, 632, 633, 634, 635, 636, 637, 638, 639, 640, 641, 642, 643, 644, 645, 646, 647, 648, 649, 650, 651, 652, 653, 654, 655, 656, 657, 658, 659, 660, 661, 662, 663, 664, 665, 666, 667, 668, 669, 670, 671, 672, 673, 674, 675, 676, 677, 678, 679, 680, 681, 682, 683, 684, 685, 686, 687, 688, 689, 690, 691, 692, 693, 694, 695, 696, 697, 698, 699, 700, 701, 702, 703, 704, 705, 706, 707, 708, 709, 710, 711, 712, 713, 714, 715, 716, 717, 718, 719, 720, 721, 722, 723, 724, 725, 726, 727, 728, 729, 730, 731, 732, 733, 734, 735, 736, 737, 738, 739, 740, 741, 742, 743, 744, 745, 746, 747, 748, 749, 750, 751, 752, 753, 754, 755, 756, 757, 758, 759, 760, 761, 762, 763, 764, 765, 766, 767, 768, 769, 770, 771, 772, 773, 774, 775, 776, 777, 778, 779, 780, 781, 782, 783, 784, 785, 786, 787, 788, 789, 790, 791, 792, 793, 794, 795, 796, 797, 798, 799, 800, 801, 802, 803, 804, 805, 806, 807, 808, 809, 810, 811, 812, 813, 814, 815, 816, 817, 818, 819, 820, 821, 822, 823, 824, 825, 826, 827, 828, 829, 830, 831, 832, 833, 834, 835, 836, 837, 838, 839, 840, 841, 842, 843, 844, 845, 846, 847, 848, 849, 850, 851, 852, 853, 854, 855, 856, 857, 858, 859, 860, 861, 862, 863, 864, 865, 866, 867, 868, 869, 870, 871, 872],
      "AcquisitionTime": ["115104.952500", "115105.412500", "115105.872500", "115106.332500", "115106.792500", "115107.252500", "115107.712500", "115108.172500", "115108.632500", "115109.092500", "115109.552500", "115110.012500", "115110.472500", "115110.932500", "115111.392500", "115111.852500", "115112.312500", "115112.772500", "115113.232500", "115113.692500", "115114.152500", "115114.612500", "115115.072500", "115115.532500", "115115.992500", "115116.452500", "115116.912500", "115117.372500", "115117.832500", "115118.292500", "115118.752500", "115119.212500", "115119.672500", "115120.132500", "115120.592500", "115121.052500", "115121.512500", "115121.972500", "115122.432500", "115122.892500", "115123.352500", "115123.812500", "115124.272500", "115124.732500", "115125.192500", "115125.652500", "115126.112500", "115126.572500", "115127.032500", "115127.492500", "115127.952500", "115128.412500", "115128.872500", "115129.332500", "115129.792500", "115130.252500", "115130.712500", "115131.172500", "115131.632500", "115132.092500", "115132.552500", "115133.012500", "115133.472500", "115133.932500", "115134.392500", "115134.852500", "115135.312500", "115135.772500", "115136.232500", "115136.692500", "115137.152500", "115137.612500", "115138.072500", "115138.532500", "115138.992500", "115139.452500", "115139.912500", "115140.372500", "115140.832500", "115141.292500", "115141.752500", "115142.212500", "115142.672500", "115143.132500", "115143.592500", "115144.052500", "115144.512500", "115144.972500", "115145.432500", "115145.892500", "115146.352500", "115146.812500", "115147.272500", "115147.732500", "115148.192500", "115148.652500", "115149.112500", "115149.572500", "115150.032500", "115150.492500", "115150.952500", "115151.412500", "115151.872500", "115152.332500", "115152.792500", "115153.252500", "115153.712500", "115154.172500", "115154.632500", "115155.092500", "115155.552500", "115156.012500", "115156.472500", "115156.932500", "115157.392500", "115157.852500", "115158.312500", "115158.772500", "115159.232500", "115159.692500", "115200.152500", "115200.612500", "115201.072500", "115201.532500", "115201.992500", "115202.452500", "115202.912500", "115203.372500", "115203.832500", "115204.292500", "115204.752500", "115205.212500", "115205.672500", "115206.132500", "115206.592500", "115207.052500", "115207.512500", "115207.972500", "115208.432500", "115208.892500", "115209.352500", "115209.812500", "115210.272500", "115210.732500", "115211.192500", "115211.652500", "115212.112500", "115212.572500", "115213.032500", "115213.492500", "115213.952500", "115214.412500", "115214.872500", "115215.332500", "115215.792500", "115216.252500", "115216.712500", "115217.172500", "115217.632500", "115218.092500", "115218.552500", "115219.012500", "115219.472500", "115219.932500", "115220.392500", "115220.852500", "115221.312500", "115221.772500", "115222.232500", "115222.692500", "115223.152500", "115223.612500", "115224.072500", "115224.532500", "115224.992500", "115225.452500", "115225.912500", "115226.372500", "115226.832500", "115227.292500", "115227.752500", "115228.212500", "115228.672500", "115229.132500", "115229.592500", "115230.052500", "115230.512500", "115230.972500", "115231.432500", "115231.892500", "115232.352500", "115232.812500", "115233.272500", "115233.732500", "115234.192500", "115234.652500", "115235.112500", "115235.572500", "115236.032500", "115236.492500", "115236.952500", "115237.412500", "115237.872500", "115238.332500", "115238.792500", "115239.252500", "115239.712500", "115240.172500", "115240.632500", "115241.092500", "115241.552500", "115242.012500", "115242.472500", "115242.932500", "115243.392500", "115243.852500", "115244.312500", "115244.772500", "115245.232500", "115245.692500", "115246.152500", "115246.612500", "115247.072500", "115247.532500", "115247.992500", "115248.452500", "115248.912500", "115249.372500", "115249.832500", "115250.292500", "115250.752500", "115251.212500", "115251.672500", "115252.132500", "115252.592500", "115253.052500", "115253.512500", "115253.972500", "115254.432500", "115254.892500", "115255.352500", "115255.812500", "115256.272500", "115256.732500", "115257.192500", "115257.652500", "115258.112500", "115258.572500", "115259.032500", "115259.492500", "115259.952500", "115300.412500", "115300.872500", "115301.332500", "115301.792500", "115302.252500", "115302.712500", "115303.172500", "115303.632500", "115304.092500", "115304.552500", "115305.012500", "115305.472500", "115305.932500", "115306.392500", "115306.852500", "115307.312500", "115307.772500", "115308.232500", "115308.692500", "115309.152500", "115309.612500", "115310.072500", "115310.532500", "115310.992500", "115311.452500", "115311.912500", "115312.372500", "115312.832500", "115313.292500", "115313.752500", "115314.212500", "115314.672500", "115315.132500", "115315.592500", "115316.052500", "115316.512500", "115316.972500", "115317.432500", "115317.892500", "115318.352500", "115318.812500", "115319.272500", "115319.732500", "115320.192500", "115320.652500", "115321.112500", "115321.572500", "115322.032500", "115322.492500", "115322.952500", "115323.412500", "115323.872500", "115324.332500", "115324.792500", "115325.252500", "115325.712500", "115326.172500", "115326.632500", "115327.092500", "115327.552500", "115328.012500", "115328.472500", "115328.932500", "115329.392500", "115329.852500", "115330.312500", "115330.772500", "115331.232500", "115331.692500", "115332.152500", "115332.612500", "115333.072500", "115333.532500", "115333.992500", "115334.452500", "115334.912500", "115335.372500", "115335.832500", "115336.292500", "115336.752500", "115337.212500", "115337.672500", "115338.132500", "115338.592500", "115339.052500", "115339.512500", "115339.972500", "115340.432500", "115340.892500", "115341.352500", "115341.812500", "115342.272500", "115342.732500", "115343.192500", "115343.652500", "115344.112500", "115344.572500", "115345.032500", "115345.492500", "115345.952500", "115346.412500", "115346.872500", "115347.332500", "115347.792500", "115348.252500", "115348.712500", "115349.172500", "115349.632500", "115350.092500", "115350.552500", "115351.012500", "115351.472500", "115351.932500", "115352.392500", "115352.852500", "115353.312500", "115353.772500", "115354.232500", "115354.692500", "115355.152500", "115355.612500", "115356.072500", "115356.532500", "115356.992500", "115357.452500", "115357.912500", "115358.372500", "115358.832500", "115359.292500", "115359.752500", "115400.212500", "115400.672500", "115401.132500", "115401.592500", "115402.052500", "115402.512500", "115402.972500", "115403.432500", "115403.892500", "115404.352500", "115404.812500", "115405.272500", "115405.732500", "115406.192500", "115406.652500", "115407.112500", "115407.572500", "115408.032500", "115408.492500", "115408.952500", "115409.412500", "115409.872500", "115410.332500", "115410.792500", "115411.252500", "115411.712500", "115412.172500", "115412.632500", "115413.092500", "115413.552500", "115414.012500", "115414.472500", "115414.932500", "115415.392500", "115415.852500", "115416.312500", "115416.772500", "115417.232500", "115417.692500", "115418.152500", "115418.612500", "115419.072500", "115419.532500", "115419.992500", "115420.452500", "115420.912500", "115421.372500", "115421.832500", "115422.292500", "115422.752500", "115423.212500", "115423.672500", "115424.132500", "115424.592500", "115425.052500", "115425.512500", "115425.972500", "115426.432500", "115426.892500", "115427.352500", "115427.812500", "115428.272500", "115428.732500", "115429.192500", "115429.652500", "115430.112500", "115430.572500", "115431.032500", "115431.492500", "115431.952500", "115432.412500", "115432.872500", "115433.332500", "115433.792500", "115434.252500", "115434.712500", "115435.172500", "115435.632500", "115436.092500", "115436.552500", "115437.012500", "115437.472500", "115437.932500", "115438.392500", "115438.852500", "115439.312500", "115439.772500", "115440.232500", "115440.692500", "115441.152500", "115441.612500", "115442.072500", "115442.532500", "115442.992500", "115443.452500", "115443.912500", "115444.372500", "115444.832500", "115445.292500", "115445.752500", "115446.212500", "115446.672500", "115447.132500", "115447.592500", "115448.052500", "115448.512500", "115448.972500", "115449.432500", "115449.892500", "115450.352500", "115450.812500", "115451.272500", "115451.732500", "115452.192500", "115452.652500", "115453.112500", "115453.572500", "115454.032500", "115454.492500", "115454.952500", "115455.412500", "115455.872500", "115456.332500", "115456.792500", "115457.252500", "115457.712500", "115458.172500", "115458.632500", "115459.092500", "115459.552500", "115500.012500", "115500.472500", "115500.932500", "115501.392500", "115501.852500", "115502.312500", "115502.772500", "115503.232500", "115503.692500", "115504.152500", "115504.612500", "115505.072500", "115505.532500", "115505.992500", "115506.452500", "115506.912500", "115507.372500", "115507.832500", "115508.292500", "115508.752500", "115509.212500", "115509.672500", "115510.132500", "115510.592500", "115511.052500", "115511.512500", "115511.972500", "115512.432500", "115512.892500", "115513.352500", "115513.812500", "115514.272500", "115514.732500", "115515.192500", "115515.652500", "115516.112500", "115516.572500", "115517.032500", "115517.492500", "115517.952500", "115518.412500", "115518.872500", "115519.332500", "115519.792500", "115520.252500", "115520.712500", "115521.172500", "115521.632500", "115522.092500", "115522.552500", "115523.012500", "115523.472500", "115523.932500", "115524.392500", "115524.852500", "115525.312500", "115525.772500", "115526.232500", "115526.692500", "115527.152500", "115527.612500", "115528.072500", "115528.532500", "115528.992500", "115529.452500", "115529.912500", "115530.372500", "115530.832500", "115531.292500", "115531.752500", "115532.212500", "115532.672500", "115533.132500", "115533.592500", "115534.052500", "115534.512500", "115534.972500", "115535.432500", "115535.892500", "115536.352500", "115536.812500", "115537.272500", "115537.732500", "115538.192500", "115538.652500", "115539.112500", "115539.572500", "115540.032500", "115540.492500", "115540.952500", "115541.412500", "115541.872500", "115542.332500", "115542.792500", "115543.252500", "115543.712500", "115544.172500", "115544.632500", "115545.092500", "115545.552500", "115546.012500", "115546.472500", "115546.932500", "115547.392500", "115547.852500", "115548.312500", "115548.772500", "115549.232500", "115549.692500", "115550.152500", "115550.612500", "115551.072500", "115551.532500", "115551.992500", "115552.452500", "115552.912500", "115553.372500", "115553.832500", "115554.292500", "115554.752500", "115555.212500", "115555.672500", "115556.132500", "115556.592500", "115557.052500", "115557.512500", "115557.972500", "115558.432500", "115558.892500", "115559.352500", "115559.812500", "115600.272500", "115600.732500", "115601.192500", "115601.652500", "115602.112500", "115602.572500", "115603.032500", "115603.492500", "115603.952500", "115604.412500", "115604.872500", "115605.332500", "115605.792500", "115606.252500", "115606.712500", "115607.172500", "115607.632500", "115608.092500", "115608.552500", "115609.012500", "115609.472500", "115609.932500", "115610.392500", "115610.852500", "115611.312500", "115611.772500", "115612.232500", "115612.692500", "115613.152500", "115613.612500", "115614.072500", "115614.532500", "115614.992500", "115615.452500", "115615.912500", "115616.372500", "115616.832500", "115617.292500", "115617.752500", "115618.212500", "115618.672500", "115619.132500", "115619.592500", "115620.052500", "115620.512500", "115620.972500", "115621.432500", "115621.892500", "115622.352500", "115622.812500", "115623.272500", "115623.732500", "115624.192500", "115624.652500", "115625.112500", "115625.572500", "115626.032500", "115626.492500", "115626.952500", "115627.412500", "115627.872500", "115628.332500", "115628.792500", "115629.252500", "115629.712500", "115630.172500", "115630.632500", "115631.092500", "115631.552500", "115632.012500", "115632.472500", "115632.932500", "115633.392500", "115633.852500", "115634.312500", "115634.772500", "115635.232500", "115635.692500", "115636.152500", "115636.612500", "115637.072500", "115637.532500", "115637.992500", "115638.452500", "115638.912500", "115639.372500", "115639.832500", "115640.292500", "115640.752500", "115641.212500", "115641.672500", "115642.132500", "115642.592500", "115643.052500", "115643.512500", "115643.972500", "115644.432500", "115644.892500", "115645.352500", "115645.812500", "115646.272500", "115646.732500", "115647.192500", "115647.652500", "115648.112500", "115648.572500", "115649.032500", "115649.492500", "115649.952500", "115650.412500", "115650.872500", "115651.332500", "115651.792500", "115652.252500", "115652.712500", "115653.172500", "115653.632500", "115654.092500", "115654.552500", "115655.012500", "115655.472500", "115655.932500", "115656.392500", "115656.852500", "115657.312500", "115657.772500", "115658.232500", "115658.692500", "115659.152500", "115659.612500", "115700.072500", "115700.532500", "115700.992500", "115701.452500", "115701.912500", "115702.372500", "115702.832500", "115703.292500", "115703.752500", "115704.212500", "115704.672500", "115705.132500", "115705.592500", "115706.052500", "115706.512500", "115706.972500", "115707.432500", "115707.892500", "115708.352500", "115708.812500", "115709.272500", "115709.732500", "115710.192500", "115710.652500", "115711.112500", "115711.572500", "115712.032500", "115712.492500", "115712.952500", "115713.412500", "115713.872500", "115714.332500", "115714.792500", "115715.252500", "115715.712500", "115716.172500", "115716.632500", "115717.092500", "115717.552500", "115718.012500", "115718.472500", "115718.932500", "115719.392500", "115719.852500", "115720.312500", "115720.772500", "115721.232500", "115721.692500", "115722.152500", "115722.612500", "115723.072500", "115723.532500", "115723.992500", "115724.452500", "115724.912500", "115725.372500", "115725.832500", "115726.292500", "115726.752500", "115727.212500", "115727.672500", "115728.132500", "115728.592500", "115729.052500", "115729.512500", "115729.972500", "115730.432500", "115730.892500", "115731.352500", "115731.812500", "115732.272500", "115732.732500", "115733.192500", "115733.652500", "115734.112500", "115734.572500", "115735.032500", "115735.492500", "115735.952500", "115736.412500", "115736.872500", "115737.332500", "115737.792500", "115738.252500", "115738.712500", "115739.172500", "115739.632500", "115740.092500", "115740.552500", "115741.012500", "115741.472500", "115741.932500", "115742.392500", "115742.852500", "115743.312500", "115743.772500", "115744.232500", "115744.692500", "115745.152500", "115745.612500"],
