{
  "AcquisitionMatrixPE": 82,
  "AcquisitionNumber": 1,
  "AcquisitionTime": "11:19:10.965000",
  "BandwidthPerPixelPhaseEncode": 24.888,
  "BaseResolution": 82,
  "BodyPartExamined": "BRAIN",
  "ConsistencyInfo": "N4_VE11C_LATEST_20160120",
  "ConversionSoftware": "dcm2niix",
  "ConversionSoftwareVersion": "v1.0.20201102",
  "DerivedVendorReportedEchoSpacing": 0.00049,
  "DeviceSerialNumber": "66112",
  "DwellTime": 2e-06,
  "EchoTime": 0.0272,
  "EchoTrainLength": 82,
  "EffectiveEchoSpacing": 0.00049,
  "FlipAngle": 44,
  "ImageComments": "Unaliased MB8/PE3",
  "ImageOrientationPatientDICOM": [0.996126, 0.0875468, 0.00822924, -0.0876753, 0.981696, 0.169073],
  "ImageType": [
    "ORIGINAL",
    "PRIMARY",
    "M",
    "MB",
    "ND",
    "NORM",
    "MOSAIC"
],
  "ImagingFrequency": 123.252,
  "InPlanePhaseEncodingDirectionDICOM": "COL",
  "InstitutionAddress": "Maynard 3,Hanover,NH,US,03755",
  "InstitutionName": "Dartmouth College - PBS",
  "InstitutionalDepartmentName": "Department",
  "MRAcquisitionType": "2D",
  "MagneticFieldStrength": 3,
  "Manufacturer": "Siemens",
  "ManufacturersModelName": "Prisma",
  "Modality": "MR",
  "MultibandAccelerationFactor": 8,
  "PartialFourier": 1,
  "PatientPosition": "HFS",
  "PercentPhaseFOV": 100,
  "PercentSampling": 100,
  "PhaseEncodingDirection": "j-",
  "PhaseEncodingSteps": 82,
  "PhaseResolution": 1,
  "PixelBandwidth": 3050,
  "ProcedureStepDescription": "Wager_Wager^1076_spacetop",
  "ProtocolName": "func_run-02_task-social_acq-ap-mb8",
  "PulseSequenceDetails": "%CustomerSeq%\\cmrr_mbep2d_bold",
  "ReceiveCoilActiveElements": "HEA;HEP",
  "ReceiveCoilName": "Head_32",
  "ReconMatrixPE": 82,
  "RepetitionTime": 0.46,
  "SAR": 0.101686,
  "ScanOptions": "FS",
  "ScanningSequence": "EP",
  "SequenceName": "epfid2d1_82",
  "SequenceVariant": "SK\\SS",
  "SeriesDescription": "func_run-02_task-social_acq-ap-mb8",
  "SeriesNumber": 10,
  "ShimSetting": [4147, -7813, -7176, 518, -44, -231, 122, -1],
  "SliceThickness": 2.7,
  "SliceTiming": [0, 0.2525, 0.0625, 0.315, 0.125, 0.3775, 0.1875, 0, 0.2525, 0.0625, 0.315, 0.125, 0.3775, 0.1875, 0, 0.2525, 0.0625, 0.315, 0.125, 0.3775, 0.1875, 0, 0.2525, 0.0625, 0.315, 0.125, 0.3775, 0.1875, 0, 0.2525, 0.0625, 0.315, 0.125, 0.3775, 0.1875, 0, 0.2525, 0.0625, 0.315, 0.125, 0.3775, 0.1875, 0, 0.2525, 0.0625, 0.315, 0.125, 0.3775, 0.1875, 0, 0.2525, 0.0625, 0.315, 0.125, 0.3775, 0.1875],
  "SoftwareVersions": "syngo MR E11",
  "SpacingBetweenSlices": 2.7,
  "StationName": "AWP66112",
  "TaskName": "social",
  "TotalReadoutTime": 0.03969,
  "TxRefAmp": 265.328,
  "WipMemBlock": "97ff5ff7-4c00-49af-8fb1-7fd4e100cd32||Sequence: R016 ve11c/master r/e634e98; Dec 19 2017 11:00:25 by eja",
  "dcmmeta_affine": [
    [-2.672534465789795, -0.23522651195526123, -0.018152572214603424, 123.28961181640625],
    [-0.2348816990852356, 2.633819103240967, 0.45667657256126404, -76.55280303955078],
    [0.022078460082411766, -0.4536101818084717, 2.661036729812622, -27.590028762817383],
    [0.0, 0.0, 0.0, 1.0]
],
  "dcmmeta_reorient_transform": [
    [0.0, -1.0, 0.0, 81.0],
    [1.0, 0.0, 0.0, 0.0],
    [0.0, 0.0, 1.0, 0.0],
    [0.0, 0.0, 0.0, 1.0]
],
  "dcmmeta_shape": [82, 82, 56, 872],
  "dcmmeta_slice_dim": 2,
  "dcmmeta_version": 0.6,
  "global": {
    "const": {
      "AccessionNumber": "A003849",
      "AcquisitionMatrix": [82, 0, 0, 82],
      "AngioFlag": "N",
      "BitsAllocated": 16,
      "BitsStored": 16,
      "BodyPartExamined": "BRAIN",
      "Columns": 656,
      "EchoNumbers": 1,
      "EchoTime": 27.2,
      "EchoTrainLength": 82,
      "FlipAngle": 44.0,
      "HighBit": 15,
      "ImageOrientationPatient": [0.99612641521514, 0.08754681292192, 0.00822924406265, -0.0876753319321, 0.98169618264109, 0.16907288711829],
      "ImagePositionPatient": [-803.74361535833, -960.10366787049, -200.85509897728],
      "ImageType": [
        "ORIGINAL",
        "PRIMARY",
        "M",
        "MB",
        "ND",
        "NORM",
        "MOSAIC"
],
      "ImagedNucleus": "1H",
      "ImagingFrequency": 123.252099,
      "InPlanePhaseEncodingDirection": "COL",
      "MRAcquisitionType": "2D",
      "MagneticFieldStrength": 3.0,
      "Manufacturer": "SIEMENS",
      "ManufacturerModelName": "Prisma",
      "Modality": "MR",
      "NumberOfAverages": 1.0,
      "NumberOfPhaseEncodingSteps": 82,
      "PercentPhaseFieldOfView": 100.0,
      "PercentSampling": 100.0,
      "PerformedProcedureStepStartTime": "103842.172000",
      "PhotometricInterpretation": "MONOCHROME2",
      "PixelBandwidth": 3050.0,
      "PixelRepresentation": 0,
      "PixelSpacing": [2.6829268932343, 2.6829268932343],
      "ProtocolName": "func_run-02_task-social_acq-ap-mb8",
      "RepetitionTime": 460.0,
      "Rows": 656,
      "SAR": 0.10168632623559,
      "SamplesPerPixel": 1,
      "ScanOptions": "FS",
      "ScanningSequence": "EP",
      "SequenceName": "epfid2d1_82",
      "SequenceVariant": [
        "SK",
        "SS"
],
      "SeriesDescription": "func_run-02_task-social_acq-ap-mb8",
      "SeriesNumber": 10,
      "SeriesTime": "111925.779000",
      "SliceLocation": -40.968881003997,
      "SliceThickness": 2.7000000476837,
      "SmallestImagePixelValue": 0,
      "SoftwareVersions": "syngo MR E11",
      "SpacingBetweenSlices": 2.6999999284667,
      "SpecificCharacterSet": "ISO_IR 100",
      "StudyID": "1",
      "StudyTime": "103842.038000",
      "TransmitCoilName": "Body",
      "VariableFlipAngleFlag": "N",
      "WindowCenterWidthExplanation": "Algo1",
      "dBdt": 0.0},
    "slices": {}
  },
  "time": {
    "samples": {
      "AcquisitionNumber": [1, 2, 3, 4, 5, 6, 7, 8, 9, 10, 11, 12, 13, 14, 15, 16, 17, 18, 19, 20, 21, 22, 23, 24, 25, 26, 27, 28, 29, 30, 31, 32, 33, 34, 35, 36, 37, 38, 39, 40, 41, 42, 43, 44, 45, 46, 47, 48, 49, 50, 51, 52, 53, 54, 55, 56, 57, 58, 59, 60, 61, 62, 63, 64, 65, 66, 67, 68, 69, 70, 71, 72, 73, 74, 75, 76, 77, 78, 79, 80, 81, 82, 83, 84, 85, 86, 87, 88, 89, 90, 91, 92, 93, 94, 95, 96, 97, 98, 99, 100, 101, 102, 103, 104, 105, 106, 107, 108, 109, 110, 111, 112, 113, 114, 115, 116, 117, 118, 119, 120, 121, 122, 123, 124, 125, 126, 127, 128, 129, 130, 131, 132, 133, 134, 135, 136, 137, 138, 139, 140, 141, 142, 143, 144, 145, 146, 147, 148, 149, 150, 151, 152, 153, 154, 155, 156, 157, 158, 159, 160, 161, 162, 163, 164, 165, 166, 167, 168, 169, 170, 171, 172, 173, 174, 175, 176, 177, 178, 179, 180, 181, 182, 183, 184, 185, 186, 187, 188, 189, 190, 191, 192, 193, 194, 195, 196, 197, 198, 199, 200, 201, 202, 203, 204, 205, 206, 207, 208, 209, 210, 211, 212, 213, 214, 215, 216, 217, 218, 219, 220, 221, 222, 223, 224, 225, 226, 227, 228, 229, 230, 231, 232, 233, 234, 235, 236, 237, 238, 239, 240, 241, 242, 243, 244, 245, 246, 247, 248, 249, 250, 251, 252, 253, 254, 255, 256, 257, 258, 259, 260, 261, 262, 263, 264, 265, 266, 267, 268, 269, 270, 271, 272, 273, 274, 275, 276, 277, 278, 279, 280, 281, 282, 283, 284, 285, 286, 287, 288, 289, 290, 291, 292, 293, 294, 295, 296, 297, 298, 299, 300, 301, 302, 303, 304, 305, 306, 307, 308, 309, 310, 311, 312, 313, 314, 315, 316, 317, 318, 319, 320, 321, 322, 323, 324, 325, 326, 327, 328, 329, 330, 331, 332, 333, 334, 335, 336, 337, 338, 339, 340, 341, 342, 343, 344, 345, 346, 347, 348, 349, 350, 351, 352, 353, 354, 355, 356, 357, 358, 359, 360, 361, 362, 363, 364, 365, 366, 367, 368, 369, 370, 371, 372, 373, 374, 375, 376, 377, 378, 379, 380, 381, 382, 383, 384, 385, 386, 387, 388, 389, 390, 391, 392, 393, 394, 395, 396, 397, 398, 399, 400, 401, 402, 403, 404, 405, 406, 407, 408, 409, 410, 411, 412, 413, 414, 415, 416, 417, 418, 419, 420, 421, 422, 423, 424, 425, 426, 427, 428, 429, 430, 431, 432, 433, 434, 435, 436, 437, 438, 439, 440, 441, 442, 443, 444, 445, 446, 447, 448, 449, 450, 451, 452, 453, 454, 455, 456, 457, 458, 459, 460, 461, 462, 463, 464, 465, 466, 467, 468, 469, 470, 471, 472, 473, 474, 475, 476, 477, 478, 479, 480, 481, 482, 483, 484, 485, 486, 487, 488, 489, 490, 491, 492, 493, 494, 495, 496, 497, 498, 499, 500, 501, 502, 503, 504, 505, 506, 507, 508, 509, 510, 511, 512, 513, 514, 515, 516, 517, 518, 519, 520, 521, 522, 523, 524, 525, 526, 527, 528, 529, 530, 531, 532, 533, 534, 535, 536, 537, 538, 539, 540, 541, 542, 543, 544, 545, 546, 547, 548, 549, 550, 551, 552, 553, 554, 555, 556, 557, 558, 559, 560, 561, 562, 563, 564, 565, 566, 567, 568, 569, 570, 571, 572, 573, 574, 575, 576, 577, 578, 579, 580, 581, 582, 583, 584, 585, 586, 587, 588, 589, 590, 591, 592, 593, 594, 595, 596, 597, 598, 599, 600, 601, 602, 603, 604, 605, 606, 607, 608, 609, 610, 611, 612, 613, 614, 615, 616, 617, 618, 619, 620, 621, 622, 623, 624, 625, 626, 627, 628, 629, 630, 631, 632, 633, 634, 635, 636, 637, 638, 639, 640, 641, 642, 643, 644, 645, 646, 647, 648, 649, 650, 651, 652, 653, 654, 655, 656, 657, 658, 659, 660, 661, 662, 663, 664, 665, 666, 667, 668, 669, 670, 671, 672, 673, 674, 675, 676, 677, 678, 679, 680, 681, 682, 683, 684, 685, 686, 687, 688, 689, 690, 691, 692, 693, 694, 695, 696, 697, 698, 699, 700, 701, 702, 703, 704, 705, 706, 707, 708, 709, 710, 711, 712, 713, 714, 715, 716, 717, 718, 719, 720, 721, 722, 723, 724, 725, 726, 727, 728, 729, 730, 731, 732, 733, 734, 735, 736, 737, 738, 739, 740, 741, 742, 743, 744, 745, 746, 747, 748, 749, 750, 751, 752, 753, 754, 755, 756, 757, 758, 759, 760, 761, 762, 763, 764, 765, 766, 767, 768, 769, 770, 771, 772, 773, 774, 775, 776, 777, 778, 779, 780, 781, 782, 783, 784, 785, 786, 787, 788, 789, 790, 791, 792, 793, 794, 795, 796, 797, 798, 799, 800, 801, 802, 803, 804, 805, 806, 807, 808, 809, 810, 811, 812, 813, 814, 815, 816, 817, 818, 819, 820, 821, 822, 823, 824, 825, 826, 827, 828, 829, 830, 831, 832, 833, 834, 835, 836, 837, 838, 839, 840, 841, 842, 843, 844, 845, 846, 847, 848, 849, 850, 851, 852, 853, 854, 855, 856, 857, 858, 859, 860, 861, 862, 863, 864, 865, 866, 867, 868, 869, 870, 871, 872],
      "AcquisitionTime": ["111910.965000", "111911.425000", "111911.885000", "111912.345000", "111912.805000", "111913.265000", "111913.725000", "111914.185000", "111914.645000", "111915.105000", "111915.565000", "111916.025000", "111916.485000", "111916.945000", "111917.405000", "111917.865000", "111918.325000", "111918.785000", "111919.245000", "111919.705000", "111920.165000", "111920.625000", "111921.085000", "111921.545000", "111922.005000", "111922.465000", "111922.925000", "111923.385000", "111923.845000", "111924.305000", "111924.765000", "111925.225000", "111925.685000", "111926.145000", "111926.605000", "111927.065000", "111927.525000", "111927.985000", "111928.445000", "111928.905000", "111929.365000", "111929.825000", "111930.285000", "111930.745000", "111931.205000", "111931.665000", "111932.125000", "111932.585000", "111933.045000", "111933.505000", "111933.965000", "111934.425000", "111934.885000", "111935.345000", "111935.805000", "111936.265000", "111936.725000", "111937.185000", "111937.645000", "111938.105000", "111938.565000", "111939.025000", "111939.485000", "111939.945000", "111940.405000", "111940.865000", "111941.325000", "111941.785000", "111942.245000", "111942.705000", "111943.165000", "111943.625000", "111944.085000", "111944.545000", "111945.005000", "111945.465000", "111945.925000", "111946.385000", "111946.845000", "111947.305000", "111947.765000", "111948.225000", "111948.685000", "111949.145000", "111949.605000", "111950.065000", "111950.525000", "111950.985000", "111951.445000", "111951.905000", "111952.365000", "111952.825000", "111953.285000", "111953.745000", "111954.205000", "111954.665000", "111955.125000", "111955.585000", "111956.045000", "111956.505000", "111956.965000", "111957.425000", "111957.885000", "111958.345000", "111958.805000", "111959.265000", "111959.725000", "112000.185000", "112000.645000", "112001.105000", "112001.565000", "112002.025000", "112002.485000", "112002.945000", "112003.405000", "112003.865000", "112004.325000", "112004.785000", "112005.245000", "112005.705000", "112006.165000", "112006.625000", "112007.085000", "112007.545000", "112008.005000", "112008.465000", "112008.925000", "112009.385000", "112009.845000", "112010.305000", "112010.765000", "112011.225000", "112011.685000", "112012.145000", "112012.605000", "112013.065000", "112013.525000", "112013.985000", "112014.445000", "112014.905000", "112015.365000", "112015.825000", "112016.285000", "112016.745000", "112017.205000", "112017.665000", "112018.125000", "112018.585000", "112019.045000", "112019.505000", "112019.965000", "112020.425000", "112020.885000", "112021.345000", "112021.805000", "112022.265000", "112022.725000", "112023.185000", "112023.645000", "112024.105000", "112024.565000", "112025.025000", "112025.485000", "112025.945000", "112026.405000", "112026.865000", "112027.325000", "112027.785000", "112028.245000", "112028.705000", "112029.165000", "112029.625000", "112030.085000", "112030.545000", "112031.005000", "112031.465000", "112031.925000", "112032.385000", "112032.845000", "112033.305000", "112033.765000", "112034.225000", "112034.685000", "112035.145000", "112035.605000", "112036.065000", "112036.525000", "112036.985000", "112037.445000", "112037.905000", "112038.365000", "112038.825000", "112039.285000", "112039.745000", "112040.205000", "112040.665000", "112041.125000", "112041.585000", "112042.045000", "112042.505000", "112042.965000", "112043.425000", "112043.885000", "112044.345000", "112044.805000", "112045.265000", "112045.725000", "112046.185000", "112046.645000", "112047.105000", "112047.565000", "112048.025000", "112048.485000", "112048.945000", "112049.405000", "112049.865000", "112050.325000", "112050.785000", "112051.245000", "112051.705000", "112052.165000", "112052.625000", "112053.085000", "112053.545000", "112054.005000", "112054.465000", "112054.925000", "112055.385000", "112055.845000", "112056.305000", "112056.765000", "112057.225000", "112057.685000", "112058.145000", "112058.605000", "112059.065000", "112059.525000", "112059.985000", "112100.445000", "112100.905000", "112101.365000", "112101.825000", "112102.285000", "112102.745000", "112103.205000", "112103.665000", "112104.125000", "112104.585000", "112105.045000", "112105.505000", "112105.965000", "112106.425000", "112106.885000", "112107.345000", "112107.805000", "112108.265000", "112108.725000", "112109.185000", "112109.645000", "112110.105000", "112110.565000", "112111.025000", "112111.485000", "112111.945000", "112112.405000", "112112.865000", "112113.325000", "112113.785000", "112114.245000", "112114.705000", "112115.165000", "112115.625000", "112116.085000", "112116.545000", "112117.005000", "112117.465000", "112117.925000", "112118.385000", "112118.845000", "112119.305000", "112119.765000", "112120.225000", "112120.685000", "112121.145000", "112121.605000", "112122.065000", "112122.525000", "112122.985000", "112123.445000", "112123.905000", "112124.365000", "112124.825000", "112125.285000", "112125.745000", "112126.205000", "112126.665000", "112127.125000", "112127.585000", "112128.045000", "112128.505000", "112128.965000", "112129.425000", "112129.885000", "112130.345000", "112130.805000", "112131.265000", "112131.725000", "112132.185000", "112132.645000", "112133.105000", "112133.565000", "112134.025000", "112134.485000", "112134.945000", "112135.405000", "112135.865000", "112136.325000", "112136.785000", "112137.245000", "112137.705000", "112138.165000", "112138.625000", "112139.085000", "112139.545000", "112140.005000", "112140.465000", "112140.925000", "112141.385000", "112141.845000", "112142.305000", "112142.765000", "112143.225000", "112143.685000", "112144.145000", "112144.605000", "112145.065000", "112145.525000", "112145.985000", "112146.445000", "112146.905000", "112147.365000", "112147.825000", "112148.285000", "112148.745000", "112149.205000", "112149.665000", "112150.125000", "112150.585000", "112151.045000", "112151.505000", "112151.965000", "112152.425000", "112152.885000", "112153.345000", "112153.805000", "112154.265000", "112154.725000", "112155.185000", "112155.645000", "112156.105000", "112156.565000", "112157.025000", "112157.485000", "112157.945000", "112158.405000", "112158.865000", "112159.325000", "112159.785000", "112200.245000", "112200.705000", "112201.165000", "112201.625000", "112202.085000", "112202.545000", "112203.005000", "112203.465000", "112203.925000", "112204.385000", "112204.845000", "112205.305000", "112205.765000", "112206.225000", "112206.685000", "112207.145000", "112207.605000", "112208.065000", "112208.525000", "112208.985000", "112209.445000", "112209.905000", "112210.365000", "112210.825000", "112211.285000", "112211.745000", "112212.205000", "112212.665000", "112213.125000", "112213.585000", "112214.045000", "112214.505000", "112214.965000", "112215.425000", "112215.885000", "112216.345000", "112216.805000", "112217.265000", "112217.725000", "112218.185000", "112218.645000", "112219.105000", "112219.565000", "112220.025000", "112220.485000", "112220.945000", "112221.405000", "112221.865000", "112222.325000", "112222.785000", "112223.245000", "112223.705000", "112224.165000", "112224.625000", "112225.085000", "112225.545000", "112226.005000", "112226.465000", "112226.925000", "112227.385000", "112227.845000", "112228.305000", "112228.765000", "112229.225000", "112229.685000", "112230.145000", "112230.605000", "112231.065000", "112231.525000", "112231.985000", "112232.445000", "112232.905000", "112233.365000", "112233.825000", "112234.285000", "112234.745000", "112235.205000", "112235.665000", "112236.125000", "112236.585000", "112237.045000", "112237.505000", "112237.965000", "112238.425000", "112238.885000", "112239.345000", "112239.805000", "112240.265000", "112240.725000", "112241.185000", "112241.645000", "112242.105000", "112242.565000", "112243.025000", "112243.485000", "112243.945000", "112244.405000", "112244.865000", "112245.325000", "112245.785000", "112246.245000", "112246.705000", "112247.165000", "112247.625000", "112248.085000", "112248.545000", "112249.005000", "112249.465000", "112249.925000", "112250.385000", "112250.845000", "112251.305000", "112251.765000", "112252.225000", "112252.685000", "112253.145000", "112253.605000", "112254.065000", "112254.525000", "112254.985000", "112255.445000", "112255.905000", "112256.365000", "112256.825000", "112257.285000", "112257.745000", "112258.205000", "112258.665000", "112259.125000", "112259.585000", "112300.045000", "112300.505000", "112300.965000", "112301.425000", "112301.885000", "112302.345000", "112302.805000", "112303.265000", "112303.725000", "112304.185000", "112304.645000", "112305.105000", "112305.565000", "112306.025000", "112306.485000", "112306.945000", "112307.405000", "112307.865000", "112308.325000", "112308.785000", "112309.245000", "112309.705000", "112310.165000", "112310.625000", "112311.085000", "112311.545000", "112312.005000", "112312.465000", "112312.925000", "112313.385000", "112313.845000", "112314.305000", "112314.765000", "112315.225000", "112315.685000", "112316.145000", "112316.605000", "112317.065000", "112317.525000", "112317.985000", "112318.445000", "112318.905000", "112319.365000", "112319.825000", "112320.285000", "112320.745000", "112321.205000", "112321.665000", "112322.125000", "112322.585000", "112323.045000", "112323.505000", "112323.965000", "112324.425000", "112324.885000", "112325.345000", "112325.805000", "112326.265000", "112326.725000", "112327.185000", "112327.645000", "112328.105000", "112328.565000", "112329.025000", "112329.485000", "112329.945000", "112330.405000", "112330.865000", "112331.325000", "112331.785000", "112332.245000", "112332.705000", "112333.165000", "112333.625000", "112334.085000", "112334.545000", "112335.005000", "112335.465000", "112335.925000", "112336.385000", "112336.845000", "112337.305000", "112337.765000", "112338.225000", "112338.685000", "112339.145000", "112339.605000", "112340.065000", "112340.525000", "112340.985000", "112341.445000", "112341.905000", "112342.365000", "112342.825000", "112343.285000", "112343.745000", "112344.205000", "112344.665000", "112345.125000", "112345.585000", "112346.045000", "112346.505000", "112346.965000", "112347.425000", "112347.885000", "112348.345000", "112348.805000", "112349.265000", "112349.725000", "112350.185000", "112350.645000", "112351.105000", "112351.565000", "112352.025000", "112352.485000", "112352.945000", "112353.405000", "112353.865000", "112354.325000", "112354.785000", "112355.245000", "112355.705000", "112356.165000", "112356.625000", "112357.085000", "112357.545000", "112358.005000", "112358.465000", "112358.925000", "112359.385000", "112359.845000", "112400.305000", "112400.765000", "112401.225000", "112401.685000", "112402.145000", "112402.605000", "112403.065000", "112403.525000", "112403.985000", "112404.445000", "112404.905000", "112405.365000", "112405.825000", "112406.285000", "112406.745000", "112407.205000", "112407.665000", "112408.125000", "112408.585000", "112409.045000", "112409.505000", "112409.965000", "112410.425000", "112410.885000", "112411.345000", "112411.805000", "112412.265000", "112412.725000", "112413.185000", "112413.645000", "112414.105000", "112414.565000", "112415.025000", "112415.485000", "112415.945000", "112416.405000", "112416.865000", "112417.325000", "112417.785000", "112418.245000", "112418.705000", "112419.165000", "112419.625000", "112420.085000", "112420.545000", "112421.005000", "112421.465000", "112421.925000", "112422.385000", "112422.845000", "112423.305000", "112423.765000", "112424.225000", "112424.685000", "112425.145000", "112425.605000", "112426.065000", "112426.525000", "112426.985000", "112427.445000", "112427.905000", "112428.365000", "112428.825000", "112429.285000", "112429.745000", "112430.205000", "112430.665000", "112431.125000", "112431.585000", "112432.045000", "112432.505000", "112432.965000", "112433.425000", "112433.885000", "112434.345000", "112434.805000", "112435.265000", "112435.725000", "112436.185000", "112436.645000", "112437.105000", "112437.565000", "112438.025000", "112438.485000", "112438.945000", "112439.405000", "112439.865000", "112440.325000", "112440.785000", "112441.245000", "112441.705000", "112442.165000", "112442.625000", "112443.085000", "112443.545000", "112444.005000", "112444.465000", "112444.925000", "112445.385000", "112445.845000", "112446.305000", "112446.765000", "112447.225000", "112447.685000", "112448.145000", "112448.605000", "112449.065000", "112449.525000", "112449.985000", "112450.445000", "112450.905000", "112451.365000", "112451.825000", "112452.285000", "112452.745000", "112453.205000", "112453.665000", "112454.125000", "112454.585000", "112455.045000", "112455.505000", "112455.965000", "112456.425000", "112456.885000", "112457.345000", "112457.805000", "112458.265000", "112458.725000", "112459.185000", "112459.645000", "112500.105000", "112500.565000", "112501.025000", "112501.485000", "112501.945000", "112502.405000", "112502.865000", "112503.325000", "112503.785000", "112504.245000", "112504.705000", "112505.165000", "112505.625000", "112506.085000", "112506.545000", "112507.005000", "112507.465000", "112507.925000", "112508.385000", "112508.845000", "112509.305000", "112509.765000", "112510.225000", "112510.685000", "112511.145000", "112511.605000", "112512.065000", "112512.525000", "112512.985000", "112513.445000", "112513.905000", "112514.365000", "112514.825000", "112515.285000", "112515.745000", "112516.205000", "112516.665000", "112517.125000", "112517.585000", "112518.045000", "112518.505000", "112518.965000", "112519.425000", "112519.885000", "112520.345000", "112520.805000", "112521.265000", "112521.725000", "112522.185000", "112522.645000", "112523.105000", "112523.565000", "112524.025000", "112524.485000", "112524.945000", "112525.405000", "112525.865000", "112526.325000", "112526.785000", "112527.245000", "112527.705000", "112528.165000", "112528.625000", "112529.085000", "112529.545000", "112530.005000", "112530.465000", "112530.925000", "112531.385000", "112531.845000", "112532.305000", "112532.765000", "112533.225000", "112533.685000", "112534.145000", "112534.605000", "112535.065000", "112535.525000", "112535.985000", "112536.445000", "112536.905000", "112537.365000", "112537.825000", "112538.285000", "112538.745000", "112539.205000", "112539.665000", "112540.125000", "112540.585000", "112541.045000", "112541.505000", "112541.965000", "112542.425000", "112542.885000", "112543.345000", "112543.805000", "112544.265000", "112544.725000", "112545.185000", "112545.645000", "112546.105000", "112546.565000", "112547.025000", "112547.485000", "112547.945000", "112548.405000", "112548.865000", "112549.325000", "112549.785000", "112550.245000", "112550.705000", "112551.165000", "112551.625000"],
