{
  "AcquisitionMatrixPE": 82,
  "AcquisitionNumber": 1,
  "AcquisitionTime": "11:12:2.235000",
  "BandwidthPerPixelPhaseEncode": 24.888,
  "BaseResolution": 82,
  "BodyPartExamined": "BRAIN",
  "ConsistencyInfo": "N4_VE11C_LATEST_20160120",
  "ConversionSoftware": "dcm2niix",
  "ConversionSoftwareVersion": "v1.0.20201102",
  "DerivedVendorReportedEchoSpacing": 0.00049,
  "DeviceSerialNumber": "66112",
  "DwellTime": 2e-06,
  "EchoTime": 0.0272,
  "EchoTrainLength": 82,
  "EffectiveEchoSpacing": 0.00049,
  "FlipAngle": 44,
  "ImageComments": "Unaliased MB8/PE3",
  "ImageOrientationPatientDICOM": [0.996126, 0.0875468, 0.00822924, -0.0876753, 0.981696, 0.169073],
  "ImageType": [
    "ORIGINAL",
    "PRIMARY",
    "M",
    "MB",
    "ND",
    "NORM",
    "MOSAIC"
],
  "ImagingFrequency": 123.252,
  "InPlanePhaseEncodingDirectionDICOM": "COL",
  "InstitutionAddress": "Maynard 3,Hanover,NH,US,03755",
  "InstitutionName": "Dartmouth College - PBS",
  "InstitutionalDepartmentName": "Department",
  "MRAcquisitionType": "2D",
  "MagneticFieldStrength": 3,
  "Manufacturer": "Siemens",
  "ManufacturersModelName": "Prisma",
  "Modality": "MR",
  "MultibandAccelerationFactor": 8,
  "PartialFourier": 1,
  "PatientPosition": "HFS",
  "PercentPhaseFOV": 100,
  "PercentSampling": 100,
  "PhaseEncodingDirection": "j-",
  "PhaseEncodingSteps": 82,
  "PhaseResolution": 1,
  "PixelBandwidth": 3050,
  "ProcedureStepDescription": "Wager_Wager^1076_spacetop",
  "ProtocolName": "func_run-01_task-social_acq-ap-mb8",
  "PulseSequenceDetails": "%CustomerSeq%\\cmrr_mbep2d_bold",
  "ReceiveCoilActiveElements": "HEA;HEP",
  "ReceiveCoilName": "Head_32",
  "ReconMatrixPE": 82,
  "RepetitionTime": 0.46,
  "SAR": 0.101686,
  "ScanOptions": "FS",
  "ScanningSequence": "EP",
  "SequenceName": "epfid2d1_82",
  "SequenceVariant": "SK\\SS",
  "SeriesDescription": "func_run-01_task-social_acq-ap-mb8",
  "SeriesNumber": 8,
  "ShimSetting": [4147, -7813, -7176, 518, -44, -231, 122, -1],
  "SliceThickness": 2.7,
  "SliceTiming": [0, 0.2525, 0.0625, 0.315, 0.1275, 0.3775, 0.19, 0, 0.2525, 0.0625, 0.315, 0.1275, 0.3775, 0.19, 0, 0.2525, 0.0625, 0.315, 0.1275, 0.3775, 0.19, 0, 0.2525, 0.0625, 0.315, 0.1275, 0.3775, 0.19, 0, 0.2525, 0.0625, 0.315, 0.1275, 0.3775, 0.19, 0, 0.2525, 0.0625, 0.315, 0.1275, 0.3775, 0.19, 0, 0.2525, 0.0625, 0.315, 0.1275, 0.3775, 0.19, 0, 0.2525, 0.0625, 0.315, 0.1275, 0.3775, 0.19],
  "SoftwareVersions": "syngo MR E11",
  "SpacingBetweenSlices": 2.7,
  "StationName": "AWP66112",
  "TaskName": "social",
  "TotalReadoutTime": 0.03969,
  "TxRefAmp": 265.328,
  "WipMemBlock": "15e1cd0a-bbec-4956-b62d-be35a3728bfe||Sequence: R016 ve11c/master r/e634e98; Dec 19 2017 11:00:25 by eja",
  "dcmmeta_affine": [
    [-2.672534465789795, -0.23522651195526123, -0.018152572214603424, 123.28961181640625],
    [-0.2348816990852356, 2.633819103240967, 0.45667657256126404, -76.55280303955078],
    [0.022078460082411766, -0.4536101818084717, 2.661036729812622, -27.590028762817383],
    [0.0, 0.0, 0.0, 1.0]
],
  "dcmmeta_reorient_transform": [
    [0.0, -1.0, 0.0, 81.0],
    [1.0, 0.0, 0.0, 0.0],
    [0.0, 0.0, 1.0, 0.0],
    [0.0, 0.0, 0.0, 1.0]
],
  "dcmmeta_shape": [82, 82, 56, 872],
  "dcmmeta_slice_dim": 2,
  "dcmmeta_version": 0.6,
  "global": {
    "const": {
      "AccessionNumber": "A003849",
      "AcquisitionMatrix": [82, 0, 0, 82],
      "AngioFlag": "N",
      "BitsAllocated": 16,
      "BitsStored": 16,
      "BodyPartExamined": "BRAIN",
      "Columns": 656,
      "EchoNumbers": 1,
      "EchoTime": 27.2,
      "EchoTrainLength": 82,
      "FlipAngle": 44.0,
      "HighBit": 15,
      "ImageOrientationPatient": [0.99612641521514, 0.08754681292192, 0.00822924406265, -0.0876753319321, 0.98169618264109, 0.16907288711829],
      "ImagePositionPatient": [-803.74361535833, -960.10366787049, -200.85509897728],
      "ImageType": [
        "ORIGINAL",
        "PRIMARY",
        "M",
        "MB",
        "ND",
        "NORM",
        "MOSAIC"
],
      "ImagedNucleus": "1H",
      "ImagingFrequency": 123.252093,
      "InPlanePhaseEncodingDirection": "COL",
      "MRAcquisitionType": "2D",
      "MagneticFieldStrength": 3.0,
      "Manufacturer": "SIEMENS",
      "ManufacturerModelName": "Prisma",
      "Modality": "MR",
      "NumberOfAverages": 1.0,
      "NumberOfPhaseEncodingSteps": 82,
      "PercentPhaseFieldOfView": 100.0,
      "PercentSampling": 100.0,
      "PerformedProcedureStepStartTime": "103842.172000",
      "PhotometricInterpretation": "MONOCHROME2",
      "PixelBandwidth": 3050.0,
      "PixelRepresentation": 0,
      "PixelSpacing": [2.6829268932343, 2.6829268932343],
      "ProtocolName": "func_run-01_task-social_acq-ap-mb8",
      "RepetitionTime": 460.0,
      "Rows": 656,
      "SAR": 0.10168632623559,
      "SamplesPerPixel": 1,
      "ScanOptions": "FS",
      "ScanningSequence": "EP",
      "SequenceName": "epfid2d1_82",
      "SequenceVariant": [
        "SK",
        "SS"
],
      "SeriesDescription": "func_run-01_task-social_acq-ap-mb8",
      "SeriesNumber": 8,
      "SeriesTime": "111225.705000",
      "SliceLocation": -40.968881003997,
      "SliceThickness": 2.7000000476837,
      "SmallestImagePixelValue": 0,
      "SoftwareVersions": "syngo MR E11",
      "SpacingBetweenSlices": 2.6999999284667,
      "SpecificCharacterSet": "ISO_IR 100",
      "StudyID": "1",
      "StudyTime": "103842.038000",
      "TransmitCoilName": "Body",
      "VariableFlipAngleFlag": "N",
      "WindowCenterWidthExplanation": "Algo1",
      "dBdt": 0.0},
    "slices": {}
  },
  "time": {
    "samples": {
      "AcquisitionNumber": [1, 2, 3, 4, 5, 6, 7, 8, 9, 10, 11, 12, 13, 14, 15, 16, 17, 18, 19, 20, 21, 22, 23, 24, 25, 26, 27, 28, 29, 30, 31, 32, 33, 34, 35, 36, 37, 38, 39, 40, 41, 42, 43, 44, 45, 46, 47, 48, 49, 50, 51, 52, 53, 54, 55, 56, 57, 58, 59, 60, 61, 62, 63, 64, 65, 66, 67, 68, 69, 70, 71, 72, 73, 74, 75, 76, 77, 78, 79, 80, 81, 82, 83, 84, 85, 86, 87, 88, 89, 90, 91, 92, 93, 94, 95, 96, 97, 98, 99, 100, 101, 102, 103, 104, 105, 106, 107, 108, 109, 110, 111, 112, 113, 114, 115, 116, 117, 118, 119, 120, 121, 122, 123, 124, 125, 126, 127, 128, 129, 130, 131, 132, 133, 134, 135, 136, 137, 138, 139, 140, 141, 142, 143, 144, 145, 146, 147, 148, 149, 150, 151, 152, 153, 154, 155, 156, 157, 158, 159, 160, 161, 162, 163, 164, 165, 166, 167, 168, 169, 170, 171, 172, 173, 174, 175, 176, 177, 178, 179, 180, 181, 182, 183, 184, 185, 186, 187, 188, 189, 190, 191, 192, 193, 194, 195, 196, 197, 198, 199, 200, 201, 202, 203, 204, 205, 206, 207, 208, 209, 210, 211, 212, 213, 214, 215, 216, 217, 218, 219, 220, 221, 222, 223, 224, 225, 226, 227, 228, 229, 230, 231, 232, 233, 234, 235, 236, 237, 238, 239, 240, 241, 242, 243, 244, 245, 246, 247, 248, 249, 250, 251, 252, 253, 254, 255, 256, 257, 258, 259, 260, 261, 262, 263, 264, 265, 266, 267, 268, 269, 270, 271, 272, 273, 274, 275, 276, 277, 278, 279, 280, 281, 282, 283, 284, 285, 286, 287, 288, 289, 290, 291, 292, 293, 294, 295, 296, 297, 298, 299, 300, 301, 302, 303, 304, 305, 306, 307, 308, 309, 310, 311, 312, 313, 314, 315, 316, 317, 318, 319, 320, 321, 322, 323, 324, 325, 326, 327, 328, 329, 330, 331, 332, 333, 334, 335, 336, 337, 338, 339, 340, 341, 342, 343, 344, 345, 346, 347, 348, 349, 350, 351, 352, 353, 354, 355, 356, 357, 358, 359, 360, 361, 362, 363, 364, 365, 366, 367, 368, 369, 370, 371, 372, 373, 374, 375, 376, 377, 378, 379, 380, 381, 382, 383, 384, 385, 386, 387, 388, 389, 390, 391, 392, 393, 394, 395, 396, 397, 398, 399, 400, 401, 402, 403, 404, 405, 406, 407, 408, 409, 410, 411, 412, 413, 414, 415, 416, 417, 418, 419, 420, 421, 422, 423, 424, 425, 426, 427, 428, 429, 430, 431, 432, 433, 434, 435, 436, 437, 438, 439, 440, 441, 442, 443, 444, 445, 446, 447, 448, 449, 450, 451, 452, 453, 454, 455, 456, 457, 458, 459, 460, 461, 462, 463, 464, 465, 466, 467, 468, 469, 470, 471, 472, 473, 474, 475, 476, 477, 478, 479, 480, 481, 482, 483, 484, 485, 486, 487, 488, 489, 490, 491, 492, 493, 494, 495, 496, 497, 498, 499, 500, 501, 502, 503, 504, 505, 506, 507, 508, 509, 510, 511, 512, 513, 514, 515, 516, 517, 518, 519, 520, 521, 522, 523, 524, 525, 526, 527, 528, 529, 530, 531, 532, 533, 534, 535, 536, 537, 538, 539, 540, 541, 542, 543, 544, 545, 546, 547, 548, 549, 550, 551, 552, 553, 554, 555, 556, 557, 558, 559, 560, 561, 562, 563, 564, 565, 566, 567, 568, 569, 570, 571, 572, 573, 574, 575, 576, 577, 578, 579, 580, 581, 582, 583, 584, 585, 586, 587, 588, 589, 590, 591, 592, 593, 594, 595, 596, 597, 598, 599, 600, 601, 602, 603, 604, 605, 606, 607, 608, 609, 610, 611, 612, 613, 614, 615, 616, 617, 618, 619, 620, 621, 622, 623, 624, 625, 626, 627, 628, 629, 630, 631, 632, 633, 634, 635, 636, 637, 638, 639, 640, 641, 642, 643, 644, 645, 646, 647, 648, 649, 650, 651, 652, 653, 654, 655, 656, 657, 658, 659, 660, 661, 662, 663, 664, 665, 666, 667, 668, 669, 670, 671, 672, 673, 674, 675, 676, 677, 678, 679, 680, 681, 682, 683, 684, 685, 686, 687, 688, 689, 690, 691, 692, 693, 694, 695, 696, 697, 698, 699, 700, 701, 702, 703, 704, 705, 706, 707, 708, 709, 710, 711, 712, 713, 714, 715, 716, 717, 718, 719, 720, 721, 722, 723, 724, 725, 726, 727, 728, 729, 730, 731, 732, 733, 734, 735, 736, 737, 738, 739, 740, 741, 742, 743, 744, 745, 746, 747, 748, 749, 750, 751, 752, 753, 754, 755, 756, 757, 758, 759, 760, 761, 762, 763, 764, 765, 766, 767, 768, 769, 770, 771, 772, 773, 774, 775, 776, 777, 778, 779, 780, 781, 782, 783, 784, 785, 786, 787, 788, 789, 790, 791, 792, 793, 794, 795, 796, 797, 798, 799, 800, 801, 802, 803, 804, 805, 806, 807, 808, 809, 810, 811, 812, 813, 814, 815, 816, 817, 818, 819, 820, 821, 822, 823, 824, 825, 826, 827, 828, 829, 830, 831, 832, 833, 834, 835, 836, 837, 838, 839, 840, 841, 842, 843, 844, 845, 846, 847, 848, 849, 850, 851, 852, 853, 854, 855, 856, 857, 858, 859, 860, 861, 862, 863, 864, 865, 866, 867, 868, 869, 870, 871, 872],
      "AcquisitionTime": ["111202.235000", "111202.695000", "111203.155000", "111203.615000", "111204.075000", "111204.535000", "111204.995000", "111205.455000", "111205.915000", "111206.375000", "111206.835000", "111207.295000", "111207.755000", "111208.215000", "111208.675000", "111209.135000", "111209.595000", "111210.055000", "111210.515000", "111210.975000", "111211.435000", "111211.895000", "111212.355000", "111212.815000", "111213.275000", "111213.735000", "111214.195000", "111214.655000", "111215.115000", "111215.575000", "111216.035000", "111216.495000", "111216.955000", "111217.415000", "111217.875000", "111218.335000", "111218.795000", "111219.255000", "111219.715000", "111220.175000", "111220.635000", "111221.095000", "111221.555000", "111222.015000", "111222.475000", "111222.935000", "111223.395000", "111223.855000", "111224.315000", "111224.775000", "111225.235000", "111225.695000", "111226.155000", "111226.615000", "111227.075000", "111227.535000", "111227.995000", "111228.455000", "111228.915000", "111229.375000", "111229.835000", "111230.295000", "111230.755000", "111231.215000", "111231.675000", "111232.135000", "111232.595000", "111233.055000", "111233.515000", "111233.975000", "111234.435000", "111234.895000", "111235.355000", "111235.815000", "111236.275000", "111236.735000", "111237.195000", "111237.655000", "111238.115000", "111238.575000", "111239.035000", "111239.495000", "111239.955000", "111240.415000", "111240.875000", "111241.335000", "111241.795000", "111242.255000", "111242.715000", "111243.175000", "111243.635000", "111244.095000", "111244.555000", "111245.015000", "111245.475000", "111245.935000", "111246.395000", "111246.855000", "111247.315000", "111247.775000", "111248.235000", "111248.695000", "111249.155000", "111249.615000", "111250.075000", "111250.535000", "111250.995000", "111251.455000", "111251.915000", "111252.375000", "111252.835000", "111253.295000", "111253.755000", "111254.215000", "111254.675000", "111255.135000", "111255.595000", "111256.055000", "111256.515000", "111256.975000", "111257.435000", "111257.895000", "111258.355000", "111258.815000", "111259.275000", "111259.735000", "111300.195000", "111300.655000", "111301.115000", "111301.575000", "111302.035000", "111302.495000", "111302.955000", "111303.415000", "111303.875000", "111304.335000", "111304.795000", "111305.255000", "111305.715000", "111306.175000", "111306.635000", "111307.095000", "111307.555000", "111308.015000", "111308.475000", "111308.935000", "111309.395000", "111309.855000", "111310.315000", "111310.775000", "111311.235000", "111311.695000", "111312.155000", "111312.615000", "111313.075000", "111313.535000", "111313.995000", "111314.455000", "111314.915000", "111315.375000", "111315.835000", "111316.295000", "111316.755000", "111317.215000", "111317.675000", "111318.135000", "111318.595000", "111319.055000", "111319.515000", "111319.975000", "111320.435000", "111320.895000", "111321.355000", "111321.815000", "111322.275000", "111322.735000", "111323.195000", "111323.655000", "111324.115000", "111324.575000", "111325.035000", "111325.495000", "111325.955000", "111326.415000", "111326.875000", "111327.335000", "111327.795000", "111328.255000", "111328.715000", "111329.175000", "111329.635000", "111330.095000", "111330.555000", "111331.015000", "111331.475000", "111331.935000", "111332.395000", "111332.855000", "111333.315000", "111333.775000", "111334.235000", "111334.695000", "111335.155000", "111335.615000", "111336.075000", "111336.535000", "111336.995000", "111337.455000", "111337.915000", "111338.375000", "111338.835000", "111339.295000", "111339.755000", "111340.215000", "111340.675000", "111341.135000", "111341.595000", "111342.055000", "111342.515000", "111342.975000", "111343.435000", "111343.895000", "111344.355000", "111344.815000", "111345.275000", "111345.735000", "111346.195000", "111346.655000", "111347.115000", "111347.575000", "111348.035000", "111348.495000", "111348.955000", "111349.415000", "111349.875000", "111350.335000", "111350.795000", "111351.255000", "111351.715000", "111352.175000", "111352.635000", "111353.095000", "111353.555000", "111354.015000", "111354.475000", "111354.935000", "111355.395000", "111355.855000", "111356.315000", "111356.775000", "111357.235000", "111357.695000", "111358.155000", "111358.615000", "111359.075000", "111359.535000", "111359.995000", "111400.455000", "111400.915000", "111401.375000", "111401.835000", "111402.295000", "111402.755000", "111403.215000", "111403.675000", "111404.135000", "111404.595000", "111405.055000", "111405.515000", "111405.975000", "111406.435000", "111406.895000", "111407.355000", "111407.815000", "111408.275000", "111408.735000", "111409.195000", "111409.655000", "111410.115000", "111410.575000", "111411.035000", "111411.495000", "111411.955000", "111412.415000", "111412.875000", "111413.335000", "111413.795000", "111414.255000", "111414.715000", "111415.175000", "111415.635000", "111416.095000", "111416.555000", "111417.015000", "111417.475000", "111417.935000", "111418.395000", "111418.855000", "111419.315000", "111419.775000", "111420.235000", "111420.695000", "111421.155000", "111421.615000", "111422.075000", "111422.535000", "111422.995000", "111423.455000", "111423.915000", "111424.375000", "111424.835000", "111425.295000", "111425.755000", "111426.215000", "111426.675000", "111427.135000", "111427.595000", "111428.055000", "111428.515000", "111428.975000", "111429.435000", "111429.895000", "111430.355000", "111430.815000", "111431.275000", "111431.735000", "111432.195000", "111432.655000", "111433.115000", "111433.575000", "111434.035000", "111434.495000", "111434.955000", "111435.415000", "111435.875000", "111436.335000", "111436.795000", "111437.255000", "111437.715000", "111438.175000", "111438.635000", "111439.095000", "111439.555000", "111440.015000", "111440.475000", "111440.935000", "111441.395000", "111441.855000", "111442.315000", "111442.775000", "111443.235000", "111443.695000", "111444.155000", "111444.615000", "111445.075000", "111445.535000", "111445.995000", "111446.455000", "111446.915000", "111447.375000", "111447.835000", "111448.295000", "111448.755000", "111449.215000", "111449.675000", "111450.135000", "111450.595000", "111451.055000", "111451.515000", "111451.975000", "111452.435000", "111452.895000", "111453.355000", "111453.815000", "111454.275000", "111454.735000", "111455.195000", "111455.655000", "111456.115000", "111456.575000", "111457.035000", "111457.495000", "111457.955000", "111458.415000", "111458.875000", "111459.335000", "111459.795000", "111500.255000", "111500.715000", "111501.175000", "111501.635000", "111502.095000", "111502.555000", "111503.015000", "111503.475000", "111503.935000", "111504.395000", "111504.855000", "111505.315000", "111505.775000", "111506.235000", "111506.695000", "111507.155000", "111507.615000", "111508.075000", "111508.535000", "111508.995000", "111509.455000", "111509.915000", "111510.375000", "111510.835000", "111511.295000", "111511.755000", "111512.215000", "111512.675000", "111513.135000", "111513.595000", "111514.055000", "111514.515000", "111514.975000", "111515.435000", "111515.895000", "111516.355000", "111516.815000", "111517.275000", "111517.735000", "111518.195000", "111518.655000", "111519.115000", "111519.575000", "111520.035000", "111520.495000", "111520.955000", "111521.415000", "111521.875000", "111522.335000", "111522.795000", "111523.255000", "111523.715000", "111524.175000", "111524.635000", "111525.095000", "111525.555000", "111526.015000", "111526.475000", "111526.935000", "111527.395000", "111527.855000", "111528.315000", "111528.775000", "111529.235000", "111529.695000", "111530.155000", "111530.615000", "111531.075000", "111531.535000", "111531.995000", "111532.455000", "111532.915000", "111533.375000", "111533.835000", "111534.295000", "111534.755000", "111535.215000", "111535.675000", "111536.135000", "111536.595000", "111537.055000", "111537.515000", "111537.975000", "111538.435000", "111538.895000", "111539.355000", "111539.815000", "111540.275000", "111540.735000", "111541.195000", "111541.655000", "111542.115000", "111542.575000", "111543.035000", "111543.495000", "111543.955000", "111544.415000", "111544.875000", "111545.335000", "111545.795000", "111546.255000", "111546.715000", "111547.175000", "111547.635000", "111548.095000", "111548.555000", "111549.015000", "111549.475000", "111549.935000", "111550.395000", "111550.855000", "111551.315000", "111551.775000", "111552.235000", "111552.695000", "111553.155000", "111553.615000", "111554.075000", "111554.535000", "111554.995000", "111555.455000", "111555.915000", "111556.375000", "111556.835000", "111557.295000", "111557.755000", "111558.215000", "111558.675000", "111559.135000", "111559.595000", "111600.055000", "111600.515000", "111600.975000", "111601.435000", "111601.895000", "111602.355000", "111602.815000", "111603.275000", "111603.735000", "111604.195000", "111604.655000", "111605.115000", "111605.575000", "111606.035000", "111606.495000", "111606.955000", "111607.415000", "111607.875000", "111608.335000", "111608.795000", "111609.255000", "111609.715000", "111610.175000", "111610.635000", "111611.095000", "111611.555000", "111612.015000", "111612.475000", "111612.935000", "111613.395000", "111613.855000", "111614.315000", "111614.775000", "111615.235000", "111615.695000", "111616.155000", "111616.615000", "111617.075000", "111617.535000", "111617.995000", "111618.455000", "111618.915000", "111619.375000", "111619.835000", "111620.295000", "111620.755000", "111621.215000", "111621.675000", "111622.135000", "111622.595000", "111623.055000", "111623.515000", "111623.975000", "111624.435000", "111624.895000", "111625.355000", "111625.815000", "111626.275000", "111626.735000", "111627.195000", "111627.655000", "111628.115000", "111628.575000", "111629.035000", "111629.495000", "111629.955000", "111630.415000", "111630.875000", "111631.335000", "111631.795000", "111632.255000", "111632.715000", "111633.175000", "111633.635000", "111634.095000", "111634.555000", "111635.015000", "111635.475000", "111635.935000", "111636.395000", "111636.855000", "111637.315000", "111637.775000", "111638.235000", "111638.695000", "111639.155000", "111639.615000", "111640.075000", "111640.535000", "111640.995000", "111641.455000", "111641.915000", "111642.375000", "111642.835000", "111643.295000", "111643.755000", "111644.215000", "111644.675000", "111645.135000", "111645.595000", "111646.055000", "111646.515000", "111646.975000", "111647.435000", "111647.895000", "111648.355000", "111648.815000", "111649.275000", "111649.735000", "111650.195000", "111650.655000", "111651.115000", "111651.575000", "111652.035000", "111652.495000", "111652.955000", "111653.415000", "111653.875000", "111654.335000", "111654.795000", "111655.255000", "111655.715000", "111656.175000", "111656.635000", "111657.095000", "111657.555000", "111658.015000", "111658.475000", "111658.935000", "111659.395000", "111659.855000", "111700.315000", "111700.775000", "111701.235000", "111701.695000", "111702.155000", "111702.615000", "111703.075000", "111703.535000", "111703.995000", "111704.455000", "111704.915000", "111705.375000", "111705.835000", "111706.295000", "111706.755000", "111707.215000", "111707.675000", "111708.135000", "111708.595000", "111709.055000", "111709.515000", "111709.975000", "111710.435000", "111710.895000", "111711.355000", "111711.815000", "111712.275000", "111712.735000", "111713.195000", "111713.655000", "111714.115000", "111714.575000", "111715.035000", "111715.495000", "111715.955000", "111716.415000", "111716.875000", "111717.335000", "111717.795000", "111718.255000", "111718.715000", "111719.175000", "111719.635000", "111720.095000", "111720.555000", "111721.015000", "111721.475000", "111721.935000", "111722.395000", "111722.855000", "111723.315000", "111723.775000", "111724.235000", "111724.695000", "111725.155000", "111725.615000", "111726.075000", "111726.535000", "111726.995000", "111727.455000", "111727.915000", "111728.375000", "111728.835000", "111729.295000", "111729.755000", "111730.215000", "111730.675000", "111731.135000", "111731.595000", "111732.055000", "111732.515000", "111732.975000", "111733.435000", "111733.895000", "111734.355000", "111734.815000", "111735.275000", "111735.735000", "111736.195000", "111736.655000", "111737.115000", "111737.575000", "111738.035000", "111738.495000", "111738.955000", "111739.415000", "111739.875000", "111740.335000", "111740.795000", "111741.255000", "111741.715000", "111742.175000", "111742.635000", "111743.095000", "111743.555000", "111744.015000", "111744.475000", "111744.935000", "111745.395000", "111745.855000", "111746.315000", "111746.775000", "111747.235000", "111747.695000", "111748.155000", "111748.615000", "111749.075000", "111749.535000", "111749.995000", "111750.455000", "111750.915000", "111751.375000", "111751.835000", "111752.295000", "111752.755000", "111753.215000", "111753.675000", "111754.135000", "111754.595000", "111755.055000", "111755.515000", "111755.975000", "111756.435000", "111756.895000", "111757.355000", "111757.815000", "111758.275000", "111758.735000", "111759.195000", "111759.655000", "111800.115000", "111800.575000", "111801.035000", "111801.495000", "111801.955000", "111802.415000", "111802.875000", "111803.335000", "111803.795000", "111804.255000", "111804.715000", "111805.175000", "111805.635000", "111806.095000", "111806.555000", "111807.015000", "111807.475000", "111807.935000", "111808.395000", "111808.855000", "111809.315000", "111809.775000", "111810.235000", "111810.695000", "111811.155000", "111811.615000", "111812.075000", "111812.535000", "111812.995000", "111813.455000", "111813.915000", "111814.375000", "111814.835000", "111815.295000", "111815.755000", "111816.215000", "111816.675000", "111817.135000", "111817.595000", "111818.055000", "111818.515000", "111818.975000", "111819.435000", "111819.895000", "111820.355000", "111820.815000", "111821.275000", "111821.735000", "111822.195000", "111822.655000", "111823.115000", "111823.575000", "111824.035000", "111824.495000", "111824.955000", "111825.415000", "111825.875000", "111826.335000", "111826.795000", "111827.255000", "111827.715000", "111828.175000", "111828.635000", "111829.095000", "111829.555000", "111830.015000", "111830.475000", "111830.935000", "111831.395000", "111831.855000", "111832.315000", "111832.775000", "111833.235000", "111833.695000", "111834.155000", "111834.615000", "111835.075000", "111835.535000", "111835.995000", "111836.455000", "111836.915000", "111837.375000", "111837.835000", "111838.295000", "111838.755000", "111839.215000", "111839.675000", "111840.135000", "111840.595000", "111841.055000", "111841.515000", "111841.975000", "111842.435000", "111842.895000"],
