{
  "AcquisitionMatrixPE": 82,
  "AcquisitionNumber": 1,
  "AcquisitionTime": "21:58:37.435000",
  "BandwidthPerPixelPhaseEncode": 24.888,
  "BaseResolution": 82,
  "BodyPartExamined": "BRAIN",
  "ConsistencyInfo": "N4_VE11E_LATEST_20181129",
  "ConversionSoftware": "dcm2niix",
  "ConversionSoftwareVersion": "v1.0.20201102",
  "DerivedVendorReportedEchoSpacing": 0.00049,
  "DeviceSerialNumber": "66112",
  "DwellTime": 2e-06,
  "EchoTime": 0.0272,
  "EchoTrainLength": 82,
  "EffectiveEchoSpacing": 0.00049,
  "FlipAngle": 44,
  "ImageComments": "Unaliased MB8/PE3",
  "ImageOrientationPatientDICOM": [0.999716, 0.013493, 0.0196481, -0.0118654, 0.996666, -0.0807215],
  "ImageType": [
    "ORIGINAL",
    "PRIMARY",
    "M",
    "MB",
    "ND",
    "NORM",
    "MOSAIC"
],
  "ImagingFrequency": 123.259,
  "InPlanePhaseEncodingDirectionDICOM": "COL",
  "InstitutionAddress": "Maynard 3,Hanover,NH,US,03755",
  "InstitutionName": "Dartmouth College - PBS",
  "InstitutionalDepartmentName": "Department",
  "MRAcquisitionType": "2D",
  "MagneticFieldStrength": 3,
  "Manufacturer": "Siemens",
  "ManufacturersModelName": "Prisma",
  "Modality": "MR",
  "MultibandAccelerationFactor": 8,
  "PartialFourier": 1,
  "PatientPosition": "HFS",
  "PercentPhaseFOV": 100,
  "PercentSampling": 100,
  "PhaseEncodingDirection": "j-",
  "PhaseEncodingSteps": 82,
  "PhaseResolution": 1,
  "PixelBandwidth": 3050,
  "ProcedureStepDescription": "Wager_Wager^1076_spacetop",
  "ProtocolName": "func_run-05_task-social_acq-ap-mb8",
  "PulseSequenceDetails": "%CustomerSeq%\\cmrr_mbep2d_bold",
  "ReceiveCoilActiveElements": "HEA;HEP",
  "ReceiveCoilName": "Head_32",
  "ReconMatrixPE": 82,
  "RepetitionTime": 0.46,
  "SAR": 0.0822304,
  "ScanOptions": "FS",
  "ScanningSequence": "EP",
  "SequenceName": "epfid2d1_82",
  "SequenceVariant": "SK\\SS",
  "SeriesDescription": "func_run-05_task-social_acq-ap-mb8",
  "SeriesNumber": 21,
  "ShimSetting": [4222, -7719, -7280, 230, -111, -98, -104, 94],
  "SliceThickness": 2.7,
  "SliceTiming": [0, 0.2525, 0.065, 0.315, 0.1275, 0.3775, 0.19, 0, 0.2525, 0.065, 0.315, 0.1275, 0.3775, 0.19, 0, 0.2525, 0.065, 0.315, 0.1275, 0.3775, 0.19, 0, 0.2525, 0.065, 0.315, 0.1275, 0.3775, 0.19, 0, 0.2525, 0.065, 0.315, 0.1275, 0.3775, 0.19, 0, 0.2525, 0.065, 0.315, 0.1275, 0.3775, 0.19, 0, 0.2525, 0.065, 0.315, 0.1275, 0.3775, 0.19, 0, 0.2525, 0.065, 0.315, 0.1275, 0.3775, 0.19],
  "SoftwareVersions": "syngo MR E11",
  "SpacingBetweenSlices": 2.7,
  "StationName": "AWP66112",
  "TaskName": "social",
  "TotalReadoutTime": 0.03969,
  "TxRefAmp": 241.019,
  "WipMemBlock": "26ac0dde-85e1-4e80-b138-61e04f70c437||Sequence: R016 ve11e/master r/434b28f1; Aug  7 2019 18:53:46 by eja",
  "dcmmeta_affine": [
    [-2.6821646690368652, -0.031833913177251816, 0.05581387132406235, 112.94351959228516],
    [-0.03620075434446335, 2.6739821434020996, -0.21725666522979736, -101.35795593261719],
    [0.0527145080268383, 0.21656987071037292, 2.6906661987304688, -108.70662689208984],
    [0.0, 0.0, 0.0, 1.0]
],
  "dcmmeta_reorient_transform": [
    [0.0, -1.0, 0.0, 81.0],
    [1.0, 0.0, 0.0, 0.0],
    [0.0, 0.0, 1.0, 0.0],
    [0.0, 0.0, 0.0, 1.0]
],
  "dcmmeta_shape": [82, 82, 56, 872],
  "dcmmeta_slice_dim": 2,
  "dcmmeta_version": 0.6,
  "global": {
    "const": {
      "AccessionNumber": "A004922",
      "AcquisitionMatrix": [82, 0, 0, 82],
      "AngioFlag": "N",
      "BitsAllocated": 16,
      "BitsStored": 16,
      "BodyPartExamined": "BRAIN",
      "Columns": 656,
      "EchoNumbers": 1,
      "EchoTime": 27.2,
      "EchoTrainLength": 82,
      "FlipAngle": 44.0,
      "HighBit": 15,
      "ImageOrientationPatient": [0.99971590441812, 0.01349300831921, 0.01964813426152, -0.0118653676366, 0.99666606889625, -0.0807214975192],
      "ImagePositionPatient": [-871.009904937, -893.0571108129, -44.137976893638],
      "ImageType": [
        "ORIGINAL",
        "PRIMARY",
        "M",
        "MB",
        "ND",
        "NORM",
        "MOSAIC"
],
      "ImagedNucleus": "1H",
      "ImagingFrequency": 123.259115,
      "InPlanePhaseEncodingDirection": "COL",
      "MRAcquisitionType": "2D",
      "MagneticFieldStrength": 3.0,
      "Manufacturer": "SIEMENS",
      "ManufacturerModelName": "Prisma",
      "Modality": "MR",
      "NumberOfAverages": 1.0,
      "NumberOfPhaseEncodingSteps": 82,
      "PercentPhaseFieldOfView": 100.0,
      "PercentSampling": 100.0,
      "PerformedProcedureStepStartTime": "210258.080000",
      "PhotometricInterpretation": "MONOCHROME2",
      "PixelBandwidth": 3050.0,
      "PixelRepresentation": 0,
      "PixelSpacing": [2.6829268932343, 2.6829268932343],
      "ProtocolName": "func_run-05_task-social_acq-ap-mb8",
      "RepetitionTime": 460.0,
      "Rows": 656,
      "SAR": 0.08223042629703,
      "SamplesPerPixel": 1,
      "ScanOptions": "FS",
      "ScanningSequence": "EP",
      "SequenceName": "epfid2d1_82",
      "SequenceVariant": [
        "SK",
        "SS"
],
      "SeriesDescription": "func_run-05_task-social_acq-ap-mb8",
      "SeriesNumber": 21,
      "SeriesTime": "215859.824000",
      "SliceLocation": -97.840272977154,
      "SliceThickness": 2.7000000476837,
      "SmallestImagePixelValue": 0,
      "SoftwareVersions": "syngo MR E11",
      "SpacingBetweenSlices": 2.6999999748208,
      "SpecificCharacterSet": "ISO_IR 100",
      "StudyID": "1",
      "StudyTime": "210258.020000",
      "TransmitCoilName": "Body",
      "VariableFlipAngleFlag": "N",
      "WindowCenterWidthExplanation": "Algo1"
    },
    "slices": {}
  },
  "time": {
    "samples": {
      "AcquisitionNumber": [1, 2, 3, 4, 5, 6, 7, 8, 9, 10, 11, 12, 13, 14, 15, 16, 17, 18, 19, 20, 21, 22, 23, 24, 25, 26, 27, 28, 29, 30, 31, 32, 33, 34, 35, 36, 37, 38, 39, 40, 41, 42, 43, 44, 45, 46, 47, 48, 49, 50, 51, 52, 53, 54, 55, 56, 57, 58, 59, 60, 61, 62, 63, 64, 65, 66, 67, 68, 69, 70, 71, 72, 73, 74, 75, 76, 77, 78, 79, 80, 81, 82, 83, 84, 85, 86, 87, 88, 89, 90, 91, 92, 93, 94, 95, 96, 97, 98, 99, 100, 101, 102, 103, 104, 105, 106, 107, 108, 109, 110, 111, 112, 113, 114, 115, 116, 117, 118, 119, 120, 121, 122, 123, 124, 125, 126, 127, 128, 129, 130, 131, 132, 133, 134, 135, 136, 137, 138, 139, 140, 141, 142, 143, 144, 145, 146, 147, 148, 149, 150, 151, 152, 153, 154, 155, 156, 157, 158, 159, 160, 161, 162, 163, 164, 165, 166, 167, 168, 169, 170, 171, 172, 173, 174, 175, 176, 177, 178, 179, 180, 181, 182, 183, 184, 185, 186, 187, 188, 189, 190, 191, 192, 193, 194, 195, 196, 197, 198, 199, 200, 201, 202, 203, 204, 205, 206, 207, 208, 209, 210, 211, 212, 213, 214, 215, 216, 217, 218, 219, 220, 221, 222, 223, 224, 225, 226, 227, 228, 229, 230, 231, 232, 233, 234, 235, 236, 237, 238, 239, 240, 241, 242, 243, 244, 245, 246, 247, 248, 249, 250, 251, 252, 253, 254, 255, 256, 257, 258, 259, 260, 261, 262, 263, 264, 265, 266, 267, 268, 269, 270, 271, 272, 273, 274, 275, 276, 277, 278, 279, 280, 281, 282, 283, 284, 285, 286, 287, 288, 289, 290, 291, 292, 293, 294, 295, 296, 297, 298, 299, 300, 301, 302, 303, 304, 305, 306, 307, 308, 309, 310, 311, 312, 313, 314, 315, 316, 317, 318, 319, 320, 321, 322, 323, 324, 325, 326, 327, 328, 329, 330, 331, 332, 333, 334, 335, 336, 337, 338, 339, 340, 341, 342, 343, 344, 345, 346, 347, 348, 349, 350, 351, 352, 353, 354, 355, 356, 357, 358, 359, 360, 361, 362, 363, 364, 365, 366, 367, 368, 369, 370, 371, 372, 373, 374, 375, 376, 377, 378, 379, 380, 381, 382, 383, 384, 385, 386, 387, 388, 389, 390, 391, 392, 393, 394, 395, 396, 397, 398, 399, 400, 401, 402, 403, 404, 405, 406, 407, 408, 409, 410, 411, 412, 413, 414, 415, 416, 417, 418, 419, 420, 421, 422, 423, 424, 425, 426, 427, 428, 429, 430, 431, 432, 433, 434, 435, 436, 437, 438, 439, 440, 441, 442, 443, 444, 445, 446, 447, 448, 449, 450, 451, 452, 453, 454, 455, 456, 457, 458, 459, 460, 461, 462, 463, 464, 465, 466, 467, 468, 469, 470, 471, 472, 473, 474, 475, 476, 477, 478, 479, 480, 481, 482, 483, 484, 485, 486, 487, 488, 489, 490, 491, 492, 493, 494, 495, 496, 497, 498, 499, 500, 501, 502, 503, 504, 505, 506, 507, 508, 509, 510, 511, 512, 513, 514, 515, 516, 517, 518, 519, 520, 521, 522, 523, 524, 525, 526, 527, 528, 529, 530, 531, 532, 533, 534, 535, 536, 537, 538, 539, 540, 541, 542, 543, 544, 545, 546, 547, 548, 549, 550, 551, 552, 553, 554, 555, 556, 557, 558, 559, 560, 561, 562, 563, 564, 565, 566, 567, 568, 569, 570, 571, 572, 573, 574, 575, 576, 577, 578, 579, 580, 581, 582, 583, 584, 585, 586, 587, 588, 589, 590, 591, 592, 593, 594, 595, 596, 597, 598, 599, 600, 601, 602, 603, 604, 605, 606, 607, 608, 609, 610, 611, 612, 613, 614, 615, 616, 617, 618, 619, 620, 621, 622, 623, 624, 625, 626, 627, 628, 629, 630, 631, 632, 633, 634, 635, 636, 637, 638, 639, 640, 641, 642, 643, 644, 645, 646, 647, 648, 649, 650, 651, 652, 653, 654, 655, 656, 657, 658, 659, 660, 661, 662, 663, 664, 665, 666, 667, 668, 669, 670, 671, 672, 673, 674, 675, 676, 677, 678, 679, 680, 681, 682, 683, 684, 685, 686, 687, 688, 689, 690, 691, 692, 693, 694, 695, 696, 697, 698, 699, 700, 701, 702, 703, 704, 705, 706, 707, 708, 709, 710, 711, 712, 713, 714, 715, 716, 717, 718, 719, 720, 721, 722, 723, 724, 725, 726, 727, 728, 729, 730, 731, 732, 733, 734, 735, 736, 737, 738, 739, 740, 741, 742, 743, 744, 745, 746, 747, 748, 749, 750, 751, 752, 753, 754, 755, 756, 757, 758, 759, 760, 761, 762, 763, 764, 765, 766, 767, 768, 769, 770, 771, 772, 773, 774, 775, 776, 777, 778, 779, 780, 781, 782, 783, 784, 785, 786, 787, 788, 789, 790, 791, 792, 793, 794, 795, 796, 797, 798, 799, 800, 801, 802, 803, 804, 805, 806, 807, 808, 809, 810, 811, 812, 813, 814, 815, 816, 817, 818, 819, 820, 821, 822, 823, 824, 825, 826, 827, 828, 829, 830, 831, 832, 833, 834, 835, 836, 837, 838, 839, 840, 841, 842, 843, 844, 845, 846, 847, 848, 849, 850, 851, 852, 853, 854, 855, 856, 857, 858, 859, 860, 861, 862, 863, 864, 865, 866, 867, 868, 869, 870, 871, 872],
      "AcquisitionTime": ["215837.435000", "215837.895000", "215838.355000", "215838.815000", "215839.275000", "215839.735000", "215840.195000", "215840.655000", "215841.115000", "215841.575000", "215842.035000", "215842.495000", "215842.955000", "215843.415000", "215843.875000", "215844.335000", "215844.795000", "215845.255000", "215845.715000", "215846.175000", "215846.635000", "215847.095000", "215847.555000", "215848.015000", "215848.475000", "215848.935000", "215849.395000", "215849.855000", "215850.315000", "215850.775000", "215851.235000", "215851.695000", "215852.155000", "215852.615000", "215853.075000", "215853.535000", "215853.995000", "215854.455000", "215854.915000", "215855.375000", "215855.835000", "215856.295000", "215856.755000", "215857.215000", "215857.675000", "215858.135000", "215858.595000", "215859.055000", "215859.515000", "215859.975000", "215900.435000", "215900.895000", "215901.355000", "215901.815000", "215902.275000", "215902.735000", "215903.195000", "215903.655000", "215904.115000", "215904.575000", "215905.035000", "215905.495000", "215905.955000", "215906.415000", "215906.875000", "215907.335000", "215907.795000", "215908.255000", "215908.715000", "215909.175000", "215909.635000", "215910.095000", "215910.555000", "215911.015000", "215911.475000", "215911.935000", "215912.395000", "215912.855000", "215913.315000", "215913.775000", "215914.235000", "215914.695000", "215915.155000", "215915.615000", "215916.075000", "215916.535000", "215916.995000", "215917.455000", "215917.915000", "215918.375000", "215918.835000", "215919.295000", "215919.755000", "215920.215000", "215920.675000", "215921.135000", "215921.595000", "215922.055000", "215922.515000", "215922.975000", "215923.435000", "215923.895000", "215924.355000", "215924.815000", "215925.275000", "215925.735000", "215926.195000", "215926.655000", "215927.115000", "215927.575000", "215928.035000", "215928.495000", "215928.955000", "215929.415000", "215929.875000", "215930.335000", "215930.795000", "215931.255000", "215931.715000", "215932.175000", "215932.635000", "215933.095000", "215933.555000", "215934.015000", "215934.475000", "215934.935000", "215935.395000", "215935.855000", "215936.315000", "215936.775000", "215937.235000", "215937.695000", "215938.155000", "215938.615000", "215939.075000", "215939.535000", "215939.995000", "215940.455000", "215940.915000", "215941.375000", "215941.835000", "215942.295000", "215942.755000", "215943.215000", "215943.675000", "215944.135000", "215944.595000", "215945.055000", "215945.515000", "215945.975000", "215946.435000", "215946.895000", "215947.355000", "215947.815000", "215948.275000", "215948.735000", "215949.195000", "215949.655000", "215950.115000", "215950.575000", "215951.035000", "215951.495000", "215951.955000", "215952.415000", "215952.875000", "215953.335000", "215953.795000", "215954.255000", "215954.715000", "215955.175000", "215955.635000", "215956.095000", "215956.555000", "215957.015000", "215957.475000", "215957.935000", "215958.395000", "215958.855000", "215959.315000", "215959.775000", "220000.235000", "220000.695000", "220001.155000", "220001.615000", "220002.075000", "220002.535000", "220002.995000", "220003.455000", "220003.915000", "220004.375000", "220004.835000", "220005.295000", "220005.755000", "220006.215000", "220006.675000", "220007.135000", "220007.595000", "220008.055000", "220008.515000", "220008.975000", "220009.435000", "220009.895000", "220010.355000", "220010.815000", "220011.275000", "220011.735000", "220012.195000", "220012.655000", "220013.115000", "220013.575000", "220014.035000", "220014.495000", "220014.955000", "220015.415000", "220015.875000", "220016.335000", "220016.795000", "220017.255000", "220017.715000", "220018.175000", "220018.635000", "220019.095000", "220019.555000", "220020.015000", "220020.475000", "220020.935000", "220021.395000", "220021.855000", "220022.315000", "220022.775000", "220023.235000", "220023.695000", "220024.155000", "220024.615000", "220025.075000", "220025.535000", "220025.995000", "220026.455000", "220026.915000", "220027.375000", "220027.835000", "220028.295000", "220028.755000", "220029.215000", "220029.675000", "220030.135000", "220030.595000", "220031.055000", "220031.515000", "220031.975000", "220032.435000", "220032.895000", "220033.355000", "220033.815000", "220034.275000", "220034.735000", "220035.195000", "220035.655000", "220036.115000", "220036.575000", "220037.035000", "220037.495000", "220037.955000", "220038.415000", "220038.875000", "220039.335000", "220039.795000", "220040.255000", "220040.715000", "220041.175000", "220041.635000", "220042.095000", "220042.555000", "220043.015000", "220043.475000", "220043.935000", "220044.395000", "220044.855000", "220045.315000", "220045.775000", "220046.235000", "220046.695000", "220047.155000", "220047.615000", "220048.075000", "220048.535000", "220048.995000", "220049.455000", "220049.915000", "220050.375000", "220050.835000", "220051.295000", "220051.755000", "220052.215000", "220052.675000", "220053.135000", "220053.595000", "220054.055000", "220054.515000", "220054.975000", "220055.435000", "220055.895000", "220056.355000", "220056.815000", "220057.275000", "220057.735000", "220058.195000", "220058.655000", "220059.115000", "220059.575000", "220100.035000", "220100.495000", "220100.955000", "220101.415000", "220101.875000", "220102.335000", "220102.795000", "220103.255000", "220103.715000", "220104.175000", "220104.635000", "220105.095000", "220105.555000", "220106.015000", "220106.475000", "220106.935000", "220107.395000", "220107.855000", "220108.315000", "220108.775000", "220109.235000", "220109.695000", "220110.155000", "220110.615000", "220111.075000", "220111.535000", "220111.995000", "220112.455000", "220112.915000", "220113.375000", "220113.835000", "220114.295000", "220114.755000", "220115.215000", "220115.675000", "220116.135000", "220116.595000", "220117.055000", "220117.515000", "220117.975000", "220118.435000", "220118.895000", "220119.355000", "220119.815000", "220120.275000", "220120.735000", "220121.195000", "220121.655000", "220122.115000", "220122.575000", "220123.035000", "220123.495000", "220123.955000", "220124.415000", "220124.875000", "220125.335000", "220125.795000", "220126.255000", "220126.715000", "220127.175000", "220127.635000", "220128.095000", "220128.555000", "220129.015000", "220129.475000", "220129.935000", "220130.395000", "220130.855000", "220131.315000", "220131.775000", "220132.235000", "220132.695000", "220133.155000", "220133.615000", "220134.075000", "220134.535000", "220134.995000", "220135.455000", "220135.915000", "220136.375000", "220136.835000", "220137.295000", "220137.755000", "220138.215000", "220138.675000", "220139.135000", "220139.595000", "220140.055000", "220140.515000", "220140.975000", "220141.435000", "220141.895000", "220142.355000", "220142.815000", "220143.275000", "220143.735000", "220144.195000", "220144.655000", "220145.115000", "220145.575000", "220146.035000", "220146.495000", "220146.955000", "220147.415000", "220147.875000", "220148.335000", "220148.795000", "220149.255000", "220149.715000", "220150.175000", "220150.635000", "220151.095000", "220151.555000", "220152.015000", "220152.475000", "220152.935000", "220153.395000", "220153.855000", "220154.315000", "220154.775000", "220155.235000", "220155.695000", "220156.155000", "220156.615000", "220157.075000", "220157.535000", "220157.995000", "220158.455000", "220158.915000", "220159.375000", "220159.835000", "220200.295000", "220200.755000", "220201.215000", "220201.675000", "220202.135000", "220202.595000", "220203.055000", "220203.515000", "220203.975000", "220204.435000", "220204.895000", "220205.355000", "220205.815000", "220206.275000", "220206.735000", "220207.195000", "220207.655000", "220208.115000", "220208.575000", "220209.035000", "220209.495000", "220209.955000", "220210.415000", "220210.875000", "220211.335000", "220211.795000", "220212.255000", "220212.715000", "220213.175000", "220213.635000", "220214.095000", "220214.555000", "220215.015000", "220215.475000", "220215.935000", "220216.395000", "220216.855000", "220217.315000", "220217.775000", "220218.235000", "220218.695000", "220219.155000", "220219.615000", "220220.075000", "220220.535000", "220220.995000", "220221.455000", "220221.915000", "220222.375000", "220222.835000", "220223.295000", "220223.755000", "220224.215000", "220224.675000", "220225.135000", "220225.595000", "220226.055000", "220226.515000", "220226.975000", "220227.435000", "220227.895000", "220228.355000", "220228.815000", "220229.275000", "220229.735000", "220230.195000", "220230.655000", "220231.115000", "220231.575000", "220232.035000", "220232.495000", "220232.955000", "220233.415000", "220233.875000", "220234.335000", "220234.795000", "220235.255000", "220235.715000", "220236.175000", "220236.635000", "220237.095000", "220237.555000", "220238.015000", "220238.475000", "220238.935000", "220239.395000", "220239.855000", "220240.315000", "220240.775000", "220241.235000", "220241.695000", "220242.155000", "220242.615000", "220243.075000", "220243.535000", "220243.995000", "220244.455000", "220244.915000", "220245.375000", "220245.835000", "220246.295000", "220246.755000", "220247.215000", "220247.675000", "220248.135000", "220248.595000", "220249.055000", "220249.515000", "220249.975000", "220250.435000", "220250.895000", "220251.355000", "220251.815000", "220252.275000", "220252.735000", "220253.195000", "220253.655000", "220254.115000", "220254.575000", "220255.035000", "220255.495000", "220255.955000", "220256.415000", "220256.875000", "220257.335000", "220257.795000", "220258.255000", "220258.715000", "220259.175000", "220259.635000", "220300.095000", "220300.555000", "220301.015000", "220301.475000", "220301.935000", "220302.395000", "220302.855000", "220303.315000", "220303.775000", "220304.235000", "220304.695000", "220305.155000", "220305.615000", "220306.075000", "220306.535000", "220306.995000", "220307.455000", "220307.915000", "220308.375000", "220308.835000", "220309.295000", "220309.755000", "220310.215000", "220310.675000", "220311.135000", "220311.595000", "220312.055000", "220312.515000", "220312.975000", "220313.435000", "220313.895000", "220314.355000", "220314.815000", "220315.275000", "220315.735000", "220316.195000", "220316.655000", "220317.115000", "220317.575000", "220318.035000", "220318.495000", "220318.955000", "220319.415000", "220319.875000", "220320.335000", "220320.795000", "220321.255000", "220321.715000", "220322.175000", "220322.635000", "220323.095000", "220323.555000", "220324.015000", "220324.475000", "220324.935000", "220325.395000", "220325.855000", "220326.315000", "220326.775000", "220327.235000", "220327.695000", "220328.155000", "220328.615000", "220329.075000", "220329.535000", "220329.995000", "220330.455000", "220330.915000", "220331.375000", "220331.835000", "220332.295000", "220332.755000", "220333.215000", "220333.675000", "220334.135000", "220334.595000", "220335.055000", "220335.515000", "220335.975000", "220336.435000", "220336.895000", "220337.355000", "220337.815000", "220338.275000", "220338.735000", "220339.195000", "220339.655000", "220340.115000", "220340.575000", "220341.035000", "220341.495000", "220341.955000", "220342.415000", "220342.875000", "220343.335000", "220343.795000", "220344.255000", "220344.715000", "220345.175000", "220345.635000", "220346.095000", "220346.555000", "220347.015000", "220347.475000", "220347.935000", "220348.395000", "220348.855000", "220349.315000", "220349.775000", "220350.235000", "220350.695000", "220351.155000", "220351.615000", "220352.075000", "220352.535000", "220352.995000", "220353.455000", "220353.915000", "220354.375000", "220354.835000", "220355.295000", "220355.755000", "220356.215000", "220356.675000", "220357.135000", "220357.595000", "220358.055000", "220358.515000", "220358.975000", "220359.435000", "220359.895000", "220400.355000", "220400.815000", "220401.275000", "220401.735000", "220402.195000", "220402.655000", "220403.115000", "220403.575000", "220404.035000", "220404.495000", "220404.955000", "220405.415000", "220405.875000", "220406.335000", "220406.795000", "220407.255000", "220407.715000", "220408.175000", "220408.635000", "220409.095000", "220409.555000", "220410.015000", "220410.475000", "220410.935000", "220411.395000", "220411.855000", "220412.315000", "220412.775000", "220413.235000", "220413.695000", "220414.155000", "220414.615000", "220415.075000", "220415.535000", "220415.995000", "220416.455000", "220416.915000", "220417.375000", "220417.835000", "220418.295000", "220418.755000", "220419.215000", "220419.675000", "220420.135000", "220420.595000", "220421.055000", "220421.515000", "220421.975000", "220422.435000", "220422.895000", "220423.355000", "220423.815000", "220424.275000", "220424.735000", "220425.195000", "220425.655000", "220426.115000", "220426.575000", "220427.035000", "220427.495000", "220427.955000", "220428.415000", "220428.875000", "220429.335000", "220429.795000", "220430.255000", "220430.715000", "220431.175000", "220431.635000", "220432.095000", "220432.555000", "220433.015000", "220433.475000", "220433.935000", "220434.395000", "220434.855000", "220435.315000", "220435.775000", "220436.235000", "220436.695000", "220437.155000", "220437.615000", "220438.075000", "220438.535000", "220438.995000", "220439.455000", "220439.915000", "220440.375000", "220440.835000", "220441.295000", "220441.755000", "220442.215000", "220442.675000", "220443.135000", "220443.595000", "220444.055000", "220444.515000", "220444.975000", "220445.435000", "220445.895000", "220446.355000", "220446.815000", "220447.275000", "220447.735000", "220448.195000", "220448.655000", "220449.115000", "220449.575000", "220450.035000", "220450.495000", "220450.955000", "220451.415000", "220451.875000", "220452.335000", "220452.795000", "220453.255000", "220453.715000", "220454.175000", "220454.635000", "220455.095000", "220455.555000", "220456.015000", "220456.475000", "220456.935000", "220457.395000", "220457.855000", "220458.315000", "220458.775000", "220459.235000", "220459.695000", "220500.155000", "220500.615000", "220501.075000", "220501.535000", "220501.995000", "220502.455000", "220502.915000", "220503.375000", "220503.835000", "220504.295000", "220504.755000", "220505.215000", "220505.675000", "220506.135000", "220506.595000", "220507.055000", "220507.515000", "220507.975000", "220508.435000", "220508.895000", "220509.355000", "220509.815000", "220510.275000", "220510.735000", "220511.195000", "220511.655000", "220512.115000", "220512.575000", "220513.035000", "220513.495000", "220513.955000", "220514.415000", "220514.875000", "220515.335000", "220515.795000", "220516.255000", "220516.715000", "220517.175000", "220517.635000", "220518.095000"],
