{
  "AcquisitionMatrixPE": 82,
  "AcquisitionNumber": 1,
  "AcquisitionTime": "22:17:14.320000",
  "BandwidthPerPixelPhaseEncode": 24.888,
  "BaseResolution": 82,
  "BodyPartExamined": "BRAIN",
  "ConsistencyInfo": "N4_VE11E_LATEST_20181129",
  "ConversionSoftware": "dcm2niix",
  "ConversionSoftwareVersion": "v1.0.20201102",
  "DerivedVendorReportedEchoSpacing": 0.00049,
  "DeviceSerialNumber": "66112",
  "DwellTime": 2e-06,
  "EchoTime": 0.0272,
  "EchoTrainLength": 82,
  "EffectiveEchoSpacing": 0.00049,
  "FlipAngle": 44,
  "ImageComments": "Unaliased MB8/PE3",
  "ImageOrientationPatientDICOM": [0.99986, 0.0137017, 0.00959308, -0.0108199, 0.967214, -0.253732],
  "ImageType": [
    "ORIGINAL",
    "PRIMARY",
    "M",
    "MB",
    "ND",
    "NORM",
    "MOSAIC"
],
  "ImagingFrequency": 123.259,
  "InPlanePhaseEncodingDirectionDICOM": "COL",
  "InstitutionAddress": "Maynard 3,Hanover,NH,US,03755",
  "InstitutionName": "Dartmouth College - PBS",
  "InstitutionalDepartmentName": "Department",
  "MRAcquisitionType": "2D",
  "MagneticFieldStrength": 3,
  "Manufacturer": "Siemens",
  "ManufacturersModelName": "Prisma",
  "Modality": "MR",
  "MultibandAccelerationFactor": 8,
  "PartialFourier": 1,
  "PatientPosition": "HFS",
  "PercentPhaseFOV": 100,
  "PercentSampling": 100,
  "PhaseEncodingDirection": "j-",
  "PhaseEncodingSteps": 82,
  "PhaseResolution": 1,
  "PixelBandwidth": 3050,
  "ProcedureStepDescription": "Wager_Wager^1076_spacetop",
  "ProtocolName": "func_run-01_task-alignvideo_acq-ap-mb8",
  "PulseSequenceDetails": "%CustomerSeq%\\cmrr_mbep2d_bold",
  "ReceiveCoilActiveElements": "HEA;HEP",
  "ReceiveCoilName": "Head_32",
  "ReconMatrixPE": 82,
  "RepetitionTime": 0.46,
  "SAR": 0.0823263,
  "ScanOptions": "FS",
  "ScanningSequence": "EP",
  "SequenceName": "epfid2d1_82",
  "SequenceVariant": "SK\\SS",
  "SeriesDescription": "func_run-01_task-alignvideo_acq-ap-mb8",
  "SeriesNumber": 31,
  "ShimSetting": [4222, -7720, -7277, 270, -109, -77, -118, 94],
  "SliceThickness": 2.7,
  "SliceTiming": [0, 0.2525, 0.0625, 0.315, 0.1275, 0.3775, 0.19, 0, 0.2525, 0.0625, 0.315, 0.1275, 0.3775, 0.19, 0, 0.2525, 0.0625, 0.315, 0.1275, 0.3775, 0.19, 0, 0.2525, 0.0625, 0.315, 0.1275, 0.3775, 0.19, 0, 0.2525, 0.0625, 0.315, 0.1275, 0.3775, 0.19, 0, 0.2525, 0.0625, 0.315, 0.1275, 0.3775, 0.19, 0, 0.2525, 0.0625, 0.315, 0.1275, 0.3775, 0.19, 0, 0.2525, 0.0625, 0.315, 0.1275, 0.3775, 0.19],
  "SoftwareVersions": "syngo MR E11",
  "SpacingBetweenSlices": 2.7,
  "StationName": "AWP66112",
  "TaskName": "alignvideo",
  "TotalReadoutTime": 0.03969,
  "TxRefAmp": 241.019,
  "WipMemBlock": "46f6189f-1013-4115-858f-18c11802255f||Sequence: R016 ve11e/master r/434b28f1; Aug  7 2019 18:53:46 by eja",
  "dcmmeta_affine": [
    [-2.682551622390747, -0.029029082506895065, 0.03443882241845131, 113.33238983154297],
    [-0.03676068037748337, 2.5949647426605225, -0.6846994757652283, -88.46437072753906],
    [0.02573753334581852, 0.6807435750961304, 2.611513137817383, -121.31856536865234],
    [0.0, 0.0, 0.0, 1.0]
],
  "dcmmeta_reorient_transform": [
    [0.0, -1.0, 0.0, 81.0],
    [1.0, 0.0, 0.0, 0.0],
    [0.0, 0.0, 1.0, 0.0],
    [0.0, 0.0, 0.0, 1.0]
],
  "dcmmeta_shape": [82, 82, 56, 1073],
  "dcmmeta_slice_dim": 2,
  "dcmmeta_version": 0.6,
  "global": {
    "const": {
      "AccessionNumber": "A004922",
      "AcquisitionMatrix": [82, 0, 0, 82],
      "AngioFlag": "N",
      "BitsAllocated": 16,
      "BitsStored": 16,
      "BodyPartExamined": "BRAIN",
      "Columns": 656,
      "EchoNumbers": 1,
      "EchoTime": 27.2,
      "EchoTrainLength": 82,
      "FlipAngle": 44.0,
      "HighBit": 15,
      "ImageOrientationPatient": [0.99986010822559, 0.01370170767731, 0.00959308010195, -0.0108199302624, 0.96721412048572, -0.253731697354],
      "ImagePositionPatient": [-872.54198829563, -877.03298336048, 121.80840370932],
      "ImageType": [
        "ORIGINAL",
        "PRIMARY",
        "M",
        "MB",
        "ND",
        "NORM",
        "MOSAIC"
],
      "ImagedNucleus": "1H",
      "ImagingFrequency": 123.259111,
      "InPlanePhaseEncodingDirection": "COL",
      "MRAcquisitionType": "2D",
      "MagneticFieldStrength": 3.0,
      "Manufacturer": "SIEMENS",
      "ManufacturerModelName": "Prisma",
      "Modality": "MR",
      "NumberOfAverages": 1.0,
      "NumberOfPhaseEncodingSteps": 82,
      "PercentPhaseFieldOfView": 100.0,
      "PercentSampling": 100.0,
      "PerformedProcedureStepStartTime": "210258.080000",
      "PhotometricInterpretation": "MONOCHROME2",
      "PixelBandwidth": 3050.0,
      "PixelRepresentation": 0,
      "PixelSpacing": [2.6829268932343, 2.6829268932343],
      "ProtocolName": "func_run-01_task-alignvideo_acq-ap-mb8",
      "RepetitionTime": 460.0,
      "Rows": 656,
      "SAR": 0.08232632197166,
      "SamplesPerPixel": 1,
      "ScanOptions": "FS",
      "ScanningSequence": "EP",
      "SequenceName": "epfid2d1_82",
      "SequenceVariant": [
        "SK",
        "SS"
],
      "SeriesDescription": "func_run-01_task-alignvideo_acq-ap-mb8",
      "SeriesNumber": 31,
      "SeriesTime": "221739.707000",
      "SliceLocation": -93.463141465708,
      "SliceThickness": 2.7000000476837,
      "SmallestImagePixelValue": 0,
      "SoftwareVersions": "syngo MR E11",
      "SpacingBetweenSlices": 2.6999999544932,
      "SpecificCharacterSet": "ISO_IR 100",
      "StudyID": "1",
      "StudyTime": "210258.020000",
      "TransmitCoilName": "Body",
      "VariableFlipAngleFlag": "N",
      "WindowCenterWidthExplanation": "Algo1"
    },
    "slices": {}
  },
  "time": {
    "samples": {
      "AcquisitionNumber": [1, 2, 3, 4, 5, 6, 7, 8, 9, 10, 11, 12, 13, 14, 15, 16, 17, 18, 19, 20, 21, 22, 23, 24, 25, 26, 27, 28, 29, 30, 31, 32, 33, 34, 35, 36, 37, 38, 39, 40, 41, 42, 43, 44, 45, 46, 47, 48, 49, 50, 51, 52, 53, 54, 55, 56, 57, 58, 59, 60, 61, 62, 63, 64, 65, 66, 67, 68, 69, 70, 71, 72, 73, 74, 75, 76, 77, 78, 79, 80, 81, 82, 83, 84, 85, 86, 87, 88, 89, 90, 91, 92, 93, 94, 95, 96, 97, 98, 99, 100, 101, 102, 103, 104, 105, 106, 107, 108, 109, 110, 111, 112, 113, 114, 115, 116, 117, 118, 119, 120, 121, 122, 123, 124, 125, 126, 127, 128, 129, 130, 131, 132, 133, 134, 135, 136, 137, 138, 139, 140, 141, 142, 143, 144, 145, 146, 147, 148, 149, 150, 151, 152, 153, 154, 155, 156, 157, 158, 159, 160, 161, 162, 163, 164, 165, 166, 167, 168, 169, 170, 171, 172, 173, 174, 175, 176, 177, 178, 179, 180, 181, 182, 183, 184, 185, 186, 187, 188, 189, 190, 191, 192, 193, 194, 195, 196, 197, 198, 199, 200, 201, 202, 203, 204, 205, 206, 207, 208, 209, 210, 211, 212, 213, 214, 215, 216, 217, 218, 219, 220, 221, 222, 223, 224, 225, 226, 227, 228, 229, 230, 231, 232, 233, 234, 235, 236, 237, 238, 239, 240, 241, 242, 243, 244, 245, 246, 247, 248, 249, 250, 251, 252, 253, 254, 255, 256, 257, 258, 259, 260, 261, 262, 263, 264, 265, 266, 267, 268, 269, 270, 271, 272, 273, 274, 275, 276, 277, 278, 279, 280, 281, 282, 283, 284, 285, 286, 287, 288, 289, 290, 291, 292, 293, 294, 295, 296, 297, 298, 299, 300, 301, 302, 303, 304, 305, 306, 307, 308, 309, 310, 311, 312, 313, 314, 315, 316, 317, 318, 319, 320, 321, 322, 323, 324, 325, 326, 327, 328, 329, 330, 331, 332, 333, 334, 335, 336, 337, 338, 339, 340, 341, 342, 343, 344, 345, 346, 347, 348, 349, 350, 351, 352, 353, 354, 355, 356, 357, 358, 359, 360, 361, 362, 363, 364, 365, 366, 367, 368, 369, 370, 371, 372, 373, 374, 375, 376, 377, 378, 379, 380, 381, 382, 383, 384, 385, 386, 387, 388, 389, 390, 391, 392, 393, 394, 395, 396, 397, 398, 399, 400, 401, 402, 403, 404, 405, 406, 407, 408, 409, 410, 411, 412, 413, 414, 415, 416, 417, 418, 419, 420, 421, 422, 423, 424, 425, 426, 427, 428, 429, 430, 431, 432, 433, 434, 435, 436, 437, 438, 439, 440, 441, 442, 443, 444, 445, 446, 447, 448, 449, 450, 451, 452, 453, 454, 455, 456, 457, 458, 459, 460, 461, 462, 463, 464, 465, 466, 467, 468, 469, 470, 471, 472, 473, 474, 475, 476, 477, 478, 479, 480, 481, 482, 483, 484, 485, 486, 487, 488, 489, 490, 491, 492, 493, 494, 495, 496, 497, 498, 499, 500, 501, 502, 503, 504, 505, 506, 507, 508, 509, 510, 511, 512, 513, 514, 515, 516, 517, 518, 519, 520, 521, 522, 523, 524, 525, 526, 527, 528, 529, 530, 531, 532, 533, 534, 535, 536, 537, 538, 539, 540, 541, 542, 543, 544, 545, 546, 547, 548, 549, 550, 551, 552, 553, 554, 555, 556, 557, 558, 559, 560, 561, 562, 563, 564, 565, 566, 567, 568, 569, 570, 571, 572, 573, 574, 575, 576, 577, 578, 579, 580, 581, 582, 583, 584, 585, 586, 587, 588, 589, 590, 591, 592, 593, 594, 595, 596, 597, 598, 599, 600, 601, 602, 603, 604, 605, 606, 607, 608, 609, 610, 611, 612, 613, 614, 615, 616, 617, 618, 619, 620, 621, 622, 623, 624, 625, 626, 627, 628, 629, 630, 631, 632, 633, 634, 635, 636, 637, 638, 639, 640, 641, 642, 643, 644, 645, 646, 647, 648, 649, 650, 651, 652, 653, 654, 655, 656, 657, 658, 659, 660, 661, 662, 663, 664, 665, 666, 667, 668, 669, 670, 671, 672, 673, 674, 675, 676, 677, 678, 679, 680, 681, 682, 683, 684, 685, 686, 687, 688, 689, 690, 691, 692, 693, 694, 695, 696, 697, 698, 699, 700, 701, 702, 703, 704, 705, 706, 707, 708, 709, 710, 711, 712, 713, 714, 715, 716, 717, 718, 719, 720, 721, 722, 723, 724, 725, 726, 727, 728, 729, 730, 731, 732, 733, 734, 735, 736, 737, 738, 739, 740, 741, 742, 743, 744, 745, 746, 747, 748, 749, 750, 751, 752, 753, 754, 755, 756, 757, 758, 759, 760, 761, 762, 763, 764, 765, 766, 767, 768, 769, 770, 771, 772, 773, 774, 775, 776, 777, 778, 779, 780, 781, 782, 783, 784, 785, 786, 787, 788, 789, 790, 791, 792, 793, 794, 795, 796, 797, 798, 799, 800, 801, 802, 803, 804, 805, 806, 807, 808, 809, 810, 811, 812, 813, 814, 815, 816, 817, 818, 819, 820, 821, 822, 823, 824, 825, 826, 827, 828, 829, 830, 831, 832, 833, 834, 835, 836, 837, 838, 839, 840, 841, 842, 843, 844, 845, 846, 847, 848, 849, 850, 851, 852, 853, 854, 855, 856, 857, 858, 859, 860, 861, 862, 863, 864, 865, 866, 867, 868, 869, 870, 871, 872, 873, 874, 875, 876, 877, 878, 879, 880, 881, 882, 883, 884, 885, 886, 887, 888, 889, 890, 891, 892, 893, 894, 895, 896, 897, 898, 899, 900, 901, 902, 903, 904, 905, 906, 907, 908, 909, 910, 911, 912, 913, 914, 915, 916, 917, 918, 919, 920, 921, 922, 923, 924, 925, 926, 927, 928, 929, 930, 931, 932, 933, 934, 935, 936, 937, 938, 939, 940, 941, 942, 943, 944, 945, 946, 947, 948, 949, 950, 951, 952, 953, 954, 955, 956, 957, 958, 959, 960, 961, 962, 963, 964, 965, 966, 967, 968, 969, 970, 971, 972, 973, 974, 975, 976, 977, 978, 979, 980, 981, 982, 983, 984, 985, 986, 987, 988, 989, 990, 991, 992, 993, 994, 995, 996, 997, 998, 999, 1000, 1001, 1002, 1003, 1004, 1005, 1006, 1007, 1008, 1009, 1010, 1011, 1012, 1013, 1014, 1015, 1016, 1017, 1018, 1019, 1020, 1021, 1022, 1023, 1024, 1025, 1026, 1027, 1028, 1029, 1030, 1031, 1032, 1033, 1034, 1035, 1036, 1037, 1038, 1039, 1040, 1041, 1042, 1043, 1044, 1045, 1046, 1047, 1048, 1049, 1050, 1051, 1052, 1053, 1054, 1055, 1056, 1057, 1058, 1059, 1060, 1061, 1062, 1063, 1064, 1065, 1066, 1067, 1068, 1069, 1070, 1071, 1072, 1073],
      "AcquisitionTime": ["221714.320000", "221714.780000", "221715.240000", "221715.700000", "221716.160000", "221716.620000", "221717.080000", "221717.540000", "221718.000000", "221718.460000", "221718.920000", "221719.380000", "221719.840000", "221720.300000", "221720.760000", "221721.220000", "221721.680000", "221722.140000", "221722.600000", "221723.060000", "221723.520000", "221723.980000", "221724.440000", "221724.900000", "221725.360000", "221725.820000", "221726.280000", "221726.740000", "221727.200000", "221727.660000", "221728.120000", "221728.580000", "221729.040000", "221729.500000", "221729.960000", "221730.420000", "221730.880000", "221731.340000", "221731.800000", "221732.260000", "221732.720000", "221733.180000", "221733.640000", "221734.100000", "221734.560000", "221735.020000", "221735.480000", "221735.940000", "221736.400000", "221736.860000", "221737.320000", "221737.780000", "221738.240000", "221738.700000", "221739.160000", "221739.620000", "221740.080000", "221740.540000", "221741.000000", "221741.460000", "221741.920000", "221742.380000", "221742.840000", "221743.300000", "221743.760000", "221744.220000", "221744.680000", "221745.140000", "221745.600000", "221746.060000", "221746.520000", "221746.980000", "221747.440000", "221747.900000", "221748.360000", "221748.820000", "221749.280000", "221749.740000", "221750.200000", "221750.660000", "221751.120000", "221751.580000", "221752.040000", "221752.500000", "221752.960000", "221753.420000", "221753.880000", "221754.340000", "221754.800000", "221755.260000", "221755.720000", "221756.180000", "221756.640000", "221757.100000", "221757.560000", "221758.020000", "221758.480000", "221758.940000", "221759.400000", "221759.860000", "221800.320000", "221800.780000", "221801.240000", "221801.700000", "221802.160000", "221802.620000", "221803.080000", "221803.540000", "221804.000000", "221804.460000", "221804.920000", "221805.380000", "221805.840000", "221806.300000", "221806.760000", "221807.220000", "221807.680000", "221808.140000", "221808.600000", "221809.060000", "221809.520000", "221809.980000", "221810.440000", "221810.900000", "221811.360000", "221811.820000", "221812.280000", "221812.740000", "221813.200000", "221813.660000", "221814.120000", "221814.580000", "221815.040000", "221815.500000", "221815.960000", "221816.420000", "221816.880000", "221817.340000", "221817.800000", "221818.260000", "221818.720000", "221819.180000", "221819.640000", "221820.100000", "221820.560000", "221821.020000", "221821.480000", "221821.940000", "221822.400000", "221822.860000", "221823.320000", "221823.780000", "221824.240000", "221824.700000", "221825.160000", "221825.620000", "221826.080000", "221826.540000", "221827.000000", "221827.460000", "221827.920000", "221828.380000", "221828.840000", "221829.300000", "221829.760000", "221830.220000", "221830.680000", "221831.140000", "221831.600000", "221832.060000", "221832.520000", "221832.980000", "221833.440000", "221833.900000", "221834.360000", "221834.820000", "221835.280000", "221835.740000", "221836.200000", "221836.660000", "221837.120000", "221837.580000", "221838.040000", "221838.500000", "221838.960000", "221839.420000", "221839.880000", "221840.340000", "221840.800000", "221841.260000", "221841.720000", "221842.180000", "221842.640000", "221843.100000", "221843.560000", "221844.020000", "221844.480000", "221844.940000", "221845.400000", "221845.860000", "221846.320000", "221846.780000", "221847.240000", "221847.700000", "221848.160000", "221848.620000", "221849.080000", "221849.540000", "221850.000000", "221850.460000", "221850.920000", "221851.380000", "221851.840000", "221852.300000", "221852.760000", "221853.220000", "221853.680000", "221854.140000", "221854.600000", "221855.060000", "221855.520000", "221855.980000", "221856.440000", "221856.900000", "221857.360000", "221857.820000", "221858.280000", "221858.740000", "221859.200000", "221859.660000", "221900.120000", "221900.580000", "221901.040000", "221901.500000", "221901.960000", "221902.420000", "221902.880000", "221903.340000", "221903.800000", "221904.260000", "221904.720000", "221905.180000", "221905.640000", "221906.100000", "221906.560000", "221907.020000", "221907.480000", "221907.940000", "221908.400000", "221908.860000", "221909.320000", "221909.780000", "221910.240000", "221910.700000", "221911.160000", "221911.620000", "221912.080000", "221912.540000", "221913.000000", "221913.460000", "221913.920000", "221914.380000", "221914.840000", "221915.300000", "221915.760000", "221916.220000", "221916.680000", "221917.140000", "221917.600000", "221918.060000", "221918.520000", "221918.980000", "221919.440000", "221919.900000", "221920.360000", "221920.820000", "221921.280000", "221921.740000", "221922.200000", "221922.660000", "221923.120000", "221923.580000", "221924.040000", "221924.500000", "221924.960000", "221925.420000", "221925.880000", "221926.340000", "221926.800000", "221927.260000", "221927.720000", "221928.180000", "221928.640000", "221929.100000", "221929.560000", "221930.020000", "221930.480000", "221930.940000", "221931.400000", "221931.860000", "221932.320000", "221932.780000", "221933.240000", "221933.700000", "221934.160000", "221934.620000", "221935.080000", "221935.540000", "221936.000000", "221936.460000", "221936.920000", "221937.380000", "221937.840000", "221938.300000", "221938.760000", "221939.220000", "221939.680000", "221940.140000", "221940.600000", "221941.060000", "221941.520000", "221941.980000", "221942.440000", "221942.900000", "221943.360000", "221943.820000", "221944.280000", "221944.740000", "221945.200000", "221945.660000", "221946.120000", "221946.580000", "221947.040000", "221947.500000", "221947.960000", "221948.420000", "221948.880000", "221949.340000", "221949.800000", "221950.260000", "221950.720000", "221951.180000", "221951.640000", "221952.100000", "221952.560000", "221953.020000", "221953.480000", "221953.940000", "221954.400000", "221954.860000", "221955.320000", "221955.780000", "221956.240000", "221956.700000", "221957.160000", "221957.620000", "221958.080000", "221958.540000", "221959.000000", "221959.460000", "221959.920000", "222000.380000", "222000.840000", "222001.300000", "222001.760000", "222002.220000", "222002.680000", "222003.140000", "222003.600000", "222004.060000", "222004.520000", "222004.980000", "222005.440000", "222005.900000", "222006.360000", "222006.820000", "222007.280000", "222007.740000", "222008.200000", "222008.660000", "222009.120000", "222009.580000", "222010.040000", "222010.500000", "222010.960000", "222011.420000", "222011.880000", "222012.340000", "222012.800000", "222013.260000", "222013.720000", "222014.180000", "222014.640000", "222015.100000", "222015.560000", "222016.020000", "222016.480000", "222016.940000", "222017.400000", "222017.860000", "222018.320000", "222018.780000", "222019.240000", "222019.700000", "222020.160000", "222020.620000", "222021.080000", "222021.540000", "222022.000000", "222022.460000", "222022.920000", "222023.380000", "222023.840000", "222024.300000", "222024.760000", "222025.220000", "222025.680000", "222026.140000", "222026.600000", "222027.060000", "222027.520000", "222027.980000", "222028.440000", "222028.900000", "222029.360000", "222029.820000", "222030.280000", "222030.740000", "222031.200000", "222031.660000", "222032.120000", "222032.580000", "222033.040000", "222033.500000", "222033.960000", "222034.420000", "222034.880000", "222035.340000", "222035.800000", "222036.260000", "222036.720000", "222037.180000", "222037.640000", "222038.100000", "222038.560000", "222039.020000", "222039.480000", "222039.940000", "222040.400000", "222040.860000", "222041.320000", "222041.780000", "222042.240000", "222042.700000", "222043.160000", "222043.620000", "222044.080000", "222044.540000", "222045.000000", "222045.460000", "222045.920000", "222046.380000", "222046.840000", "222047.300000", "222047.760000", "222048.220000", "222048.680000", "222049.140000", "222049.600000", "222050.060000", "222050.520000", "222050.980000", "222051.440000", "222051.900000", "222052.360000", "222052.820000", "222053.280000", "222053.740000", "222054.200000", "222054.660000", "222055.120000", "222055.580000", "222056.040000", "222056.500000", "222056.960000", "222057.420000", "222057.880000", "222058.340000", "222058.800000", "222059.260000", "222059.720000", "222100.180000", "222100.640000", "222101.100000", "222101.560000", "222102.020000", "222102.480000", "222102.940000", "222103.400000", "222103.860000", "222104.320000", "222104.780000", "222105.240000", "222105.700000", "222106.160000", "222106.620000", "222107.080000", "222107.540000", "222108.000000", "222108.460000", "222108.920000", "222109.380000", "222109.840000", "222110.300000", "222110.760000", "222111.220000", "222111.680000", "222112.140000", "222112.600000", "222113.060000", "222113.520000", "222113.980000", "222114.440000", "222114.900000", "222115.360000", "222115.820000", "222116.280000", "222116.740000", "222117.200000", "222117.660000", "222118.120000", "222118.580000", "222119.040000", "222119.500000", "222119.960000", "222120.420000", "222120.880000", "222121.340000", "222121.800000", "222122.260000", "222122.720000", "222123.180000", "222123.640000", "222124.100000", "222124.560000", "222125.020000", "222125.480000", "222125.940000", "222126.400000", "222126.860000", "222127.320000", "222127.780000", "222128.240000", "222128.700000", "222129.160000", "222129.620000", "222130.080000", "222130.540000", "222131.000000", "222131.460000", "222131.920000", "222132.380000", "222132.840000", "222133.300000", "222133.760000", "222134.220000", "222134.680000", "222135.140000", "222135.600000", "222136.060000", "222136.520000", "222136.980000", "222137.440000", "222137.900000", "222138.360000", "222138.820000", "222139.280000", "222139.740000", "222140.200000", "222140.660000", "222141.120000", "222141.580000", "222142.040000", "222142.500000", "222142.960000", "222143.420000", "222143.880000", "222144.340000", "222144.800000", "222145.260000", "222145.720000", "222146.180000", "222146.640000", "222147.100000", "222147.560000", "222148.020000", "222148.480000", "222148.940000", "222149.400000", "222149.860000", "222150.320000", "222150.780000", "222151.240000", "222151.700000", "222152.160000", "222152.620000", "222153.080000", "222153.540000", "222154.000000", "222154.460000", "222154.920000", "222155.380000", "222155.840000", "222156.300000", "222156.760000", "222157.220000", "222157.680000", "222158.140000", "222158.600000", "222159.060000", "222159.520000", "222159.980000", "222200.440000", "222200.900000", "222201.360000", "222201.820000", "222202.280000", "222202.740000", "222203.200000", "222203.660000", "222204.120000", "222204.580000", "222205.040000", "222205.500000", "222205.960000", "222206.420000", "222206.880000", "222207.340000", "222207.800000", "222208.260000", "222208.720000", "222209.180000", "222209.640000", "222210.100000", "222210.560000", "222211.020000", "222211.480000", "222211.940000", "222212.400000", "222212.860000", "222213.320000", "222213.780000", "222214.240000", "222214.700000", "222215.160000", "222215.620000", "222216.080000", "222216.540000", "222217.000000", "222217.460000", "222217.920000", "222218.380000", "222218.840000", "222219.300000", "222219.760000", "222220.220000", "222220.680000", "222221.140000", "222221.600000", "222222.060000", "222222.520000", "222222.980000", "222223.440000", "222223.900000", "222224.360000", "222224.820000", "222225.280000", "222225.740000", "222226.200000", "222226.660000", "222227.120000", "222227.580000", "222228.040000", "222228.500000", "222228.960000", "222229.420000", "222229.880000", "222230.340000", "222230.800000", "222231.260000", "222231.720000", "222232.180000", "222232.640000", "222233.100000", "222233.560000", "222234.020000", "222234.480000", "222234.940000", "222235.400000", "222235.860000", "222236.320000", "222236.780000", "222237.240000", "222237.700000", "222238.160000", "222238.620000", "222239.080000", "222239.540000", "222240.000000", "222240.460000", "222240.920000", "222241.380000", "222241.840000", "222242.300000", "222242.760000", "222243.220000", "222243.680000", "222244.140000", "222244.600000", "222245.060000", "222245.520000", "222245.980000", "222246.440000", "222246.900000", "222247.360000", "222247.820000", "222248.280000", "222248.740000", "222249.200000", "222249.660000", "222250.120000", "222250.580000", "222251.040000", "222251.500000", "222251.960000", "222252.420000", "222252.880000", "222253.340000", "222253.800000", "222254.260000", "222254.720000", "222255.180000", "222255.640000", "222256.100000", "222256.560000", "222257.020000", "222257.480000", "222257.940000", "222258.400000", "222258.860000", "222259.320000", "222259.780000", "222300.240000", "222300.700000", "222301.160000", "222301.620000", "222302.080000", "222302.540000", "222303.000000", "222303.460000", "222303.920000", "222304.380000", "222304.840000", "222305.300000", "222305.760000", "222306.220000", "222306.680000", "222307.140000", "222307.600000", "222308.060000", "222308.520000", "222308.980000", "222309.440000", "222309.900000", "222310.360000", "222310.820000", "222311.280000", "222311.740000", "222312.200000", "222312.660000", "222313.120000", "222313.580000", "222314.040000", "222314.500000", "222314.960000", "222315.420000", "222315.880000", "222316.340000", "222316.800000", "222317.260000", "222317.720000", "222318.180000", "222318.640000", "222319.100000", "222319.560000", "222320.020000", "222320.480000", "222320.940000", "222321.400000", "222321.860000", "222322.320000", "222322.780000", "222323.240000", "222323.700000", "222324.160000", "222324.620000", "222325.080000", "222325.540000", "222326.000000", "222326.460000", "222326.920000", "222327.380000", "222327.840000", "222328.300000", "222328.760000", "222329.220000", "222329.680000", "222330.140000", "222330.600000", "222331.060000", "222331.520000", "222331.980000", "222332.440000", "222332.900000", "222333.360000", "222333.820000", "222334.280000", "222334.740000", "222335.200000", "222335.660000", "222336.120000", "222336.580000", "222337.040000", "222337.500000", "222337.960000", "222338.420000", "222338.880000", "222339.340000", "222339.800000", "222340.260000", "222340.720000", "222341.180000", "222341.640000", "222342.100000", "222342.560000", "222343.020000", "222343.480000", "222343.940000", "222344.400000", "222344.860000", "222345.320000", "222345.780000", "222346.240000", "222346.700000", "222347.160000", "222347.620000", "222348.080000", "222348.540000", "222349.000000", "222349.460000", "222349.920000", "222350.380000", "222350.840000", "222351.300000", "222351.760000", "222352.220000", "222352.680000", "222353.140000", "222353.600000", "222354.060000", "222354.520000", "222354.980000", "222355.440000", "222355.900000", "222356.360000", "222356.820000", "222357.280000", "222357.740000", "222358.200000", "222358.660000", "222359.120000", "222359.580000", "222400.040000", "222400.500000", "222400.960000", "222401.420000", "222401.880000", "222402.340000", "222402.800000", "222403.260000", "222403.720000", "222404.180000", "222404.640000", "222405.100000", "222405.560000", "222406.020000", "222406.480000", "222406.940000", "222407.400000", "222407.860000", "222408.320000", "222408.780000", "222409.240000", "222409.700000", "222410.160000", "222410.620000", "222411.080000", "222411.540000", "222412.000000", "222412.460000", "222412.920000", "222413.380000", "222413.840000", "222414.300000", "222414.760000", "222415.220000", "222415.680000", "222416.140000", "222416.600000", "222417.060000", "222417.520000", "222417.980000", "222418.440000", "222418.900000", "222419.360000", "222419.820000", "222420.280000", "222420.740000", "222421.200000", "222421.660000", "222422.120000", "222422.580000", "222423.040000", "222423.500000", "222423.960000", "222424.420000", "222424.880000", "222425.340000", "222425.800000", "222426.260000", "222426.720000", "222427.180000", "222427.640000", "222428.100000", "222428.560000", "222429.020000", "222429.480000", "222429.940000", "222430.400000", "222430.860000", "222431.320000", "222431.780000", "222432.240000", "222432.700000", "222433.160000", "222433.620000", "222434.080000", "222434.540000", "222435.000000", "222435.460000", "222435.920000", "222436.380000", "222436.840000", "222437.300000", "222437.760000", "222438.220000", "222438.680000", "222439.140000", "222439.600000", "222440.060000", "222440.520000", "222440.980000", "222441.440000", "222441.900000", "222442.360000", "222442.820000", "222443.280000", "222443.740000", "222444.200000", "222444.660000", "222445.120000", "222445.580000", "222446.040000", "222446.500000", "222446.960000", "222447.420000", "222447.880000", "222448.340000", "222448.800000", "222449.260000", "222449.720000", "222450.180000", "222450.640000", "222451.100000", "222451.560000", "222452.020000", "222452.480000", "222452.940000", "222453.400000", "222453.860000", "222454.320000", "222454.780000", "222455.240000", "222455.700000", "222456.160000", "222456.620000", "222457.080000", "222457.540000", "222458.000000", "222458.460000", "222458.920000", "222459.380000", "222459.840000", "222500.300000", "222500.760000", "222501.220000", "222501.680000", "222502.140000", "222502.600000", "222503.060000", "222503.520000", "222503.980000", "222504.440000", "222504.900000", "222505.360000", "222505.820000", "222506.280000", "222506.740000", "222507.200000", "222507.660000", "222508.120000", "222508.580000", "222509.040000", "222509.500000", "222509.960000", "222510.420000", "222510.880000", "222511.340000", "222511.800000", "222512.260000", "222512.720000", "222513.180000", "222513.640000", "222514.100000", "222514.560000", "222515.020000", "222515.480000", "222515.940000", "222516.400000", "222516.860000", "222517.320000", "222517.780000", "222518.240000", "222518.700000", "222519.160000", "222519.620000", "222520.080000", "222520.540000", "222521.000000", "222521.460000", "222521.920000", "222522.380000", "222522.840000", "222523.300000", "222523.760000", "222524.220000", "222524.680000", "222525.140000", "222525.600000", "222526.060000", "222526.520000", "222526.980000", "222527.440000"],
