{
  "AcquisitionMatrixPE": 82,
  "AcquisitionNumber": 1,
  "AcquisitionTime": "13:21:45.725000",
  "BandwidthPerPixelPhaseEncode": 24.888,
  "BaseResolution": 82,
  "BodyPartExamined": "BRAIN",
  "ConsistencyInfo": "N4_VE11C_LATEST_20160120",
  "ConversionSoftware": "dcm2niix",
  "ConversionSoftwareVersion": "v1.0.20201102",
  "DerivedVendorReportedEchoSpacing": 0.00049,
  "DeviceSerialNumber": "66112",
  "DwellTime": 2e-06,
  "EchoTime": 0.0272,
  "EchoTrainLength": 82,
  "EffectiveEchoSpacing": 0.00049,
  "FlipAngle": 44,
  "ImageComments": "Unaliased MB8/PE3",
  "ImageOrientationPatientDICOM": [0.999712, -0.022589, 0.00805869, 0.0228612, 0.99911, -0.0354596],
  "ImageType": [
    "ORIGINAL",
    "PRIMARY",
    "M",
    "MB",
    "ND",
    "NORM",
    "MOSAIC"
],
  "ImagingFrequency": 123.252,
  "InPlanePhaseEncodingDirectionDICOM": "COL",
  "InstitutionAddress": "Maynard 3,Hanover,NH,US,03755",
  "InstitutionName": "Dartmouth College - PBS",
  "InstitutionalDepartmentName": "Department",
  "MRAcquisitionType": "2D",
  "MagneticFieldStrength": 3,
  "Manufacturer": "Siemens",
  "ManufacturersModelName": "Prisma",
  "Modality": "MR",
  "MultibandAccelerationFactor": 8,
  "PartialFourier": 1,
  "PatientPosition": "HFS",
  "PercentPhaseFOV": 100,
  "PercentSampling": 100,
  "PhaseEncodingDirection": "j-",
  "PhaseEncodingSteps": 82,
  "PhaseResolution": 1,
  "PixelBandwidth": 3050,
  "ProcedureStepDescription": "Wager_Wager^1076_spacetop",
  "ProtocolName": "func_run-03_task-social_acq-ap-mb8",
  "PulseSequenceDetails": "%CustomerSeq%\\cmrr_mbep2d_bold",
  "ReceiveCoilActiveElements": "HEA;HEP",
  "ReceiveCoilName": "Head_32",
  "ReconMatrixPE": 82,
  "RepetitionTime": 0.46,
  "SAR": 0.0895521,
  "ScanOptions": "FS",
  "ScanningSequence": "EP",
  "SequenceName": "epfid2d1_82",
  "SequenceVariant": "SK\\SS",
  "SeriesDescription": "func_run-03_task-social_acq-ap-mb8",
  "SeriesNumber": 16,
  "ShimSetting": [4147, -7709, -7282, 562, -81, -177, 68, 73],
  "SliceThickness": 2.7,
  "SliceTiming": [0, 0.2525, 0.0625, 0.315, 0.1275, 0.3775, 0.19, 0, 0.2525, 0.0625, 0.315, 0.1275, 0.3775, 0.19, 0, 0.2525, 0.0625, 0.315, 0.1275, 0.3775, 0.19, 0, 0.2525, 0.0625, 0.315, 0.1275, 0.3775, 0.19, 0, 0.2525, 0.0625, 0.315, 0.1275, 0.3775, 0.19, 0, 0.2525, 0.0625, 0.315, 0.1275, 0.3775, 0.19, 0, 0.2525, 0.0625, 0.315, 0.1275, 0.3775, 0.19, 0, 0.2525, 0.0625, 0.315, 0.1275, 0.3775, 0.19],
  "SoftwareVersions": "syngo MR E11",
  "SpacingBetweenSlices": 2.7,
  "StationName": "AWP66112",
  "TaskName": "social",
  "TotalReadoutTime": 0.03969,
  "TxRefAmp": 260.777,
  "WipMemBlock": "a3b74cec-5a89-43c6-bd18-52b5c6eaaa9f||Sequence: R016 ve11c/master r/e634e98; Dec 19 2017 11:00:25 by eja",
  "dcmmeta_affine": [
    [-2.682155132293701, 0.06133488565683365, 0.019576402381062508, 110.14803314208984],
    [0.06060453876852989, 2.6805379390716553, -0.09621068090200424, -94.56466674804688],
    [0.021620875224471092, 0.0951353907585144, 2.698214292526245, -91.45787048339844],
    [0.0, 0.0, 0.0, 1.0]
],
  "dcmmeta_reorient_transform": [
    [0.0, -1.0, 0.0, 81.0],
    [1.0, 0.0, 0.0, 0.0],
    [0.0, 0.0, 1.0, 0.0],
    [0.0, 0.0, 0.0, 1.0]
],
  "dcmmeta_shape": [82, 82, 56, 872],
  "dcmmeta_slice_dim": 2,
  "dcmmeta_version": 0.6,
  "global": {
    "const": {
      "AccessionNumber": "A003792",
      "AcquisitionMatrix": [82, 0, 0, 82],
      "AngioFlag": "N",
      "BitsAllocated": 16,
      "BitsStored": 16,
      "BodyPartExamined": "BRAIN",
      "Columns": 656,
      "EchoNumbers": 1,
      "EchoTime": 27.2,
      "EchoTrainLength": 82,
      "FlipAngle": 44.0,
      "HighBit": 15,
      "ImageOrientationPatient": [0.99971235673386, -0.0225889645258, 0.00805868942689, 0.02286118462966, 0.99910959675815, -0.0354595530583],
      "ImagePositionPatient": [-902.49780665431, -874.47981942321, -62.653238269782],
      "ImageType": [
        "ORIGINAL",
        "PRIMARY",
        "M",
        "MB",
        "ND",
        "NORM",
        "MOSAIC"
],
      "ImagedNucleus": "1H",
      "ImagingFrequency": 123.252226,
      "InPlanePhaseEncodingDirection": "COL",
      "MRAcquisitionType": "2D",
      "MagneticFieldStrength": 3.0,
      "Manufacturer": "SIEMENS",
      "ManufacturerModelName": "Prisma",
      "Modality": "MR",
      "NumberOfAverages": 1.0,
      "NumberOfPhaseEncodingSteps": 82,
      "PercentPhaseFieldOfView": 100.0,
      "PercentSampling": 100.0,
      "PerformedProcedureStepStartTime": "124220.013000",
      "PhotometricInterpretation": "MONOCHROME2",
      "PixelBandwidth": 3050.0,
      "PixelRepresentation": 0,
      "PixelSpacing": [2.6829268932343, 2.6829268932343],
      "ProtocolName": "func_run-03_task-social_acq-ap-mb8",
      "RepetitionTime": 460.0,
      "Rows": 656,
      "SAR": 0.08955214706369,
      "SamplesPerPixel": 1,
      "ScanOptions": "FS",
      "ScanningSequence": "EP",
      "SequenceName": "epfid2d1_82",
      "SequenceVariant": [
        "SK",
        "SS"
],
      "SeriesDescription": "func_run-03_task-social_acq-ap-mb8",
      "SeriesNumber": 16,
      "SeriesTime": "132206.129000",
      "SliceLocation": -87.229073436979,
      "SliceThickness": 2.7000000476837,
      "SmallestImagePixelValue": 0,
      "SoftwareVersions": "syngo MR E11",
      "SpacingBetweenSlices": 2.7000000309639,
      "SpecificCharacterSet": "ISO_IR 100",
      "StudyID": "1",
      "StudyTime": "124219.874000",
      "TransmitCoilName": "Body",
      "VariableFlipAngleFlag": "N",
      "WindowCenterWidthExplanation": "Algo1",
      "dBdt": 0.0},
    "slices": {}
  },
  "time": {
    "samples": {
      "AcquisitionNumber": [1, 2, 3, 4, 5, 6, 7, 8, 9, 10, 11, 12, 13, 14, 15, 16, 17, 18, 19, 20, 21, 22, 23, 24, 25, 26, 27, 28, 29, 30, 31, 32, 33, 34, 35, 36, 37, 38, 39, 40, 41, 42, 43, 44, 45, 46, 47, 48, 49, 50, 51, 52, 53, 54, 55, 56, 57, 58, 59, 60, 61, 62, 63, 64, 65, 66, 67, 68, 69, 70, 71, 72, 73, 74, 75, 76, 77, 78, 79, 80, 81, 82, 83, 84, 85, 86, 87, 88, 89, 90, 91, 92, 93, 94, 95, 96, 97, 98, 99, 100, 101, 102, 103, 104, 105, 106, 107, 108, 109, 110, 111, 112, 113, 114, 115, 116, 117, 118, 119, 120, 121, 122, 123, 124, 125, 126, 127, 128, 129, 130, 131, 132, 133, 134, 135, 136, 137, 138, 139, 140, 141, 142, 143, 144, 145, 146, 147, 148, 149, 150, 151, 152, 153, 154, 155, 156, 157, 158, 159, 160, 161, 162, 163, 164, 165, 166, 167, 168, 169, 170, 171, 172, 173, 174, 175, 176, 177, 178, 179, 180, 181, 182, 183, 184, 185, 186, 187, 188, 189, 190, 191, 192, 193, 194, 195, 196, 197, 198, 199, 200, 201, 202, 203, 204, 205, 206, 207, 208, 209, 210, 211, 212, 213, 214, 215, 216, 217, 218, 219, 220, 221, 222, 223, 224, 225, 226, 227, 228, 229, 230, 231, 232, 233, 234, 235, 236, 237, 238, 239, 240, 241, 242, 243, 244, 245, 246, 247, 248, 249, 250, 251, 252, 253, 254, 255, 256, 257, 258, 259, 260, 261, 262, 263, 264, 265, 266, 267, 268, 269, 270, 271, 272, 273, 274, 275, 276, 277, 278, 279, 280, 281, 282, 283, 284, 285, 286, 287, 288, 289, 290, 291, 292, 293, 294, 295, 296, 297, 298, 299, 300, 301, 302, 303, 304, 305, 306, 307, 308, 309, 310, 311, 312, 313, 314, 315, 316, 317, 318, 319, 320, 321, 322, 323, 324, 325, 326, 327, 328, 329, 330, 331, 332, 333, 334, 335, 336, 337, 338, 339, 340, 341, 342, 343, 344, 345, 346, 347, 348, 349, 350, 351, 352, 353, 354, 355, 356, 357, 358, 359, 360, 361, 362, 363, 364, 365, 366, 367, 368, 369, 370, 371, 372, 373, 374, 375, 376, 377, 378, 379, 380, 381, 382, 383, 384, 385, 386, 387, 388, 389, 390, 391, 392, 393, 394, 395, 396, 397, 398, 399, 400, 401, 402, 403, 404, 405, 406, 407, 408, 409, 410, 411, 412, 413, 414, 415, 416, 417, 418, 419, 420, 421, 422, 423, 424, 425, 426, 427, 428, 429, 430, 431, 432, 433, 434, 435, 436, 437, 438, 439, 440, 441, 442, 443, 444, 445, 446, 447, 448, 449, 450, 451, 452, 453, 454, 455, 456, 457, 458, 459, 460, 461, 462, 463, 464, 465, 466, 467, 468, 469, 470, 471, 472, 473, 474, 475, 476, 477, 478, 479, 480, 481, 482, 483, 484, 485, 486, 487, 488, 489, 490, 491, 492, 493, 494, 495, 496, 497, 498, 499, 500, 501, 502, 503, 504, 505, 506, 507, 508, 509, 510, 511, 512, 513, 514, 515, 516, 517, 518, 519, 520, 521, 522, 523, 524, 525, 526, 527, 528, 529, 530, 531, 532, 533, 534, 535, 536, 537, 538, 539, 540, 541, 542, 543, 544, 545, 546, 547, 548, 549, 550, 551, 552, 553, 554, 555, 556, 557, 558, 559, 560, 561, 562, 563, 564, 565, 566, 567, 568, 569, 570, 571, 572, 573, 574, 575, 576, 577, 578, 579, 580, 581, 582, 583, 584, 585, 586, 587, 588, 589, 590, 591, 592, 593, 594, 595, 596, 597, 598, 599, 600, 601, 602, 603, 604, 605, 606, 607, 608, 609, 610, 611, 612, 613, 614, 615, 616, 617, 618, 619, 620, 621, 622, 623, 624, 625, 626, 627, 628, 629, 630, 631, 632, 633, 634, 635, 636, 637, 638, 639, 640, 641, 642, 643, 644, 645, 646, 647, 648, 649, 650, 651, 652, 653, 654, 655, 656, 657, 658, 659, 660, 661, 662, 663, 664, 665, 666, 667, 668, 669, 670, 671, 672, 673, 674, 675, 676, 677, 678, 679, 680, 681, 682, 683, 684, 685, 686, 687, 688, 689, 690, 691, 692, 693, 694, 695, 696, 697, 698, 699, 700, 701, 702, 703, 704, 705, 706, 707, 708, 709, 710, 711, 712, 713, 714, 715, 716, 717, 718, 719, 720, 721, 722, 723, 724, 725, 726, 727, 728, 729, 730, 731, 732, 733, 734, 735, 736, 737, 738, 739, 740, 741, 742, 743, 744, 745, 746, 747, 748, 749, 750, 751, 752, 753, 754, 755, 756, 757, 758, 759, 760, 761, 762, 763, 764, 765, 766, 767, 768, 769, 770, 771, 772, 773, 774, 775, 776, 777, 778, 779, 780, 781, 782, 783, 784, 785, 786, 787, 788, 789, 790, 791, 792, 793, 794, 795, 796, 797, 798, 799, 800, 801, 802, 803, 804, 805, 806, 807, 808, 809, 810, 811, 812, 813, 814, 815, 816, 817, 818, 819, 820, 821, 822, 823, 824, 825, 826, 827, 828, 829, 830, 831, 832, 833, 834, 835, 836, 837, 838, 839, 840, 841, 842, 843, 844, 845, 846, 847, 848, 849, 850, 851, 852, 853, 854, 855, 856, 857, 858, 859, 860, 861, 862, 863, 864, 865, 866, 867, 868, 869, 870, 871, 872],
      "AcquisitionTime": ["132145.725000", "132146.185000", "132146.645000", "132147.105000", "132147.565000", "132148.025000", "132148.485000", "132148.945000", "132149.405000", "132149.865000", "132150.325000", "132150.785000", "132151.245000", "132151.705000", "132152.165000", "132152.625000", "132153.085000", "132153.545000", "132154.005000", "132154.465000", "132154.925000", "132155.385000", "132155.845000", "132156.305000", "132156.765000", "132157.225000", "132157.685000", "132158.145000", "132158.605000", "132159.065000", "132159.525000", "132159.985000", "132200.445000", "132200.905000", "132201.365000", "132201.825000", "132202.285000", "132202.745000", "132203.205000", "132203.665000", "132204.125000", "132204.585000", "132205.045000", "132205.505000", "132205.965000", "132206.425000", "132206.885000", "132207.345000", "132207.805000", "132208.265000", "132208.725000", "132209.185000", "132209.645000", "132210.105000", "132210.565000", "132211.025000", "132211.485000", "132211.945000", "132212.405000", "132212.865000", "132213.325000", "132213.785000", "132214.245000", "132214.705000", "132215.165000", "132215.625000", "132216.085000", "132216.545000", "132217.005000", "132217.465000", "132217.925000", "132218.385000", "132218.845000", "132219.305000", "132219.765000", "132220.225000", "132220.685000", "132221.145000", "132221.605000", "132222.065000", "132222.525000", "132222.985000", "132223.445000", "132223.905000", "132224.365000", "132224.825000", "132225.285000", "132225.745000", "132226.205000", "132226.665000", "132227.125000", "132227.585000", "132228.045000", "132228.505000", "132228.965000", "132229.425000", "132229.885000", "132230.345000", "132230.805000", "132231.265000", "132231.725000", "132232.185000", "132232.645000", "132233.105000", "132233.565000", "132234.025000", "132234.485000", "132234.945000", "132235.405000", "132235.865000", "132236.325000", "132236.785000", "132237.245000", "132237.705000", "132238.165000", "132238.625000", "132239.085000", "132239.545000", "132240.005000", "132240.465000", "132240.925000", "132241.385000", "132241.845000", "132242.305000", "132242.765000", "132243.225000", "132243.685000", "132244.145000", "132244.605000", "132245.065000", "132245.525000", "132245.985000", "132246.445000", "132246.905000", "132247.365000", "132247.825000", "132248.285000", "132248.745000", "132249.205000", "132249.665000", "132250.125000", "132250.585000", "132251.045000", "132251.505000", "132251.965000", "132252.425000", "132252.885000", "132253.345000", "132253.805000", "132254.265000", "132254.725000", "132255.185000", "132255.645000", "132256.105000", "132256.565000", "132257.025000", "132257.485000", "132257.945000", "132258.405000", "132258.865000", "132259.325000", "132259.785000", "132300.245000", "132300.705000", "132301.165000", "132301.625000", "132302.085000", "132302.545000", "132303.005000", "132303.465000", "132303.925000", "132304.385000", "132304.845000", "132305.305000", "132305.765000", "132306.225000", "132306.685000", "132307.145000", "132307.605000", "132308.065000", "132308.525000", "132308.985000", "132309.445000", "132309.905000", "132310.365000", "132310.825000", "132311.285000", "132311.745000", "132312.205000", "132312.665000", "132313.125000", "132313.585000", "132314.045000", "132314.505000", "132314.965000", "132315.425000", "132315.885000", "132316.345000", "132316.805000", "132317.265000", "132317.725000", "132318.185000", "132318.645000", "132319.105000", "132319.565000", "132320.025000", "132320.485000", "132320.945000", "132321.405000", "132321.865000", "132322.325000", "132322.785000", "132323.245000", "132323.705000", "132324.165000", "132324.625000", "132325.085000", "132325.545000", "132326.005000", "132326.465000", "132326.925000", "132327.385000", "132327.845000", "132328.305000", "132328.765000", "132329.225000", "132329.685000", "132330.145000", "132330.605000", "132331.065000", "132331.525000", "132331.985000", "132332.445000", "132332.905000", "132333.365000", "132333.825000", "132334.285000", "132334.745000", "132335.205000", "132335.665000", "132336.125000", "132336.585000", "132337.045000", "132337.505000", "132337.965000", "132338.425000", "132338.885000", "132339.345000", "132339.805000", "132340.265000", "132340.725000", "132341.185000", "132341.645000", "132342.105000", "132342.565000", "132343.025000", "132343.485000", "132343.945000", "132344.405000", "132344.865000", "132345.325000", "132345.785000", "132346.245000", "132346.705000", "132347.165000", "132347.625000", "132348.085000", "132348.545000", "132349.005000", "132349.465000", "132349.925000", "132350.385000", "132350.845000", "132351.305000", "132351.765000", "132352.225000", "132352.685000", "132353.145000", "132353.605000", "132354.065000", "132354.525000", "132354.985000", "132355.445000", "132355.905000", "132356.365000", "132356.825000", "132357.285000", "132357.745000", "132358.205000", "132358.665000", "132359.125000", "132359.585000", "132400.045000", "132400.505000", "132400.965000", "132401.425000", "132401.885000", "132402.345000", "132402.805000", "132403.265000", "132403.725000", "132404.185000", "132404.645000", "132405.105000", "132405.565000", "132406.025000", "132406.485000", "132406.945000", "132407.405000", "132407.865000", "132408.325000", "132408.785000", "132409.245000", "132409.705000", "132410.165000", "132410.625000", "132411.085000", "132411.545000", "132412.005000", "132412.465000", "132412.925000", "132413.385000", "132413.845000", "132414.305000", "132414.765000", "132415.225000", "132415.685000", "132416.145000", "132416.605000", "132417.065000", "132417.525000", "132417.985000", "132418.445000", "132418.905000", "132419.365000", "132419.825000", "132420.285000", "132420.745000", "132421.205000", "132421.665000", "132422.125000", "132422.585000", "132423.045000", "132423.505000", "132423.965000", "132424.425000", "132424.885000", "132425.345000", "132425.805000", "132426.265000", "132426.725000", "132427.185000", "132427.645000", "132428.105000", "132428.565000", "132429.025000", "132429.485000", "132429.945000", "132430.405000", "132430.865000", "132431.325000", "132431.785000", "132432.245000", "132432.705000", "132433.165000", "132433.625000", "132434.085000", "132434.545000", "132435.005000", "132435.465000", "132435.925000", "132436.385000", "132436.845000", "132437.305000", "132437.765000", "132438.225000", "132438.685000", "132439.145000", "132439.605000", "132440.065000", "132440.525000", "132440.985000", "132441.445000", "132441.905000", "132442.365000", "132442.825000", "132443.285000", "132443.745000", "132444.205000", "132444.665000", "132445.125000", "132445.585000", "132446.045000", "132446.505000", "132446.965000", "132447.425000", "132447.885000", "132448.345000", "132448.805000", "132449.265000", "132449.725000", "132450.185000", "132450.645000", "132451.105000", "132451.565000", "132452.025000", "132452.485000", "132452.945000", "132453.405000", "132453.865000", "132454.325000", "132454.785000", "132455.245000", "132455.705000", "132456.165000", "132456.625000", "132457.085000", "132457.545000", "132458.005000", "132458.465000", "132458.925000", "132459.385000", "132459.845000", "132500.305000", "132500.765000", "132501.225000", "132501.685000", "132502.145000", "132502.605000", "132503.065000", "132503.525000", "132503.985000", "132504.445000", "132504.905000", "132505.365000", "132505.825000", "132506.285000", "132506.745000", "132507.205000", "132507.665000", "132508.125000", "132508.585000", "132509.045000", "132509.505000", "132509.965000", "132510.425000", "132510.885000", "132511.345000", "132511.805000", "132512.265000", "132512.725000", "132513.185000", "132513.645000", "132514.105000", "132514.565000", "132515.025000", "132515.485000", "132515.945000", "132516.405000", "132516.865000", "132517.325000", "132517.785000", "132518.245000", "132518.705000", "132519.165000", "132519.625000", "132520.085000", "132520.545000", "132521.005000", "132521.465000", "132521.925000", "132522.385000", "132522.845000", "132523.305000", "132523.765000", "132524.225000", "132524.685000", "132525.145000", "132525.605000", "132526.065000", "132526.525000", "132526.985000", "132527.445000", "132527.905000", "132528.365000", "132528.825000", "132529.285000", "132529.745000", "132530.205000", "132530.665000", "132531.125000", "132531.585000", "132532.045000", "132532.505000", "132532.965000", "132533.425000", "132533.885000", "132534.345000", "132534.805000", "132535.265000", "132535.725000", "132536.185000", "132536.645000", "132537.105000", "132537.565000", "132538.025000", "132538.485000", "132538.945000", "132539.405000", "132539.865000", "132540.325000", "132540.785000", "132541.245000", "132541.705000", "132542.165000", "132542.625000", "132543.085000", "132543.545000", "132544.005000", "132544.465000", "132544.925000", "132545.385000", "132545.845000", "132546.305000", "132546.765000", "132547.225000", "132547.685000", "132548.145000", "132548.605000", "132549.065000", "132549.525000", "132549.985000", "132550.445000", "132550.905000", "132551.365000", "132551.825000", "132552.285000", "132552.745000", "132553.205000", "132553.665000", "132554.125000", "132554.585000", "132555.045000", "132555.505000", "132555.965000", "132556.425000", "132556.885000", "132557.345000", "132557.805000", "132558.265000", "132558.725000", "132559.185000", "132559.645000", "132600.105000", "132600.565000", "132601.025000", "132601.485000", "132601.945000", "132602.405000", "132602.865000", "132603.325000", "132603.785000", "132604.245000", "132604.705000", "132605.165000", "132605.625000", "132606.085000", "132606.545000", "132607.005000", "132607.465000", "132607.925000", "132608.385000", "132608.845000", "132609.305000", "132609.765000", "132610.225000", "132610.685000", "132611.145000", "132611.605000", "132612.065000", "132612.525000", "132612.985000", "132613.445000", "132613.905000", "132614.365000", "132614.825000", "132615.285000", "132615.745000", "132616.205000", "132616.665000", "132617.125000", "132617.585000", "132618.045000", "132618.505000", "132618.965000", "132619.425000", "132619.885000", "132620.345000", "132620.805000", "132621.265000", "132621.725000", "132622.185000", "132622.645000", "132623.105000", "132623.565000", "132624.025000", "132624.485000", "132624.945000", "132625.405000", "132625.865000", "132626.325000", "132626.785000", "132627.245000", "132627.705000", "132628.165000", "132628.625000", "132629.085000", "132629.545000", "132630.005000", "132630.465000", "132630.925000", "132631.385000", "132631.845000", "132632.305000", "132632.765000", "132633.225000", "132633.685000", "132634.145000", "132634.605000", "132635.065000", "132635.525000", "132635.985000", "132636.445000", "132636.905000", "132637.365000", "132637.825000", "132638.285000", "132638.745000", "132639.205000", "132639.665000", "132640.125000", "132640.585000", "132641.045000", "132641.505000", "132641.965000", "132642.425000", "132642.885000", "132643.345000", "132643.805000", "132644.265000", "132644.725000", "132645.185000", "132645.645000", "132646.105000", "132646.565000", "132647.025000", "132647.485000", "132647.945000", "132648.405000", "132648.865000", "132649.325000", "132649.785000", "132650.245000", "132650.705000", "132651.165000", "132651.625000", "132652.085000", "132652.545000", "132653.005000", "132653.465000", "132653.925000", "132654.385000", "132654.845000", "132655.305000", "132655.765000", "132656.225000", "132656.685000", "132657.145000", "132657.605000", "132658.065000", "132658.525000", "132658.985000", "132659.445000", "132659.905000", "132700.365000", "132700.825000", "132701.285000", "132701.745000", "132702.205000", "132702.665000", "132703.125000", "132703.585000", "132704.045000", "132704.505000", "132704.965000", "132705.425000", "132705.885000", "132706.345000", "132706.805000", "132707.265000", "132707.725000", "132708.185000", "132708.645000", "132709.105000", "132709.565000", "132710.025000", "132710.485000", "132710.945000", "132711.405000", "132711.865000", "132712.325000", "132712.785000", "132713.245000", "132713.705000", "132714.165000", "132714.625000", "132715.085000", "132715.545000", "132716.005000", "132716.465000", "132716.925000", "132717.385000", "132717.845000", "132718.305000", "132718.765000", "132719.225000", "132719.685000", "132720.145000", "132720.605000", "132721.065000", "132721.525000", "132721.985000", "132722.445000", "132722.905000", "132723.365000", "132723.825000", "132724.285000", "132724.745000", "132725.205000", "132725.665000", "132726.125000", "132726.585000", "132727.045000", "132727.505000", "132727.965000", "132728.425000", "132728.885000", "132729.345000", "132729.805000", "132730.265000", "132730.725000", "132731.185000", "132731.645000", "132732.105000", "132732.565000", "132733.025000", "132733.485000", "132733.945000", "132734.405000", "132734.865000", "132735.325000", "132735.785000", "132736.245000", "132736.705000", "132737.165000", "132737.625000", "132738.085000", "132738.545000", "132739.005000", "132739.465000", "132739.925000", "132740.385000", "132740.845000", "132741.305000", "132741.765000", "132742.225000", "132742.685000", "132743.145000", "132743.605000", "132744.065000", "132744.525000", "132744.985000", "132745.445000", "132745.905000", "132746.365000", "132746.825000", "132747.285000", "132747.745000", "132748.205000", "132748.665000", "132749.125000", "132749.585000", "132750.045000", "132750.505000", "132750.965000", "132751.425000", "132751.885000", "132752.345000", "132752.805000", "132753.265000", "132753.725000", "132754.185000", "132754.645000", "132755.105000", "132755.565000", "132756.025000", "132756.485000", "132756.945000", "132757.405000", "132757.865000", "132758.325000", "132758.785000", "132759.245000", "132759.705000", "132800.165000", "132800.625000", "132801.085000", "132801.545000", "132802.005000", "132802.465000", "132802.925000", "132803.385000", "132803.845000", "132804.305000", "132804.765000", "132805.225000", "132805.685000", "132806.145000", "132806.605000", "132807.065000", "132807.525000", "132807.985000", "132808.445000", "132808.905000", "132809.365000", "132809.825000", "132810.285000", "132810.745000", "132811.205000", "132811.665000", "132812.125000", "132812.585000", "132813.045000", "132813.505000", "132813.965000", "132814.425000", "132814.885000", "132815.345000", "132815.805000", "132816.265000", "132816.725000", "132817.185000", "132817.645000", "132818.105000", "132818.565000", "132819.025000", "132819.485000", "132819.945000", "132820.405000", "132820.865000", "132821.325000", "132821.785000", "132822.245000", "132822.705000", "132823.165000", "132823.625000", "132824.085000", "132824.545000", "132825.005000", "132825.465000", "132825.925000", "132826.385000"],
