{
  "AcquisitionMatrixPE": 82,
  "AcquisitionNumber": 1,
  "AcquisitionTime": "13:36:46.395000",
  "BandwidthPerPixelPhaseEncode": 24.888,
  "BaseResolution": 82,
  "BodyPartExamined": "BRAIN",
  "ConsistencyInfo": "N4_VE11C_LATEST_20160120",
  "ConversionSoftware": "dcm2niix",
  "ConversionSoftwareVersion": "v1.0.20201102",
  "DerivedVendorReportedEchoSpacing": 0.00049,
  "DeviceSerialNumber": "66112",
  "DwellTime": 2e-06,
  "EchoTime": 0.0272,
  "EchoTrainLength": 82,
  "EffectiveEchoSpacing": 0.00049,
  "FlipAngle": 44,
  "ImageComments": "Unaliased MB8/PE3",
  "ImageOrientationPatientDICOM": [0.999712, -0.022589, 0.00805869, 0.0228612, 0.99911, -0.0354596],
  "ImageType": [
    "ORIGINAL",
    "PRIMARY",
    "M",
    "MB",
    "ND",
    "NORM",
    "MOSAIC"
],
  "ImagingFrequency": 123.252,
  "InPlanePhaseEncodingDirectionDICOM": "COL",
  "InstitutionAddress": "Maynard 3,Hanover,NH,US,03755",
  "InstitutionName": "Dartmouth College - PBS",
  "InstitutionalDepartmentName": "Department",
  "MRAcquisitionType": "2D",
  "MagneticFieldStrength": 3,
  "Manufacturer": "Siemens",
  "ManufacturersModelName": "Prisma",
  "Modality": "MR",
  "MultibandAccelerationFactor": 8,
  "PartialFourier": 1,
  "PatientPosition": "HFS",
  "PercentPhaseFOV": 100,
  "PercentSampling": 100,
  "PhaseEncodingDirection": "j-",
  "PhaseEncodingSteps": 82,
  "PhaseResolution": 1,
  "PixelBandwidth": 3050,
  "ProcedureStepDescription": "Wager_Wager^1076_spacetop",
  "ProtocolName": "func_run-05_task-social_acq-ap-mb8",
  "PulseSequenceDetails": "%CustomerSeq%\\cmrr_mbep2d_bold",
  "ReceiveCoilActiveElements": "HEA;HEP",
  "ReceiveCoilName": "Head_32",
  "ReconMatrixPE": 82,
  "RepetitionTime": 0.46,
  "SAR": 0.0895521,
  "ScanOptions": "FS",
  "ScanningSequence": "EP",
  "SequenceName": "epfid2d1_82",
  "SequenceVariant": "SK\\SS",
  "SeriesDescription": "func_run-05_task-social_acq-ap-mb8",
  "SeriesNumber": 20,
  "ShimSetting": [4147, -7709, -7282, 562, -81, -177, 68, 73],
  "SliceThickness": 2.7,
  "SliceTiming": [0, 0.25, 0.0625, 0.3125, 0.125, 0.3775, 0.1875, 0, 0.25, 0.0625, 0.3125, 0.125, 0.3775, 0.1875, 0, 0.25, 0.0625, 0.3125, 0.125, 0.3775, 0.1875, 0, 0.25, 0.0625, 0.3125, 0.125, 0.3775, 0.1875, 0, 0.25, 0.0625, 0.3125, 0.125, 0.3775, 0.1875, 0, 0.25, 0.0625, 0.3125, 0.125, 0.3775, 0.1875, 0, 0.25, 0.0625, 0.3125, 0.125, 0.3775, 0.1875, 0, 0.25, 0.0625, 0.3125, 0.125, 0.3775, 0.1875],
  "SoftwareVersions": "syngo MR E11",
  "SpacingBetweenSlices": 2.7,
  "StationName": "AWP66112",
  "TaskName": "social",
  "TotalReadoutTime": 0.03969,
  "TxRefAmp": 260.777,
  "WipMemBlock": "9e31501e-88f6-47e7-b5bf-7c65af6ed798||Sequence: R016 ve11c/master r/e634e98; Dec 19 2017 11:00:25 by eja",
  "dcmmeta_affine": [
    [-2.682155132293701, 0.06133488565683365, 0.019576402381062508, 110.14803314208984],
    [0.06060453876852989, 2.6805379390716553, -0.09621068090200424, -94.56466674804688],
    [0.021620875224471092, 0.0951353907585144, 2.698214292526245, -91.45787048339844],
    [0.0, 0.0, 0.0, 1.0]
],
  "dcmmeta_reorient_transform": [
    [0.0, -1.0, 0.0, 81.0],
    [1.0, 0.0, 0.0, 0.0],
    [0.0, 0.0, 1.0, 0.0],
    [0.0, 0.0, 0.0, 1.0]
],
  "dcmmeta_shape": [82, 82, 56, 872],
  "dcmmeta_slice_dim": 2,
  "dcmmeta_version": 0.6,
  "global": {
    "const": {
      "AccessionNumber": "A003792",
      "AcquisitionMatrix": [82, 0, 0, 82],
      "AngioFlag": "N",
      "BitsAllocated": 16,
      "BitsStored": 16,
      "BodyPartExamined": "BRAIN",
      "Columns": 656,
      "EchoNumbers": 1,
      "EchoTime": 27.2,
      "EchoTrainLength": 82,
      "FlipAngle": 44.0,
      "HighBit": 15,
      "ImageOrientationPatient": [0.99971235673386, -0.0225889645258, 0.00805868942689, 0.02286118462966, 0.99910959675815, -0.0354595530583],
      "ImagePositionPatient": [-902.49780665431, -874.47981942321, -62.653238269782],
      "ImageType": [
        "ORIGINAL",
        "PRIMARY",
        "M",
        "MB",
        "ND",
        "NORM",
        "MOSAIC"
],
      "ImagedNucleus": "1H",
      "ImagingFrequency": 123.252229,
      "InPlanePhaseEncodingDirection": "COL",
      "MRAcquisitionType": "2D",
      "MagneticFieldStrength": 3.0,
      "Manufacturer": "SIEMENS",
      "ManufacturerModelName": "Prisma",
      "Modality": "MR",
      "NumberOfAverages": 1.0,
      "NumberOfPhaseEncodingSteps": 82,
      "PercentPhaseFieldOfView": 100.0,
      "PercentSampling": 100.0,
      "PerformedProcedureStepStartTime": "124220.013000",
      "PhotometricInterpretation": "MONOCHROME2",
      "PixelBandwidth": 3050.0,
      "PixelRepresentation": 0,
      "PixelSpacing": [2.6829268932343, 2.6829268932343],
      "ProtocolName": "func_run-05_task-social_acq-ap-mb8",
      "RepetitionTime": 460.0,
      "Rows": 656,
      "SAR": 0.08955214706369,
      "SamplesPerPixel": 1,
      "ScanOptions": "FS",
      "ScanningSequence": "EP",
      "SequenceName": "epfid2d1_82",
      "SequenceVariant": [
        "SK",
        "SS"
],
      "SeriesDescription": "func_run-05_task-social_acq-ap-mb8",
      "SeriesNumber": 20,
      "SeriesTime": "133706.059000",
      "SliceLocation": -87.229073436979,
      "SliceThickness": 2.7000000476837,
      "SmallestImagePixelValue": 0,
      "SoftwareVersions": "syngo MR E11",
      "SpacingBetweenSlices": 2.7000000309639,
      "SpecificCharacterSet": "ISO_IR 100",
      "StudyID": "1",
      "StudyTime": "124219.874000",
      "TransmitCoilName": "Body",
      "VariableFlipAngleFlag": "N",
      "WindowCenterWidthExplanation": "Algo1",
      "dBdt": 0.0},
    "slices": {}
  },
  "time": {
    "samples": {
      "AcquisitionNumber": [1, 2, 3, 4, 5, 6, 7, 8, 9, 10, 11, 12, 13, 14, 15, 16, 17, 18, 19, 20, 21, 22, 23, 24, 25, 26, 27, 28, 29, 30, 31, 32, 33, 34, 35, 36, 37, 38, 39, 40, 41, 42, 43, 44, 45, 46, 47, 48, 49, 50, 51, 52, 53, 54, 55, 56, 57, 58, 59, 60, 61, 62, 63, 64, 65, 66, 67, 68, 69, 70, 71, 72, 73, 74, 75, 76, 77, 78, 79, 80, 81, 82, 83, 84, 85, 86, 87, 88, 89, 90, 91, 92, 93, 94, 95, 96, 97, 98, 99, 100, 101, 102, 103, 104, 105, 106, 107, 108, 109, 110, 111, 112, 113, 114, 115, 116, 117, 118, 119, 120, 121, 122, 123, 124, 125, 126, 127, 128, 129, 130, 131, 132, 133, 134, 135, 136, 137, 138, 139, 140, 141, 142, 143, 144, 145, 146, 147, 148, 149, 150, 151, 152, 153, 154, 155, 156, 157, 158, 159, 160, 161, 162, 163, 164, 165, 166, 167, 168, 169, 170, 171, 172, 173, 174, 175, 176, 177, 178, 179, 180, 181, 182, 183, 184, 185, 186, 187, 188, 189, 190, 191, 192, 193, 194, 195, 196, 197, 198, 199, 200, 201, 202, 203, 204, 205, 206, 207, 208, 209, 210, 211, 212, 213, 214, 215, 216, 217, 218, 219, 220, 221, 222, 223, 224, 225, 226, 227, 228, 229, 230, 231, 232, 233, 234, 235, 236, 237, 238, 239, 240, 241, 242, 243, 244, 245, 246, 247, 248, 249, 250, 251, 252, 253, 254, 255, 256, 257, 258, 259, 260, 261, 262, 263, 264, 265, 266, 267, 268, 269, 270, 271, 272, 273, 274, 275, 276, 277, 278, 279, 280, 281, 282, 283, 284, 285, 286, 287, 288, 289, 290, 291, 292, 293, 294, 295, 296, 297, 298, 299, 300, 301, 302, 303, 304, 305, 306, 307, 308, 309, 310, 311, 312, 313, 314, 315, 316, 317, 318, 319, 320, 321, 322, 323, 324, 325, 326, 327, 328, 329, 330, 331, 332, 333, 334, 335, 336, 337, 338, 339, 340, 341, 342, 343, 344, 345, 346, 347, 348, 349, 350, 351, 352, 353, 354, 355, 356, 357, 358, 359, 360, 361, 362, 363, 364, 365, 366, 367, 368, 369, 370, 371, 372, 373, 374, 375, 376, 377, 378, 379, 380, 381, 382, 383, 384, 385, 386, 387, 388, 389, 390, 391, 392, 393, 394, 395, 396, 397, 398, 399, 400, 401, 402, 403, 404, 405, 406, 407, 408, 409, 410, 411, 412, 413, 414, 415, 416, 417, 418, 419, 420, 421, 422, 423, 424, 425, 426, 427, 428, 429, 430, 431, 432, 433, 434, 435, 436, 437, 438, 439, 440, 441, 442, 443, 444, 445, 446, 447, 448, 449, 450, 451, 452, 453, 454, 455, 456, 457, 458, 459, 460, 461, 462, 463, 464, 465, 466, 467, 468, 469, 470, 471, 472, 473, 474, 475, 476, 477, 478, 479, 480, 481, 482, 483, 484, 485, 486, 487, 488, 489, 490, 491, 492, 493, 494, 495, 496, 497, 498, 499, 500, 501, 502, 503, 504, 505, 506, 507, 508, 509, 510, 511, 512, 513, 514, 515, 516, 517, 518, 519, 520, 521, 522, 523, 524, 525, 526, 527, 528, 529, 530, 531, 532, 533, 534, 535, 536, 537, 538, 539, 540, 541, 542, 543, 544, 545, 546, 547, 548, 549, 550, 551, 552, 553, 554, 555, 556, 557, 558, 559, 560, 561, 562, 563, 564, 565, 566, 567, 568, 569, 570, 571, 572, 573, 574, 575, 576, 577, 578, 579, 580, 581, 582, 583, 584, 585, 586, 587, 588, 589, 590, 591, 592, 593, 594, 595, 596, 597, 598, 599, 600, 601, 602, 603, 604, 605, 606, 607, 608, 609, 610, 611, 612, 613, 614, 615, 616, 617, 618, 619, 620, 621, 622, 623, 624, 625, 626, 627, 628, 629, 630, 631, 632, 633, 634, 635, 636, 637, 638, 639, 640, 641, 642, 643, 644, 645, 646, 647, 648, 649, 650, 651, 652, 653, 654, 655, 656, 657, 658, 659, 660, 661, 662, 663, 664, 665, 666, 667, 668, 669, 670, 671, 672, 673, 674, 675, 676, 677, 678, 679, 680, 681, 682, 683, 684, 685, 686, 687, 688, 689, 690, 691, 692, 693, 694, 695, 696, 697, 698, 699, 700, 701, 702, 703, 704, 705, 706, 707, 708, 709, 710, 711, 712, 713, 714, 715, 716, 717, 718, 719, 720, 721, 722, 723, 724, 725, 726, 727, 728, 729, 730, 731, 732, 733, 734, 735, 736, 737, 738, 739, 740, 741, 742, 743, 744, 745, 746, 747, 748, 749, 750, 751, 752, 753, 754, 755, 756, 757, 758, 759, 760, 761, 762, 763, 764, 765, 766, 767, 768, 769, 770, 771, 772, 773, 774, 775, 776, 777, 778, 779, 780, 781, 782, 783, 784, 785, 786, 787, 788, 789, 790, 791, 792, 793, 794, 795, 796, 797, 798, 799, 800, 801, 802, 803, 804, 805, 806, 807, 808, 809, 810, 811, 812, 813, 814, 815, 816, 817, 818, 819, 820, 821, 822, 823, 824, 825, 826, 827, 828, 829, 830, 831, 832, 833, 834, 835, 836, 837, 838, 839, 840, 841, 842, 843, 844, 845, 846, 847, 848, 849, 850, 851, 852, 853, 854, 855, 856, 857, 858, 859, 860, 861, 862, 863, 864, 865, 866, 867, 868, 869, 870, 871, 872],
      "AcquisitionTime": ["133646.395000", "133646.855000", "133647.315000", "133647.775000", "133648.235000", "133648.695000", "133649.155000", "133649.615000", "133650.075000", "133650.535000", "133650.995000", "133651.455000", "133651.915000", "133652.375000", "133652.835000", "133653.295000", "133653.755000", "133654.215000", "133654.675000", "133655.135000", "133655.595000", "133656.055000", "133656.515000", "133656.975000", "133657.435000", "133657.895000", "133658.355000", "133658.815000", "133659.275000", "133659.735000", "133700.195000", "133700.655000", "133701.115000", "133701.575000", "133702.035000", "133702.495000", "133702.955000", "133703.415000", "133703.875000", "133704.335000", "133704.795000", "133705.255000", "133705.715000", "133706.175000", "133706.635000", "133707.095000", "133707.555000", "133708.015000", "133708.475000", "133708.935000", "133709.395000", "133709.855000", "133710.315000", "133710.775000", "133711.235000", "133711.695000", "133712.155000", "133712.615000", "133713.075000", "133713.535000", "133713.995000", "133714.455000", "133714.915000", "133715.375000", "133715.835000", "133716.295000", "133716.755000", "133717.215000", "133717.675000", "133718.135000", "133718.595000", "133719.055000", "133719.515000", "133719.975000", "133720.435000", "133720.895000", "133721.355000", "133721.815000", "133722.275000", "133722.735000", "133723.195000", "133723.655000", "133724.115000", "133724.575000", "133725.035000", "133725.495000", "133725.955000", "133726.415000", "133726.875000", "133727.335000", "133727.795000", "133728.255000", "133728.715000", "133729.175000", "133729.635000", "133730.095000", "133730.555000", "133731.015000", "133731.475000", "133731.935000", "133732.395000", "133732.855000", "133733.315000", "133733.775000", "133734.235000", "133734.695000", "133735.155000", "133735.615000", "133736.075000", "133736.535000", "133736.995000", "133737.455000", "133737.915000", "133738.375000", "133738.835000", "133739.295000", "133739.755000", "133740.215000", "133740.675000", "133741.135000", "133741.595000", "133742.055000", "133742.515000", "133742.975000", "133743.435000", "133743.895000", "133744.355000", "133744.815000", "133745.275000", "133745.735000", "133746.195000", "133746.655000", "133747.115000", "133747.575000", "133748.035000", "133748.495000", "133748.955000", "133749.415000", "133749.875000", "133750.335000", "133750.795000", "133751.255000", "133751.715000", "133752.175000", "133752.635000", "133753.095000", "133753.555000", "133754.015000", "133754.475000", "133754.935000", "133755.395000", "133755.855000", "133756.315000", "133756.775000", "133757.235000", "133757.695000", "133758.155000", "133758.615000", "133759.075000", "133759.535000", "133759.995000", "133800.455000", "133800.915000", "133801.375000", "133801.835000", "133802.295000", "133802.755000", "133803.215000", "133803.675000", "133804.135000", "133804.595000", "133805.055000", "133805.515000", "133805.975000", "133806.435000", "133806.895000", "133807.355000", "133807.815000", "133808.275000", "133808.735000", "133809.195000", "133809.655000", "133810.115000", "133810.575000", "133811.035000", "133811.495000", "133811.955000", "133812.415000", "133812.875000", "133813.335000", "133813.795000", "133814.255000", "133814.715000", "133815.175000", "133815.635000", "133816.095000", "133816.555000", "133817.015000", "133817.475000", "133817.935000", "133818.395000", "133818.855000", "133819.315000", "133819.775000", "133820.235000", "133820.695000", "133821.155000", "133821.615000", "133822.075000", "133822.535000", "133822.995000", "133823.455000", "133823.915000", "133824.375000", "133824.835000", "133825.295000", "133825.755000", "133826.215000", "133826.675000", "133827.135000", "133827.595000", "133828.055000", "133828.515000", "133828.975000", "133829.435000", "133829.895000", "133830.355000", "133830.815000", "133831.275000", "133831.735000", "133832.195000", "133832.655000", "133833.115000", "133833.575000", "133834.035000", "133834.495000", "133834.955000", "133835.415000", "133835.875000", "133836.335000", "133836.795000", "133837.255000", "133837.715000", "133838.175000", "133838.635000", "133839.095000", "133839.555000", "133840.015000", "133840.475000", "133840.935000", "133841.395000", "133841.855000", "133842.315000", "133842.775000", "133843.235000", "133843.695000", "133844.155000", "133844.615000", "133845.075000", "133845.535000", "133845.995000", "133846.455000", "133846.915000", "133847.375000", "133847.835000", "133848.295000", "133848.755000", "133849.215000", "133849.675000", "133850.135000", "133850.595000", "133851.055000", "133851.515000", "133851.975000", "133852.435000", "133852.895000", "133853.355000", "133853.815000", "133854.275000", "133854.735000", "133855.195000", "133855.655000", "133856.115000", "133856.575000", "133857.035000", "133857.495000", "133857.955000", "133858.415000", "133858.875000", "133859.335000", "133859.795000", "133900.255000", "133900.715000", "133901.175000", "133901.635000", "133902.095000", "133902.555000", "133903.015000", "133903.475000", "133903.935000", "133904.395000", "133904.855000", "133905.315000", "133905.775000", "133906.235000", "133906.695000", "133907.155000", "133907.615000", "133908.075000", "133908.535000", "133908.995000", "133909.455000", "133909.915000", "133910.375000", "133910.835000", "133911.295000", "133911.755000", "133912.215000", "133912.675000", "133913.135000", "133913.595000", "133914.055000", "133914.515000", "133914.975000", "133915.435000", "133915.895000", "133916.355000", "133916.815000", "133917.275000", "133917.735000", "133918.195000", "133918.655000", "133919.115000", "133919.575000", "133920.035000", "133920.495000", "133920.955000", "133921.415000", "133921.875000", "133922.335000", "133922.795000", "133923.255000", "133923.715000", "133924.175000", "133924.635000", "133925.095000", "133925.555000", "133926.015000", "133926.475000", "133926.935000", "133927.395000", "133927.855000", "133928.315000", "133928.775000", "133929.235000", "133929.695000", "133930.155000", "133930.615000", "133931.075000", "133931.535000", "133931.995000", "133932.455000", "133932.915000", "133933.375000", "133933.835000", "133934.295000", "133934.755000", "133935.215000", "133935.675000", "133936.135000", "133936.595000", "133937.055000", "133937.515000", "133937.975000", "133938.435000", "133938.895000", "133939.355000", "133939.815000", "133940.275000", "133940.735000", "133941.195000", "133941.655000", "133942.115000", "133942.575000", "133943.035000", "133943.495000", "133943.955000", "133944.415000", "133944.875000", "133945.335000", "133945.795000", "133946.255000", "133946.715000", "133947.175000", "133947.635000", "133948.095000", "133948.555000", "133949.015000", "133949.475000", "133949.935000", "133950.395000", "133950.855000", "133951.315000", "133951.775000", "133952.235000", "133952.695000", "133953.155000", "133953.615000", "133954.075000", "133954.535000", "133954.995000", "133955.455000", "133955.915000", "133956.375000", "133956.835000", "133957.295000", "133957.755000", "133958.215000", "133958.675000", "133959.135000", "133959.595000", "134000.055000", "134000.515000", "134000.975000", "134001.435000", "134001.895000", "134002.355000", "134002.815000", "134003.275000", "134003.735000", "134004.195000", "134004.655000", "134005.115000", "134005.575000", "134006.035000", "134006.495000", "134006.955000", "134007.415000", "134007.875000", "134008.335000", "134008.795000", "134009.255000", "134009.715000", "134010.175000", "134010.635000", "134011.095000", "134011.555000", "134012.015000", "134012.475000", "134012.935000", "134013.395000", "134013.855000", "134014.315000", "134014.775000", "134015.235000", "134015.695000", "134016.155000", "134016.615000", "134017.075000", "134017.535000", "134017.995000", "134018.455000", "134018.915000", "134019.375000", "134019.835000", "134020.295000", "134020.755000", "134021.215000", "134021.675000", "134022.135000", "134022.595000", "134023.055000", "134023.515000", "134023.975000", "134024.435000", "134024.895000", "134025.355000", "134025.815000", "134026.275000", "134026.735000", "134027.195000", "134027.655000", "134028.115000", "134028.575000", "134029.035000", "134029.495000", "134029.955000", "134030.415000", "134030.875000", "134031.335000", "134031.795000", "134032.255000", "134032.715000", "134033.175000", "134033.635000", "134034.095000", "134034.555000", "134035.015000", "134035.475000", "134035.935000", "134036.395000", "134036.855000", "134037.315000", "134037.775000", "134038.235000", "134038.695000", "134039.155000", "134039.615000", "134040.075000", "134040.535000", "134040.995000", "134041.455000", "134041.915000", "134042.375000", "134042.835000", "134043.295000", "134043.755000", "134044.215000", "134044.675000", "134045.135000", "134045.595000", "134046.055000", "134046.515000", "134046.975000", "134047.435000", "134047.895000", "134048.355000", "134048.815000", "134049.275000", "134049.735000", "134050.195000", "134050.655000", "134051.115000", "134051.575000", "134052.035000", "134052.495000", "134052.955000", "134053.415000", "134053.875000", "134054.335000", "134054.795000", "134055.255000", "134055.715000", "134056.175000", "134056.635000", "134057.095000", "134057.555000", "134058.015000", "134058.475000", "134058.935000", "134059.395000", "134059.855000", "134100.315000", "134100.775000", "134101.235000", "134101.695000", "134102.155000", "134102.615000", "134103.075000", "134103.535000", "134103.995000", "134104.455000", "134104.915000", "134105.375000", "134105.835000", "134106.295000", "134106.755000", "134107.215000", "134107.675000", "134108.135000", "134108.595000", "134109.055000", "134109.515000", "134109.975000", "134110.435000", "134110.895000", "134111.355000", "134111.815000", "134112.275000", "134112.735000", "134113.195000", "134113.655000", "134114.115000", "134114.575000", "134115.035000", "134115.495000", "134115.955000", "134116.415000", "134116.875000", "134117.335000", "134117.795000", "134118.255000", "134118.715000", "134119.175000", "134119.635000", "134120.095000", "134120.555000", "134121.015000", "134121.475000", "134121.935000", "134122.395000", "134122.855000", "134123.315000", "134123.775000", "134124.235000", "134124.695000", "134125.155000", "134125.615000", "134126.075000", "134126.535000", "134126.995000", "134127.455000", "134127.915000", "134128.375000", "134128.835000", "134129.295000", "134129.755000", "134130.215000", "134130.675000", "134131.135000", "134131.595000", "134132.055000", "134132.515000", "134132.975000", "134133.435000", "134133.895000", "134134.355000", "134134.815000", "134135.275000", "134135.735000", "134136.195000", "134136.655000", "134137.115000", "134137.575000", "134138.035000", "134138.495000", "134138.955000", "134139.415000", "134139.875000", "134140.335000", "134140.795000", "134141.255000", "134141.715000", "134142.175000", "134142.635000", "134143.095000", "134143.555000", "134144.015000", "134144.475000", "134144.935000", "134145.395000", "134145.855000", "134146.315000", "134146.775000", "134147.235000", "134147.695000", "134148.155000", "134148.615000", "134149.075000", "134149.535000", "134149.995000", "134150.455000", "134150.915000", "134151.375000", "134151.835000", "134152.295000", "134152.755000", "134153.215000", "134153.675000", "134154.135000", "134154.595000", "134155.055000", "134155.515000", "134155.975000", "134156.435000", "134156.895000", "134157.355000", "134157.815000", "134158.275000", "134158.735000", "134159.195000", "134159.655000", "134200.115000", "134200.575000", "134201.035000", "134201.495000", "134201.955000", "134202.415000", "134202.875000", "134203.335000", "134203.795000", "134204.255000", "134204.715000", "134205.175000", "134205.635000", "134206.095000", "134206.555000", "134207.015000", "134207.475000", "134207.935000", "134208.395000", "134208.855000", "134209.315000", "134209.775000", "134210.235000", "134210.695000", "134211.155000", "134211.615000", "134212.075000", "134212.535000", "134212.995000", "134213.455000", "134213.915000", "134214.375000", "134214.835000", "134215.295000", "134215.755000", "134216.215000", "134216.675000", "134217.135000", "134217.595000", "134218.055000", "134218.515000", "134218.975000", "134219.435000", "134219.895000", "134220.355000", "134220.815000", "134221.275000", "134221.735000", "134222.195000", "134222.655000", "134223.115000", "134223.575000", "134224.035000", "134224.495000", "134224.955000", "134225.415000", "134225.875000", "134226.335000", "134226.795000", "134227.255000", "134227.715000", "134228.175000", "134228.635000", "134229.095000", "134229.555000", "134230.015000", "134230.475000", "134230.935000", "134231.395000", "134231.855000", "134232.315000", "134232.775000", "134233.235000", "134233.695000", "134234.155000", "134234.615000", "134235.075000", "134235.535000", "134235.995000", "134236.455000", "134236.915000", "134237.375000", "134237.835000", "134238.295000", "134238.755000", "134239.215000", "134239.675000", "134240.135000", "134240.595000", "134241.055000", "134241.515000", "134241.975000", "134242.435000", "134242.895000", "134243.355000", "134243.815000", "134244.275000", "134244.735000", "134245.195000", "134245.655000", "134246.115000", "134246.575000", "134247.035000", "134247.495000", "134247.955000", "134248.415000", "134248.875000", "134249.335000", "134249.795000", "134250.255000", "134250.715000", "134251.175000", "134251.635000", "134252.095000", "134252.555000", "134253.015000", "134253.475000", "134253.935000", "134254.395000", "134254.855000", "134255.315000", "134255.775000", "134256.235000", "134256.695000", "134257.155000", "134257.615000", "134258.075000", "134258.535000", "134258.995000", "134259.455000", "134259.915000", "134300.375000", "134300.835000", "134301.295000", "134301.755000", "134302.215000", "134302.675000", "134303.135000", "134303.595000", "134304.055000", "134304.515000", "134304.975000", "134305.435000", "134305.895000", "134306.355000", "134306.815000", "134307.275000", "134307.735000", "134308.195000", "134308.655000", "134309.115000", "134309.575000", "134310.035000", "134310.495000", "134310.955000", "134311.415000", "134311.875000", "134312.335000", "134312.795000", "134313.255000", "134313.715000", "134314.175000", "134314.635000", "134315.095000", "134315.555000", "134316.015000", "134316.475000", "134316.935000", "134317.395000", "134317.855000", "134318.315000", "134318.775000", "134319.235000", "134319.695000", "134320.155000", "134320.615000", "134321.075000", "134321.535000", "134321.995000", "134322.455000", "134322.915000", "134323.375000", "134323.835000", "134324.295000", "134324.755000", "134325.215000", "134325.675000", "134326.135000", "134326.595000", "134327.055000"],
