{
  "AcquisitionMatrixPE": 82,
  "AcquisitionNumber": 1,
  "AcquisitionTime": "13:14:40.292500",
  "BandwidthPerPixelPhaseEncode": 24.888,
  "BaseResolution": 82,
  "BodyPartExamined": "BRAIN",
  "ConsistencyInfo": "N4_VE11C_LATEST_20160120",
  "ConversionSoftware": "dcm2niix",
  "ConversionSoftwareVersion": "v1.0.20201102",
  "DerivedVendorReportedEchoSpacing": 0.00049,
  "DeviceSerialNumber": "66112",
  "DwellTime": 2e-06,
  "EchoTime": 0.0272,
  "EchoTrainLength": 82,
  "EffectiveEchoSpacing": 0.00049,
  "FlipAngle": 44,
  "ImageComments": "Unaliased MB8/PE3",
  "ImageOrientationPatientDICOM": [0.999712, -0.022589, 0.00805869, 0.0228612, 0.99911, -0.0354596],
  "ImageType": [
    "ORIGINAL",
    "PRIMARY",
    "M",
    "MB",
    "ND",
    "NORM",
    "MOSAIC"
],
  "ImagingFrequency": 123.252,
  "InPlanePhaseEncodingDirectionDICOM": "COL",
  "InstitutionAddress": "Maynard 3,Hanover,NH,US,03755",
  "InstitutionName": "Dartmouth College - PBS",
  "InstitutionalDepartmentName": "Department",
  "MRAcquisitionType": "2D",
  "MagneticFieldStrength": 3,
  "Manufacturer": "Siemens",
  "ManufacturersModelName": "Prisma",
  "Modality": "MR",
  "MultibandAccelerationFactor": 8,
  "PartialFourier": 1,
  "PatientPosition": "HFS",
  "PercentPhaseFOV": 100,
  "PercentSampling": 100,
  "PhaseEncodingDirection": "j-",
  "PhaseEncodingSteps": 82,
  "PhaseResolution": 1,
  "PixelBandwidth": 3050,
  "ProcedureStepDescription": "Wager_Wager^1076_spacetop",
  "ProtocolName": "func_run-02_task-social_acq-ap-mb8",
  "PulseSequenceDetails": "%CustomerSeq%\\cmrr_mbep2d_bold",
  "ReceiveCoilActiveElements": "HEA;HEP",
  "ReceiveCoilName": "Head_32",
  "ReconMatrixPE": 82,
  "RepetitionTime": 0.46,
  "SAR": 0.0895521,
  "ScanOptions": "FS",
  "ScanningSequence": "EP",
  "SequenceName": "epfid2d1_82",
  "SequenceVariant": "SK\\SS",
  "SeriesDescription": "func_run-02_task-social_acq-ap-mb8",
  "SeriesNumber": 14,
  "ShimSetting": [4147, -7709, -7282, 562, -81, -177, 68, 73],
  "SliceThickness": 2.7,
  "SliceTiming": [0, 0.25, 0.0625, 0.3125, 0.125, 0.3775, 0.1875, 0, 0.25, 0.0625, 0.3125, 0.125, 0.3775, 0.1875, 0, 0.25, 0.0625, 0.3125, 0.125, 0.3775, 0.1875, 0, 0.25, 0.0625, 0.3125, 0.125, 0.3775, 0.1875, 0, 0.25, 0.0625, 0.3125, 0.125, 0.3775, 0.1875, 0, 0.25, 0.0625, 0.3125, 0.125, 0.3775, 0.1875, 0, 0.25, 0.0625, 0.3125, 0.125, 0.3775, 0.1875, 0, 0.25, 0.0625, 0.3125, 0.125, 0.3775, 0.1875],
  "SoftwareVersions": "syngo MR E11",
  "SpacingBetweenSlices": 2.7,
  "StationName": "AWP66112",
  "TaskName": "social",
  "TotalReadoutTime": 0.03969,
  "TxRefAmp": 260.777,
  "WipMemBlock": "25bf8798-681f-4cc6-bff4-34cc80f5fd16||Sequence: R016 ve11c/master r/e634e98; Dec 19 2017 11:00:25 by eja",
  "dcmmeta_affine": [
    [-2.682155132293701, 0.06133488565683365, 0.019576402381062508, 110.14803314208984],
    [0.06060453876852989, 2.6805379390716553, -0.09621068090200424, -94.56466674804688],
    [0.021620875224471092, 0.0951353907585144, 2.698214292526245, -91.45787048339844],
    [0.0, 0.0, 0.0, 1.0]
],
  "dcmmeta_reorient_transform": [
    [0.0, -1.0, 0.0, 81.0],
    [1.0, 0.0, 0.0, 0.0],
    [0.0, 0.0, 1.0, 0.0],
    [0.0, 0.0, 0.0, 1.0]
],
  "dcmmeta_shape": [82, 82, 56, 872],
  "dcmmeta_slice_dim": 2,
  "dcmmeta_version": 0.6,
  "global": {
    "const": {
      "AccessionNumber": "A003792",
      "AcquisitionMatrix": [82, 0, 0, 82],
      "AngioFlag": "N",
      "BitsAllocated": 16,
      "BitsStored": 16,
      "BodyPartExamined": "BRAIN",
      "Columns": 656,
      "EchoNumbers": 1,
      "EchoTime": 27.2,
      "EchoTrainLength": 82,
      "FlipAngle": 44.0,
      "HighBit": 15,
      "ImageOrientationPatient": [0.99971235673386, -0.0225889645258, 0.00805868942689, 0.02286118462966, 0.99910959675815, -0.0354595530583],
      "ImagePositionPatient": [-902.49780665431, -874.47981942321, -62.653238269782],
      "ImageType": [
        "ORIGINAL",
        "PRIMARY",
        "M",
        "MB",
        "ND",
        "NORM",
        "MOSAIC"
],
      "ImagedNucleus": "1H",
      "ImagingFrequency": 123.252228,
      "InPlanePhaseEncodingDirection": "COL",
      "MRAcquisitionType": "2D",
      "MagneticFieldStrength": 3.0,
      "Manufacturer": "SIEMENS",
      "ManufacturerModelName": "Prisma",
      "Modality": "MR",
      "NumberOfAverages": 1.0,
      "NumberOfPhaseEncodingSteps": 82,
      "PercentPhaseFieldOfView": 100.0,
      "PercentSampling": 100.0,
      "PerformedProcedureStepStartTime": "124220.013000",
      "PhotometricInterpretation": "MONOCHROME2",
      "PixelBandwidth": 3050.0,
      "PixelRepresentation": 0,
      "PixelSpacing": [2.6829268932343, 2.6829268932343],
      "ProtocolName": "func_run-02_task-social_acq-ap-mb8",
      "RepetitionTime": 460.0,
      "Rows": 656,
      "SAR": 0.08955214706369,
      "SamplesPerPixel": 1,
      "ScanOptions": "FS",
      "ScanningSequence": "EP",
      "SequenceName": "epfid2d1_82",
      "SequenceVariant": [
        "SK",
        "SS"
],
      "SeriesDescription": "func_run-02_task-social_acq-ap-mb8",
      "SeriesNumber": 14,
      "SeriesTime": "131506.056000",
      "SliceLocation": -87.229073436979,
      "SliceThickness": 2.7000000476837,
      "SmallestImagePixelValue": 0,
      "SoftwareVersions": "syngo MR E11",
      "SpacingBetweenSlices": 2.7000000309639,
      "SpecificCharacterSet": "ISO_IR 100",
      "StudyID": "1",
      "StudyTime": "124219.874000",
      "TransmitCoilName": "Body",
      "VariableFlipAngleFlag": "N",
      "WindowCenterWidthExplanation": "Algo1",
      "dBdt": 0.0},
    "slices": {}
  },
  "time": {
    "samples": {
      "AcquisitionNumber": [1, 2, 3, 4, 5, 6, 7, 8, 9, 10, 11, 12, 13, 14, 15, 16, 17, 18, 19, 20, 21, 22, 23, 24, 25, 26, 27, 28, 29, 30, 31, 32, 33, 34, 35, 36, 37, 38, 39, 40, 41, 42, 43, 44, 45, 46, 47, 48, 49, 50, 51, 52, 53, 54, 55, 56, 57, 58, 59, 60, 61, 62, 63, 64, 65, 66, 67, 68, 69, 70, 71, 72, 73, 74, 75, 76, 77, 78, 79, 80, 81, 82, 83, 84, 85, 86, 87, 88, 89, 90, 91, 92, 93, 94, 95, 96, 97, 98, 99, 100, 101, 102, 103, 104, 105, 106, 107, 108, 109, 110, 111, 112, 113, 114, 115, 116, 117, 118, 119, 120, 121, 122, 123, 124, 125, 126, 127, 128, 129, 130, 131, 132, 133, 134, 135, 136, 137, 138, 139, 140, 141, 142, 143, 144, 145, 146, 147, 148, 149, 150, 151, 152, 153, 154, 155, 156, 157, 158, 159, 160, 161, 162, 163, 164, 165, 166, 167, 168, 169, 170, 171, 172, 173, 174, 175, 176, 177, 178, 179, 180, 181, 182, 183, 184, 185, 186, 187, 188, 189, 190, 191, 192, 193, 194, 195, 196, 197, 198, 199, 200, 201, 202, 203, 204, 205, 206, 207, 208, 209, 210, 211, 212, 213, 214, 215, 216, 217, 218, 219, 220, 221, 222, 223, 224, 225, 226, 227, 228, 229, 230, 231, 232, 233, 234, 235, 236, 237, 238, 239, 240, 241, 242, 243, 244, 245, 246, 247, 248, 249, 250, 251, 252, 253, 254, 255, 256, 257, 258, 259, 260, 261, 262, 263, 264, 265, 266, 267, 268, 269, 270, 271, 272, 273, 274, 275, 276, 277, 278, 279, 280, 281, 282, 283, 284, 285, 286, 287, 288, 289, 290, 291, 292, 293, 294, 295, 296, 297, 298, 299, 300, 301, 302, 303, 304, 305, 306, 307, 308, 309, 310, 311, 312, 313, 314, 315, 316, 317, 318, 319, 320, 321, 322, 323, 324, 325, 326, 327, 328, 329, 330, 331, 332, 333, 334, 335, 336, 337, 338, 339, 340, 341, 342, 343, 344, 345, 346, 347, 348, 349, 350, 351, 352, 353, 354, 355, 356, 357, 358, 359, 360, 361, 362, 363, 364, 365, 366, 367, 368, 369, 370, 371, 372, 373, 374, 375, 376, 377, 378, 379, 380, 381, 382, 383, 384, 385, 386, 387, 388, 389, 390, 391, 392, 393, 394, 395, 396, 397, 398, 399, 400, 401, 402, 403, 404, 405, 406, 407, 408, 409, 410, 411, 412, 413, 414, 415, 416, 417, 418, 419, 420, 421, 422, 423, 424, 425, 426, 427, 428, 429, 430, 431, 432, 433, 434, 435, 436, 437, 438, 439, 440, 441, 442, 443, 444, 445, 446, 447, 448, 449, 450, 451, 452, 453, 454, 455, 456, 457, 458, 459, 460, 461, 462, 463, 464, 465, 466, 467, 468, 469, 470, 471, 472, 473, 474, 475, 476, 477, 478, 479, 480, 481, 482, 483, 484, 485, 486, 487, 488, 489, 490, 491, 492, 493, 494, 495, 496, 497, 498, 499, 500, 501, 502, 503, 504, 505, 506, 507, 508, 509, 510, 511, 512, 513, 514, 515, 516, 517, 518, 519, 520, 521, 522, 523, 524, 525, 526, 527, 528, 529, 530, 531, 532, 533, 534, 535, 536, 537, 538, 539, 540, 541, 542, 543, 544, 545, 546, 547, 548, 549, 550, 551, 552, 553, 554, 555, 556, 557, 558, 559, 560, 561, 562, 563, 564, 565, 566, 567, 568, 569, 570, 571, 572, 573, 574, 575, 576, 577, 578, 579, 580, 581, 582, 583, 584, 585, 586, 587, 588, 589, 590, 591, 592, 593, 594, 595, 596, 597, 598, 599, 600, 601, 602, 603, 604, 605, 606, 607, 608, 609, 610, 611, 612, 613, 614, 615, 616, 617, 618, 619, 620, 621, 622, 623, 624, 625, 626, 627, 628, 629, 630, 631, 632, 633, 634, 635, 636, 637, 638, 639, 640, 641, 642, 643, 644, 645, 646, 647, 648, 649, 650, 651, 652, 653, 654, 655, 656, 657, 658, 659, 660, 661, 662, 663, 664, 665, 666, 667, 668, 669, 670, 671, 672, 673, 674, 675, 676, 677, 678, 679, 680, 681, 682, 683, 684, 685, 686, 687, 688, 689, 690, 691, 692, 693, 694, 695, 696, 697, 698, 699, 700, 701, 702, 703, 704, 705, 706, 707, 708, 709, 710, 711, 712, 713, 714, 715, 716, 717, 718, 719, 720, 721, 722, 723, 724, 725, 726, 727, 728, 729, 730, 731, 732, 733, 734, 735, 736, 737, 738, 739, 740, 741, 742, 743, 744, 745, 746, 747, 748, 749, 750, 751, 752, 753, 754, 755, 756, 757, 758, 759, 760, 761, 762, 763, 764, 765, 766, 767, 768, 769, 770, 771, 772, 773, 774, 775, 776, 777, 778, 779, 780, 781, 782, 783, 784, 785, 786, 787, 788, 789, 790, 791, 792, 793, 794, 795, 796, 797, 798, 799, 800, 801, 802, 803, 804, 805, 806, 807, 808, 809, 810, 811, 812, 813, 814, 815, 816, 817, 818, 819, 820, 821, 822, 823, 824, 825, 826, 827, 828, 829, 830, 831, 832, 833, 834, 835, 836, 837, 838, 839, 840, 841, 842, 843, 844, 845, 846, 847, 848, 849, 850, 851, 852, 853, 854, 855, 856, 857, 858, 859, 860, 861, 862, 863, 864, 865, 866, 867, 868, 869, 870, 871, 872],
      "AcquisitionTime": ["131440.292500", "131440.752500", "131441.212500", "131441.672500", "131442.132500", "131442.592500", "131443.052500", "131443.512500", "131443.972500", "131444.432500", "131444.892500", "131445.352500", "131445.812500", "131446.272500", "131446.732500", "131447.192500", "131447.652500", "131448.112500", "131448.572500", "131449.032500", "131449.492500", "131449.952500", "131450.412500", "131450.872500", "131451.332500", "131451.792500", "131452.252500", "131452.712500", "131453.172500", "131453.632500", "131454.092500", "131454.552500", "131455.012500", "131455.472500", "131455.932500", "131456.392500", "131456.852500", "131457.312500", "131457.772500", "131458.232500", "131458.692500", "131459.152500", "131459.612500", "131500.072500", "131500.532500", "131500.992500", "131501.452500", "131501.912500", "131502.372500", "131502.832500", "131503.292500", "131503.752500", "131504.212500", "131504.672500", "131505.132500", "131505.592500", "131506.052500", "131506.512500", "131506.972500", "131507.432500", "131507.892500", "131508.352500", "131508.812500", "131509.272500", "131509.732500", "131510.192500", "131510.652500", "131511.112500", "131511.572500", "131512.032500", "131512.492500", "131512.952500", "131513.412500", "131513.872500", "131514.332500", "131514.792500", "131515.252500", "131515.712500", "131516.172500", "131516.632500", "131517.092500", "131517.552500", "131518.012500", "131518.472500", "131518.932500", "131519.392500", "131519.852500", "131520.312500", "131520.772500", "131521.232500", "131521.692500", "131522.152500", "131522.612500", "131523.072500", "131523.532500", "131523.992500", "131524.452500", "131524.912500", "131525.372500", "131525.832500", "131526.292500", "131526.752500", "131527.212500", "131527.672500", "131528.132500", "131528.592500", "131529.052500", "131529.512500", "131529.972500", "131530.432500", "131530.892500", "131531.352500", "131531.812500", "131532.272500", "131532.732500", "131533.192500", "131533.652500", "131534.112500", "131534.572500", "131535.032500", "131535.492500", "131535.952500", "131536.412500", "131536.872500", "131537.332500", "131537.792500", "131538.252500", "131538.712500", "131539.172500", "131539.632500", "131540.092500", "131540.552500", "131541.012500", "131541.472500", "131541.932500", "131542.392500", "131542.852500", "131543.312500", "131543.772500", "131544.232500", "131544.692500", "131545.152500", "131545.612500", "131546.072500", "131546.532500", "131546.992500", "131547.452500", "131547.912500", "131548.372500", "131548.832500", "131549.292500", "131549.752500", "131550.212500", "131550.672500", "131551.132500", "131551.592500", "131552.052500", "131552.512500", "131552.972500", "131553.432500", "131553.892500", "131554.352500", "131554.812500", "131555.272500", "131555.732500", "131556.192500", "131556.652500", "131557.112500", "131557.572500", "131558.032500", "131558.492500", "131558.952500", "131559.412500", "131559.872500", "131600.332500", "131600.792500", "131601.252500", "131601.712500", "131602.172500", "131602.632500", "131603.092500", "131603.552500", "131604.012500", "131604.472500", "131604.932500", "131605.392500", "131605.852500", "131606.312500", "131606.772500", "131607.232500", "131607.692500", "131608.152500", "131608.612500", "131609.072500", "131609.532500", "131609.992500", "131610.452500", "131610.912500", "131611.372500", "131611.832500", "131612.292500", "131612.752500", "131613.212500", "131613.672500", "131614.132500", "131614.592500", "131615.052500", "131615.512500", "131615.972500", "131616.432500", "131616.892500", "131617.352500", "131617.812500", "131618.272500", "131618.732500", "131619.192500", "131619.652500", "131620.112500", "131620.572500", "131621.032500", "131621.492500", "131621.952500", "131622.412500", "131622.872500", "131623.332500", "131623.792500", "131624.252500", "131624.712500", "131625.172500", "131625.632500", "131626.092500", "131626.552500", "131627.012500", "131627.472500", "131627.932500", "131628.392500", "131628.852500", "131629.312500", "131629.772500", "131630.232500", "131630.692500", "131631.152500", "131631.612500", "131632.072500", "131632.532500", "131632.992500", "131633.452500", "131633.912500", "131634.372500", "131634.832500", "131635.292500", "131635.752500", "131636.212500", "131636.672500", "131637.132500", "131637.592500", "131638.052500", "131638.512500", "131638.972500", "131639.432500", "131639.892500", "131640.352500", "131640.812500", "131641.272500", "131641.732500", "131642.192500", "131642.652500", "131643.112500", "131643.572500", "131644.032500", "131644.492500", "131644.952500", "131645.412500", "131645.872500", "131646.332500", "131646.792500", "131647.252500", "131647.712500", "131648.172500", "131648.632500", "131649.092500", "131649.552500", "131650.012500", "131650.472500", "131650.932500", "131651.392500", "131651.852500", "131652.312500", "131652.772500", "131653.232500", "131653.692500", "131654.152500", "131654.612500", "131655.072500", "131655.532500", "131655.992500", "131656.452500", "131656.912500", "131657.372500", "131657.832500", "131658.292500", "131658.752500", "131659.212500", "131659.672500", "131700.132500", "131700.592500", "131701.052500", "131701.512500", "131701.972500", "131702.432500", "131702.892500", "131703.352500", "131703.812500", "131704.272500", "131704.732500", "131705.192500", "131705.652500", "131706.112500", "131706.572500", "131707.032500", "131707.492500", "131707.952500", "131708.412500", "131708.872500", "131709.332500", "131709.792500", "131710.252500", "131710.712500", "131711.172500", "131711.632500", "131712.092500", "131712.552500", "131713.012500", "131713.472500", "131713.932500", "131714.392500", "131714.852500", "131715.312500", "131715.772500", "131716.232500", "131716.692500", "131717.152500", "131717.612500", "131718.072500", "131718.532500", "131718.992500", "131719.452500", "131719.912500", "131720.372500", "131720.832500", "131721.292500", "131721.752500", "131722.212500", "131722.672500", "131723.132500", "131723.592500", "131724.052500", "131724.512500", "131724.972500", "131725.432500", "131725.892500", "131726.352500", "131726.812500", "131727.272500", "131727.732500", "131728.192500", "131728.652500", "131729.112500", "131729.572500", "131730.032500", "131730.492500", "131730.952500", "131731.412500", "131731.872500", "131732.332500", "131732.792500", "131733.252500", "131733.712500", "131734.172500", "131734.632500", "131735.092500", "131735.552500", "131736.012500", "131736.472500", "131736.932500", "131737.392500", "131737.852500", "131738.312500", "131738.772500", "131739.232500", "131739.692500", "131740.152500", "131740.612500", "131741.072500", "131741.532500", "131741.992500", "131742.452500", "131742.912500", "131743.372500", "131743.832500", "131744.292500", "131744.752500", "131745.212500", "131745.672500", "131746.132500", "131746.592500", "131747.052500", "131747.512500", "131747.972500", "131748.432500", "131748.892500", "131749.352500", "131749.812500", "131750.272500", "131750.732500", "131751.192500", "131751.652500", "131752.112500", "131752.572500", "131753.032500", "131753.492500", "131753.952500", "131754.412500", "131754.872500", "131755.332500", "131755.792500", "131756.252500", "131756.712500", "131757.172500", "131757.632500", "131758.092500", "131758.552500", "131759.012500", "131759.472500", "131759.932500", "131800.392500", "131800.852500", "131801.312500", "131801.772500", "131802.232500", "131802.692500", "131803.152500", "131803.612500", "131804.072500", "131804.532500", "131804.992500", "131805.452500", "131805.912500", "131806.372500", "131806.832500", "131807.292500", "131807.752500", "131808.212500", "131808.672500", "131809.132500", "131809.592500", "131810.052500", "131810.512500", "131810.972500", "131811.432500", "131811.892500", "131812.352500", "131812.812500", "131813.272500", "131813.732500", "131814.192500", "131814.652500", "131815.112500", "131815.572500", "131816.032500", "131816.492500", "131816.952500", "131817.412500", "131817.872500", "131818.332500", "131818.792500", "131819.252500", "131819.712500", "131820.172500", "131820.632500", "131821.092500", "131821.552500", "131822.012500", "131822.472500", "131822.932500", "131823.392500", "131823.852500", "131824.312500", "131824.772500", "131825.232500", "131825.692500", "131826.152500", "131826.612500", "131827.072500", "131827.532500", "131827.992500", "131828.452500", "131828.912500", "131829.372500", "131829.832500", "131830.292500", "131830.752500", "131831.212500", "131831.672500", "131832.132500", "131832.592500", "131833.052500", "131833.512500", "131833.972500", "131834.432500", "131834.892500", "131835.352500", "131835.812500", "131836.272500", "131836.732500", "131837.192500", "131837.652500", "131838.112500", "131838.572500", "131839.032500", "131839.492500", "131839.952500", "131840.412500", "131840.872500", "131841.332500", "131841.792500", "131842.252500", "131842.712500", "131843.172500", "131843.632500", "131844.092500", "131844.552500", "131845.012500", "131845.472500", "131845.932500", "131846.392500", "131846.852500", "131847.312500", "131847.772500", "131848.232500", "131848.692500", "131849.152500", "131849.612500", "131850.072500", "131850.532500", "131850.992500", "131851.452500", "131851.912500", "131852.372500", "131852.832500", "131853.292500", "131853.752500", "131854.212500", "131854.672500", "131855.132500", "131855.592500", "131856.052500", "131856.512500", "131856.972500", "131857.432500", "131857.892500", "131858.352500", "131858.812500", "131859.272500", "131859.732500", "131900.192500", "131900.652500", "131901.112500", "131901.572500", "131902.032500", "131902.492500", "131902.952500", "131903.412500", "131903.872500", "131904.332500", "131904.792500", "131905.252500", "131905.712500", "131906.172500", "131906.632500", "131907.092500", "131907.552500", "131908.012500", "131908.472500", "131908.932500", "131909.392500", "131909.852500", "131910.312500", "131910.772500", "131911.232500", "131911.692500", "131912.152500", "131912.612500", "131913.072500", "131913.532500", "131913.992500", "131914.452500", "131914.912500", "131915.372500", "131915.832500", "131916.292500", "131916.752500", "131917.212500", "131917.672500", "131918.132500", "131918.592500", "131919.052500", "131919.512500", "131919.972500", "131920.432500", "131920.892500", "131921.352500", "131921.812500", "131922.272500", "131922.732500", "131923.192500", "131923.652500", "131924.112500", "131924.572500", "131925.032500", "131925.492500", "131925.952500", "131926.412500", "131926.872500", "131927.332500", "131927.792500", "131928.252500", "131928.712500", "131929.172500", "131929.632500", "131930.092500", "131930.552500", "131931.012500", "131931.472500", "131931.932500", "131932.392500", "131932.852500", "131933.312500", "131933.772500", "131934.232500", "131934.692500", "131935.152500", "131935.612500", "131936.072500", "131936.532500", "131936.992500", "131937.452500", "131937.912500", "131938.372500", "131938.832500", "131939.292500", "131939.752500", "131940.212500", "131940.672500", "131941.132500", "131941.592500", "131942.052500", "131942.512500", "131942.972500", "131943.432500", "131943.892500", "131944.352500", "131944.812500", "131945.272500", "131945.732500", "131946.192500", "131946.652500", "131947.112500", "131947.572500", "131948.032500", "131948.492500", "131948.952500", "131949.412500", "131949.872500", "131950.332500", "131950.792500", "131951.252500", "131951.712500", "131952.172500", "131952.632500", "131953.092500", "131953.552500", "131954.012500", "131954.472500", "131954.932500", "131955.392500", "131955.852500", "131956.312500", "131956.772500", "131957.232500", "131957.692500", "131958.152500", "131958.612500", "131959.072500", "131959.532500", "131959.992500", "132000.452500", "132000.912500", "132001.372500", "132001.832500", "132002.292500", "132002.752500", "132003.212500", "132003.672500", "132004.132500", "132004.592500", "132005.052500", "132005.512500", "132005.972500", "132006.432500", "132006.892500", "132007.352500", "132007.812500", "132008.272500", "132008.732500", "132009.192500", "132009.652500", "132010.112500", "132010.572500", "132011.032500", "132011.492500", "132011.952500", "132012.412500", "132012.872500", "132013.332500", "132013.792500", "132014.252500", "132014.712500", "132015.172500", "132015.632500", "132016.092500", "132016.552500", "132017.012500", "132017.472500", "132017.932500", "132018.392500", "132018.852500", "132019.312500", "132019.772500", "132020.232500", "132020.692500", "132021.152500", "132021.612500", "132022.072500", "132022.532500", "132022.992500", "132023.452500", "132023.912500", "132024.372500", "132024.832500", "132025.292500", "132025.752500", "132026.212500", "132026.672500", "132027.132500", "132027.592500", "132028.052500", "132028.512500", "132028.972500", "132029.432500", "132029.892500", "132030.352500", "132030.812500", "132031.272500", "132031.732500", "132032.192500", "132032.652500", "132033.112500", "132033.572500", "132034.032500", "132034.492500", "132034.952500", "132035.412500", "132035.872500", "132036.332500", "132036.792500", "132037.252500", "132037.712500", "132038.172500", "132038.632500", "132039.092500", "132039.552500", "132040.012500", "132040.472500", "132040.932500", "132041.392500", "132041.852500", "132042.312500", "132042.772500", "132043.232500", "132043.692500", "132044.152500", "132044.612500", "132045.072500", "132045.532500", "132045.992500", "132046.452500", "132046.912500", "132047.372500", "132047.832500", "132048.292500", "132048.752500", "132049.212500", "132049.672500", "132050.132500", "132050.592500", "132051.052500", "132051.512500", "132051.972500", "132052.432500", "132052.892500", "132053.352500", "132053.812500", "132054.272500", "132054.732500", "132055.192500", "132055.652500", "132056.112500", "132056.572500", "132057.032500", "132057.492500", "132057.952500", "132058.412500", "132058.872500", "132059.332500", "132059.792500", "132100.252500", "132100.712500", "132101.172500", "132101.632500", "132102.092500", "132102.552500", "132103.012500", "132103.472500", "132103.932500", "132104.392500", "132104.852500", "132105.312500", "132105.772500", "132106.232500", "132106.692500", "132107.152500", "132107.612500", "132108.072500", "132108.532500", "132108.992500", "132109.452500", "132109.912500", "132110.372500", "132110.832500", "132111.292500", "132111.752500", "132112.212500", "132112.672500", "132113.132500", "132113.592500", "132114.052500", "132114.512500", "132114.972500", "132115.432500", "132115.892500", "132116.352500", "132116.812500", "132117.272500", "132117.732500", "132118.192500", "132118.652500", "132119.112500", "132119.572500", "132120.032500", "132120.492500", "132120.952500"],
