{
  "AcquisitionMatrixPE": 82,
  "AcquisitionNumber": 1,
  "AcquisitionTime": "13:43:52.675000",
  "BandwidthPerPixelPhaseEncode": 24.888,
  "BaseResolution": 82,
  "BodyPartExamined": "BRAIN",
  "ConsistencyInfo": "N4_VE11C_LATEST_20160120",
  "ConversionSoftware": "dcm2niix",
  "ConversionSoftwareVersion": "v1.0.20201102",
  "DerivedVendorReportedEchoSpacing": 0.00049,
  "DeviceSerialNumber": "66112",
  "DwellTime": 2e-06,
  "EchoTime": 0.0272,
  "EchoTrainLength": 82,
  "EffectiveEchoSpacing": 0.00049,
  "FlipAngle": 44,
  "ImageComments": "Unaliased MB8/PE3",
  "ImageOrientationPatientDICOM": [0.999712, -0.022589, 0.00805869, 0.0228612, 0.99911, -0.0354596],
  "ImageType": [
    "ORIGINAL",
    "PRIMARY",
    "M",
    "MB",
    "ND",
    "NORM",
    "MOSAIC"
],
  "ImagingFrequency": 123.252,
  "InPlanePhaseEncodingDirectionDICOM": "COL",
  "InstitutionAddress": "Maynard 3,Hanover,NH,US,03755",
  "InstitutionName": "Dartmouth College - PBS",
  "InstitutionalDepartmentName": "Department",
  "MRAcquisitionType": "2D",
  "MagneticFieldStrength": 3,
  "Manufacturer": "Siemens",
  "ManufacturersModelName": "Prisma",
  "Modality": "MR",
  "MultibandAccelerationFactor": 8,
  "PartialFourier": 1,
  "PatientPosition": "HFS",
  "PercentPhaseFOV": 100,
  "PercentSampling": 100,
  "PhaseEncodingDirection": "j-",
  "PhaseEncodingSteps": 82,
  "PhaseResolution": 1,
  "PixelBandwidth": 3050,
  "ProcedureStepDescription": "Wager_Wager^1076_spacetop",
  "ProtocolName": "func_run-06_task-social_acq-ap-mb8",
  "PulseSequenceDetails": "%CustomerSeq%\\cmrr_mbep2d_bold",
  "ReceiveCoilActiveElements": "HEA;HEP",
  "ReceiveCoilName": "Head_32",
  "ReconMatrixPE": 82,
  "RepetitionTime": 0.46,
  "SAR": 0.0895521,
  "ScanOptions": "FS",
  "ScanningSequence": "EP",
  "SequenceName": "epfid2d1_82",
  "SequenceVariant": "SK\\SS",
  "SeriesDescription": "func_run-06_task-social_acq-ap-mb8",
  "SeriesNumber": 22,
  "ShimSetting": [4147, -7709, -7282, 562, -81, -177, 68, 73],
  "SliceThickness": 2.7,
  "SliceTiming": [0, 0.2525, 0.0625, 0.315, 0.125, 0.3775, 0.1875, 0, 0.2525, 0.0625, 0.315, 0.125, 0.3775, 0.1875, 0, 0.2525, 0.0625, 0.315, 0.125, 0.3775, 0.1875, 0, 0.2525, 0.0625, 0.315, 0.125, 0.3775, 0.1875, 0, 0.2525, 0.0625, 0.315, 0.125, 0.3775, 0.1875, 0, 0.2525, 0.0625, 0.315, 0.125, 0.3775, 0.1875, 0, 0.2525, 0.0625, 0.315, 0.125, 0.3775, 0.1875, 0, 0.2525, 0.0625, 0.315, 0.125, 0.3775, 0.1875],
  "SoftwareVersions": "syngo MR E11",
  "SpacingBetweenSlices": 2.7,
  "StationName": "AWP66112",
  "TaskName": "social",
  "TotalReadoutTime": 0.03969,
  "TxRefAmp": 260.777,
  "WipMemBlock": "2fb291a3-a3c2-4d0d-8ecb-a9e1937e13e0||Sequence: R016 ve11c/master r/e634e98; Dec 19 2017 11:00:25 by eja",
  "dcmmeta_affine": [
    [-2.682155132293701, 0.06133488565683365, 0.019576402381062508, 110.14803314208984],
    [0.06060453876852989, 2.6805379390716553, -0.09621068090200424, -94.56466674804688],
    [0.021620875224471092, 0.0951353907585144, 2.698214292526245, -91.45787048339844],
    [0.0, 0.0, 0.0, 1.0]
],
  "dcmmeta_reorient_transform": [
    [0.0, -1.0, 0.0, 81.0],
    [1.0, 0.0, 0.0, 0.0],
    [0.0, 0.0, 1.0, 0.0],
    [0.0, 0.0, 0.0, 1.0]
],
  "dcmmeta_shape": [82, 82, 56, 872],
  "dcmmeta_slice_dim": 2,
  "dcmmeta_version": 0.6,
  "global": {
    "const": {
      "AccessionNumber": "A003792",
      "AcquisitionMatrix": [82, 0, 0, 82],
      "AngioFlag": "N",
      "BitsAllocated": 16,
      "BitsStored": 16,
      "BodyPartExamined": "BRAIN",
      "Columns": 656,
      "EchoNumbers": 1,
      "EchoTime": 27.2,
      "EchoTrainLength": 82,
      "FlipAngle": 44.0,
      "HighBit": 15,
      "ImageOrientationPatient": [0.99971235673386, -0.0225889645258, 0.00805868942689, 0.02286118462966, 0.99910959675815, -0.0354595530583],
      "ImagePositionPatient": [-902.49780665431, -874.47981942321, -62.653238269782],
      "ImageType": [
        "ORIGINAL",
        "PRIMARY",
        "M",
        "MB",
        "ND",
        "NORM",
        "MOSAIC"
],
      "ImagedNucleus": "1H",
      "ImagingFrequency": 123.252229,
      "InPlanePhaseEncodingDirection": "COL",
      "MRAcquisitionType": "2D",
      "MagneticFieldStrength": 3.0,
      "Manufacturer": "SIEMENS",
      "ManufacturerModelName": "Prisma",
      "Modality": "MR",
      "NumberOfAverages": 1.0,
      "NumberOfPhaseEncodingSteps": 82,
      "PercentPhaseFieldOfView": 100.0,
      "PercentSampling": 100.0,
      "PerformedProcedureStepStartTime": "124220.013000",
      "PhotometricInterpretation": "MONOCHROME2",
      "PixelBandwidth": 3050.0,
      "PixelRepresentation": 0,
      "PixelSpacing": [2.6829268932343, 2.6829268932343],
      "ProtocolName": "func_run-06_task-social_acq-ap-mb8",
      "RepetitionTime": 460.0,
      "Rows": 656,
      "SAR": 0.08955214706369,
      "SamplesPerPixel": 1,
      "ScanOptions": "FS",
      "ScanningSequence": "EP",
      "SequenceName": "epfid2d1_82",
      "SequenceVariant": [
        "SK",
        "SS"
],
      "SeriesDescription": "func_run-06_task-social_acq-ap-mb8",
      "SeriesNumber": 22,
      "SeriesTime": "134406.134000",
      "SliceLocation": -87.229073436979,
      "SliceThickness": 2.7000000476837,
      "SmallestImagePixelValue": 0,
      "SoftwareVersions": "syngo MR E11",
      "SpacingBetweenSlices": 2.7000000309639,
      "SpecificCharacterSet": "ISO_IR 100",
      "StudyID": "1",
      "StudyTime": "124219.874000",
      "TransmitCoilName": "Body",
      "VariableFlipAngleFlag": "N",
      "WindowCenterWidthExplanation": "Algo1",
      "dBdt": 0.0},
    "slices": {}
  },
  "time": {
    "samples": {
      "AcquisitionNumber": [1, 2, 3, 4, 5, 6, 7, 8, 9, 10, 11, 12, 13, 14, 15, 16, 17, 18, 19, 20, 21, 22, 23, 24, 25, 26, 27, 28, 29, 30, 31, 32, 33, 34, 35, 36, 37, 38, 39, 40, 41, 42, 43, 44, 45, 46, 47, 48, 49, 50, 51, 52, 53, 54, 55, 56, 57, 58, 59, 60, 61, 62, 63, 64, 65, 66, 67, 68, 69, 70, 71, 72, 73, 74, 75, 76, 77, 78, 79, 80, 81, 82, 83, 84, 85, 86, 87, 88, 89, 90, 91, 92, 93, 94, 95, 96, 97, 98, 99, 100, 101, 102, 103, 104, 105, 106, 107, 108, 109, 110, 111, 112, 113, 114, 115, 116, 117, 118, 119, 120, 121, 122, 123, 124, 125, 126, 127, 128, 129, 130, 131, 132, 133, 134, 135, 136, 137, 138, 139, 140, 141, 142, 143, 144, 145, 146, 147, 148, 149, 150, 151, 152, 153, 154, 155, 156, 157, 158, 159, 160, 161, 162, 163, 164, 165, 166, 167, 168, 169, 170, 171, 172, 173, 174, 175, 176, 177, 178, 179, 180, 181, 182, 183, 184, 185, 186, 187, 188, 189, 190, 191, 192, 193, 194, 195, 196, 197, 198, 199, 200, 201, 202, 203, 204, 205, 206, 207, 208, 209, 210, 211, 212, 213, 214, 215, 216, 217, 218, 219, 220, 221, 222, 223, 224, 225, 226, 227, 228, 229, 230, 231, 232, 233, 234, 235, 236, 237, 238, 239, 240, 241, 242, 243, 244, 245, 246, 247, 248, 249, 250, 251, 252, 253, 254, 255, 256, 257, 258, 259, 260, 261, 262, 263, 264, 265, 266, 267, 268, 269, 270, 271, 272, 273, 274, 275, 276, 277, 278, 279, 280, 281, 282, 283, 284, 285, 286, 287, 288, 289, 290, 291, 292, 293, 294, 295, 296, 297, 298, 299, 300, 301, 302, 303, 304, 305, 306, 307, 308, 309, 310, 311, 312, 313, 314, 315, 316, 317, 318, 319, 320, 321, 322, 323, 324, 325, 326, 327, 328, 329, 330, 331, 332, 333, 334, 335, 336, 337, 338, 339, 340, 341, 342, 343, 344, 345, 346, 347, 348, 349, 350, 351, 352, 353, 354, 355, 356, 357, 358, 359, 360, 361, 362, 363, 364, 365, 366, 367, 368, 369, 370, 371, 372, 373, 374, 375, 376, 377, 378, 379, 380, 381, 382, 383, 384, 385, 386, 387, 388, 389, 390, 391, 392, 393, 394, 395, 396, 397, 398, 399, 400, 401, 402, 403, 404, 405, 406, 407, 408, 409, 410, 411, 412, 413, 414, 415, 416, 417, 418, 419, 420, 421, 422, 423, 424, 425, 426, 427, 428, 429, 430, 431, 432, 433, 434, 435, 436, 437, 438, 439, 440, 441, 442, 443, 444, 445, 446, 447, 448, 449, 450, 451, 452, 453, 454, 455, 456, 457, 458, 459, 460, 461, 462, 463, 464, 465, 466, 467, 468, 469, 470, 471, 472, 473, 474, 475, 476, 477, 478, 479, 480, 481, 482, 483, 484, 485, 486, 487, 488, 489, 490, 491, 492, 493, 494, 495, 496, 497, 498, 499, 500, 501, 502, 503, 504, 505, 506, 507, 508, 509, 510, 511, 512, 513, 514, 515, 516, 517, 518, 519, 520, 521, 522, 523, 524, 525, 526, 527, 528, 529, 530, 531, 532, 533, 534, 535, 536, 537, 538, 539, 540, 541, 542, 543, 544, 545, 546, 547, 548, 549, 550, 551, 552, 553, 554, 555, 556, 557, 558, 559, 560, 561, 562, 563, 564, 565, 566, 567, 568, 569, 570, 571, 572, 573, 574, 575, 576, 577, 578, 579, 580, 581, 582, 583, 584, 585, 586, 587, 588, 589, 590, 591, 592, 593, 594, 595, 596, 597, 598, 599, 600, 601, 602, 603, 604, 605, 606, 607, 608, 609, 610, 611, 612, 613, 614, 615, 616, 617, 618, 619, 620, 621, 622, 623, 624, 625, 626, 627, 628, 629, 630, 631, 632, 633, 634, 635, 636, 637, 638, 639, 640, 641, 642, 643, 644, 645, 646, 647, 648, 649, 650, 651, 652, 653, 654, 655, 656, 657, 658, 659, 660, 661, 662, 663, 664, 665, 666, 667, 668, 669, 670, 671, 672, 673, 674, 675, 676, 677, 678, 679, 680, 681, 682, 683, 684, 685, 686, 687, 688, 689, 690, 691, 692, 693, 694, 695, 696, 697, 698, 699, 700, 701, 702, 703, 704, 705, 706, 707, 708, 709, 710, 711, 712, 713, 714, 715, 716, 717, 718, 719, 720, 721, 722, 723, 724, 725, 726, 727, 728, 729, 730, 731, 732, 733, 734, 735, 736, 737, 738, 739, 740, 741, 742, 743, 744, 745, 746, 747, 748, 749, 750, 751, 752, 753, 754, 755, 756, 757, 758, 759, 760, 761, 762, 763, 764, 765, 766, 767, 768, 769, 770, 771, 772, 773, 774, 775, 776, 777, 778, 779, 780, 781, 782, 783, 784, 785, 786, 787, 788, 789, 790, 791, 792, 793, 794, 795, 796, 797, 798, 799, 800, 801, 802, 803, 804, 805, 806, 807, 808, 809, 810, 811, 812, 813, 814, 815, 816, 817, 818, 819, 820, 821, 822, 823, 824, 825, 826, 827, 828, 829, 830, 831, 832, 833, 834, 835, 836, 837, 838, 839, 840, 841, 842, 843, 844, 845, 846, 847, 848, 849, 850, 851, 852, 853, 854, 855, 856, 857, 858, 859, 860, 861, 862, 863, 864, 865, 866, 867, 868, 869, 870, 871, 872],
      "AcquisitionTime": ["134352.675000", "134353.135000", "134353.595000", "134354.055000", "134354.515000", "134354.975000", "134355.435000", "134355.895000", "134356.355000", "134356.815000", "134357.275000", "134357.735000", "134358.195000", "134358.655000", "134359.115000", "134359.575000", "134400.035000", "134400.495000", "134400.955000", "134401.415000", "134401.875000", "134402.335000", "134402.795000", "134403.255000", "134403.715000", "134404.175000", "134404.635000", "134405.095000", "134405.555000", "134406.015000", "134406.475000", "134406.935000", "134407.395000", "134407.855000", "134408.315000", "134408.775000", "134409.235000", "134409.695000", "134410.155000", "134410.615000", "134411.075000", "134411.535000", "134411.995000", "134412.455000", "134412.915000", "134413.375000", "134413.835000", "134414.295000", "134414.755000", "134415.215000", "134415.675000", "134416.135000", "134416.595000", "134417.055000", "134417.515000", "134417.975000", "134418.435000", "134418.895000", "134419.355000", "134419.815000", "134420.275000", "134420.735000", "134421.195000", "134421.655000", "134422.115000", "134422.575000", "134423.035000", "134423.495000", "134423.955000", "134424.415000", "134424.875000", "134425.335000", "134425.795000", "134426.255000", "134426.715000", "134427.175000", "134427.635000", "134428.095000", "134428.555000", "134429.015000", "134429.475000", "134429.935000", "134430.395000", "134430.855000", "134431.315000", "134431.775000", "134432.235000", "134432.695000", "134433.155000", "134433.615000", "134434.075000", "134434.535000", "134434.995000", "134435.455000", "134435.915000", "134436.375000", "134436.835000", "134437.295000", "134437.755000", "134438.215000", "134438.675000", "134439.135000", "134439.595000", "134440.055000", "134440.515000", "134440.975000", "134441.435000", "134441.895000", "134442.355000", "134442.815000", "134443.275000", "134443.735000", "134444.195000", "134444.655000", "134445.115000", "134445.575000", "134446.035000", "134446.495000", "134446.955000", "134447.415000", "134447.875000", "134448.335000", "134448.795000", "134449.255000", "134449.715000", "134450.175000", "134450.635000", "134451.095000", "134451.555000", "134452.015000", "134452.475000", "134452.935000", "134453.395000", "134453.855000", "134454.315000", "134454.775000", "134455.235000", "134455.695000", "134456.155000", "134456.615000", "134457.075000", "134457.535000", "134457.995000", "134458.455000", "134458.915000", "134459.375000", "134459.835000", "134500.295000", "134500.755000", "134501.215000", "134501.675000", "134502.135000", "134502.595000", "134503.055000", "134503.515000", "134503.975000", "134504.435000", "134504.895000", "134505.355000", "134505.815000", "134506.275000", "134506.735000", "134507.195000", "134507.655000", "134508.115000", "134508.575000", "134509.035000", "134509.495000", "134509.955000", "134510.415000", "134510.875000", "134511.335000", "134511.795000", "134512.255000", "134512.715000", "134513.175000", "134513.635000", "134514.095000", "134514.555000", "134515.015000", "134515.475000", "134515.935000", "134516.395000", "134516.855000", "134517.315000", "134517.775000", "134518.235000", "134518.695000", "134519.155000", "134519.615000", "134520.075000", "134520.535000", "134520.995000", "134521.455000", "134521.915000", "134522.375000", "134522.835000", "134523.295000", "134523.755000", "134524.215000", "134524.675000", "134525.135000", "134525.595000", "134526.055000", "134526.515000", "134526.975000", "134527.435000", "134527.895000", "134528.355000", "134528.815000", "134529.275000", "134529.735000", "134530.195000", "134530.655000", "134531.115000", "134531.575000", "134532.035000", "134532.495000", "134532.955000", "134533.415000", "134533.875000", "134534.335000", "134534.795000", "134535.255000", "134535.715000", "134536.175000", "134536.635000", "134537.095000", "134537.555000", "134538.015000", "134538.475000", "134538.935000", "134539.395000", "134539.855000", "134540.315000", "134540.775000", "134541.235000", "134541.695000", "134542.155000", "134542.615000", "134543.075000", "134543.535000", "134543.995000", "134544.455000", "134544.915000", "134545.375000", "134545.835000", "134546.295000", "134546.755000", "134547.215000", "134547.675000", "134548.135000", "134548.595000", "134549.055000", "134549.515000", "134549.975000", "134550.435000", "134550.895000", "134551.355000", "134551.815000", "134552.275000", "134552.735000", "134553.195000", "134553.655000", "134554.115000", "134554.575000", "134555.035000", "134555.495000", "134555.955000", "134556.415000", "134556.875000", "134557.335000", "134557.795000", "134558.255000", "134558.715000", "134559.175000", "134559.635000", "134600.095000", "134600.555000", "134601.015000", "134601.475000", "134601.935000", "134602.395000", "134602.855000", "134603.315000", "134603.775000", "134604.235000", "134604.695000", "134605.155000", "134605.615000", "134606.075000", "134606.535000", "134606.995000", "134607.455000", "134607.915000", "134608.375000", "134608.835000", "134609.295000", "134609.755000", "134610.215000", "134610.675000", "134611.135000", "134611.595000", "134612.055000", "134612.515000", "134612.975000", "134613.435000", "134613.895000", "134614.355000", "134614.815000", "134615.275000", "134615.735000", "134616.195000", "134616.655000", "134617.115000", "134617.575000", "134618.035000", "134618.495000", "134618.955000", "134619.415000", "134619.875000", "134620.335000", "134620.795000", "134621.255000", "134621.715000", "134622.175000", "134622.635000", "134623.095000", "134623.555000", "134624.015000", "134624.475000", "134624.935000", "134625.395000", "134625.855000", "134626.315000", "134626.775000", "134627.235000", "134627.695000", "134628.155000", "134628.615000", "134629.075000", "134629.535000", "134629.995000", "134630.455000", "134630.915000", "134631.375000", "134631.835000", "134632.295000", "134632.755000", "134633.215000", "134633.675000", "134634.135000", "134634.595000", "134635.055000", "134635.515000", "134635.975000", "134636.435000", "134636.895000", "134637.355000", "134637.815000", "134638.275000", "134638.735000", "134639.195000", "134639.655000", "134640.115000", "134640.575000", "134641.035000", "134641.495000", "134641.955000", "134642.415000", "134642.875000", "134643.335000", "134643.795000", "134644.255000", "134644.715000", "134645.175000", "134645.635000", "134646.095000", "134646.555000", "134647.015000", "134647.475000", "134647.935000", "134648.395000", "134648.855000", "134649.315000", "134649.775000", "134650.235000", "134650.695000", "134651.155000", "134651.615000", "134652.075000", "134652.535000", "134652.995000", "134653.455000", "134653.915000", "134654.375000", "134654.835000", "134655.295000", "134655.755000", "134656.215000", "134656.675000", "134657.135000", "134657.595000", "134658.055000", "134658.515000", "134658.975000", "134659.435000", "134659.895000", "134700.355000", "134700.815000", "134701.275000", "134701.735000", "134702.195000", "134702.655000", "134703.115000", "134703.575000", "134704.035000", "134704.495000", "134704.955000", "134705.415000", "134705.875000", "134706.335000", "134706.795000", "134707.255000", "134707.715000", "134708.175000", "134708.635000", "134709.095000", "134709.555000", "134710.015000", "134710.475000", "134710.935000", "134711.395000", "134711.855000", "134712.315000", "134712.775000", "134713.235000", "134713.695000", "134714.155000", "134714.615000", "134715.075000", "134715.535000", "134715.995000", "134716.455000", "134716.915000", "134717.375000", "134717.835000", "134718.295000", "134718.755000", "134719.215000", "134719.675000", "134720.135000", "134720.595000", "134721.055000", "134721.515000", "134721.975000", "134722.435000", "134722.895000", "134723.355000", "134723.815000", "134724.275000", "134724.735000", "134725.195000", "134725.655000", "134726.115000", "134726.575000", "134727.035000", "134727.495000", "134727.955000", "134728.415000", "134728.875000", "134729.335000", "134729.795000", "134730.255000", "134730.715000", "134731.175000", "134731.635000", "134732.095000", "134732.555000", "134733.015000", "134733.475000", "134733.935000", "134734.395000", "134734.855000", "134735.315000", "134735.775000", "134736.235000", "134736.695000", "134737.155000", "134737.615000", "134738.075000", "134738.535000", "134738.995000", "134739.455000", "134739.915000", "134740.375000", "134740.835000", "134741.295000", "134741.755000", "134742.215000", "134742.675000", "134743.135000", "134743.595000", "134744.055000", "134744.515000", "134744.975000", "134745.435000", "134745.895000", "134746.355000", "134746.815000", "134747.275000", "134747.735000", "134748.195000", "134748.655000", "134749.115000", "134749.575000", "134750.035000", "134750.495000", "134750.955000", "134751.415000", "134751.875000", "134752.335000", "134752.795000", "134753.255000", "134753.715000", "134754.175000", "134754.635000", "134755.095000", "134755.555000", "134756.015000", "134756.475000", "134756.935000", "134757.395000", "134757.855000", "134758.315000", "134758.775000", "134759.235000", "134759.695000", "134800.155000", "134800.615000", "134801.075000", "134801.535000", "134801.995000", "134802.455000", "134802.915000", "134803.375000", "134803.835000", "134804.295000", "134804.755000", "134805.215000", "134805.675000", "134806.135000", "134806.595000", "134807.055000", "134807.515000", "134807.975000", "134808.435000", "134808.895000", "134809.355000", "134809.815000", "134810.275000", "134810.735000", "134811.195000", "134811.655000", "134812.115000", "134812.575000", "134813.035000", "134813.495000", "134813.955000", "134814.415000", "134814.875000", "134815.335000", "134815.795000", "134816.255000", "134816.715000", "134817.175000", "134817.635000", "134818.095000", "134818.555000", "134819.015000", "134819.475000", "134819.935000", "134820.395000", "134820.855000", "134821.315000", "134821.775000", "134822.235000", "134822.695000", "134823.155000", "134823.615000", "134824.075000", "134824.535000", "134824.995000", "134825.455000", "134825.915000", "134826.375000", "134826.835000", "134827.295000", "134827.755000", "134828.215000", "134828.675000", "134829.135000", "134829.595000", "134830.055000", "134830.515000", "134830.975000", "134831.435000", "134831.895000", "134832.355000", "134832.815000", "134833.275000", "134833.735000", "134834.195000", "134834.655000", "134835.115000", "134835.575000", "134836.035000", "134836.495000", "134836.955000", "134837.415000", "134837.875000", "134838.335000", "134838.795000", "134839.255000", "134839.715000", "134840.175000", "134840.635000", "134841.095000", "134841.555000", "134842.015000", "134842.475000", "134842.935000", "134843.395000", "134843.855000", "134844.315000", "134844.775000", "134845.235000", "134845.695000", "134846.155000", "134846.615000", "134847.075000", "134847.535000", "134847.995000", "134848.455000", "134848.915000", "134849.375000", "134849.835000", "134850.295000", "134850.755000", "134851.215000", "134851.675000", "134852.135000", "134852.595000", "134853.055000", "134853.515000", "134853.975000", "134854.435000", "134854.895000", "134855.355000", "134855.815000", "134856.275000", "134856.735000", "134857.195000", "134857.655000", "134858.115000", "134858.575000", "134859.035000", "134859.495000", "134859.955000", "134900.415000", "134900.875000", "134901.335000", "134901.795000", "134902.255000", "134902.715000", "134903.175000", "134903.635000", "134904.095000", "134904.555000", "134905.015000", "134905.475000", "134905.935000", "134906.395000", "134906.855000", "134907.315000", "134907.775000", "134908.235000", "134908.695000", "134909.155000", "134909.615000", "134910.075000", "134910.535000", "134910.995000", "134911.455000", "134911.915000", "134912.375000", "134912.835000", "134913.295000", "134913.755000", "134914.215000", "134914.675000", "134915.135000", "134915.595000", "134916.055000", "134916.515000", "134916.975000", "134917.435000", "134917.895000", "134918.355000", "134918.815000", "134919.275000", "134919.735000", "134920.195000", "134920.655000", "134921.115000", "134921.575000", "134922.035000", "134922.495000", "134922.955000", "134923.415000", "134923.875000", "134924.335000", "134924.795000", "134925.255000", "134925.715000", "134926.175000", "134926.635000", "134927.095000", "134927.555000", "134928.015000", "134928.475000", "134928.935000", "134929.395000", "134929.855000", "134930.315000", "134930.775000", "134931.235000", "134931.695000", "134932.155000", "134932.615000", "134933.075000", "134933.535000", "134933.995000", "134934.455000", "134934.915000", "134935.375000", "134935.835000", "134936.295000", "134936.755000", "134937.215000", "134937.675000", "134938.135000", "134938.595000", "134939.055000", "134939.515000", "134939.975000", "134940.435000", "134940.895000", "134941.355000", "134941.815000", "134942.275000", "134942.735000", "134943.195000", "134943.655000", "134944.115000", "134944.575000", "134945.035000", "134945.495000", "134945.955000", "134946.415000", "134946.875000", "134947.335000", "134947.795000", "134948.255000", "134948.715000", "134949.175000", "134949.635000", "134950.095000", "134950.555000", "134951.015000", "134951.475000", "134951.935000", "134952.395000", "134952.855000", "134953.315000", "134953.775000", "134954.235000", "134954.695000", "134955.155000", "134955.615000", "134956.075000", "134956.535000", "134956.995000", "134957.455000", "134957.915000", "134958.375000", "134958.835000", "134959.295000", "134959.755000", "135000.215000", "135000.675000", "135001.135000", "135001.595000", "135002.055000", "135002.515000", "135002.975000", "135003.435000", "135003.895000", "135004.355000", "135004.815000", "135005.275000", "135005.735000", "135006.195000", "135006.655000", "135007.115000", "135007.575000", "135008.035000", "135008.495000", "135008.955000", "135009.415000", "135009.875000", "135010.335000", "135010.795000", "135011.255000", "135011.715000", "135012.175000", "135012.635000", "135013.095000", "135013.555000", "135014.015000", "135014.475000", "135014.935000", "135015.395000", "135015.855000", "135016.315000", "135016.775000", "135017.235000", "135017.695000", "135018.155000", "135018.615000", "135019.075000", "135019.535000", "135019.995000", "135020.455000", "135020.915000", "135021.375000", "135021.835000", "135022.295000", "135022.755000", "135023.215000", "135023.675000", "135024.135000", "135024.595000", "135025.055000", "135025.515000", "135025.975000", "135026.435000", "135026.895000", "135027.355000", "135027.815000", "135028.275000", "135028.735000", "135029.195000", "135029.655000", "135030.115000", "135030.575000", "135031.035000", "135031.495000", "135031.955000", "135032.415000", "135032.875000", "135033.335000"],
