{
  "AcquisitionMatrixPE": 82,
  "AcquisitionNumber": 1,
  "AcquisitionTime": "14:13:28.972500",
  "BandwidthPerPixelPhaseEncode": 24.888,
  "BaseResolution": 82,
  "BodyPartExamined": "BRAIN",
  "ConsistencyInfo": "N4_VE11C_LATEST_20160120",
  "ConversionSoftware": "dcm2niix",
  "ConversionSoftwareVersion": "v1.0.20201102",
  "DerivedVendorReportedEchoSpacing": 0.00049,
  "DeviceSerialNumber": "66112",
  "DwellTime": 2e-06,
  "EchoTime": 0.0272,
  "EchoTrainLength": 82,
  "EffectiveEchoSpacing": 0.00049,
  "FlipAngle": 44,
  "ImageComments": "Unaliased MB8/PE3",
  "ImageOrientationPatientDICOM": [0.999697, -0.0154098, 0.019213, 0.0151809, 0.999813, 0.0119984],
  "ImageType": [
    "ORIGINAL",
    "PRIMARY",
    "M",
    "MB",
    "ND",
    "NORM",
    "MOSAIC"
],
  "ImagingFrequency": 123.252,
  "InPlanePhaseEncodingDirectionDICOM": "COL",
  "InstitutionAddress": "Maynard 3,Hanover,NH,US,03755",
  "InstitutionName": "Dartmouth College - PBS",
  "InstitutionalDepartmentName": "Department",
  "MRAcquisitionType": "2D",
  "MagneticFieldStrength": 3,
  "Manufacturer": "Siemens",
  "ManufacturersModelName": "Prisma",
  "Modality": "MR",
  "MultibandAccelerationFactor": 8,
  "PartialFourier": 1,
  "PatientPosition": "HFS",
  "PercentPhaseFOV": 100,
  "PercentSampling": 100,
  "PhaseEncodingDirection": "j-",
  "PhaseEncodingSteps": 82,
  "PhaseResolution": 1,
  "PixelBandwidth": 3050,
  "ProcedureStepDescription": "Wager_Wager^1076_spacetop",
  "ProtocolName": "func_run-03_task-alignvideo_acq-ap-mb8",
  "PulseSequenceDetails": "%CustomerSeq%\\cmrr_mbep2d_bold",
  "ReceiveCoilActiveElements": "HEA;HEP",
  "ReceiveCoilName": "Head_32",
  "ReconMatrixPE": 82,
  "RepetitionTime": 0.46,
  "SAR": 0.0896311,
  "ScanOptions": "FS",
  "ScanningSequence": "EP",
  "SequenceName": "epfid2d1_82",
  "SequenceVariant": "SK\\SS",
  "SeriesDescription": "func_run-03_task-alignvideo_acq-ap-mb8",
  "SeriesNumber": 34,
  "ShimSetting": [4147, -7709, -7283, 556, -78, -172, 67, 73],
  "SliceThickness": 2.7,
  "SliceTiming": [0, 0.2525, 0.0625, 0.315, 0.1275, 0.3775, 0.19, 0, 0.2525, 0.0625, 0.315, 0.1275, 0.3775, 0.19, 0, 0.2525, 0.0625, 0.315, 0.1275, 0.3775, 0.19, 0, 0.2525, 0.0625, 0.315, 0.1275, 0.3775, 0.19, 0, 0.2525, 0.0625, 0.315, 0.1275, 0.3775, 0.19, 0, 0.2525, 0.0625, 0.315, 0.1275, 0.3775, 0.19, 0, 0.2525, 0.0625, 0.315, 0.1275, 0.3775, 0.19, 0, 0.2525, 0.0625, 0.315, 0.1275, 0.3775, 0.19],
  "SoftwareVersions": "syngo MR E11",
  "SpacingBetweenSlices": 2.7,
  "StationName": "AWP66112",
  "TaskName": "alignvideo",
  "TotalReadoutTime": 0.03969,
  "TxRefAmp": 260.777,
  "WipMemBlock": "0e25da05-4dd0-49e6-b4b1-1a65c8cbc1a1||Sequence: R016 ve11c/master r/e634e98; Dec 19 2017 11:00:25 by eja",
  "dcmmeta_affine": [
    [-2.6821129322052, 0.04072936624288559, 0.05236460268497467, 109.4569320678711],
    [0.041343238204717636, 2.682424545288086, 0.03159843012690544, -97.31785583496094],
    [0.051547080278396606, -0.032190918922424316, 2.6993072032928467, -87.29493713378906],
    [0.0, 0.0, 0.0, 1.0]
],
  "dcmmeta_reorient_transform": [
    [0.0, -1.0, 0.0, 81.0],
    [1.0, 0.0, 0.0, 0.0],
    [0.0, 0.0, 1.0, 0.0],
    [0.0, 0.0, 0.0, 1.0]
],
  "dcmmeta_shape": [82, 82, 56, 1016],
  "dcmmeta_slice_dim": 2,
  "dcmmeta_version": 0.6,
  "global": {
    "const": {
      "AccessionNumber": "A003792",
      "AcquisitionMatrix": [82, 0, 0, 82],
      "AngioFlag": "N",
      "BitsAllocated": 16,
      "BitsStored": 16,
      "BodyPartExamined": "BRAIN",
      "Columns": 656,
      "EchoNumbers": 1,
      "EchoTime": 27.2,
      "EchoTrainLength": 82,
      "FlipAngle": 44.0,
      "HighBit": 15,
      "ImageOrientationPatient": [0.99969665404561, -0.0154097517247, 0.01921300189432, 0.01518094572503, 0.99981277071544, 0.01199843328155],
      "ImagePositionPatient": [-894.21177932983, -877.94887646974, -113.93521033812],
      "ImageType": [
        "ORIGINAL",
        "PRIMARY",
        "M",
        "MB",
        "ND",
        "NORM",
        "MOSAIC"
],
      "ImagedNucleus": "1H",
      "ImagingFrequency": 123.252231,
      "InPlanePhaseEncodingDirection": "COL",
      "MRAcquisitionType": "2D",
      "MagneticFieldStrength": 3.0,
      "Manufacturer": "SIEMENS",
      "ManufacturerModelName": "Prisma",
      "Modality": "MR",
      "NumberOfAverages": 1.0,
      "NumberOfPhaseEncodingSteps": 82,
      "PercentPhaseFieldOfView": 100.0,
      "PercentSampling": 100.0,
      "PerformedProcedureStepStartTime": "124220.013000",
      "PhotometricInterpretation": "MONOCHROME2",
      "PixelBandwidth": 3050.0,
      "PixelRepresentation": 0,
      "PixelSpacing": [2.6829268932343, 2.6829268932343],
      "ProtocolName": "func_run-03_task-alignvideo_acq-ap-mb8",
      "RepetitionTime": 460.0,
      "Rows": 656,
      "SAR": 0.08963110605532,
      "SamplesPerPixel": 1,
      "ScanOptions": "FS",
      "ScanningSequence": "EP",
      "SequenceName": "epfid2d1_82",
      "SequenceVariant": [
        "SK",
        "SS"
],
      "SeriesDescription": "func_run-03_task-alignvideo_acq-ap-mb8",
      "SeriesNumber": 34,
      "SeriesTime": "141346.143000",
      "SliceLocation": -86.288624226845,
      "SliceThickness": 2.7000000476837,
      "SmallestImagePixelValue": 0,
      "SoftwareVersions": "syngo MR E11",
      "SpacingBetweenSlices": 2.7000000272223,
      "SpecificCharacterSet": "ISO_IR 100",
      "StudyID": "1",
      "StudyTime": "124219.874000",
      "TransmitCoilName": "Body",
      "VariableFlipAngleFlag": "N",
      "WindowCenterWidthExplanation": "Algo1",
      "dBdt": 0.0},
    "slices": {}
  },
  "time": {
    "samples": {
      "AcquisitionNumber": [1, 2, 3, 4, 5, 6, 7, 8, 9, 10, 11, 12, 13, 14, 15, 16, 17, 18, 19, 20, 21, 22, 23, 24, 25, 26, 27, 28, 29, 30, 31, 32, 33, 34, 35, 36, 37, 38, 39, 40, 41, 42, 43, 44, 45, 46, 47, 48, 49, 50, 51, 52, 53, 54, 55, 56, 57, 58, 59, 60, 61, 62, 63, 64, 65, 66, 67, 68, 69, 70, 71, 72, 73, 74, 75, 76, 77, 78, 79, 80, 81, 82, 83, 84, 85, 86, 87, 88, 89, 90, 91, 92, 93, 94, 95, 96, 97, 98, 99, 100, 101, 102, 103, 104, 105, 106, 107, 108, 109, 110, 111, 112, 113, 114, 115, 116, 117, 118, 119, 120, 121, 122, 123, 124, 125, 126, 127, 128, 129, 130, 131, 132, 133, 134, 135, 136, 137, 138, 139, 140, 141, 142, 143, 144, 145, 146, 147, 148, 149, 150, 151, 152, 153, 154, 155, 156, 157, 158, 159, 160, 161, 162, 163, 164, 165, 166, 167, 168, 169, 170, 171, 172, 173, 174, 175, 176, 177, 178, 179, 180, 181, 182, 183, 184, 185, 186, 187, 188, 189, 190, 191, 192, 193, 194, 195, 196, 197, 198, 199, 200, 201, 202, 203, 204, 205, 206, 207, 208, 209, 210, 211, 212, 213, 214, 215, 216, 217, 218, 219, 220, 221, 222, 223, 224, 225, 226, 227, 228, 229, 230, 231, 232, 233, 234, 235, 236, 237, 238, 239, 240, 241, 242, 243, 244, 245, 246, 247, 248, 249, 250, 251, 252, 253, 254, 255, 256, 257, 258, 259, 260, 261, 262, 263, 264, 265, 266, 267, 268, 269, 270, 271, 272, 273, 274, 275, 276, 277, 278, 279, 280, 281, 282, 283, 284, 285, 286, 287, 288, 289, 290, 291, 292, 293, 294, 295, 296, 297, 298, 299, 300, 301, 302, 303, 304, 305, 306, 307, 308, 309, 310, 311, 312, 313, 314, 315, 316, 317, 318, 319, 320, 321, 322, 323, 324, 325, 326, 327, 328, 329, 330, 331, 332, 333, 334, 335, 336, 337, 338, 339, 340, 341, 342, 343, 344, 345, 346, 347, 348, 349, 350, 351, 352, 353, 354, 355, 356, 357, 358, 359, 360, 361, 362, 363, 364, 365, 366, 367, 368, 369, 370, 371, 372, 373, 374, 375, 376, 377, 378, 379, 380, 381, 382, 383, 384, 385, 386, 387, 388, 389, 390, 391, 392, 393, 394, 395, 396, 397, 398, 399, 400, 401, 402, 403, 404, 405, 406, 407, 408, 409, 410, 411, 412, 413, 414, 415, 416, 417, 418, 419, 420, 421, 422, 423, 424, 425, 426, 427, 428, 429, 430, 431, 432, 433, 434, 435, 436, 437, 438, 439, 440, 441, 442, 443, 444, 445, 446, 447, 448, 449, 450, 451, 452, 453, 454, 455, 456, 457, 458, 459, 460, 461, 462, 463, 464, 465, 466, 467, 468, 469, 470, 471, 472, 473, 474, 475, 476, 477, 478, 479, 480, 481, 482, 483, 484, 485, 486, 487, 488, 489, 490, 491, 492, 493, 494, 495, 496, 497, 498, 499, 500, 501, 502, 503, 504, 505, 506, 507, 508, 509, 510, 511, 512, 513, 514, 515, 516, 517, 518, 519, 520, 521, 522, 523, 524, 525, 526, 527, 528, 529, 530, 531, 532, 533, 534, 535, 536, 537, 538, 539, 540, 541, 542, 543, 544, 545, 546, 547, 548, 549, 550, 551, 552, 553, 554, 555, 556, 557, 558, 559, 560, 561, 562, 563, 564, 565, 566, 567, 568, 569, 570, 571, 572, 573, 574, 575, 576, 577, 578, 579, 580, 581, 582, 583, 584, 585, 586, 587, 588, 589, 590, 591, 592, 593, 594, 595, 596, 597, 598, 599, 600, 601, 602, 603, 604, 605, 606, 607, 608, 609, 610, 611, 612, 613, 614, 615, 616, 617, 618, 619, 620, 621, 622, 623, 624, 625, 626, 627, 628, 629, 630, 631, 632, 633, 634, 635, 636, 637, 638, 639, 640, 641, 642, 643, 644, 645, 646, 647, 648, 649, 650, 651, 652, 653, 654, 655, 656, 657, 658, 659, 660, 661, 662, 663, 664, 665, 666, 667, 668, 669, 670, 671, 672, 673, 674, 675, 676, 677, 678, 679, 680, 681, 682, 683, 684, 685, 686, 687, 688, 689, 690, 691, 692, 693, 694, 695, 696, 697, 698, 699, 700, 701, 702, 703, 704, 705, 706, 707, 708, 709, 710, 711, 712, 713, 714, 715, 716, 717, 718, 719, 720, 721, 722, 723, 724, 725, 726, 727, 728, 729, 730, 731, 732, 733, 734, 735, 736, 737, 738, 739, 740, 741, 742, 743, 744, 745, 746, 747, 748, 749, 750, 751, 752, 753, 754, 755, 756, 757, 758, 759, 760, 761, 762, 763, 764, 765, 766, 767, 768, 769, 770, 771, 772, 773, 774, 775, 776, 777, 778, 779, 780, 781, 782, 783, 784, 785, 786, 787, 788, 789, 790, 791, 792, 793, 794, 795, 796, 797, 798, 799, 800, 801, 802, 803, 804, 805, 806, 807, 808, 809, 810, 811, 812, 813, 814, 815, 816, 817, 818, 819, 820, 821, 822, 823, 824, 825, 826, 827, 828, 829, 830, 831, 832, 833, 834, 835, 836, 837, 838, 839, 840, 841, 842, 843, 844, 845, 846, 847, 848, 849, 850, 851, 852, 853, 854, 855, 856, 857, 858, 859, 860, 861, 862, 863, 864, 865, 866, 867, 868, 869, 870, 871, 872, 873, 874, 875, 876, 877, 878, 879, 880, 881, 882, 883, 884, 885, 886, 887, 888, 889, 890, 891, 892, 893, 894, 895, 896, 897, 898, 899, 900, 901, 902, 903, 904, 905, 906, 907, 908, 909, 910, 911, 912, 913, 914, 915, 916, 917, 918, 919, 920, 921, 922, 923, 924, 925, 926, 927, 928, 929, 930, 931, 932, 933, 934, 935, 936, 937, 938, 939, 940, 941, 942, 943, 944, 945, 946, 947, 948, 949, 950, 951, 952, 953, 954, 955, 956, 957, 958, 959, 960, 961, 962, 963, 964, 965, 966, 967, 968, 969, 970, 971, 972, 973, 974, 975, 976, 977, 978, 979, 980, 981, 982, 983, 984, 985, 986, 987, 988, 989, 990, 991, 992, 993, 994, 995, 996, 997, 998, 999, 1000, 1001, 1002, 1003, 1004, 1005, 1006, 1007, 1008, 1009, 1010, 1011, 1012, 1013, 1014, 1015, 1016],
      "AcquisitionTime": ["141328.972500", "141329.432500", "141329.892500", "141330.352500", "141330.812500", "141331.272500", "141331.732500", "141332.192500", "141332.652500", "141333.112500", "141333.572500", "141334.032500", "141334.492500", "141334.952500", "141335.412500", "141335.872500", "141336.332500", "141336.792500", "141337.252500", "141337.712500", "141338.172500", "141338.632500", "141339.092500", "141339.552500", "141340.012500", "141340.472500", "141340.932500", "141341.392500", "141341.852500", "141342.312500", "141342.772500", "141343.232500", "141343.692500", "141344.152500", "141344.612500", "141345.072500", "141345.532500", "141345.992500", "141346.452500", "141346.912500", "141347.372500", "141347.832500", "141348.292500", "141348.752500", "141349.212500", "141349.672500", "141350.132500", "141350.592500", "141351.052500", "141351.512500", "141351.972500", "141352.432500", "141352.892500", "141353.352500", "141353.812500", "141354.272500", "141354.732500", "141355.192500", "141355.652500", "141356.112500", "141356.572500", "141357.032500", "141357.492500", "141357.952500", "141358.412500", "141358.872500", "141359.332500", "141359.792500", "141400.252500", "141400.712500", "141401.172500", "141401.632500", "141402.092500", "141402.552500", "141403.012500", "141403.472500", "141403.932500", "141404.392500", "141404.852500", "141405.312500", "141405.772500", "141406.232500", "141406.692500", "141407.152500", "141407.612500", "141408.072500", "141408.532500", "141408.992500", "141409.452500", "141409.912500", "141410.372500", "141410.832500", "141411.292500", "141411.752500", "141412.212500", "141412.672500", "141413.132500", "141413.592500", "141414.052500", "141414.512500", "141414.972500", "141415.432500", "141415.892500", "141416.352500", "141416.812500", "141417.272500", "141417.732500", "141418.192500", "141418.652500", "141419.112500", "141419.572500", "141420.032500", "141420.492500", "141420.952500", "141421.412500", "141421.872500", "141422.332500", "141422.792500", "141423.252500", "141423.712500", "141424.172500", "141424.632500", "141425.092500", "141425.552500", "141426.012500", "141426.472500", "141426.932500", "141427.392500", "141427.852500", "141428.312500", "141428.772500", "141429.232500", "141429.692500", "141430.152500", "141430.612500", "141431.072500", "141431.532500", "141431.992500", "141432.452500", "141432.912500", "141433.372500", "141433.832500", "141434.292500", "141434.752500", "141435.212500", "141435.672500", "141436.132500", "141436.592500", "141437.052500", "141437.512500", "141437.972500", "141438.432500", "141438.892500", "141439.352500", "141439.812500", "141440.272500", "141440.732500", "141441.192500", "141441.652500", "141442.112500", "141442.572500", "141443.032500", "141443.492500", "141443.952500", "141444.412500", "141444.872500", "141445.332500", "141445.792500", "141446.252500", "141446.712500", "141447.172500", "141447.632500", "141448.092500", "141448.552500", "141449.012500", "141449.472500", "141449.932500", "141450.392500", "141450.852500", "141451.312500", "141451.772500", "141452.232500", "141452.692500", "141453.152500", "141453.612500", "141454.072500", "141454.532500", "141454.992500", "141455.452500", "141455.912500", "141456.372500", "141456.832500", "141457.292500", "141457.752500", "141458.212500", "141458.672500", "141459.132500", "141459.592500", "141500.052500", "141500.512500", "141500.972500", "141501.432500", "141501.892500", "141502.352500", "141502.812500", "141503.272500", "141503.732500", "141504.192500", "141504.652500", "141505.112500", "141505.572500", "141506.032500", "141506.492500", "141506.952500", "141507.412500", "141507.872500", "141508.332500", "141508.792500", "141509.252500", "141509.712500", "141510.172500", "141510.632500", "141511.092500", "141511.552500", "141512.012500", "141512.472500", "141512.932500", "141513.392500", "141513.852500", "141514.312500", "141514.772500", "141515.232500", "141515.692500", "141516.152500", "141516.612500", "141517.072500", "141517.532500", "141517.992500", "141518.452500", "141518.912500", "141519.372500", "141519.832500", "141520.292500", "141520.752500", "141521.212500", "141521.672500", "141522.132500", "141522.592500", "141523.052500", "141523.512500", "141523.972500", "141524.432500", "141524.892500", "141525.352500", "141525.812500", "141526.272500", "141526.732500", "141527.192500", "141527.652500", "141528.112500", "141528.572500", "141529.032500", "141529.492500", "141529.952500", "141530.412500", "141530.872500", "141531.332500", "141531.792500", "141532.252500", "141532.712500", "141533.172500", "141533.632500", "141534.092500", "141534.552500", "141535.012500", "141535.472500", "141535.932500", "141536.392500", "141536.852500", "141537.312500", "141537.772500", "141538.232500", "141538.692500", "141539.152500", "141539.612500", "141540.072500", "141540.532500", "141540.992500", "141541.452500", "141541.912500", "141542.372500", "141542.832500", "141543.292500", "141543.752500", "141544.212500", "141544.672500", "141545.132500", "141545.592500", "141546.052500", "141546.512500", "141546.972500", "141547.432500", "141547.892500", "141548.352500", "141548.812500", "141549.272500", "141549.732500", "141550.192500", "141550.652500", "141551.112500", "141551.572500", "141552.032500", "141552.492500", "141552.952500", "141553.412500", "141553.872500", "141554.332500", "141554.792500", "141555.252500", "141555.712500", "141556.172500", "141556.632500", "141557.092500", "141557.552500", "141558.012500", "141558.472500", "141558.932500", "141559.392500", "141559.852500", "141600.312500", "141600.772500", "141601.232500", "141601.692500", "141602.152500", "141602.612500", "141603.072500", "141603.532500", "141603.992500", "141604.452500", "141604.912500", "141605.372500", "141605.832500", "141606.292500", "141606.752500", "141607.212500", "141607.672500", "141608.132500", "141608.592500", "141609.052500", "141609.512500", "141609.972500", "141610.432500", "141610.892500", "141611.352500", "141611.812500", "141612.272500", "141612.732500", "141613.192500", "141613.652500", "141614.112500", "141614.572500", "141615.032500", "141615.492500", "141615.952500", "141616.412500", "141616.872500", "141617.332500", "141617.792500", "141618.252500", "141618.712500", "141619.172500", "141619.632500", "141620.092500", "141620.552500", "141621.012500", "141621.472500", "141621.932500", "141622.392500", "141622.852500", "141623.312500", "141623.772500", "141624.232500", "141624.692500", "141625.152500", "141625.612500", "141626.072500", "141626.532500", "141626.992500", "141627.452500", "141627.912500", "141628.372500", "141628.832500", "141629.292500", "141629.752500", "141630.212500", "141630.672500", "141631.132500", "141631.592500", "141632.052500", "141632.512500", "141632.972500", "141633.432500", "141633.892500", "141634.352500", "141634.812500", "141635.272500", "141635.732500", "141636.192500", "141636.652500", "141637.112500", "141637.572500", "141638.032500", "141638.492500", "141638.952500", "141639.412500", "141639.872500", "141640.332500", "141640.792500", "141641.252500", "141641.712500", "141642.172500", "141642.632500", "141643.092500", "141643.552500", "141644.012500", "141644.472500", "141644.932500", "141645.392500", "141645.852500", "141646.312500", "141646.772500", "141647.232500", "141647.692500", "141648.152500", "141648.612500", "141649.072500", "141649.532500", "141649.992500", "141650.452500", "141650.912500", "141651.372500", "141651.832500", "141652.292500", "141652.752500", "141653.212500", "141653.672500", "141654.132500", "141654.592500", "141655.052500", "141655.512500", "141655.972500", "141656.432500", "141656.892500", "141657.352500", "141657.812500", "141658.272500", "141658.732500", "141659.192500", "141659.652500", "141700.112500", "141700.572500", "141701.032500", "141701.492500", "141701.952500", "141702.412500", "141702.872500", "141703.332500", "141703.792500", "141704.252500", "141704.712500", "141705.172500", "141705.632500", "141706.092500", "141706.552500", "141707.012500", "141707.472500", "141707.932500", "141708.392500", "141708.852500", "141709.312500", "141709.772500", "141710.232500", "141710.692500", "141711.152500", "141711.612500", "141712.072500", "141712.532500", "141712.992500", "141713.452500", "141713.912500", "141714.372500", "141714.832500", "141715.292500", "141715.752500", "141716.212500", "141716.672500", "141717.132500", "141717.592500", "141718.052500", "141718.512500", "141718.972500", "141719.432500", "141719.892500", "141720.352500", "141720.812500", "141721.272500", "141721.732500", "141722.192500", "141722.652500", "141723.112500", "141723.572500", "141724.032500", "141724.492500", "141724.952500", "141725.412500", "141725.872500", "141726.332500", "141726.792500", "141727.252500", "141727.712500", "141728.172500", "141728.632500", "141729.092500", "141729.552500", "141730.012500", "141730.472500", "141730.932500", "141731.392500", "141731.852500", "141732.312500", "141732.772500", "141733.232500", "141733.692500", "141734.152500", "141734.612500", "141735.072500", "141735.532500", "141735.992500", "141736.452500", "141736.912500", "141737.372500", "141737.832500", "141738.292500", "141738.752500", "141739.212500", "141739.672500", "141740.132500", "141740.592500", "141741.052500", "141741.512500", "141741.972500", "141742.432500", "141742.892500", "141743.352500", "141743.812500", "141744.272500", "141744.732500", "141745.192500", "141745.652500", "141746.112500", "141746.572500", "141747.032500", "141747.492500", "141747.952500", "141748.412500", "141748.872500", "141749.332500", "141749.792500", "141750.252500", "141750.712500", "141751.172500", "141751.632500", "141752.092500", "141752.552500", "141753.012500", "141753.472500", "141753.932500", "141754.392500", "141754.852500", "141755.312500", "141755.772500", "141756.232500", "141756.692500", "141757.152500", "141757.612500", "141758.072500", "141758.532500", "141758.992500", "141759.452500", "141759.912500", "141800.372500", "141800.832500", "141801.292500", "141801.752500", "141802.212500", "141802.672500", "141803.132500", "141803.592500", "141804.052500", "141804.512500", "141804.972500", "141805.432500", "141805.892500", "141806.352500", "141806.812500", "141807.272500", "141807.732500", "141808.192500", "141808.652500", "141809.112500", "141809.572500", "141810.032500", "141810.492500", "141810.952500", "141811.412500", "141811.872500", "141812.332500", "141812.792500", "141813.252500", "141813.712500", "141814.172500", "141814.632500", "141815.092500", "141815.552500", "141816.012500", "141816.472500", "141816.932500", "141817.392500", "141817.852500", "141818.312500", "141818.772500", "141819.232500", "141819.692500", "141820.152500", "141820.612500", "141821.072500", "141821.532500", "141821.992500", "141822.452500", "141822.912500", "141823.372500", "141823.832500", "141824.292500", "141824.752500", "141825.212500", "141825.672500", "141826.132500", "141826.592500", "141827.052500", "141827.512500", "141827.972500", "141828.432500", "141828.892500", "141829.352500", "141829.812500", "141830.272500", "141830.732500", "141831.192500", "141831.652500", "141832.112500", "141832.572500", "141833.032500", "141833.492500", "141833.952500", "141834.412500", "141834.872500", "141835.332500", "141835.792500", "141836.252500", "141836.712500", "141837.172500", "141837.632500", "141838.092500", "141838.552500", "141839.012500", "141839.472500", "141839.932500", "141840.392500", "141840.852500", "141841.312500", "141841.772500", "141842.232500", "141842.692500", "141843.152500", "141843.612500", "141844.072500", "141844.532500", "141844.992500", "141845.452500", "141845.912500", "141846.372500", "141846.832500", "141847.292500", "141847.752500", "141848.212500", "141848.672500", "141849.132500", "141849.592500", "141850.052500", "141850.512500", "141850.972500", "141851.432500", "141851.892500", "141852.352500", "141852.812500", "141853.272500", "141853.732500", "141854.192500", "141854.652500", "141855.112500", "141855.572500", "141856.032500", "141856.492500", "141856.952500", "141857.412500", "141857.872500", "141858.332500", "141858.792500", "141859.252500", "141859.712500", "141900.172500", "141900.632500", "141901.092500", "141901.552500", "141902.012500", "141902.472500", "141902.932500", "141903.392500", "141903.852500", "141904.312500", "141904.772500", "141905.232500", "141905.692500", "141906.152500", "141906.612500", "141907.072500", "141907.532500", "141907.992500", "141908.452500", "141908.912500", "141909.372500", "141909.832500", "141910.292500", "141910.752500", "141911.212500", "141911.672500", "141912.132500", "141912.592500", "141913.052500", "141913.512500", "141913.972500", "141914.432500", "141914.892500", "141915.352500", "141915.812500", "141916.272500", "141916.732500", "141917.192500", "141917.652500", "141918.112500", "141918.572500", "141919.032500", "141919.492500", "141919.952500", "141920.412500", "141920.872500", "141921.332500", "141921.792500", "141922.252500", "141922.712500", "141923.172500", "141923.632500", "141924.092500", "141924.552500", "141925.012500", "141925.472500", "141925.932500", "141926.392500", "141926.852500", "141927.312500", "141927.772500", "141928.232500", "141928.692500", "141929.152500", "141929.612500", "141930.072500", "141930.532500", "141930.992500", "141931.452500", "141931.912500", "141932.372500", "141932.832500", "141933.292500", "141933.752500", "141934.212500", "141934.672500", "141935.132500", "141935.592500", "141936.052500", "141936.512500", "141936.972500", "141937.432500", "141937.892500", "141938.352500", "141938.812500", "141939.272500", "141939.732500", "141940.192500", "141940.652500", "141941.112500", "141941.572500", "141942.032500", "141942.492500", "141942.952500", "141943.412500", "141943.872500", "141944.332500", "141944.792500", "141945.252500", "141945.712500", "141946.172500", "141946.632500", "141947.092500", "141947.552500", "141948.012500", "141948.472500", "141948.932500", "141949.392500", "141949.852500", "141950.312500", "141950.772500", "141951.232500", "141951.692500", "141952.152500", "141952.612500", "141953.072500", "141953.532500", "141953.992500", "141954.452500", "141954.912500", "141955.372500", "141955.832500", "141956.292500", "141956.752500", "141957.212500", "141957.672500", "141958.132500", "141958.592500", "141959.052500", "141959.512500", "141959.972500", "142000.432500", "142000.892500", "142001.352500", "142001.812500", "142002.272500", "142002.732500", "142003.192500", "142003.652500", "142004.112500", "142004.572500", "142005.032500", "142005.492500", "142005.952500", "142006.412500", "142006.872500", "142007.332500", "142007.792500", "142008.252500", "142008.712500", "142009.172500", "142009.632500", "142010.092500", "142010.552500", "142011.012500", "142011.472500", "142011.932500", "142012.392500", "142012.852500", "142013.312500", "142013.772500", "142014.232500", "142014.692500", "142015.152500", "142015.612500", "142016.072500", "142016.532500", "142016.992500", "142017.452500", "142017.912500", "142018.372500", "142018.832500", "142019.292500", "142019.752500", "142020.212500", "142020.672500", "142021.132500", "142021.592500", "142022.052500", "142022.512500", "142022.972500", "142023.432500", "142023.892500", "142024.352500", "142024.812500", "142025.272500", "142025.732500", "142026.192500", "142026.652500", "142027.112500", "142027.572500", "142028.032500", "142028.492500", "142028.952500", "142029.412500", "142029.872500", "142030.332500", "142030.792500", "142031.252500", "142031.712500", "142032.172500", "142032.632500", "142033.092500", "142033.552500", "142034.012500", "142034.472500", "142034.932500", "142035.392500", "142035.852500", "142036.312500", "142036.772500", "142037.232500", "142037.692500", "142038.152500", "142038.612500", "142039.072500", "142039.532500", "142039.992500", "142040.452500", "142040.912500", "142041.372500", "142041.832500", "142042.292500", "142042.752500", "142043.212500", "142043.672500", "142044.132500", "142044.592500", "142045.052500", "142045.512500", "142045.972500", "142046.432500", "142046.892500", "142047.352500", "142047.812500", "142048.272500", "142048.732500", "142049.192500", "142049.652500", "142050.112500", "142050.572500", "142051.032500", "142051.492500", "142051.952500", "142052.412500", "142052.872500", "142053.332500", "142053.792500", "142054.252500", "142054.712500", "142055.172500", "142055.632500", "142056.092500", "142056.552500", "142057.012500", "142057.472500", "142057.932500", "142058.392500", "142058.852500", "142059.312500", "142059.772500", "142100.232500", "142100.692500", "142101.152500", "142101.612500", "142102.072500", "142102.532500", "142102.992500", "142103.452500", "142103.912500", "142104.372500", "142104.832500", "142105.292500", "142105.752500", "142106.212500", "142106.672500", "142107.132500", "142107.592500", "142108.052500", "142108.512500", "142108.972500", "142109.432500", "142109.892500", "142110.352500", "142110.812500", "142111.272500", "142111.732500", "142112.192500", "142112.652500", "142113.112500", "142113.572500", "142114.032500", "142114.492500", "142114.952500", "142115.412500", "142115.872500"],
