{
  "AcquisitionMatrixPE": 82,
  "AcquisitionNumber": 1,
  "AcquisitionTime": "13:53:15.217500",
  "BandwidthPerPixelPhaseEncode": 24.888,
  "BaseResolution": 82,
  "BodyPartExamined": "BRAIN",
  "ConsistencyInfo": "N4_VE11C_LATEST_20160120",
  "ConversionSoftware": "dcm2niix",
  "ConversionSoftwareVersion": "v1.0.20201102",
  "DerivedVendorReportedEchoSpacing": 0.00049,
  "DeviceSerialNumber": "66112",
  "DwellTime": 2e-06,
  "EchoTime": 0.0272,
  "EchoTrainLength": 82,
  "EffectiveEchoSpacing": 0.00049,
  "FlipAngle": 44,
  "ImageComments": "Unaliased MB8/PE3",
  "ImageOrientationPatientDICOM": [0.999697, -0.0154098, 0.019213, 0.0151809, 0.999813, 0.0119984],
  "ImageType": [
    "ORIGINAL",
    "PRIMARY",
    "M",
    "MB",
    "ND",
    "NORM",
    "MOSAIC"
],
  "ImagingFrequency": 123.252,
  "InPlanePhaseEncodingDirectionDICOM": "COL",
  "InstitutionAddress": "Maynard 3,Hanover,NH,US,03755",
  "InstitutionName": "Dartmouth College - PBS",
  "InstitutionalDepartmentName": "Department",
  "MRAcquisitionType": "2D",
  "MagneticFieldStrength": 3,
  "Manufacturer": "Siemens",
  "ManufacturersModelName": "Prisma",
  "Modality": "MR",
  "MultibandAccelerationFactor": 8,
  "PartialFourier": 1,
  "PatientPosition": "HFS",
  "PercentPhaseFOV": 100,
  "PercentSampling": 100,
  "PhaseEncodingDirection": "j-",
  "PhaseEncodingSteps": 82,
  "PhaseResolution": 1,
  "PixelBandwidth": 3050,
  "ProcedureStepDescription": "Wager_Wager^1076_spacetop",
  "ProtocolName": "func_run-01_task-alignvideo_acq-ap-mb8",
  "PulseSequenceDetails": "%CustomerSeq%\\cmrr_mbep2d_bold",
  "ReceiveCoilActiveElements": "HEA;HEP",
  "ReceiveCoilName": "Head_32",
  "ReconMatrixPE": 82,
  "RepetitionTime": 0.46,
  "SAR": 0.0896566,
  "ScanOptions": "FS",
  "ScanningSequence": "EP",
  "SequenceName": "epfid2d1_82",
  "SequenceVariant": "SK\\SS",
  "SeriesDescription": "func_run-01_task-alignvideo_acq-ap-mb8",
  "SeriesNumber": 30,
  "ShimSetting": [4147, -7709, -7283, 556, -78, -172, 67, 73],
  "SliceThickness": 2.7,
  "SliceTiming": [0, 0.2525, 0.0625, 0.315, 0.1275, 0.3775, 0.19, 0, 0.2525, 0.0625, 0.315, 0.1275, 0.3775, 0.19, 0, 0.2525, 0.0625, 0.315, 0.1275, 0.3775, 0.19, 0, 0.2525, 0.0625, 0.315, 0.1275, 0.3775, 0.19, 0, 0.2525, 0.0625, 0.315, 0.1275, 0.3775, 0.19, 0, 0.2525, 0.0625, 0.315, 0.1275, 0.3775, 0.19, 0, 0.2525, 0.0625, 0.315, 0.1275, 0.3775, 0.19, 0, 0.2525, 0.0625, 0.315, 0.1275, 0.3775, 0.19],
  "SoftwareVersions": "syngo MR E11",
  "SpacingBetweenSlices": 2.7,
  "StationName": "AWP66112",
  "TaskName": "alignvideo",
  "TotalReadoutTime": 0.03969,
  "TxRefAmp": 260.777,
  "WipMemBlock": "693812e1-f4e5-4d6c-9d42-b8d527a48c18||Sequence: R016 ve11c/master r/e634e98; Dec 19 2017 11:00:25 by eja",
  "dcmmeta_affine": [
    [-2.6821129322052, 0.04072936624288559, 0.05236460268497467, 109.4569320678711],
    [0.041343238204717636, 2.682424545288086, 0.03159843012690544, -97.31785583496094],
    [0.051547080278396606, -0.032190918922424316, 2.6993072032928467, -87.29493713378906],
    [0.0, 0.0, 0.0, 1.0]
],
  "dcmmeta_reorient_transform": [
    [0.0, -1.0, 0.0, 81.0],
    [1.0, 0.0, 0.0, 0.0],
    [0.0, 0.0, 1.0, 0.0],
    [0.0, 0.0, 0.0, 1.0]
],
  "dcmmeta_shape": [82, 82, 56, 1073],
  "dcmmeta_slice_dim": 2,
  "dcmmeta_version": 0.6,
  "global": {
    "const": {
      "AccessionNumber": "A003792",
      "AcquisitionMatrix": [82, 0, 0, 82],
      "AngioFlag": "N",
      "BitsAllocated": 16,
      "BitsStored": 16,
      "BodyPartExamined": "BRAIN",
      "Columns": 656,
      "EchoNumbers": 1,
      "EchoTime": 27.2,
      "EchoTrainLength": 82,
      "FlipAngle": 44.0,
      "HighBit": 15,
      "ImageOrientationPatient": [0.99969665404561, -0.0154097517247, 0.01921300189432, 0.01518094572503, 0.99981277071544, 0.01199843328155],
      "ImagePositionPatient": [-894.21177932983, -877.94887646974, -113.93521033812],
      "ImageType": [
        "ORIGINAL",
        "PRIMARY",
        "M",
        "MB",
        "ND",
        "NORM",
        "MOSAIC"
],
      "ImagedNucleus": "1H",
      "ImagingFrequency": 123.252227,
      "InPlanePhaseEncodingDirection": "COL",
      "MRAcquisitionType": "2D",
      "MagneticFieldStrength": 3.0,
      "Manufacturer": "SIEMENS",
      "ManufacturerModelName": "Prisma",
      "Modality": "MR",
      "NumberOfAverages": 1.0,
      "NumberOfPhaseEncodingSteps": 82,
      "PercentPhaseFieldOfView": 100.0,
      "PercentSampling": 100.0,
      "PerformedProcedureStepStartTime": "124220.013000",
      "PhotometricInterpretation": "MONOCHROME2",
      "PixelBandwidth": 3050.0,
      "PixelRepresentation": 0,
      "PixelSpacing": [2.6829268932343, 2.6829268932343],
      "ProtocolName": "func_run-01_task-alignvideo_acq-ap-mb8",
      "RepetitionTime": 460.0,
      "Rows": 656,
      "SAR": 0.08965658539608,
      "SamplesPerPixel": 1,
      "ScanOptions": "FS",
      "ScanningSequence": "EP",
      "SequenceName": "epfid2d1_82",
      "SequenceVariant": [
        "SK",
        "SS"
],
      "SeriesDescription": "func_run-01_task-alignvideo_acq-ap-mb8",
      "SeriesNumber": 30,
      "SeriesTime": "135326.197000",
      "SliceLocation": -86.288624226845,
      "SliceThickness": 2.7000000476837,
      "SmallestImagePixelValue": 0,
      "SoftwareVersions": "syngo MR E11",
      "SpacingBetweenSlices": 2.7000000272223,
      "SpecificCharacterSet": "ISO_IR 100",
      "StudyID": "1",
      "StudyTime": "124219.874000",
      "TransmitCoilName": "Body",
      "VariableFlipAngleFlag": "N",
      "WindowCenterWidthExplanation": "Algo1",
      "dBdt": 0.0},
    "slices": {}
  },
  "time": {
    "samples": {
      "AcquisitionNumber": [1, 2, 3, 4, 5, 6, 7, 8, 9, 10, 11, 12, 13, 14, 15, 16, 17, 18, 19, 20, 21, 22, 23, 24, 25, 26, 27, 28, 29, 30, 31, 32, 33, 34, 35, 36, 37, 38, 39, 40, 41, 42, 43, 44, 45, 46, 47, 48, 49, 50, 51, 52, 53, 54, 55, 56, 57, 58, 59, 60, 61, 62, 63, 64, 65, 66, 67, 68, 69, 70, 71, 72, 73, 74, 75, 76, 77, 78, 79, 80, 81, 82, 83, 84, 85, 86, 87, 88, 89, 90, 91, 92, 93, 94, 95, 96, 97, 98, 99, 100, 101, 102, 103, 104, 105, 106, 107, 108, 109, 110, 111, 112, 113, 114, 115, 116, 117, 118, 119, 120, 121, 122, 123, 124, 125, 126, 127, 128, 129, 130, 131, 132, 133, 134, 135, 136, 137, 138, 139, 140, 141, 142, 143, 144, 145, 146, 147, 148, 149, 150, 151, 152, 153, 154, 155, 156, 157, 158, 159, 160, 161, 162, 163, 164, 165, 166, 167, 168, 169, 170, 171, 172, 173, 174, 175, 176, 177, 178, 179, 180, 181, 182, 183, 184, 185, 186, 187, 188, 189, 190, 191, 192, 193, 194, 195, 196, 197, 198, 199, 200, 201, 202, 203, 204, 205, 206, 207, 208, 209, 210, 211, 212, 213, 214, 215, 216, 217, 218, 219, 220, 221, 222, 223, 224, 225, 226, 227, 228, 229, 230, 231, 232, 233, 234, 235, 236, 237, 238, 239, 240, 241, 242, 243, 244, 245, 246, 247, 248, 249, 250, 251, 252, 253, 254, 255, 256, 257, 258, 259, 260, 261, 262, 263, 264, 265, 266, 267, 268, 269, 270, 271, 272, 273, 274, 275, 276, 277, 278, 279, 280, 281, 282, 283, 284, 285, 286, 287, 288, 289, 290, 291, 292, 293, 294, 295, 296, 297, 298, 299, 300, 301, 302, 303, 304, 305, 306, 307, 308, 309, 310, 311, 312, 313, 314, 315, 316, 317, 318, 319, 320, 321, 322, 323, 324, 325, 326, 327, 328, 329, 330, 331, 332, 333, 334, 335, 336, 337, 338, 339, 340, 341, 342, 343, 344, 345, 346, 347, 348, 349, 350, 351, 352, 353, 354, 355, 356, 357, 358, 359, 360, 361, 362, 363, 364, 365, 366, 367, 368, 369, 370, 371, 372, 373, 374, 375, 376, 377, 378, 379, 380, 381, 382, 383, 384, 385, 386, 387, 388, 389, 390, 391, 392, 393, 394, 395, 396, 397, 398, 399, 400, 401, 402, 403, 404, 405, 406, 407, 408, 409, 410, 411, 412, 413, 414, 415, 416, 417, 418, 419, 420, 421, 422, 423, 424, 425, 426, 427, 428, 429, 430, 431, 432, 433, 434, 435, 436, 437, 438, 439, 440, 441, 442, 443, 444, 445, 446, 447, 448, 449, 450, 451, 452, 453, 454, 455, 456, 457, 458, 459, 460, 461, 462, 463, 464, 465, 466, 467, 468, 469, 470, 471, 472, 473, 474, 475, 476, 477, 478, 479, 480, 481, 482, 483, 484, 485, 486, 487, 488, 489, 490, 491, 492, 493, 494, 495, 496, 497, 498, 499, 500, 501, 502, 503, 504, 505, 506, 507, 508, 509, 510, 511, 512, 513, 514, 515, 516, 517, 518, 519, 520, 521, 522, 523, 524, 525, 526, 527, 528, 529, 530, 531, 532, 533, 534, 535, 536, 537, 538, 539, 540, 541, 542, 543, 544, 545, 546, 547, 548, 549, 550, 551, 552, 553, 554, 555, 556, 557, 558, 559, 560, 561, 562, 563, 564, 565, 566, 567, 568, 569, 570, 571, 572, 573, 574, 575, 576, 577, 578, 579, 580, 581, 582, 583, 584, 585, 586, 587, 588, 589, 590, 591, 592, 593, 594, 595, 596, 597, 598, 599, 600, 601, 602, 603, 604, 605, 606, 607, 608, 609, 610, 611, 612, 613, 614, 615, 616, 617, 618, 619, 620, 621, 622, 623, 624, 625, 626, 627, 628, 629, 630, 631, 632, 633, 634, 635, 636, 637, 638, 639, 640, 641, 642, 643, 644, 645, 646, 647, 648, 649, 650, 651, 652, 653, 654, 655, 656, 657, 658, 659, 660, 661, 662, 663, 664, 665, 666, 667, 668, 669, 670, 671, 672, 673, 674, 675, 676, 677, 678, 679, 680, 681, 682, 683, 684, 685, 686, 687, 688, 689, 690, 691, 692, 693, 694, 695, 696, 697, 698, 699, 700, 701, 702, 703, 704, 705, 706, 707, 708, 709, 710, 711, 712, 713, 714, 715, 716, 717, 718, 719, 720, 721, 722, 723, 724, 725, 726, 727, 728, 729, 730, 731, 732, 733, 734, 735, 736, 737, 738, 739, 740, 741, 742, 743, 744, 745, 746, 747, 748, 749, 750, 751, 752, 753, 754, 755, 756, 757, 758, 759, 760, 761, 762, 763, 764, 765, 766, 767, 768, 769, 770, 771, 772, 773, 774, 775, 776, 777, 778, 779, 780, 781, 782, 783, 784, 785, 786, 787, 788, 789, 790, 791, 792, 793, 794, 795, 796, 797, 798, 799, 800, 801, 802, 803, 804, 805, 806, 807, 808, 809, 810, 811, 812, 813, 814, 815, 816, 817, 818, 819, 820, 821, 822, 823, 824, 825, 826, 827, 828, 829, 830, 831, 832, 833, 834, 835, 836, 837, 838, 839, 840, 841, 842, 843, 844, 845, 846, 847, 848, 849, 850, 851, 852, 853, 854, 855, 856, 857, 858, 859, 860, 861, 862, 863, 864, 865, 866, 867, 868, 869, 870, 871, 872, 873, 874, 875, 876, 877, 878, 879, 880, 881, 882, 883, 884, 885, 886, 887, 888, 889, 890, 891, 892, 893, 894, 895, 896, 897, 898, 899, 900, 901, 902, 903, 904, 905, 906, 907, 908, 909, 910, 911, 912, 913, 914, 915, 916, 917, 918, 919, 920, 921, 922, 923, 924, 925, 926, 927, 928, 929, 930, 931, 932, 933, 934, 935, 936, 937, 938, 939, 940, 941, 942, 943, 944, 945, 946, 947, 948, 949, 950, 951, 952, 953, 954, 955, 956, 957, 958, 959, 960, 961, 962, 963, 964, 965, 966, 967, 968, 969, 970, 971, 972, 973, 974, 975, 976, 977, 978, 979, 980, 981, 982, 983, 984, 985, 986, 987, 988, 989, 990, 991, 992, 993, 994, 995, 996, 997, 998, 999, 1000, 1001, 1002, 1003, 1004, 1005, 1006, 1007, 1008, 1009, 1010, 1011, 1012, 1013, 1014, 1015, 1016, 1017, 1018, 1019, 1020, 1021, 1022, 1023, 1024, 1025, 1026, 1027, 1028, 1029, 1030, 1031, 1032, 1033, 1034, 1035, 1036, 1037, 1038, 1039, 1040, 1041, 1042, 1043, 1044, 1045, 1046, 1047, 1048, 1049, 1050, 1051, 1052, 1053, 1054, 1055, 1056, 1057, 1058, 1059, 1060, 1061, 1062, 1063, 1064, 1065, 1066, 1067, 1068, 1069, 1070, 1071, 1072, 1073],
      "AcquisitionTime": ["135315.217500", "135315.677500", "135316.137500", "135316.597500", "135317.057500", "135317.517500", "135317.977500", "135318.437500", "135318.897500", "135319.357500", "135319.817500", "135320.277500", "135320.737500", "135321.197500", "135321.657500", "135322.117500", "135322.577500", "135323.037500", "135323.497500", "135323.957500", "135324.417500", "135324.877500", "135325.337500", "135325.797500", "135326.257500", "135326.717500", "135327.177500", "135327.637500", "135328.097500", "135328.557500", "135329.017500", "135329.477500", "135329.937500", "135330.397500", "135330.857500", "135331.317500", "135331.777500", "135332.237500", "135332.697500", "135333.157500", "135333.617500", "135334.077500", "135334.537500", "135334.997500", "135335.457500", "135335.917500", "135336.377500", "135336.837500", "135337.297500", "135337.757500", "135338.217500", "135338.677500", "135339.137500", "135339.597500", "135340.057500", "135340.517500", "135340.977500", "135341.437500", "135341.897500", "135342.357500", "135342.817500", "135343.277500", "135343.737500", "135344.197500", "135344.657500", "135345.117500", "135345.577500", "135346.037500", "135346.497500", "135346.957500", "135347.417500", "135347.877500", "135348.337500", "135348.797500", "135349.257500", "135349.717500", "135350.177500", "135350.637500", "135351.097500", "135351.557500", "135352.017500", "135352.477500", "135352.937500", "135353.397500", "135353.857500", "135354.317500", "135354.777500", "135355.237500", "135355.697500", "135356.157500", "135356.617500", "135357.077500", "135357.537500", "135357.997500", "135358.457500", "135358.917500", "135359.377500", "135359.837500", "135400.297500", "135400.757500", "135401.217500", "135401.677500", "135402.137500", "135402.597500", "135403.057500", "135403.517500", "135403.977500", "135404.437500", "135404.897500", "135405.357500", "135405.817500", "135406.277500", "135406.737500", "135407.197500", "135407.657500", "135408.117500", "135408.577500", "135409.037500", "135409.497500", "135409.957500", "135410.417500", "135410.877500", "135411.337500", "135411.797500", "135412.257500", "135412.717500", "135413.177500", "135413.637500", "135414.097500", "135414.557500", "135415.017500", "135415.477500", "135415.937500", "135416.397500", "135416.857500", "135417.317500", "135417.777500", "135418.237500", "135418.697500", "135419.157500", "135419.617500", "135420.077500", "135420.537500", "135420.997500", "135421.457500", "135421.917500", "135422.377500", "135422.837500", "135423.297500", "135423.757500", "135424.217500", "135424.677500", "135425.137500", "135425.597500", "135426.057500", "135426.517500", "135426.977500", "135427.437500", "135427.897500", "135428.357500", "135428.817500", "135429.277500", "135429.737500", "135430.197500", "135430.657500", "135431.117500", "135431.577500", "135432.037500", "135432.497500", "135432.957500", "135433.417500", "135433.877500", "135434.337500", "135434.797500", "135435.257500", "135435.717500", "135436.177500", "135436.637500", "135437.097500", "135437.557500", "135438.017500", "135438.477500", "135438.937500", "135439.397500", "135439.857500", "135440.317500", "135440.777500", "135441.237500", "135441.697500", "135442.157500", "135442.617500", "135443.077500", "135443.537500", "135443.997500", "135444.457500", "135444.917500", "135445.377500", "135445.837500", "135446.297500", "135446.757500", "135447.217500", "135447.677500", "135448.137500", "135448.597500", "135449.057500", "135449.517500", "135449.977500", "135450.437500", "135450.897500", "135451.357500", "135451.817500", "135452.277500", "135452.737500", "135453.197500", "135453.657500", "135454.117500", "135454.577500", "135455.037500", "135455.497500", "135455.957500", "135456.417500", "135456.877500", "135457.337500", "135457.797500", "135458.257500", "135458.717500", "135459.177500", "135459.637500", "135500.097500", "135500.557500", "135501.017500", "135501.477500", "135501.937500", "135502.397500", "135502.857500", "135503.317500", "135503.777500", "135504.237500", "135504.697500", "135505.157500", "135505.617500", "135506.077500", "135506.537500", "135506.997500", "135507.457500", "135507.917500", "135508.377500", "135508.837500", "135509.297500", "135509.757500", "135510.217500", "135510.677500", "135511.137500", "135511.597500", "135512.057500", "135512.517500", "135512.977500", "135513.437500", "135513.897500", "135514.357500", "135514.817500", "135515.277500", "135515.737500", "135516.197500", "135516.657500", "135517.117500", "135517.577500", "135518.037500", "135518.497500", "135518.957500", "135519.417500", "135519.877500", "135520.337500", "135520.797500", "135521.257500", "135521.717500", "135522.177500", "135522.637500", "135523.097500", "135523.557500", "135524.017500", "135524.477500", "135524.937500", "135525.397500", "135525.857500", "135526.317500", "135526.777500", "135527.237500", "135527.697500", "135528.157500", "135528.617500", "135529.077500", "135529.537500", "135529.997500", "135530.457500", "135530.917500", "135531.377500", "135531.837500", "135532.297500", "135532.757500", "135533.217500", "135533.677500", "135534.137500", "135534.597500", "135535.057500", "135535.517500", "135535.977500", "135536.437500", "135536.897500", "135537.357500", "135537.817500", "135538.277500", "135538.737500", "135539.197500", "135539.657500", "135540.117500", "135540.577500", "135541.037500", "135541.497500", "135541.957500", "135542.417500", "135542.877500", "135543.337500", "135543.797500", "135544.257500", "135544.717500", "135545.177500", "135545.637500", "135546.097500", "135546.557500", "135547.017500", "135547.477500", "135547.937500", "135548.397500", "135548.857500", "135549.317500", "135549.777500", "135550.237500", "135550.697500", "135551.157500", "135551.617500", "135552.077500", "135552.537500", "135552.997500", "135553.457500", "135553.917500", "135554.377500", "135554.837500", "135555.297500", "135555.757500", "135556.217500", "135556.677500", "135557.137500", "135557.597500", "135558.057500", "135558.517500", "135558.977500", "135559.437500", "135559.897500", "135600.357500", "135600.817500", "135601.277500", "135601.737500", "135602.197500", "135602.657500", "135603.117500", "135603.577500", "135604.037500", "135604.497500", "135604.957500", "135605.417500", "135605.877500", "135606.337500", "135606.797500", "135607.257500", "135607.717500", "135608.177500", "135608.637500", "135609.097500", "135609.557500", "135610.017500", "135610.477500", "135610.937500", "135611.397500", "135611.857500", "135612.317500", "135612.777500", "135613.237500", "135613.697500", "135614.157500", "135614.617500", "135615.077500", "135615.537500", "135615.997500", "135616.457500", "135616.917500", "135617.377500", "135617.837500", "135618.297500", "135618.757500", "135619.217500", "135619.677500", "135620.137500", "135620.597500", "135621.057500", "135621.517500", "135621.977500", "135622.437500", "135622.897500", "135623.357500", "135623.817500", "135624.277500", "135624.737500", "135625.197500", "135625.657500", "135626.117500", "135626.577500", "135627.037500", "135627.497500", "135627.957500", "135628.417500", "135628.877500", "135629.337500", "135629.797500", "135630.257500", "135630.717500", "135631.177500", "135631.637500", "135632.097500", "135632.557500", "135633.017500", "135633.477500", "135633.937500", "135634.397500", "135634.857500", "135635.317500", "135635.777500", "135636.237500", "135636.697500", "135637.157500", "135637.617500", "135638.077500", "135638.537500", "135638.997500", "135639.457500", "135639.917500", "135640.377500", "135640.837500", "135641.297500", "135641.757500", "135642.217500", "135642.677500", "135643.137500", "135643.597500", "135644.057500", "135644.517500", "135644.977500", "135645.437500", "135645.897500", "135646.357500", "135646.817500", "135647.277500", "135647.737500", "135648.197500", "135648.657500", "135649.117500", "135649.577500", "135650.037500", "135650.497500", "135650.957500", "135651.417500", "135651.877500", "135652.337500", "135652.797500", "135653.257500", "135653.717500", "135654.177500", "135654.637500", "135655.097500", "135655.557500", "135656.017500", "135656.477500", "135656.937500", "135657.397500", "135657.857500", "135658.317500", "135658.777500", "135659.237500", "135659.697500", "135700.157500", "135700.617500", "135701.077500", "135701.537500", "135701.997500", "135702.457500", "135702.917500", "135703.377500", "135703.837500", "135704.297500", "135704.757500", "135705.217500", "135705.677500", "135706.137500", "135706.597500", "135707.057500", "135707.517500", "135707.977500", "135708.437500", "135708.897500", "135709.357500", "135709.817500", "135710.277500", "135710.737500", "135711.197500", "135711.657500", "135712.117500", "135712.577500", "135713.037500", "135713.497500", "135713.957500", "135714.417500", "135714.877500", "135715.337500", "135715.797500", "135716.257500", "135716.717500", "135717.177500", "135717.637500", "135718.097500", "135718.557500", "135719.017500", "135719.477500", "135719.937500", "135720.397500", "135720.857500", "135721.317500", "135721.777500", "135722.237500", "135722.697500", "135723.157500", "135723.617500", "135724.077500", "135724.537500", "135724.997500", "135725.457500", "135725.917500", "135726.377500", "135726.837500", "135727.297500", "135727.757500", "135728.217500", "135728.677500", "135729.137500", "135729.597500", "135730.057500", "135730.517500", "135730.977500", "135731.437500", "135731.897500", "135732.357500", "135732.817500", "135733.277500", "135733.737500", "135734.197500", "135734.657500", "135735.117500", "135735.577500", "135736.037500", "135736.497500", "135736.957500", "135737.417500", "135737.877500", "135738.337500", "135738.797500", "135739.257500", "135739.717500", "135740.177500", "135740.637500", "135741.097500", "135741.557500", "135742.017500", "135742.477500", "135742.937500", "135743.397500", "135743.857500", "135744.317500", "135744.777500", "135745.237500", "135745.697500", "135746.157500", "135746.617500", "135747.077500", "135747.537500", "135747.997500", "135748.457500", "135748.917500", "135749.377500", "135749.837500", "135750.297500", "135750.757500", "135751.217500", "135751.677500", "135752.137500", "135752.597500", "135753.057500", "135753.517500", "135753.977500", "135754.437500", "135754.897500", "135755.357500", "135755.817500", "135756.277500", "135756.737500", "135757.197500", "135757.657500", "135758.117500", "135758.577500", "135759.037500", "135759.497500", "135759.957500", "135800.417500", "135800.877500", "135801.337500", "135801.797500", "135802.257500", "135802.717500", "135803.177500", "135803.637500", "135804.097500", "135804.557500", "135805.017500", "135805.477500", "135805.937500", "135806.397500", "135806.857500", "135807.317500", "135807.777500", "135808.237500", "135808.697500", "135809.157500", "135809.617500", "135810.077500", "135810.537500", "135810.997500", "135811.457500", "135811.917500", "135812.377500", "135812.837500", "135813.297500", "135813.757500", "135814.217500", "135814.677500", "135815.137500", "135815.597500", "135816.057500", "135816.517500", "135816.977500", "135817.437500", "135817.897500", "135818.357500", "135818.817500", "135819.277500", "135819.737500", "135820.197500", "135820.657500", "135821.117500", "135821.577500", "135822.037500", "135822.497500", "135822.957500", "135823.417500", "135823.877500", "135824.337500", "135824.797500", "135825.257500", "135825.717500", "135826.177500", "135826.637500", "135827.097500", "135827.557500", "135828.017500", "135828.477500", "135828.937500", "135829.397500", "135829.857500", "135830.317500", "135830.777500", "135831.237500", "135831.697500", "135832.157500", "135832.617500", "135833.077500", "135833.537500", "135833.997500", "135834.457500", "135834.917500", "135835.377500", "135835.837500", "135836.297500", "135836.757500", "135837.217500", "135837.677500", "135838.137500", "135838.597500", "135839.057500", "135839.517500", "135839.977500", "135840.437500", "135840.897500", "135841.357500", "135841.817500", "135842.277500", "135842.737500", "135843.197500", "135843.657500", "135844.117500", "135844.577500", "135845.037500", "135845.497500", "135845.957500", "135846.417500", "135846.877500", "135847.337500", "135847.797500", "135848.257500", "135848.717500", "135849.177500", "135849.637500", "135850.097500", "135850.557500", "135851.017500", "135851.477500", "135851.937500", "135852.397500", "135852.857500", "135853.317500", "135853.777500", "135854.237500", "135854.697500", "135855.157500", "135855.617500", "135856.077500", "135856.537500", "135856.997500", "135857.457500", "135857.917500", "135858.377500", "135858.837500", "135859.297500", "135859.757500", "135900.217500", "135900.677500", "135901.137500", "135901.597500", "135902.057500", "135902.517500", "135902.977500", "135903.437500", "135903.897500", "135904.357500", "135904.817500", "135905.277500", "135905.737500", "135906.197500", "135906.657500", "135907.117500", "135907.577500", "135908.037500", "135908.497500", "135908.957500", "135909.417500", "135909.877500", "135910.337500", "135910.797500", "135911.257500", "135911.717500", "135912.177500", "135912.637500", "135913.097500", "135913.557500", "135914.017500", "135914.477500", "135914.937500", "135915.397500", "135915.857500", "135916.317500", "135916.777500", "135917.237500", "135917.697500", "135918.157500", "135918.617500", "135919.077500", "135919.537500", "135919.997500", "135920.457500", "135920.917500", "135921.377500", "135921.837500", "135922.297500", "135922.757500", "135923.217500", "135923.677500", "135924.137500", "135924.597500", "135925.057500", "135925.517500", "135925.977500", "135926.437500", "135926.897500", "135927.357500", "135927.817500", "135928.277500", "135928.737500", "135929.197500", "135929.657500", "135930.117500", "135930.577500", "135931.037500", "135931.497500", "135931.957500", "135932.417500", "135932.877500", "135933.337500", "135933.797500", "135934.257500", "135934.717500", "135935.177500", "135935.637500", "135936.097500", "135936.557500", "135937.017500", "135937.477500", "135937.937500", "135938.397500", "135938.857500", "135939.317500", "135939.777500", "135940.237500", "135940.697500", "135941.157500", "135941.617500", "135942.077500", "135942.537500", "135942.997500", "135943.457500", "135943.917500", "135944.377500", "135944.837500", "135945.297500", "135945.757500", "135946.217500", "135946.677500", "135947.137500", "135947.597500", "135948.057500", "135948.517500", "135948.977500", "135949.437500", "135949.897500", "135950.357500", "135950.817500", "135951.277500", "135951.737500", "135952.197500", "135952.657500", "135953.117500", "135953.577500", "135954.037500", "135954.497500", "135954.957500", "135955.417500", "135955.877500", "135956.337500", "135956.797500", "135957.257500", "135957.717500", "135958.177500", "135958.637500", "135959.097500", "135959.557500", "140000.017500", "140000.477500", "140000.937500", "140001.397500", "140001.857500", "140002.317500", "140002.777500", "140003.237500", "140003.697500", "140004.157500", "140004.617500", "140005.077500", "140005.537500", "140005.997500", "140006.457500", "140006.917500", "140007.377500", "140007.837500", "140008.297500", "140008.757500", "140009.217500", "140009.677500", "140010.137500", "140010.597500", "140011.057500", "140011.517500", "140011.977500", "140012.437500", "140012.897500", "140013.357500", "140013.817500", "140014.277500", "140014.737500", "140015.197500", "140015.657500", "140016.117500", "140016.577500", "140017.037500", "140017.497500", "140017.957500", "140018.417500", "140018.877500", "140019.337500", "140019.797500", "140020.257500", "140020.717500", "140021.177500", "140021.637500", "140022.097500", "140022.557500", "140023.017500", "140023.477500", "140023.937500", "140024.397500", "140024.857500", "140025.317500", "140025.777500", "140026.237500", "140026.697500", "140027.157500", "140027.617500", "140028.077500", "140028.537500", "140028.997500", "140029.457500", "140029.917500", "140030.377500", "140030.837500", "140031.297500", "140031.757500", "140032.217500", "140032.677500", "140033.137500", "140033.597500", "140034.057500", "140034.517500", "140034.977500", "140035.437500", "140035.897500", "140036.357500", "140036.817500", "140037.277500", "140037.737500", "140038.197500", "140038.657500", "140039.117500", "140039.577500", "140040.037500", "140040.497500", "140040.957500", "140041.417500", "140041.877500", "140042.337500", "140042.797500", "140043.257500", "140043.717500", "140044.177500", "140044.637500", "140045.097500", "140045.557500", "140046.017500", "140046.477500", "140046.937500", "140047.397500", "140047.857500", "140048.317500", "140048.777500", "140049.237500", "140049.697500", "140050.157500", "140050.617500", "140051.077500", "140051.537500", "140051.997500", "140052.457500", "140052.917500", "140053.377500", "140053.837500", "140054.297500", "140054.757500", "140055.217500", "140055.677500", "140056.137500", "140056.597500", "140057.057500", "140057.517500", "140057.977500", "140058.437500", "140058.897500", "140059.357500", "140059.817500", "140100.277500", "140100.737500", "140101.197500", "140101.657500", "140102.117500", "140102.577500", "140103.037500", "140103.497500", "140103.957500", "140104.417500", "140104.877500", "140105.337500", "140105.797500", "140106.257500", "140106.717500", "140107.177500", "140107.637500", "140108.097500", "140108.557500", "140109.017500", "140109.477500", "140109.937500", "140110.397500", "140110.857500", "140111.317500", "140111.777500", "140112.237500", "140112.697500", "140113.157500", "140113.617500", "140114.077500", "140114.537500", "140114.997500", "140115.457500", "140115.917500", "140116.377500", "140116.837500", "140117.297500", "140117.757500", "140118.217500", "140118.677500", "140119.137500", "140119.597500", "140120.057500", "140120.517500", "140120.977500", "140121.437500", "140121.897500", "140122.357500", "140122.817500", "140123.277500", "140123.737500", "140124.197500", "140124.657500", "140125.117500", "140125.577500", "140126.037500", "140126.497500", "140126.957500", "140127.417500", "140127.877500", "140128.337500"],
