{
  "AcquisitionMatrixPE": 82,
  "AcquisitionNumber": 1,
  "AcquisitionTime": "20:33:32.575000",
  "BandwidthPerPixelPhaseEncode": 24.888,
  "BaseResolution": 82,
  "BodyPartExamined": "BRAIN",
  "ConsistencyInfo": "N4_VE11E_LATEST_20181129",
  "ConversionSoftware": "dcm2niix",
  "ConversionSoftwareVersion": "v1.0.20201102",
  "DerivedVendorReportedEchoSpacing": 0.00049,
  "DeviceSerialNumber": "66112",
  "DwellTime": 2e-06,
  "EchoTime": 0.0272,
  "EchoTrainLength": 82,
  "EffectiveEchoSpacing": 0.00049,
  "FlipAngle": 44,
  "ImageComments": "Unaliased MB8/PE3",
  "ImageOrientationPatientDICOM": [0.994704, 0.0975667, 0.0323147, -0.0970058, 0.995112, -0.0184976],
  "ImageType": [
    "ORIGINAL",
    "PRIMARY",
    "M",
    "MB",
    "ND",
    "NORM",
    "MOSAIC"
],
  "ImagingFrequency": 123.259,
  "InPlanePhaseEncodingDirectionDICOM": "COL",
  "InstitutionAddress": "Maynard 3,Hanover,NH,US,03755",
  "InstitutionName": "Dartmouth College - PBS",
  "InstitutionalDepartmentName": "Department",
  "MRAcquisitionType": "2D",
  "MagneticFieldStrength": 3,
  "Manufacturer": "Siemens",
  "ManufacturersModelName": "Prisma",
  "Modality": "MR",
  "MultibandAccelerationFactor": 8,
  "PartialFourier": 1,
  "PatientPosition": "HFS",
  "PercentPhaseFOV": 100,
  "PercentSampling": 100,
  "PhaseEncodingDirection": "j-",
  "PhaseEncodingSteps": 82,
  "PhaseResolution": 1,
  "PixelBandwidth": 3050,
  "ProcedureStepDescription": "Wager_Wager^1076_spacetop",
  "ProtocolName": "func_run-03_task-social_acq-ap-mb8",
  "PulseSequenceDetails": "%CustomerSeq%\\cmrr_mbep2d_bold",
  "ReceiveCoilActiveElements": "HEA;HEP",
  "ReceiveCoilName": "Head_32",
  "ReconMatrixPE": 82,
  "RepetitionTime": 0.46,
  "SAR": 0.0889012,
  "ScanOptions": "FS",
  "ScanningSequence": "EP",
  "SequenceName": "epfid2d1_82",
  "SequenceVariant": "SK\\SS",
  "SeriesDescription": "func_run-03_task-social_acq-ap-mb8",
  "SeriesNumber": 12,
  "ShimSetting": [4219, -7782, -7233, 225, -177, -91, -21, 91],
  "SliceThickness": 2.7,
  "SliceTiming": [0, 0.25, 0.0625, 0.3125, 0.125, 0.375, 0.1875, 0, 0.25, 0.0625, 0.3125, 0.125, 0.375, 0.1875, 0, 0.25, 0.0625, 0.3125, 0.125, 0.375, 0.1875, 0, 0.25, 0.0625, 0.3125, 0.125, 0.375, 0.1875, 0, 0.25, 0.0625, 0.3125, 0.125, 0.375, 0.1875, 0, 0.25, 0.0625, 0.3125, 0.125, 0.375, 0.1875, 0, 0.25, 0.0625, 0.3125, 0.125, 0.375, 0.1875, 0, 0.25, 0.0625, 0.3125, 0.125, 0.375, 0.1875],
  "SoftwareVersions": "syngo MR E11",
  "SpacingBetweenSlices": 2.7,
  "StationName": "AWP66112",
  "TaskName": "social",
  "TotalReadoutTime": 0.03969,
  "TxRefAmp": 261.806,
  "WipMemBlock": "2954d1a3-eeba-4938-9d62-ef0b0c1b3c8f||Sequence: R016 ve11e/master r/434b28f1; Aug  7 2019 18:53:46 by eja",
  "dcmmeta_affine": [
    [-2.6687188148498535, -0.2602594494819641, 0.09169615060091019, 121.51197814941406],
    [-0.26176440715789795, 2.6698124408721924, -0.04121542349457741, -86.54476165771484],
    [0.08669808506965637, 0.049627840518951416, 2.698127508163452, -83.18268585205078],
    [0.0, 0.0, 0.0, 1.0]
],
  "dcmmeta_reorient_transform": [
    [0.0, -1.0, 0.0, 81.0],
    [1.0, 0.0, 0.0, 0.0],
    [0.0, 0.0, 1.0, 0.0],
    [0.0, 0.0, 0.0, 1.0]
],
  "dcmmeta_shape": [82, 82, 56, 872],
  "dcmmeta_slice_dim": 2,
  "dcmmeta_version": 0.6,
  "global": {
    "const": {
      "AccessionNumber": "A004932",
      "AcquisitionMatrix": [82, 0, 0, 82],
      "AngioFlag": "N",
      "BitsAllocated": 16,
      "BitsStored": 16,
      "BodyPartExamined": "BRAIN",
      "Columns": 656,
      "EchoNumbers": 1,
      "EchoTime": 27.2,
      "EchoTrainLength": 82,
      "FlipAngle": 44.0,
      "HighBit": 15,
      "ImageOrientationPatient": [0.9947042221711, 0.09756673605536, 0.0323147398332, -0.0970057954694, 0.99511190960716, -0.0184976485894],
      "ImagePositionPatient": [-791.65876750398, -971.07263104119, -89.801992549738],
      "ImageType": [
        "ORIGINAL",
        "PRIMARY",
        "M",
        "MB",
        "ND",
        "NORM",
        "MOSAIC"
],
      "ImagedNucleus": "1H",
      "ImagingFrequency": 123.259028,
      "InPlanePhaseEncodingDirection": "COL",
      "MRAcquisitionType": "2D",
      "MagneticFieldStrength": 3.0,
      "Manufacturer": "SIEMENS",
      "ManufacturerModelName": "Prisma",
      "Modality": "MR",
      "NumberOfAverages": 1.0,
      "NumberOfPhaseEncodingSteps": 82,
      "PercentPhaseFieldOfView": 100.0,
      "PercentSampling": 100.0,
      "PerformedProcedureStepStartTime": "200850.646000",
      "PhotometricInterpretation": "MONOCHROME2",
      "PixelBandwidth": 3050.0,
      "PixelRepresentation": 0,
      "PixelSpacing": [2.6829268932343, 2.6829268932343],
      "ProtocolName": "func_run-03_task-social_acq-ap-mb8",
      "RepetitionTime": 460.0,
      "Rows": 656,
      "SAR": 0.08890121212257,
      "SamplesPerPixel": 1,
      "ScanOptions": "FS",
      "ScanningSequence": "EP",
      "SequenceName": "epfid2d1_82",
      "SequenceVariant": [
        "SK",
        "SS"
],
      "SeriesDescription": "func_run-03_task-social_acq-ap-mb8",
      "SeriesNumber": 12,
      "SeriesTime": "203354.616000",
      "SliceLocation": -77.677167555465,
      "SliceThickness": 2.7000000476837,
      "SmallestImagePixelValue": 0,
      "SoftwareVersions": "syngo MR E11",
      "SpacingBetweenSlices": 2.6999999041885,
      "SpecificCharacterSet": "ISO_IR 100",
      "StudyID": "3",
      "StudyTime": "200850.589000",
      "TransmitCoilName": "Body",
      "VariableFlipAngleFlag": "N",
      "WindowCenterWidthExplanation": "Algo1"
    },
    "slices": {}
  },
  "time": {
    "samples": {
      "AcquisitionNumber": [1, 2, 3, 4, 5, 6, 7, 8, 9, 10, 11, 12, 13, 14, 15, 16, 17, 18, 19, 20, 21, 22, 23, 24, 25, 26, 27, 28, 29, 30, 31, 32, 33, 34, 35, 36, 37, 38, 39, 40, 41, 42, 43, 44, 45, 46, 47, 48, 49, 50, 51, 52, 53, 54, 55, 56, 57, 58, 59, 60, 61, 62, 63, 64, 65, 66, 67, 68, 69, 70, 71, 72, 73, 74, 75, 76, 77, 78, 79, 80, 81, 82, 83, 84, 85, 86, 87, 88, 89, 90, 91, 92, 93, 94, 95, 96, 97, 98, 99, 100, 101, 102, 103, 104, 105, 106, 107, 108, 109, 110, 111, 112, 113, 114, 115, 116, 117, 118, 119, 120, 121, 122, 123, 124, 125, 126, 127, 128, 129, 130, 131, 132, 133, 134, 135, 136, 137, 138, 139, 140, 141, 142, 143, 144, 145, 146, 147, 148, 149, 150, 151, 152, 153, 154, 155, 156, 157, 158, 159, 160, 161, 162, 163, 164, 165, 166, 167, 168, 169, 170, 171, 172, 173, 174, 175, 176, 177, 178, 179, 180, 181, 182, 183, 184, 185, 186, 187, 188, 189, 190, 191, 192, 193, 194, 195, 196, 197, 198, 199, 200, 201, 202, 203, 204, 205, 206, 207, 208, 209, 210, 211, 212, 213, 214, 215, 216, 217, 218, 219, 220, 221, 222, 223, 224, 225, 226, 227, 228, 229, 230, 231, 232, 233, 234, 235, 236, 237, 238, 239, 240, 241, 242, 243, 244, 245, 246, 247, 248, 249, 250, 251, 252, 253, 254, 255, 256, 257, 258, 259, 260, 261, 262, 263, 264, 265, 266, 267, 268, 269, 270, 271, 272, 273, 274, 275, 276, 277, 278, 279, 280, 281, 282, 283, 284, 285, 286, 287, 288, 289, 290, 291, 292, 293, 294, 295, 296, 297, 298, 299, 300, 301, 302, 303, 304, 305, 306, 307, 308, 309, 310, 311, 312, 313, 314, 315, 316, 317, 318, 319, 320, 321, 322, 323, 324, 325, 326, 327, 328, 329, 330, 331, 332, 333, 334, 335, 336, 337, 338, 339, 340, 341, 342, 343, 344, 345, 346, 347, 348, 349, 350, 351, 352, 353, 354, 355, 356, 357, 358, 359, 360, 361, 362, 363, 364, 365, 366, 367, 368, 369, 370, 371, 372, 373, 374, 375, 376, 377, 378, 379, 380, 381, 382, 383, 384, 385, 386, 387, 388, 389, 390, 391, 392, 393, 394, 395, 396, 397, 398, 399, 400, 401, 402, 403, 404, 405, 406, 407, 408, 409, 410, 411, 412, 413, 414, 415, 416, 417, 418, 419, 420, 421, 422, 423, 424, 425, 426, 427, 428, 429, 430, 431, 432, 433, 434, 435, 436, 437, 438, 439, 440, 441, 442, 443, 444, 445, 446, 447, 448, 449, 450, 451, 452, 453, 454, 455, 456, 457, 458, 459, 460, 461, 462, 463, 464, 465, 466, 467, 468, 469, 470, 471, 472, 473, 474, 475, 476, 477, 478, 479, 480, 481, 482, 483, 484, 485, 486, 487, 488, 489, 490, 491, 492, 493, 494, 495, 496, 497, 498, 499, 500, 501, 502, 503, 504, 505, 506, 507, 508, 509, 510, 511, 512, 513, 514, 515, 516, 517, 518, 519, 520, 521, 522, 523, 524, 525, 526, 527, 528, 529, 530, 531, 532, 533, 534, 535, 536, 537, 538, 539, 540, 541, 542, 543, 544, 545, 546, 547, 548, 549, 550, 551, 552, 553, 554, 555, 556, 557, 558, 559, 560, 561, 562, 563, 564, 565, 566, 567, 568, 569, 570, 571, 572, 573, 574, 575, 576, 577, 578, 579, 580, 581, 582, 583, 584, 585, 586, 587, 588, 589, 590, 591, 592, 593, 594, 595, 596, 597, 598, 599, 600, 601, 602, 603, 604, 605, 606, 607, 608, 609, 610, 611, 612, 613, 614, 615, 616, 617, 618, 619, 620, 621, 622, 623, 624, 625, 626, 627, 628, 629, 630, 631, 632, 633, 634, 635, 636, 637, 638, 639, 640, 641, 642, 643, 644, 645, 646, 647, 648, 649, 650, 651, 652, 653, 654, 655, 656, 657, 658, 659, 660, 661, 662, 663, 664, 665, 666, 667, 668, 669, 670, 671, 672, 673, 674, 675, 676, 677, 678, 679, 680, 681, 682, 683, 684, 685, 686, 687, 688, 689, 690, 691, 692, 693, 694, 695, 696, 697, 698, 699, 700, 701, 702, 703, 704, 705, 706, 707, 708, 709, 710, 711, 712, 713, 714, 715, 716, 717, 718, 719, 720, 721, 722, 723, 724, 725, 726, 727, 728, 729, 730, 731, 732, 733, 734, 735, 736, 737, 738, 739, 740, 741, 742, 743, 744, 745, 746, 747, 748, 749, 750, 751, 752, 753, 754, 755, 756, 757, 758, 759, 760, 761, 762, 763, 764, 765, 766, 767, 768, 769, 770, 771, 772, 773, 774, 775, 776, 777, 778, 779, 780, 781, 782, 783, 784, 785, 786, 787, 788, 789, 790, 791, 792, 793, 794, 795, 796, 797, 798, 799, 800, 801, 802, 803, 804, 805, 806, 807, 808, 809, 810, 811, 812, 813, 814, 815, 816, 817, 818, 819, 820, 821, 822, 823, 824, 825, 826, 827, 828, 829, 830, 831, 832, 833, 834, 835, 836, 837, 838, 839, 840, 841, 842, 843, 844, 845, 846, 847, 848, 849, 850, 851, 852, 853, 854, 855, 856, 857, 858, 859, 860, 861, 862, 863, 864, 865, 866, 867, 868, 869, 870, 871, 872],
      "AcquisitionTime": ["203332.575000", "203333.035000", "203333.495000", "203333.955000", "203334.415000", "203334.875000", "203335.335000", "203335.795000", "203336.255000", "203336.715000", "203337.175000", "203337.635000", "203338.095000", "203338.555000", "203339.015000", "203339.475000", "203339.935000", "203340.395000", "203340.855000", "203341.315000", "203341.775000", "203342.235000", "203342.695000", "203343.155000", "203343.615000", "203344.075000", "203344.535000", "203344.995000", "203345.455000", "203345.915000", "203346.375000", "203346.835000", "203347.295000", "203347.755000", "203348.215000", "203348.675000", "203349.135000", "203349.595000", "203350.055000", "203350.515000", "203350.975000", "203351.435000", "203351.895000", "203352.355000", "203352.815000", "203353.275000", "203353.735000", "203354.195000", "203354.655000", "203355.115000", "203355.575000", "203356.035000", "203356.495000", "203356.955000", "203357.415000", "203357.875000", "203358.335000", "203358.795000", "203359.255000", "203359.715000", "203400.175000", "203400.635000", "203401.095000", "203401.555000", "203402.015000", "203402.475000", "203402.935000", "203403.395000", "203403.855000", "203404.315000", "203404.775000", "203405.235000", "203405.695000", "203406.155000", "203406.615000", "203407.075000", "203407.535000", "203407.995000", "203408.455000", "203408.915000", "203409.375000", "203409.835000", "203410.295000", "203410.755000", "203411.215000", "203411.675000", "203412.135000", "203412.595000", "203413.055000", "203413.515000", "203413.975000", "203414.435000", "203414.895000", "203415.355000", "203415.815000", "203416.275000", "203416.735000", "203417.195000", "203417.655000", "203418.115000", "203418.575000", "203419.035000", "203419.495000", "203419.955000", "203420.415000", "203420.875000", "203421.335000", "203421.795000", "203422.255000", "203422.715000", "203423.175000", "203423.635000", "203424.095000", "203424.555000", "203425.015000", "203425.475000", "203425.935000", "203426.395000", "203426.855000", "203427.315000", "203427.775000", "203428.235000", "203428.695000", "203429.155000", "203429.615000", "203430.075000", "203430.535000", "203430.995000", "203431.455000", "203431.915000", "203432.375000", "203432.835000", "203433.295000", "203433.755000", "203434.215000", "203434.675000", "203435.135000", "203435.595000", "203436.055000", "203436.515000", "203436.975000", "203437.435000", "203437.895000", "203438.355000", "203438.815000", "203439.275000", "203439.735000", "203440.195000", "203440.655000", "203441.115000", "203441.575000", "203442.035000", "203442.495000", "203442.955000", "203443.415000", "203443.875000", "203444.335000", "203444.795000", "203445.255000", "203445.715000", "203446.175000", "203446.635000", "203447.095000", "203447.555000", "203448.015000", "203448.475000", "203448.935000", "203449.395000", "203449.855000", "203450.315000", "203450.775000", "203451.235000", "203451.695000", "203452.155000", "203452.615000", "203453.075000", "203453.535000", "203453.995000", "203454.455000", "203454.915000", "203455.375000", "203455.835000", "203456.295000", "203456.755000", "203457.215000", "203457.675000", "203458.135000", "203458.595000", "203459.055000", "203459.515000", "203459.975000", "203500.435000", "203500.895000", "203501.355000", "203501.815000", "203502.275000", "203502.735000", "203503.195000", "203503.655000", "203504.115000", "203504.575000", "203505.035000", "203505.495000", "203505.955000", "203506.415000", "203506.875000", "203507.335000", "203507.795000", "203508.255000", "203508.715000", "203509.175000", "203509.635000", "203510.095000", "203510.555000", "203511.015000", "203511.475000", "203511.935000", "203512.395000", "203512.855000", "203513.315000", "203513.775000", "203514.235000", "203514.695000", "203515.155000", "203515.615000", "203516.075000", "203516.535000", "203516.995000", "203517.455000", "203517.915000", "203518.375000", "203518.835000", "203519.295000", "203519.755000", "203520.215000", "203520.675000", "203521.135000", "203521.595000", "203522.055000", "203522.515000", "203522.975000", "203523.435000", "203523.895000", "203524.355000", "203524.815000", "203525.275000", "203525.735000", "203526.195000", "203526.655000", "203527.115000", "203527.575000", "203528.035000", "203528.495000", "203528.955000", "203529.415000", "203529.875000", "203530.335000", "203530.795000", "203531.255000", "203531.715000", "203532.175000", "203532.635000", "203533.095000", "203533.555000", "203534.015000", "203534.475000", "203534.935000", "203535.395000", "203535.855000", "203536.315000", "203536.775000", "203537.235000", "203537.695000", "203538.155000", "203538.615000", "203539.075000", "203539.535000", "203539.995000", "203540.455000", "203540.915000", "203541.375000", "203541.835000", "203542.295000", "203542.755000", "203543.215000", "203543.675000", "203544.135000", "203544.595000", "203545.055000", "203545.515000", "203545.975000", "203546.435000", "203546.895000", "203547.355000", "203547.815000", "203548.275000", "203548.735000", "203549.195000", "203549.655000", "203550.115000", "203550.575000", "203551.035000", "203551.495000", "203551.955000", "203552.415000", "203552.875000", "203553.335000", "203553.795000", "203554.255000", "203554.715000", "203555.175000", "203555.635000", "203556.095000", "203556.555000", "203557.015000", "203557.475000", "203557.935000", "203558.395000", "203558.855000", "203559.315000", "203559.775000", "203600.235000", "203600.695000", "203601.155000", "203601.615000", "203602.075000", "203602.535000", "203602.995000", "203603.455000", "203603.915000", "203604.375000", "203604.835000", "203605.295000", "203605.755000", "203606.215000", "203606.675000", "203607.135000", "203607.595000", "203608.055000", "203608.515000", "203608.975000", "203609.435000", "203609.895000", "203610.355000", "203610.815000", "203611.275000", "203611.735000", "203612.195000", "203612.655000", "203613.115000", "203613.575000", "203614.035000", "203614.495000", "203614.955000", "203615.415000", "203615.875000", "203616.335000", "203616.795000", "203617.255000", "203617.715000", "203618.175000", "203618.635000", "203619.095000", "203619.555000", "203620.015000", "203620.475000", "203620.935000", "203621.395000", "203621.855000", "203622.315000", "203622.775000", "203623.235000", "203623.695000", "203624.155000", "203624.615000", "203625.075000", "203625.535000", "203625.995000", "203626.455000", "203626.915000", "203627.375000", "203627.835000", "203628.295000", "203628.755000", "203629.215000", "203629.675000", "203630.135000", "203630.595000", "203631.055000", "203631.515000", "203631.975000", "203632.435000", "203632.895000", "203633.355000", "203633.815000", "203634.275000", "203634.735000", "203635.195000", "203635.655000", "203636.115000", "203636.575000", "203637.035000", "203637.495000", "203637.955000", "203638.415000", "203638.875000", "203639.335000", "203639.795000", "203640.255000", "203640.715000", "203641.175000", "203641.635000", "203642.095000", "203642.555000", "203643.015000", "203643.475000", "203643.935000", "203644.395000", "203644.855000", "203645.315000", "203645.775000", "203646.235000", "203646.695000", "203647.155000", "203647.615000", "203648.075000", "203648.535000", "203648.995000", "203649.455000", "203649.915000", "203650.375000", "203650.835000", "203651.295000", "203651.755000", "203652.215000", "203652.675000", "203653.135000", "203653.595000", "203654.055000", "203654.515000", "203654.975000", "203655.435000", "203655.895000", "203656.355000", "203656.815000", "203657.275000", "203657.735000", "203658.195000", "203658.655000", "203659.115000", "203659.575000", "203700.035000", "203700.495000", "203700.955000", "203701.415000", "203701.875000", "203702.335000", "203702.795000", "203703.255000", "203703.715000", "203704.175000", "203704.635000", "203705.095000", "203705.555000", "203706.015000", "203706.475000", "203706.935000", "203707.395000", "203707.855000", "203708.315000", "203708.775000", "203709.235000", "203709.695000", "203710.155000", "203710.615000", "203711.075000", "203711.535000", "203711.995000", "203712.455000", "203712.915000", "203713.375000", "203713.835000", "203714.295000", "203714.755000", "203715.215000", "203715.675000", "203716.135000", "203716.595000", "203717.055000", "203717.515000", "203717.975000", "203718.435000", "203718.895000", "203719.355000", "203719.815000", "203720.275000", "203720.735000", "203721.195000", "203721.655000", "203722.115000", "203722.575000", "203723.035000", "203723.495000", "203723.955000", "203724.415000", "203724.875000", "203725.335000", "203725.795000", "203726.255000", "203726.715000", "203727.175000", "203727.635000", "203728.095000", "203728.555000", "203729.015000", "203729.475000", "203729.935000", "203730.395000", "203730.855000", "203731.315000", "203731.775000", "203732.235000", "203732.695000", "203733.155000", "203733.615000", "203734.075000", "203734.535000", "203734.995000", "203735.455000", "203735.915000", "203736.375000", "203736.835000", "203737.295000", "203737.755000", "203738.215000", "203738.675000", "203739.135000", "203739.595000", "203740.055000", "203740.515000", "203740.975000", "203741.435000", "203741.895000", "203742.355000", "203742.815000", "203743.275000", "203743.735000", "203744.195000", "203744.655000", "203745.115000", "203745.575000", "203746.035000", "203746.495000", "203746.955000", "203747.415000", "203747.875000", "203748.335000", "203748.795000", "203749.255000", "203749.715000", "203750.175000", "203750.635000", "203751.095000", "203751.555000", "203752.015000", "203752.475000", "203752.935000", "203753.395000", "203753.855000", "203754.315000", "203754.775000", "203755.235000", "203755.695000", "203756.155000", "203756.615000", "203757.075000", "203757.535000", "203757.995000", "203758.455000", "203758.915000", "203759.375000", "203759.835000", "203800.295000", "203800.755000", "203801.215000", "203801.675000", "203802.135000", "203802.595000", "203803.055000", "203803.515000", "203803.975000", "203804.435000", "203804.895000", "203805.355000", "203805.815000", "203806.275000", "203806.735000", "203807.195000", "203807.655000", "203808.115000", "203808.575000", "203809.035000", "203809.495000", "203809.955000", "203810.415000", "203810.875000", "203811.335000", "203811.795000", "203812.255000", "203812.715000", "203813.175000", "203813.635000", "203814.095000", "203814.555000", "203815.015000", "203815.475000", "203815.935000", "203816.395000", "203816.855000", "203817.315000", "203817.775000", "203818.235000", "203818.695000", "203819.155000", "203819.615000", "203820.075000", "203820.535000", "203820.995000", "203821.455000", "203821.915000", "203822.375000", "203822.835000", "203823.295000", "203823.755000", "203824.215000", "203824.675000", "203825.135000", "203825.595000", "203826.055000", "203826.515000", "203826.975000", "203827.435000", "203827.895000", "203828.355000", "203828.815000", "203829.275000", "203829.735000", "203830.195000", "203830.655000", "203831.115000", "203831.575000", "203832.035000", "203832.495000", "203832.955000", "203833.415000", "203833.875000", "203834.335000", "203834.795000", "203835.255000", "203835.715000", "203836.175000", "203836.635000", "203837.095000", "203837.555000", "203838.015000", "203838.475000", "203838.935000", "203839.395000", "203839.855000", "203840.315000", "203840.775000", "203841.235000", "203841.695000", "203842.155000", "203842.615000", "203843.075000", "203843.535000", "203843.995000", "203844.455000", "203844.915000", "203845.375000", "203845.835000", "203846.295000", "203846.755000", "203847.215000", "203847.675000", "203848.135000", "203848.595000", "203849.055000", "203849.515000", "203849.975000", "203850.435000", "203850.895000", "203851.355000", "203851.815000", "203852.275000", "203852.735000", "203853.195000", "203853.655000", "203854.115000", "203854.575000", "203855.035000", "203855.495000", "203855.955000", "203856.415000", "203856.875000", "203857.335000", "203857.795000", "203858.255000", "203858.715000", "203859.175000", "203859.635000", "203900.095000", "203900.555000", "203901.015000", "203901.475000", "203901.935000", "203902.395000", "203902.855000", "203903.315000", "203903.775000", "203904.235000", "203904.695000", "203905.155000", "203905.615000", "203906.075000", "203906.535000", "203906.995000", "203907.455000", "203907.915000", "203908.375000", "203908.835000", "203909.295000", "203909.755000", "203910.215000", "203910.675000", "203911.135000", "203911.595000", "203912.055000", "203912.515000", "203912.975000", "203913.435000", "203913.895000", "203914.355000", "203914.815000", "203915.275000", "203915.735000", "203916.195000", "203916.655000", "203917.115000", "203917.575000", "203918.035000", "203918.495000", "203918.955000", "203919.415000", "203919.875000", "203920.335000", "203920.795000", "203921.255000", "203921.715000", "203922.175000", "203922.635000", "203923.095000", "203923.555000", "203924.015000", "203924.475000", "203924.935000", "203925.395000", "203925.855000", "203926.315000", "203926.775000", "203927.235000", "203927.695000", "203928.155000", "203928.615000", "203929.075000", "203929.535000", "203929.995000", "203930.455000", "203930.915000", "203931.375000", "203931.835000", "203932.295000", "203932.755000", "203933.215000", "203933.675000", "203934.135000", "203934.595000", "203935.055000", "203935.515000", "203935.975000", "203936.435000", "203936.895000", "203937.355000", "203937.815000", "203938.275000", "203938.735000", "203939.195000", "203939.655000", "203940.115000", "203940.575000", "203941.035000", "203941.495000", "203941.955000", "203942.415000", "203942.875000", "203943.335000", "203943.795000", "203944.255000", "203944.715000", "203945.175000", "203945.635000", "203946.095000", "203946.555000", "203947.015000", "203947.475000", "203947.935000", "203948.395000", "203948.855000", "203949.315000", "203949.775000", "203950.235000", "203950.695000", "203951.155000", "203951.615000", "203952.075000", "203952.535000", "203952.995000", "203953.455000", "203953.915000", "203954.375000", "203954.835000", "203955.295000", "203955.755000", "203956.215000", "203956.675000", "203957.135000", "203957.595000", "203958.055000", "203958.515000", "203958.975000", "203959.435000", "203959.895000", "204000.355000", "204000.815000", "204001.275000", "204001.735000", "204002.195000", "204002.655000", "204003.115000", "204003.575000", "204004.035000", "204004.495000", "204004.955000", "204005.415000", "204005.875000", "204006.335000", "204006.795000", "204007.255000", "204007.715000", "204008.175000", "204008.635000", "204009.095000", "204009.555000", "204010.015000", "204010.475000", "204010.935000", "204011.395000", "204011.855000", "204012.315000", "204012.775000", "204013.235000"],
