{
  "AcquisitionMatrixPE": 82,
  "AcquisitionNumber": 1,
  "AcquisitionTime": "20:19:27.117500",
  "BandwidthPerPixelPhaseEncode": 24.888,
  "BaseResolution": 82,
  "BodyPartExamined": "BRAIN",
  "ConsistencyInfo": "N4_VE11E_LATEST_20181129",
  "ConversionSoftware": "dcm2niix",
  "ConversionSoftwareVersion": "v1.0.20201102",
  "DerivedVendorReportedEchoSpacing": 0.00049,
  "DeviceSerialNumber": "66112",
  "DwellTime": 2e-06,
  "EchoTime": 0.0272,
  "EchoTrainLength": 82,
  "EffectiveEchoSpacing": 0.00049,
  "FlipAngle": 44,
  "ImageComments": "Unaliased MB8/PE3",
  "ImageOrientationPatientDICOM": [0.994704, 0.0975667, 0.0323147, -0.0970058, 0.995112, -0.0184976],
  "ImageType": [
    "ORIGINAL",
    "PRIMARY",
    "M",
    "MB",
    "ND",
    "NORM",
    "MOSAIC"
],
  "ImagingFrequency": 123.259,
  "InPlanePhaseEncodingDirectionDICOM": "COL",
  "InstitutionAddress": "Maynard 3,Hanover,NH,US,03755",
  "InstitutionName": "Dartmouth College - PBS",
  "InstitutionalDepartmentName": "Department",
  "MRAcquisitionType": "2D",
  "MagneticFieldStrength": 3,
  "Manufacturer": "Siemens",
  "ManufacturersModelName": "Prisma",
  "Modality": "MR",
  "MultibandAccelerationFactor": 8,
  "PartialFourier": 1,
  "PatientPosition": "HFS",
  "PercentPhaseFOV": 100,
  "PercentSampling": 100,
  "PhaseEncodingDirection": "j-",
  "PhaseEncodingSteps": 82,
  "PhaseResolution": 1,
  "PixelBandwidth": 3050,
  "ProcedureStepDescription": "Wager_Wager^1076_spacetop",
  "ProtocolName": "func_run-01_task-social_acq-ap-mb8",
  "PulseSequenceDetails": "%CustomerSeq%\\cmrr_mbep2d_bold",
  "ReceiveCoilActiveElements": "HEA;HEP",
  "ReceiveCoilName": "Head_32",
  "ReconMatrixPE": 82,
  "RepetitionTime": 0.46,
  "SAR": 0.0889012,
  "ScanOptions": "FS",
  "ScanningSequence": "EP",
  "SequenceName": "epfid2d1_82",
  "SequenceVariant": "SK\\SS",
  "SeriesDescription": "func_run-01_task-social_acq-ap-mb8",
  "SeriesNumber": 8,
  "ShimSetting": [4219, -7782, -7233, 225, -177, -91, -21, 91],
  "SliceThickness": 2.7,
  "SliceTiming": [0, 0.2525, 0.0625, 0.315, 0.125, 0.3775, 0.19, 0, 0.2525, 0.0625, 0.315, 0.125, 0.3775, 0.19, 0, 0.2525, 0.0625, 0.315, 0.125, 0.3775, 0.19, 0, 0.2525, 0.0625, 0.315, 0.125, 0.3775, 0.19, 0, 0.2525, 0.0625, 0.315, 0.125, 0.3775, 0.19, 0, 0.2525, 0.0625, 0.315, 0.125, 0.3775, 0.19, 0, 0.2525, 0.0625, 0.315, 0.125, 0.3775, 0.19, 0, 0.2525, 0.0625, 0.315, 0.125, 0.3775, 0.19],
  "SoftwareVersions": "syngo MR E11",
  "SpacingBetweenSlices": 2.7,
  "StationName": "AWP66112",
  "TaskName": "social",
  "TotalReadoutTime": 0.03969,
  "TxRefAmp": 261.806,
  "WipMemBlock": "fbeab064-dfab-4f63-92c7-645ad4298fa3||Sequence: R016 ve11e/master r/434b28f1; Aug  7 2019 18:53:46 by eja",
  "dcmmeta_affine": [
    [-2.6687188148498535, -0.2602594494819641, 0.09169615060091019, 121.51197814941406],
    [-0.26176440715789795, 2.6698124408721924, -0.04121542349457741, -86.54476165771484],
    [0.08669808506965637, 0.049627840518951416, 2.698127508163452, -83.18268585205078],
    [0.0, 0.0, 0.0, 1.0]
],
  "dcmmeta_reorient_transform": [
    [0.0, -1.0, 0.0, 81.0],
    [1.0, 0.0, 0.0, 0.0],
    [0.0, 0.0, 1.0, 0.0],
    [0.0, 0.0, 0.0, 1.0]
],
  "dcmmeta_shape": [82, 82, 56, 872],
  "dcmmeta_slice_dim": 2,
  "dcmmeta_version": 0.6,
  "global": {
    "const": {
      "AccessionNumber": "A004932",
      "AcquisitionMatrix": [82, 0, 0, 82],
      "AngioFlag": "N",
      "BitsAllocated": 16,
      "BitsStored": 16,
      "BodyPartExamined": "BRAIN",
      "Columns": 656,
      "EchoNumbers": 1,
      "EchoTime": 27.2,
      "EchoTrainLength": 82,
      "FlipAngle": 44.0,
      "HighBit": 15,
      "ImageOrientationPatient": [0.9947042221711, 0.09756673605536, 0.0323147398332, -0.0970057954694, 0.99511190960716, -0.0184976485894],
      "ImagePositionPatient": [-791.65876750398, -971.07263104119, -89.801992549738],
      "ImageType": [
        "ORIGINAL",
        "PRIMARY",
        "M",
        "MB",
        "ND",
        "NORM",
        "MOSAIC"
],
      "ImagedNucleus": "1H",
      "ImagingFrequency": 123.259023,
      "InPlanePhaseEncodingDirection": "COL",
      "MRAcquisitionType": "2D",
      "MagneticFieldStrength": 3.0,
      "Manufacturer": "SIEMENS",
      "ManufacturerModelName": "Prisma",
      "Modality": "MR",
      "NumberOfAverages": 1.0,
      "NumberOfPhaseEncodingSteps": 82,
      "PercentPhaseFieldOfView": 100.0,
      "PercentSampling": 100.0,
      "PerformedProcedureStepStartTime": "200850.646000",
      "PhotometricInterpretation": "MONOCHROME2",
      "PixelBandwidth": 3050.0,
      "PixelRepresentation": 0,
      "PixelSpacing": [2.6829268932343, 2.6829268932343],
      "ProtocolName": "func_run-01_task-social_acq-ap-mb8",
      "RepetitionTime": 460.0,
      "Rows": 656,
      "SAR": 0.08890121212257,
      "SamplesPerPixel": 1,
      "ScanOptions": "FS",
      "ScanningSequence": "EP",
      "SequenceName": "epfid2d1_82",
      "SequenceVariant": [
        "SK",
        "SS"
],
      "SeriesDescription": "func_run-01_task-social_acq-ap-mb8",
      "SeriesNumber": 8,
      "SeriesTime": "201954.704000",
      "SliceLocation": -77.677167555465,
      "SliceThickness": 2.7000000476837,
      "SmallestImagePixelValue": 0,
      "SoftwareVersions": "syngo MR E11",
      "SpacingBetweenSlices": 2.6999999041885,
      "SpecificCharacterSet": "ISO_IR 100",
      "StudyID": "3",
      "StudyTime": "200850.589000",
      "TransmitCoilName": "Body",
      "VariableFlipAngleFlag": "N",
      "WindowCenterWidthExplanation": "Algo1"
    },
    "slices": {}
  },
  "time": {
    "samples": {
      "AcquisitionNumber": [1, 2, 3, 4, 5, 6, 7, 8, 9, 10, 11, 12, 13, 14, 15, 16, 17, 18, 19, 20, 21, 22, 23, 24, 25, 26, 27, 28, 29, 30, 31, 32, 33, 34, 35, 36, 37, 38, 39, 40, 41, 42, 43, 44, 45, 46, 47, 48, 49, 50, 51, 52, 53, 54, 55, 56, 57, 58, 59, 60, 61, 62, 63, 64, 65, 66, 67, 68, 69, 70, 71, 72, 73, 74, 75, 76, 77, 78, 79, 80, 81, 82, 83, 84, 85, 86, 87, 88, 89, 90, 91, 92, 93, 94, 95, 96, 97, 98, 99, 100, 101, 102, 103, 104, 105, 106, 107, 108, 109, 110, 111, 112, 113, 114, 115, 116, 117, 118, 119, 120, 121, 122, 123, 124, 125, 126, 127, 128, 129, 130, 131, 132, 133, 134, 135, 136, 137, 138, 139, 140, 141, 142, 143, 144, 145, 146, 147, 148, 149, 150, 151, 152, 153, 154, 155, 156, 157, 158, 159, 160, 161, 162, 163, 164, 165, 166, 167, 168, 169, 170, 171, 172, 173, 174, 175, 176, 177, 178, 179, 180, 181, 182, 183, 184, 185, 186, 187, 188, 189, 190, 191, 192, 193, 194, 195, 196, 197, 198, 199, 200, 201, 202, 203, 204, 205, 206, 207, 208, 209, 210, 211, 212, 213, 214, 215, 216, 217, 218, 219, 220, 221, 222, 223, 224, 225, 226, 227, 228, 229, 230, 231, 232, 233, 234, 235, 236, 237, 238, 239, 240, 241, 242, 243, 244, 245, 246, 247, 248, 249, 250, 251, 252, 253, 254, 255, 256, 257, 258, 259, 260, 261, 262, 263, 264, 265, 266, 267, 268, 269, 270, 271, 272, 273, 274, 275, 276, 277, 278, 279, 280, 281, 282, 283, 284, 285, 286, 287, 288, 289, 290, 291, 292, 293, 294, 295, 296, 297, 298, 299, 300, 301, 302, 303, 304, 305, 306, 307, 308, 309, 310, 311, 312, 313, 314, 315, 316, 317, 318, 319, 320, 321, 322, 323, 324, 325, 326, 327, 328, 329, 330, 331, 332, 333, 334, 335, 336, 337, 338, 339, 340, 341, 342, 343, 344, 345, 346, 347, 348, 349, 350, 351, 352, 353, 354, 355, 356, 357, 358, 359, 360, 361, 362, 363, 364, 365, 366, 367, 368, 369, 370, 371, 372, 373, 374, 375, 376, 377, 378, 379, 380, 381, 382, 383, 384, 385, 386, 387, 388, 389, 390, 391, 392, 393, 394, 395, 396, 397, 398, 399, 400, 401, 402, 403, 404, 405, 406, 407, 408, 409, 410, 411, 412, 413, 414, 415, 416, 417, 418, 419, 420, 421, 422, 423, 424, 425, 426, 427, 428, 429, 430, 431, 432, 433, 434, 435, 436, 437, 438, 439, 440, 441, 442, 443, 444, 445, 446, 447, 448, 449, 450, 451, 452, 453, 454, 455, 456, 457, 458, 459, 460, 461, 462, 463, 464, 465, 466, 467, 468, 469, 470, 471, 472, 473, 474, 475, 476, 477, 478, 479, 480, 481, 482, 483, 484, 485, 486, 487, 488, 489, 490, 491, 492, 493, 494, 495, 496, 497, 498, 499, 500, 501, 502, 503, 504, 505, 506, 507, 508, 509, 510, 511, 512, 513, 514, 515, 516, 517, 518, 519, 520, 521, 522, 523, 524, 525, 526, 527, 528, 529, 530, 531, 532, 533, 534, 535, 536, 537, 538, 539, 540, 541, 542, 543, 544, 545, 546, 547, 548, 549, 550, 551, 552, 553, 554, 555, 556, 557, 558, 559, 560, 561, 562, 563, 564, 565, 566, 567, 568, 569, 570, 571, 572, 573, 574, 575, 576, 577, 578, 579, 580, 581, 582, 583, 584, 585, 586, 587, 588, 589, 590, 591, 592, 593, 594, 595, 596, 597, 598, 599, 600, 601, 602, 603, 604, 605, 606, 607, 608, 609, 610, 611, 612, 613, 614, 615, 616, 617, 618, 619, 620, 621, 622, 623, 624, 625, 626, 627, 628, 629, 630, 631, 632, 633, 634, 635, 636, 637, 638, 639, 640, 641, 642, 643, 644, 645, 646, 647, 648, 649, 650, 651, 652, 653, 654, 655, 656, 657, 658, 659, 660, 661, 662, 663, 664, 665, 666, 667, 668, 669, 670, 671, 672, 673, 674, 675, 676, 677, 678, 679, 680, 681, 682, 683, 684, 685, 686, 687, 688, 689, 690, 691, 692, 693, 694, 695, 696, 697, 698, 699, 700, 701, 702, 703, 704, 705, 706, 707, 708, 709, 710, 711, 712, 713, 714, 715, 716, 717, 718, 719, 720, 721, 722, 723, 724, 725, 726, 727, 728, 729, 730, 731, 732, 733, 734, 735, 736, 737, 738, 739, 740, 741, 742, 743, 744, 745, 746, 747, 748, 749, 750, 751, 752, 753, 754, 755, 756, 757, 758, 759, 760, 761, 762, 763, 764, 765, 766, 767, 768, 769, 770, 771, 772, 773, 774, 775, 776, 777, 778, 779, 780, 781, 782, 783, 784, 785, 786, 787, 788, 789, 790, 791, 792, 793, 794, 795, 796, 797, 798, 799, 800, 801, 802, 803, 804, 805, 806, 807, 808, 809, 810, 811, 812, 813, 814, 815, 816, 817, 818, 819, 820, 821, 822, 823, 824, 825, 826, 827, 828, 829, 830, 831, 832, 833, 834, 835, 836, 837, 838, 839, 840, 841, 842, 843, 844, 845, 846, 847, 848, 849, 850, 851, 852, 853, 854, 855, 856, 857, 858, 859, 860, 861, 862, 863, 864, 865, 866, 867, 868, 869, 870, 871, 872],
      "AcquisitionTime": ["201927.117500", "201927.577500", "201928.037500", "201928.497500", "201928.957500", "201929.417500", "201929.877500", "201930.337500", "201930.797500", "201931.257500", "201931.717500", "201932.177500", "201932.637500", "201933.097500", "201933.557500", "201934.017500", "201934.477500", "201934.937500", "201935.397500", "201935.857500", "201936.317500", "201936.777500", "201937.237500", "201937.697500", "201938.157500", "201938.617500", "201939.077500", "201939.537500", "201939.997500", "201940.457500", "201940.917500", "201941.377500", "201941.837500", "201942.297500", "201942.757500", "201943.217500", "201943.677500", "201944.137500", "201944.597500", "201945.057500", "201945.517500", "201945.977500", "201946.437500", "201946.897500", "201947.357500", "201947.817500", "201948.277500", "201948.737500", "201949.197500", "201949.657500", "201950.117500", "201950.577500", "201951.037500", "201951.497500", "201951.957500", "201952.417500", "201952.877500", "201953.337500", "201953.797500", "201954.257500", "201954.717500", "201955.177500", "201955.637500", "201956.097500", "201956.557500", "201957.017500", "201957.477500", "201957.937500", "201958.397500", "201958.857500", "201959.317500", "201959.777500", "202000.237500", "202000.697500", "202001.157500", "202001.617500", "202002.077500", "202002.537500", "202002.997500", "202003.457500", "202003.917500", "202004.377500", "202004.837500", "202005.297500", "202005.757500", "202006.217500", "202006.677500", "202007.137500", "202007.597500", "202008.057500", "202008.517500", "202008.977500", "202009.437500", "202009.897500", "202010.357500", "202010.817500", "202011.277500", "202011.737500", "202012.197500", "202012.657500", "202013.117500", "202013.577500", "202014.037500", "202014.497500", "202014.957500", "202015.417500", "202015.877500", "202016.337500", "202016.797500", "202017.257500", "202017.717500", "202018.177500", "202018.637500", "202019.097500", "202019.557500", "202020.017500", "202020.477500", "202020.937500", "202021.397500", "202021.857500", "202022.317500", "202022.777500", "202023.237500", "202023.697500", "202024.157500", "202024.617500", "202025.077500", "202025.537500", "202025.997500", "202026.457500", "202026.917500", "202027.377500", "202027.837500", "202028.297500", "202028.757500", "202029.217500", "202029.677500", "202030.137500", "202030.597500", "202031.057500", "202031.517500", "202031.977500", "202032.437500", "202032.897500", "202033.357500", "202033.817500", "202034.277500", "202034.737500", "202035.197500", "202035.657500", "202036.117500", "202036.577500", "202037.037500", "202037.497500", "202037.957500", "202038.417500", "202038.877500", "202039.337500", "202039.797500", "202040.257500", "202040.717500", "202041.177500", "202041.637500", "202042.097500", "202042.557500", "202043.017500", "202043.477500", "202043.937500", "202044.397500", "202044.857500", "202045.317500", "202045.777500", "202046.237500", "202046.697500", "202047.157500", "202047.617500", "202048.077500", "202048.537500", "202048.997500", "202049.457500", "202049.917500", "202050.377500", "202050.837500", "202051.297500", "202051.757500", "202052.217500", "202052.677500", "202053.137500", "202053.597500", "202054.057500", "202054.517500", "202054.977500", "202055.437500", "202055.897500", "202056.357500", "202056.817500", "202057.277500", "202057.737500", "202058.197500", "202058.657500", "202059.117500", "202059.577500", "202100.037500", "202100.497500", "202100.957500", "202101.417500", "202101.877500", "202102.337500", "202102.797500", "202103.257500", "202103.717500", "202104.177500", "202104.637500", "202105.097500", "202105.557500", "202106.017500", "202106.477500", "202106.937500", "202107.397500", "202107.857500", "202108.317500", "202108.777500", "202109.237500", "202109.697500", "202110.157500", "202110.617500", "202111.077500", "202111.537500", "202111.997500", "202112.457500", "202112.917500", "202113.377500", "202113.837500", "202114.297500", "202114.757500", "202115.217500", "202115.677500", "202116.137500", "202116.597500", "202117.057500", "202117.517500", "202117.977500", "202118.437500", "202118.897500", "202119.357500", "202119.817500", "202120.277500", "202120.737500", "202121.197500", "202121.657500", "202122.117500", "202122.577500", "202123.037500", "202123.497500", "202123.957500", "202124.417500", "202124.877500", "202125.337500", "202125.797500", "202126.257500", "202126.717500", "202127.177500", "202127.637500", "202128.097500", "202128.557500", "202129.017500", "202129.477500", "202129.937500", "202130.397500", "202130.857500", "202131.317500", "202131.777500", "202132.237500", "202132.697500", "202133.157500", "202133.617500", "202134.077500", "202134.537500", "202134.997500", "202135.457500", "202135.917500", "202136.377500", "202136.837500", "202137.297500", "202137.757500", "202138.217500", "202138.677500", "202139.137500", "202139.597500", "202140.057500", "202140.517500", "202140.977500", "202141.437500", "202141.897500", "202142.357500", "202142.817500", "202143.277500", "202143.737500", "202144.197500", "202144.657500", "202145.117500", "202145.577500", "202146.037500", "202146.497500", "202146.957500", "202147.417500", "202147.877500", "202148.337500", "202148.797500", "202149.257500", "202149.717500", "202150.177500", "202150.637500", "202151.097500", "202151.557500", "202152.017500", "202152.477500", "202152.937500", "202153.397500", "202153.857500", "202154.317500", "202154.777500", "202155.237500", "202155.697500", "202156.157500", "202156.617500", "202157.077500", "202157.537500", "202157.997500", "202158.457500", "202158.917500", "202159.377500", "202159.837500", "202200.297500", "202200.757500", "202201.217500", "202201.677500", "202202.137500", "202202.597500", "202203.057500", "202203.517500", "202203.977500", "202204.437500", "202204.897500", "202205.357500", "202205.817500", "202206.277500", "202206.737500", "202207.197500", "202207.657500", "202208.117500", "202208.577500", "202209.037500", "202209.497500", "202209.957500", "202210.417500", "202210.877500", "202211.337500", "202211.797500", "202212.257500", "202212.717500", "202213.177500", "202213.637500", "202214.097500", "202214.557500", "202215.017500", "202215.477500", "202215.937500", "202216.397500", "202216.857500", "202217.317500", "202217.777500", "202218.237500", "202218.697500", "202219.157500", "202219.617500", "202220.077500", "202220.537500", "202220.997500", "202221.457500", "202221.917500", "202222.377500", "202222.837500", "202223.297500", "202223.757500", "202224.217500", "202224.677500", "202225.137500", "202225.597500", "202226.057500", "202226.517500", "202226.977500", "202227.437500", "202227.897500", "202228.357500", "202228.817500", "202229.277500", "202229.737500", "202230.197500", "202230.657500", "202231.117500", "202231.577500", "202232.037500", "202232.497500", "202232.957500", "202233.417500", "202233.877500", "202234.337500", "202234.797500", "202235.257500", "202235.717500", "202236.177500", "202236.637500", "202237.097500", "202237.557500", "202238.017500", "202238.477500", "202238.937500", "202239.397500", "202239.857500", "202240.317500", "202240.777500", "202241.237500", "202241.697500", "202242.157500", "202242.617500", "202243.077500", "202243.537500", "202243.997500", "202244.457500", "202244.917500", "202245.377500", "202245.837500", "202246.297500", "202246.757500", "202247.217500", "202247.677500", "202248.137500", "202248.597500", "202249.057500", "202249.517500", "202249.977500", "202250.437500", "202250.897500", "202251.357500", "202251.817500", "202252.277500", "202252.737500", "202253.197500", "202253.657500", "202254.117500", "202254.577500", "202255.037500", "202255.497500", "202255.957500", "202256.417500", "202256.877500", "202257.337500", "202257.797500", "202258.257500", "202258.717500", "202259.177500", "202259.637500", "202300.097500", "202300.557500", "202301.017500", "202301.477500", "202301.937500", "202302.397500", "202302.857500", "202303.317500", "202303.777500", "202304.237500", "202304.697500", "202305.157500", "202305.617500", "202306.077500", "202306.537500", "202306.997500", "202307.457500", "202307.917500", "202308.377500", "202308.837500", "202309.297500", "202309.757500", "202310.217500", "202310.677500", "202311.137500", "202311.597500", "202312.057500", "202312.517500", "202312.977500", "202313.437500", "202313.897500", "202314.357500", "202314.817500", "202315.277500", "202315.737500", "202316.197500", "202316.657500", "202317.117500", "202317.577500", "202318.037500", "202318.497500", "202318.957500", "202319.417500", "202319.877500", "202320.337500", "202320.797500", "202321.257500", "202321.717500", "202322.177500", "202322.637500", "202323.097500", "202323.557500", "202324.017500", "202324.477500", "202324.937500", "202325.397500", "202325.857500", "202326.317500", "202326.777500", "202327.237500", "202327.697500", "202328.157500", "202328.617500", "202329.077500", "202329.537500", "202329.997500", "202330.457500", "202330.917500", "202331.377500", "202331.837500", "202332.297500", "202332.757500", "202333.217500", "202333.677500", "202334.137500", "202334.597500", "202335.057500", "202335.517500", "202335.977500", "202336.437500", "202336.897500", "202337.357500", "202337.817500", "202338.277500", "202338.737500", "202339.197500", "202339.657500", "202340.117500", "202340.577500", "202341.037500", "202341.497500", "202341.957500", "202342.417500", "202342.877500", "202343.337500", "202343.797500", "202344.257500", "202344.717500", "202345.177500", "202345.637500", "202346.097500", "202346.557500", "202347.017500", "202347.477500", "202347.937500", "202348.397500", "202348.857500", "202349.317500", "202349.777500", "202350.237500", "202350.697500", "202351.157500", "202351.617500", "202352.077500", "202352.537500", "202352.997500", "202353.457500", "202353.917500", "202354.377500", "202354.837500", "202355.297500", "202355.757500", "202356.217500", "202356.677500", "202357.137500", "202357.597500", "202358.057500", "202358.517500", "202358.977500", "202359.437500", "202359.897500", "202400.357500", "202400.817500", "202401.277500", "202401.737500", "202402.197500", "202402.657500", "202403.117500", "202403.577500", "202404.037500", "202404.497500", "202404.957500", "202405.417500", "202405.877500", "202406.337500", "202406.797500", "202407.257500", "202407.717500", "202408.177500", "202408.637500", "202409.097500", "202409.557500", "202410.017500", "202410.477500", "202410.937500", "202411.397500", "202411.857500", "202412.317500", "202412.777500", "202413.237500", "202413.697500", "202414.157500", "202414.617500", "202415.077500", "202415.537500", "202415.997500", "202416.457500", "202416.917500", "202417.377500", "202417.837500", "202418.297500", "202418.757500", "202419.217500", "202419.677500", "202420.137500", "202420.597500", "202421.057500", "202421.517500", "202421.977500", "202422.437500", "202422.897500", "202423.357500", "202423.817500", "202424.277500", "202424.737500", "202425.197500", "202425.657500", "202426.117500", "202426.577500", "202427.037500", "202427.497500", "202427.957500", "202428.417500", "202428.877500", "202429.337500", "202429.797500", "202430.257500", "202430.717500", "202431.177500", "202431.637500", "202432.097500", "202432.557500", "202433.017500", "202433.477500", "202433.937500", "202434.397500", "202434.857500", "202435.317500", "202435.777500", "202436.237500", "202436.697500", "202437.157500", "202437.617500", "202438.077500", "202438.537500", "202438.997500", "202439.457500", "202439.917500", "202440.377500", "202440.837500", "202441.297500", "202441.757500", "202442.217500", "202442.677500", "202443.137500", "202443.597500", "202444.057500", "202444.517500", "202444.977500", "202445.437500", "202445.897500", "202446.357500", "202446.817500", "202447.277500", "202447.737500", "202448.197500", "202448.657500", "202449.117500", "202449.577500", "202450.037500", "202450.497500", "202450.957500", "202451.417500", "202451.877500", "202452.337500", "202452.797500", "202453.257500", "202453.717500", "202454.177500", "202454.637500", "202455.097500", "202455.557500", "202456.017500", "202456.477500", "202456.937500", "202457.397500", "202457.857500", "202458.317500", "202458.777500", "202459.237500", "202459.697500", "202500.157500", "202500.617500", "202501.077500", "202501.537500", "202501.997500", "202502.457500", "202502.917500", "202503.377500", "202503.837500", "202504.297500", "202504.757500", "202505.217500", "202505.677500", "202506.137500", "202506.597500", "202507.057500", "202507.517500", "202507.977500", "202508.437500", "202508.897500", "202509.357500", "202509.817500", "202510.277500", "202510.737500", "202511.197500", "202511.657500", "202512.117500", "202512.577500", "202513.037500", "202513.497500", "202513.957500", "202514.417500", "202514.877500", "202515.337500", "202515.797500", "202516.257500", "202516.717500", "202517.177500", "202517.637500", "202518.097500", "202518.557500", "202519.017500", "202519.477500", "202519.937500", "202520.397500", "202520.857500", "202521.317500", "202521.777500", "202522.237500", "202522.697500", "202523.157500", "202523.617500", "202524.077500", "202524.537500", "202524.997500", "202525.457500", "202525.917500", "202526.377500", "202526.837500", "202527.297500", "202527.757500", "202528.217500", "202528.677500", "202529.137500", "202529.597500", "202530.057500", "202530.517500", "202530.977500", "202531.437500", "202531.897500", "202532.357500", "202532.817500", "202533.277500", "202533.737500", "202534.197500", "202534.657500", "202535.117500", "202535.577500", "202536.037500", "202536.497500", "202536.957500", "202537.417500", "202537.877500", "202538.337500", "202538.797500", "202539.257500", "202539.717500", "202540.177500", "202540.637500", "202541.097500", "202541.557500", "202542.017500", "202542.477500", "202542.937500", "202543.397500", "202543.857500", "202544.317500", "202544.777500", "202545.237500", "202545.697500", "202546.157500", "202546.617500", "202547.077500", "202547.537500", "202547.997500", "202548.457500", "202548.917500", "202549.377500", "202549.837500", "202550.297500", "202550.757500", "202551.217500", "202551.677500", "202552.137500", "202552.597500", "202553.057500", "202553.517500", "202553.977500", "202554.437500", "202554.897500", "202555.357500", "202555.817500", "202556.277500", "202556.737500", "202557.197500", "202557.657500", "202558.117500", "202558.577500", "202559.037500", "202559.497500", "202559.957500", "202600.417500", "202600.877500", "202601.337500", "202601.797500", "202602.257500", "202602.717500", "202603.177500", "202603.637500", "202604.097500", "202604.557500", "202605.017500", "202605.477500", "202605.937500", "202606.397500", "202606.857500", "202607.317500", "202607.777500"],
