{
  "AcquisitionMatrixPE": 82,
  "AcquisitionNumber": 1,
  "AcquisitionTime": "21:43:40.952500",
  "BandwidthPerPixelPhaseEncode": 24.888,
  "BaseResolution": 82,
  "BodyPartExamined": "BRAIN",
  "ConsistencyInfo": "N4_VE11E_LATEST_20181129",
  "ConversionSoftware": "dcm2niix",
  "ConversionSoftwareVersion": "v1.0.20201102",
  "DerivedVendorReportedEchoSpacing": 0.00049,
  "DeviceSerialNumber": "66112",
  "DwellTime": 2e-06,
  "EchoTime": 0.0272,
  "EchoTrainLength": 82,
  "EffectiveEchoSpacing": 0.00049,
  "FlipAngle": 44,
  "ImageComments": "Unaliased MB8/PE3",
  "ImageOrientationPatientDICOM": [0.994586, 0.0981192, 0.034231, -0.0971695, 0.994863, -0.0283869],
  "ImageType": [
    "ORIGINAL",
    "PRIMARY",
    "M",
    "MB",
    "ND",
    "NORM",
    "MOSAIC"
],
  "ImagingFrequency": 123.259,
  "InPlanePhaseEncodingDirectionDICOM": "COL",
  "InstitutionAddress": "Maynard 3,Hanover,NH,US,03755",
  "InstitutionName": "Dartmouth College - PBS",
  "InstitutionalDepartmentName": "Department",
  "MRAcquisitionType": "2D",
  "MagneticFieldStrength": 3,
  "Manufacturer": "Siemens",
  "ManufacturersModelName": "Prisma",
  "Modality": "MR",
  "MultibandAccelerationFactor": 8,
  "PartialFourier": 1,
  "PatientPosition": "HFS",
  "PercentPhaseFOV": 100,
  "PercentSampling": 100,
  "PhaseEncodingDirection": "j-",
  "PhaseEncodingSteps": 82,
  "PhaseResolution": 1,
  "PixelBandwidth": 3050,
  "ProcedureStepDescription": "Wager_Wager^1076_spacetop",
  "ProtocolName": "func_run-03_task-alignvideo_acq-ap-mb8",
  "PulseSequenceDetails": "%CustomerSeq%\\cmrr_mbep2d_bold",
  "ReceiveCoilActiveElements": "HEA;HEP",
  "ReceiveCoilName": "Head_32",
  "ReconMatrixPE": 82,
  "RepetitionTime": 0.46,
  "SAR": 0.0890015,
  "ScanOptions": "FS",
  "ScanningSequence": "EP",
  "SequenceName": "epfid2d1_82",
  "SequenceVariant": "SK\\SS",
  "SeriesDescription": "func_run-03_task-alignvideo_acq-ap-mb8",
  "SeriesNumber": 34,
  "ShimSetting": [4218, -7781, -7232, 229, -176, -85, -23, 88],
  "SliceThickness": 2.7,
  "SliceTiming": [0, 0.2525, 0.0625, 0.315, 0.125, 0.3775, 0.19, 0, 0.2525, 0.0625, 0.315, 0.125, 0.3775, 0.19, 0, 0.2525, 0.0625, 0.315, 0.125, 0.3775, 0.19, 0, 0.2525, 0.0625, 0.315, 0.125, 0.3775, 0.19, 0, 0.2525, 0.0625, 0.315, 0.125, 0.3775, 0.19, 0, 0.2525, 0.0625, 0.315, 0.125, 0.3775, 0.19, 0, 0.2525, 0.0625, 0.315, 0.125, 0.3775, 0.19, 0, 0.2525, 0.0625, 0.315, 0.125, 0.3775, 0.19],
  "SoftwareVersions": "syngo MR E11",
  "SpacingBetweenSlices": 2.7,
  "StationName": "AWP66112",
  "TaskName": "alignvideo",
  "TotalReadoutTime": 0.03969,
  "TxRefAmp": 261.806,
  "WipMemBlock": "71b1933b-531b-4f77-a339-399cb615759c||Sequence: R016 ve11e/master r/434b28f1; Aug  7 2019 18:53:46 by eja",
  "dcmmeta_affine": [
    [-2.668401002883911, -0.2606986463069916, 0.09946931898593903, 121.80004119873047],
    [-0.2632465362548828, 2.669144630432129, -0.06724897772073746, -86.55231475830078],
    [0.09183935821056366, 0.07616007328033447, 2.697328805923462, -82.52931213378906],
    [0.0, 0.0, 0.0, 1.0]
],
  "dcmmeta_reorient_transform": [
    [0.0, -1.0, 0.0, 81.0],
    [1.0, 0.0, 0.0, 0.0],
    [0.0, 0.0, 1.0, 0.0],
    [0.0, 0.0, 0.0, 1.0]
],
  "dcmmeta_shape": [82, 82, 56, 1065],
  "dcmmeta_slice_dim": 2,
  "dcmmeta_version": 0.6,
  "global": {
    "const": {
      "AccessionNumber": "A004932",
      "AcquisitionMatrix": [82, 0, 0, 82],
      "AngioFlag": "N",
      "BitsAllocated": 16,
      "BitsStored": 16,
      "BodyPartExamined": "BRAIN",
      "Columns": 656,
      "EchoNumbers": 1,
      "EchoTime": 27.2,
      "EchoTrainLength": 82,
      "FlipAngle": 44.0,
      "HighBit": 15,
      "ImageOrientationPatient": [0.99458577676837, 0.09811915700033, 0.03423103386688, -0.0971694962808, 0.99486294076118, -0.0283869352441],
      "ImagePositionPatient": [-791.69400513101, -971.24462857332, -80.860305690001],
      "ImageType": [
        "ORIGINAL",
        "PRIMARY",
        "M",
        "MB",
        "ND",
        "NORM",
        "MOSAIC"
],
      "ImagedNucleus": "1H",
      "ImagingFrequency": 123.259037,
      "InPlanePhaseEncodingDirection": "COL",
      "MRAcquisitionType": "2D",
      "MagneticFieldStrength": 3.0,
      "Manufacturer": "SIEMENS",
      "ManufacturerModelName": "Prisma",
      "Modality": "MR",
      "NumberOfAverages": 1.0,
      "NumberOfPhaseEncodingSteps": 82,
      "PercentPhaseFieldOfView": 100.0,
      "PercentSampling": 100.0,
      "PerformedProcedureStepStartTime": "200850.646000",
      "PhotometricInterpretation": "MONOCHROME2",
      "PixelBandwidth": 3050.0,
      "PixelRepresentation": 0,
      "PixelSpacing": [2.6829268932343, 2.6829268932343],
      "ProtocolName": "func_run-03_task-alignvideo_acq-ap-mb8",
      "RepetitionTime": 460.0,
      "Rows": 656,
      "SAR": 0.08900150000114,
      "SamplesPerPixel": 1,
      "ScanOptions": "FS",
      "ScanningSequence": "EP",
      "SequenceName": "epfid2d1_82",
      "SequenceVariant": [
        "SK",
        "SS"
],
      "SeriesDescription": "func_run-03_task-alignvideo_acq-ap-mb8",
      "SeriesNumber": 34,
      "SeriesTime": "214354.706000",
      "SliceLocation": -75.804736594467,
      "SliceThickness": 2.7000000476837,
      "SmallestImagePixelValue": 0,
      "SoftwareVersions": "syngo MR E11",
      "SpacingBetweenSlices": 2.6999999363146,
      "SpecificCharacterSet": "ISO_IR 100",
      "StudyID": "3",
      "StudyTime": "200850.589000",
      "TransmitCoilName": "Body",
      "VariableFlipAngleFlag": "N",
      "WindowCenterWidthExplanation": "Algo1"
    },
    "slices": {}
  },
  "time": {
    "samples": {
      "AcquisitionNumber": [1, 2, 3, 4, 5, 6, 7, 8, 9, 10, 11, 12, 13, 14, 15, 16, 17, 18, 19, 20, 21, 22, 23, 24, 25, 26, 27, 28, 29, 30, 31, 32, 33, 34, 35, 36, 37, 38, 39, 40, 41, 42, 43, 44, 45, 46, 47, 48, 49, 50, 51, 52, 53, 54, 55, 56, 57, 58, 59, 60, 61, 62, 63, 64, 65, 66, 67, 68, 69, 70, 71, 72, 73, 74, 75, 76, 77, 78, 79, 80, 81, 82, 83, 84, 85, 86, 87, 88, 89, 90, 91, 92, 93, 94, 95, 96, 97, 98, 99, 100, 101, 102, 103, 104, 105, 106, 107, 108, 109, 110, 111, 112, 113, 114, 115, 116, 117, 118, 119, 120, 121, 122, 123, 124, 125, 126, 127, 128, 129, 130, 131, 132, 133, 134, 135, 136, 137, 138, 139, 140, 141, 142, 143, 144, 145, 146, 147, 148, 149, 150, 151, 152, 153, 154, 155, 156, 157, 158, 159, 160, 161, 162, 163, 164, 165, 166, 167, 168, 169, 170, 171, 172, 173, 174, 175, 176, 177, 178, 179, 180, 181, 182, 183, 184, 185, 186, 187, 188, 189, 190, 191, 192, 193, 194, 195, 196, 197, 198, 199, 200, 201, 202, 203, 204, 205, 206, 207, 208, 209, 210, 211, 212, 213, 214, 215, 216, 217, 218, 219, 220, 221, 222, 223, 224, 225, 226, 227, 228, 229, 230, 231, 232, 233, 234, 235, 236, 237, 238, 239, 240, 241, 242, 243, 244, 245, 246, 247, 248, 249, 250, 251, 252, 253, 254, 255, 256, 257, 258, 259, 260, 261, 262, 263, 264, 265, 266, 267, 268, 269, 270, 271, 272, 273, 274, 275, 276, 277, 278, 279, 280, 281, 282, 283, 284, 285, 286, 287, 288, 289, 290, 291, 292, 293, 294, 295, 296, 297, 298, 299, 300, 301, 302, 303, 304, 305, 306, 307, 308, 309, 310, 311, 312, 313, 314, 315, 316, 317, 318, 319, 320, 321, 322, 323, 324, 325, 326, 327, 328, 329, 330, 331, 332, 333, 334, 335, 336, 337, 338, 339, 340, 341, 342, 343, 344, 345, 346, 347, 348, 349, 350, 351, 352, 353, 354, 355, 356, 357, 358, 359, 360, 361, 362, 363, 364, 365, 366, 367, 368, 369, 370, 371, 372, 373, 374, 375, 376, 377, 378, 379, 380, 381, 382, 383, 384, 385, 386, 387, 388, 389, 390, 391, 392, 393, 394, 395, 396, 397, 398, 399, 400, 401, 402, 403, 404, 405, 406, 407, 408, 409, 410, 411, 412, 413, 414, 415, 416, 417, 418, 419, 420, 421, 422, 423, 424, 425, 426, 427, 428, 429, 430, 431, 432, 433, 434, 435, 436, 437, 438, 439, 440, 441, 442, 443, 444, 445, 446, 447, 448, 449, 450, 451, 452, 453, 454, 455, 456, 457, 458, 459, 460, 461, 462, 463, 464, 465, 466, 467, 468, 469, 470, 471, 472, 473, 474, 475, 476, 477, 478, 479, 480, 481, 482, 483, 484, 485, 486, 487, 488, 489, 490, 491, 492, 493, 494, 495, 496, 497, 498, 499, 500, 501, 502, 503, 504, 505, 506, 507, 508, 509, 510, 511, 512, 513, 514, 515, 516, 517, 518, 519, 520, 521, 522, 523, 524, 525, 526, 527, 528, 529, 530, 531, 532, 533, 534, 535, 536, 537, 538, 539, 540, 541, 542, 543, 544, 545, 546, 547, 548, 549, 550, 551, 552, 553, 554, 555, 556, 557, 558, 559, 560, 561, 562, 563, 564, 565, 566, 567, 568, 569, 570, 571, 572, 573, 574, 575, 576, 577, 578, 579, 580, 581, 582, 583, 584, 585, 586, 587, 588, 589, 590, 591, 592, 593, 594, 595, 596, 597, 598, 599, 600, 601, 602, 603, 604, 605, 606, 607, 608, 609, 610, 611, 612, 613, 614, 615, 616, 617, 618, 619, 620, 621, 622, 623, 624, 625, 626, 627, 628, 629, 630, 631, 632, 633, 634, 635, 636, 637, 638, 639, 640, 641, 642, 643, 644, 645, 646, 647, 648, 649, 650, 651, 652, 653, 654, 655, 656, 657, 658, 659, 660, 661, 662, 663, 664, 665, 666, 667, 668, 669, 670, 671, 672, 673, 674, 675, 676, 677, 678, 679, 680, 681, 682, 683, 684, 685, 686, 687, 688, 689, 690, 691, 692, 693, 694, 695, 696, 697, 698, 699, 700, 701, 702, 703, 704, 705, 706, 707, 708, 709, 710, 711, 712, 713, 714, 715, 716, 717, 718, 719, 720, 721, 722, 723, 724, 725, 726, 727, 728, 729, 730, 731, 732, 733, 734, 735, 736, 737, 738, 739, 740, 741, 742, 743, 744, 745, 746, 747, 748, 749, 750, 751, 752, 753, 754, 755, 756, 757, 758, 759, 760, 761, 762, 763, 764, 765, 766, 767, 768, 769, 770, 771, 772, 773, 774, 775, 776, 777, 778, 779, 780, 781, 782, 783, 784, 785, 786, 787, 788, 789, 790, 791, 792, 793, 794, 795, 796, 797, 798, 799, 800, 801, 802, 803, 804, 805, 806, 807, 808, 809, 810, 811, 812, 813, 814, 815, 816, 817, 818, 819, 820, 821, 822, 823, 824, 825, 826, 827, 828, 829, 830, 831, 832, 833, 834, 835, 836, 837, 838, 839, 840, 841, 842, 843, 844, 845, 846, 847, 848, 849, 850, 851, 852, 853, 854, 855, 856, 857, 858, 859, 860, 861, 862, 863, 864, 865, 866, 867, 868, 869, 870, 871, 872, 873, 874, 875, 876, 877, 878, 879, 880, 881, 882, 883, 884, 885, 886, 887, 888, 889, 890, 891, 892, 893, 894, 895, 896, 897, 898, 899, 900, 901, 902, 903, 904, 905, 906, 907, 908, 909, 910, 911, 912, 913, 914, 915, 916, 917, 918, 919, 920, 921, 922, 923, 924, 925, 926, 927, 928, 929, 930, 931, 932, 933, 934, 935, 936, 937, 938, 939, 940, 941, 942, 943, 944, 945, 946, 947, 948, 949, 950, 951, 952, 953, 954, 955, 956, 957, 958, 959, 960, 961, 962, 963, 964, 965, 966, 967, 968, 969, 970, 971, 972, 973, 974, 975, 976, 977, 978, 979, 980, 981, 982, 983, 984, 985, 986, 987, 988, 989, 990, 991, 992, 993, 994, 995, 996, 997, 998, 999, 1000, 1001, 1002, 1003, 1004, 1005, 1006, 1007, 1008, 1009, 1010, 1011, 1012, 1013, 1014, 1015, 1016, 1017, 1018, 1019, 1020, 1021, 1022, 1023, 1024, 1025, 1026, 1027, 1028, 1029, 1030, 1031, 1032, 1033, 1034, 1035, 1036, 1037, 1038, 1039, 1040, 1041, 1042, 1043, 1044, 1045, 1046, 1047, 1048, 1049, 1050, 1051, 1052, 1053, 1054, 1055, 1056, 1057, 1058, 1059, 1060, 1061, 1062, 1063, 1064, 1065],
      "AcquisitionTime": ["214340.952500", "214341.412500", "214341.872500", "214342.332500", "214342.792500", "214343.252500", "214343.712500", "214344.172500", "214344.632500", "214345.092500", "214345.552500", "214346.012500", "214346.472500", "214346.932500", "214347.392500", "214347.852500", "214348.312500", "214348.772500", "214349.232500", "214349.692500", "214350.152500", "214350.612500", "214351.072500", "214351.532500", "214351.992500", "214352.452500", "214352.912500", "214353.372500", "214353.832500", "214354.292500", "214354.752500", "214355.212500", "214355.672500", "214356.132500", "214356.592500", "214357.052500", "214357.512500", "214357.972500", "214358.432500", "214358.892500", "214359.352500", "214359.812500", "214400.272500", "214400.732500", "214401.192500", "214401.652500", "214402.112500", "214402.572500", "214403.032500", "214403.492500", "214403.952500", "214404.412500", "214404.872500", "214405.332500", "214405.792500", "214406.252500", "214406.712500", "214407.172500", "214407.632500", "214408.092500", "214408.552500", "214409.012500", "214409.472500", "214409.932500", "214410.392500", "214410.852500", "214411.312500", "214411.772500", "214412.232500", "214412.692500", "214413.152500", "214413.612500", "214414.072500", "214414.532500", "214414.992500", "214415.452500", "214415.912500", "214416.372500", "214416.832500", "214417.292500", "214417.752500", "214418.212500", "214418.672500", "214419.132500", "214419.592500", "214420.052500", "214420.512500", "214420.972500", "214421.432500", "214421.892500", "214422.352500", "214422.812500", "214423.272500", "214423.732500", "214424.192500", "214424.652500", "214425.112500", "214425.572500", "214426.032500", "214426.492500", "214426.952500", "214427.412500", "214427.872500", "214428.332500", "214428.792500", "214429.252500", "214429.712500", "214430.172500", "214430.632500", "214431.092500", "214431.552500", "214432.012500", "214432.472500", "214432.932500", "214433.392500", "214433.852500", "214434.312500", "214434.772500", "214435.232500", "214435.692500", "214436.152500", "214436.612500", "214437.072500", "214437.532500", "214437.992500", "214438.452500", "214438.912500", "214439.372500", "214439.832500", "214440.292500", "214440.752500", "214441.212500", "214441.672500", "214442.132500", "214442.592500", "214443.052500", "214443.512500", "214443.972500", "214444.432500", "214444.892500", "214445.352500", "214445.812500", "214446.272500", "214446.732500", "214447.192500", "214447.652500", "214448.112500", "214448.572500", "214449.032500", "214449.492500", "214449.952500", "214450.412500", "214450.872500", "214451.332500", "214451.792500", "214452.252500", "214452.712500", "214453.172500", "214453.632500", "214454.092500", "214454.552500", "214455.012500", "214455.472500", "214455.932500", "214456.392500", "214456.852500", "214457.312500", "214457.772500", "214458.232500", "214458.692500", "214459.152500", "214459.612500", "214500.072500", "214500.532500", "214500.992500", "214501.452500", "214501.912500", "214502.372500", "214502.832500", "214503.292500", "214503.752500", "214504.212500", "214504.672500", "214505.132500", "214505.592500", "214506.052500", "214506.512500", "214506.972500", "214507.432500", "214507.892500", "214508.352500", "214508.812500", "214509.272500", "214509.732500", "214510.192500", "214510.652500", "214511.112500", "214511.572500", "214512.032500", "214512.492500", "214512.952500", "214513.412500", "214513.872500", "214514.332500", "214514.792500", "214515.252500", "214515.712500", "214516.172500", "214516.632500", "214517.092500", "214517.552500", "214518.012500", "214518.472500", "214518.932500", "214519.392500", "214519.852500", "214520.312500", "214520.772500", "214521.232500", "214521.692500", "214522.152500", "214522.612500", "214523.072500", "214523.532500", "214523.992500", "214524.452500", "214524.912500", "214525.372500", "214525.832500", "214526.292500", "214526.752500", "214527.212500", "214527.672500", "214528.132500", "214528.592500", "214529.052500", "214529.512500", "214529.972500", "214530.432500", "214530.892500", "214531.352500", "214531.812500", "214532.272500", "214532.732500", "214533.192500", "214533.652500", "214534.112500", "214534.572500", "214535.032500", "214535.492500", "214535.952500", "214536.412500", "214536.872500", "214537.332500", "214537.792500", "214538.252500", "214538.712500", "214539.172500", "214539.632500", "214540.092500", "214540.552500", "214541.012500", "214541.472500", "214541.932500", "214542.392500", "214542.852500", "214543.312500", "214543.772500", "214544.232500", "214544.692500", "214545.152500", "214545.612500", "214546.072500", "214546.532500", "214546.992500", "214547.452500", "214547.912500", "214548.372500", "214548.832500", "214549.292500", "214549.752500", "214550.212500", "214550.672500", "214551.132500", "214551.592500", "214552.052500", "214552.512500", "214552.972500", "214553.432500", "214553.892500", "214554.352500", "214554.812500", "214555.272500", "214555.732500", "214556.192500", "214556.652500", "214557.112500", "214557.572500", "214558.032500", "214558.492500", "214558.952500", "214559.412500", "214559.872500", "214600.332500", "214600.792500", "214601.252500", "214601.712500", "214602.172500", "214602.632500", "214603.092500", "214603.552500", "214604.012500", "214604.472500", "214604.932500", "214605.392500", "214605.852500", "214606.312500", "214606.772500", "214607.232500", "214607.692500", "214608.152500", "214608.612500", "214609.072500", "214609.532500", "214609.992500", "214610.452500", "214610.912500", "214611.372500", "214611.832500", "214612.292500", "214612.752500", "214613.212500", "214613.672500", "214614.132500", "214614.592500", "214615.052500", "214615.512500", "214615.972500", "214616.432500", "214616.892500", "214617.352500", "214617.812500", "214618.272500", "214618.732500", "214619.192500", "214619.652500", "214620.112500", "214620.572500", "214621.032500", "214621.492500", "214621.952500", "214622.412500", "214622.872500", "214623.332500", "214623.792500", "214624.252500", "214624.712500", "214625.172500", "214625.632500", "214626.092500", "214626.552500", "214627.012500", "214627.472500", "214627.932500", "214628.392500", "214628.852500", "214629.312500", "214629.772500", "214630.232500", "214630.692500", "214631.152500", "214631.612500", "214632.072500", "214632.532500", "214632.992500", "214633.452500", "214633.912500", "214634.372500", "214634.832500", "214635.292500", "214635.752500", "214636.212500", "214636.672500", "214637.132500", "214637.592500", "214638.052500", "214638.512500", "214638.972500", "214639.432500", "214639.892500", "214640.352500", "214640.812500", "214641.272500", "214641.732500", "214642.192500", "214642.652500", "214643.112500", "214643.572500", "214644.032500", "214644.492500", "214644.952500", "214645.412500", "214645.872500", "214646.332500", "214646.792500", "214647.252500", "214647.712500", "214648.172500", "214648.632500", "214649.092500", "214649.552500", "214650.012500", "214650.472500", "214650.932500", "214651.392500", "214651.852500", "214652.312500", "214652.772500", "214653.232500", "214653.692500", "214654.152500", "214654.612500", "214655.072500", "214655.532500", "214655.992500", "214656.452500", "214656.912500", "214657.372500", "214657.832500", "214658.292500", "214658.752500", "214659.212500", "214659.672500", "214700.132500", "214700.592500", "214701.052500", "214701.512500", "214701.972500", "214702.432500", "214702.892500", "214703.352500", "214703.812500", "214704.272500", "214704.732500", "214705.192500", "214705.652500", "214706.112500", "214706.572500", "214707.032500", "214707.492500", "214707.952500", "214708.412500", "214708.872500", "214709.332500", "214709.792500", "214710.252500", "214710.712500", "214711.172500", "214711.632500", "214712.092500", "214712.552500", "214713.012500", "214713.472500", "214713.932500", "214714.392500", "214714.852500", "214715.312500", "214715.772500", "214716.232500", "214716.692500", "214717.152500", "214717.612500", "214718.072500", "214718.532500", "214718.992500", "214719.452500", "214719.912500", "214720.372500", "214720.832500", "214721.292500", "214721.752500", "214722.212500", "214722.672500", "214723.132500", "214723.592500", "214724.052500", "214724.512500", "214724.972500", "214725.432500", "214725.892500", "214726.352500", "214726.812500", "214727.272500", "214727.732500", "214728.192500", "214728.652500", "214729.112500", "214729.572500", "214730.032500", "214730.492500", "214730.952500", "214731.412500", "214731.872500", "214732.332500", "214732.792500", "214733.252500", "214733.712500", "214734.172500", "214734.632500", "214735.092500", "214735.552500", "214736.012500", "214736.472500", "214736.932500", "214737.392500", "214737.852500", "214738.312500", "214738.772500", "214739.232500", "214739.692500", "214740.152500", "214740.612500", "214741.072500", "214741.532500", "214741.992500", "214742.452500", "214742.912500", "214743.372500", "214743.832500", "214744.292500", "214744.752500", "214745.212500", "214745.672500", "214746.132500", "214746.592500", "214747.052500", "214747.512500", "214747.972500", "214748.432500", "214748.892500", "214749.352500", "214749.812500", "214750.272500", "214750.732500", "214751.192500", "214751.652500", "214752.112500", "214752.572500", "214753.032500", "214753.492500", "214753.952500", "214754.412500", "214754.872500", "214755.332500", "214755.792500", "214756.252500", "214756.712500", "214757.172500", "214757.632500", "214758.092500", "214758.552500", "214759.012500", "214759.472500", "214759.932500", "214800.392500", "214800.852500", "214801.312500", "214801.772500", "214802.232500", "214802.692500", "214803.152500", "214803.612500", "214804.072500", "214804.532500", "214804.992500", "214805.452500", "214805.912500", "214806.372500", "214806.832500", "214807.292500", "214807.752500", "214808.212500", "214808.672500", "214809.132500", "214809.592500", "214810.052500", "214810.512500", "214810.972500", "214811.432500", "214811.892500", "214812.352500", "214812.812500", "214813.272500", "214813.732500", "214814.192500", "214814.652500", "214815.112500", "214815.572500", "214816.032500", "214816.492500", "214816.952500", "214817.412500", "214817.872500", "214818.332500", "214818.792500", "214819.252500", "214819.712500", "214820.172500", "214820.632500", "214821.092500", "214821.552500", "214822.012500", "214822.472500", "214822.932500", "214823.392500", "214823.852500", "214824.312500", "214824.772500", "214825.232500", "214825.692500", "214826.152500", "214826.612500", "214827.072500", "214827.532500", "214827.992500", "214828.452500", "214828.912500", "214829.372500", "214829.832500", "214830.292500", "214830.752500", "214831.212500", "214831.672500", "214832.132500", "214832.592500", "214833.052500", "214833.512500", "214833.972500", "214834.432500", "214834.892500", "214835.352500", "214835.812500", "214836.272500", "214836.732500", "214837.192500", "214837.652500", "214838.112500", "214838.572500", "214839.032500", "214839.492500", "214839.952500", "214840.412500", "214840.872500", "214841.332500", "214841.792500", "214842.252500", "214842.712500", "214843.172500", "214843.632500", "214844.092500", "214844.552500", "214845.012500", "214845.472500", "214845.932500", "214846.392500", "214846.852500", "214847.312500", "214847.772500", "214848.232500", "214848.692500", "214849.152500", "214849.612500", "214850.072500", "214850.532500", "214850.992500", "214851.452500", "214851.912500", "214852.372500", "214852.832500", "214853.292500", "214853.752500", "214854.212500", "214854.672500", "214855.132500", "214855.592500", "214856.052500", "214856.512500", "214856.972500", "214857.432500", "214857.892500", "214858.352500", "214858.812500", "214859.272500", "214859.732500", "214900.192500", "214900.652500", "214901.112500", "214901.572500", "214902.032500", "214902.492500", "214902.952500", "214903.412500", "214903.872500", "214904.332500", "214904.792500", "214905.252500", "214905.712500", "214906.172500", "214906.632500", "214907.092500", "214907.552500", "214908.012500", "214908.472500", "214908.932500", "214909.392500", "214909.852500", "214910.312500", "214910.772500", "214911.232500", "214911.692500", "214912.152500", "214912.612500", "214913.072500", "214913.532500", "214913.992500", "214914.452500", "214914.912500", "214915.372500", "214915.832500", "214916.292500", "214916.752500", "214917.212500", "214917.672500", "214918.132500", "214918.592500", "214919.052500", "214919.512500", "214919.972500", "214920.432500", "214920.892500", "214921.352500", "214921.812500", "214922.272500", "214922.732500", "214923.192500", "214923.652500", "214924.112500", "214924.572500", "214925.032500", "214925.492500", "214925.952500", "214926.412500", "214926.872500", "214927.332500", "214927.792500", "214928.252500", "214928.712500", "214929.172500", "214929.632500", "214930.092500", "214930.552500", "214931.012500", "214931.472500", "214931.932500", "214932.392500", "214932.852500", "214933.312500", "214933.772500", "214934.232500", "214934.692500", "214935.152500", "214935.612500", "214936.072500", "214936.532500", "214936.992500", "214937.452500", "214937.912500", "214938.372500", "214938.832500", "214939.292500", "214939.752500", "214940.212500", "214940.672500", "214941.132500", "214941.592500", "214942.052500", "214942.512500", "214942.972500", "214943.432500", "214943.892500", "214944.352500", "214944.812500", "214945.272500", "214945.732500", "214946.192500", "214946.652500", "214947.112500", "214947.572500", "214948.032500", "214948.492500", "214948.952500", "214949.412500", "214949.872500", "214950.332500", "214950.792500", "214951.252500", "214951.712500", "214952.172500", "214952.632500", "214953.092500", "214953.552500", "214954.012500", "214954.472500", "214954.932500", "214955.392500", "214955.852500", "214956.312500", "214956.772500", "214957.232500", "214957.692500", "214958.152500", "214958.612500", "214959.072500", "214959.532500", "214959.992500", "215000.452500", "215000.912500", "215001.372500", "215001.832500", "215002.292500", "215002.752500", "215003.212500", "215003.672500", "215004.132500", "215004.592500", "215005.052500", "215005.512500", "215005.972500", "215006.432500", "215006.892500", "215007.352500", "215007.812500", "215008.272500", "215008.732500", "215009.192500", "215009.652500", "215010.112500", "215010.572500", "215011.032500", "215011.492500", "215011.952500", "215012.412500", "215012.872500", "215013.332500", "215013.792500", "215014.252500", "215014.712500", "215015.172500", "215015.632500", "215016.092500", "215016.552500", "215017.012500", "215017.472500", "215017.932500", "215018.392500", "215018.852500", "215019.312500", "215019.772500", "215020.232500", "215020.692500", "215021.152500", "215021.612500", "215022.072500", "215022.532500", "215022.992500", "215023.452500", "215023.912500", "215024.372500", "215024.832500", "215025.292500", "215025.752500", "215026.212500", "215026.672500", "215027.132500", "215027.592500", "215028.052500", "215028.512500", "215028.972500", "215029.432500", "215029.892500", "215030.352500", "215030.812500", "215031.272500", "215031.732500", "215032.192500", "215032.652500", "215033.112500", "215033.572500", "215034.032500", "215034.492500", "215034.952500", "215035.412500", "215035.872500", "215036.332500", "215036.792500", "215037.252500", "215037.712500", "215038.172500", "215038.632500", "215039.092500", "215039.552500", "215040.012500", "215040.472500", "215040.932500", "215041.392500", "215041.852500", "215042.312500", "215042.772500", "215043.232500", "215043.692500", "215044.152500", "215044.612500", "215045.072500", "215045.532500", "215045.992500", "215046.452500", "215046.912500", "215047.372500", "215047.832500", "215048.292500", "215048.752500", "215049.212500", "215049.672500", "215050.132500", "215050.592500", "215051.052500", "215051.512500", "215051.972500", "215052.432500", "215052.892500", "215053.352500", "215053.812500", "215054.272500", "215054.732500", "215055.192500", "215055.652500", "215056.112500", "215056.572500", "215057.032500", "215057.492500", "215057.952500", "215058.412500", "215058.872500", "215059.332500", "215059.792500", "215100.252500", "215100.712500", "215101.172500", "215101.632500", "215102.092500", "215102.552500", "215103.012500", "215103.472500", "215103.932500", "215104.392500", "215104.852500", "215105.312500", "215105.772500", "215106.232500", "215106.692500", "215107.152500", "215107.612500", "215108.072500", "215108.532500", "215108.992500", "215109.452500", "215109.912500", "215110.372500", "215110.832500", "215111.292500", "215111.752500", "215112.212500", "215112.672500", "215113.132500", "215113.592500", "215114.052500", "215114.512500", "215114.972500", "215115.432500", "215115.892500", "215116.352500", "215116.812500", "215117.272500", "215117.732500", "215118.192500", "215118.652500", "215119.112500", "215119.572500", "215120.032500", "215120.492500", "215120.952500", "215121.412500", "215121.872500", "215122.332500", "215122.792500", "215123.252500", "215123.712500", "215124.172500", "215124.632500", "215125.092500", "215125.552500", "215126.012500", "215126.472500", "215126.932500", "215127.392500", "215127.852500", "215128.312500", "215128.772500", "215129.232500", "215129.692500", "215130.152500", "215130.612500", "215131.072500", "215131.532500", "215131.992500", "215132.452500", "215132.912500", "215133.372500", "215133.832500", "215134.292500", "215134.752500", "215135.212500", "215135.672500", "215136.132500", "215136.592500", "215137.052500", "215137.512500", "215137.972500", "215138.432500", "215138.892500", "215139.352500", "215139.812500", "215140.272500", "215140.732500", "215141.192500", "215141.652500", "215142.112500", "215142.572500", "215143.032500", "215143.492500", "215143.952500", "215144.412500", "215144.872500", "215145.332500", "215145.792500", "215146.252500", "215146.712500", "215147.172500", "215147.632500", "215148.092500", "215148.552500", "215149.012500", "215149.472500", "215149.932500", "215150.392500"],
