{
  "AcquisitionMatrixPE": 82,
  "AcquisitionNumber": 1,
  "AcquisitionTime": "20:26:32.982500",
  "BandwidthPerPixelPhaseEncode": 24.888,
  "BaseResolution": 82,
  "BodyPartExamined": "BRAIN",
  "ConsistencyInfo": "N4_VE11E_LATEST_20181129",
  "ConversionSoftware": "dcm2niix",
  "ConversionSoftwareVersion": "v1.0.20201102",
  "DerivedVendorReportedEchoSpacing": 0.00049,
  "DeviceSerialNumber": "66112",
  "DwellTime": 2e-06,
  "EchoTime": 0.0272,
  "EchoTrainLength": 82,
  "EffectiveEchoSpacing": 0.00049,
  "FlipAngle": 44,
  "ImageComments": "Unaliased MB8/PE3",
  "ImageOrientationPatientDICOM": [0.994704, 0.0975667, 0.0323147, -0.0970058, 0.995112, -0.0184976],
  "ImageType": [
    "ORIGINAL",
    "PRIMARY",
    "M",
    "MB",
    "ND",
    "NORM",
    "MOSAIC"
],
  "ImagingFrequency": 123.259,
  "InPlanePhaseEncodingDirectionDICOM": "COL",
  "InstitutionAddress": "Maynard 3,Hanover,NH,US,03755",
  "InstitutionName": "Dartmouth College - PBS",
  "InstitutionalDepartmentName": "Department",
  "MRAcquisitionType": "2D",
  "MagneticFieldStrength": 3,
  "Manufacturer": "Siemens",
  "ManufacturersModelName": "Prisma",
  "Modality": "MR",
  "MultibandAccelerationFactor": 8,
  "PartialFourier": 1,
  "PatientPosition": "HFS",
  "PercentPhaseFOV": 100,
  "PercentSampling": 100,
  "PhaseEncodingDirection": "j-",
  "PhaseEncodingSteps": 82,
  "PhaseResolution": 1,
  "PixelBandwidth": 3050,
  "ProcedureStepDescription": "Wager_Wager^1076_spacetop",
  "ProtocolName": "func_run-02_task-social_acq-ap-mb8",
  "PulseSequenceDetails": "%CustomerSeq%\\cmrr_mbep2d_bold",
  "ReceiveCoilActiveElements": "HEA;HEP",
  "ReceiveCoilName": "Head_32",
  "ReconMatrixPE": 82,
  "RepetitionTime": 0.46,
  "SAR": 0.0889012,
  "ScanOptions": "FS",
  "ScanningSequence": "EP",
  "SequenceName": "epfid2d1_82",
  "SequenceVariant": "SK\\SS",
  "SeriesDescription": "func_run-02_task-social_acq-ap-mb8",
  "SeriesNumber": 10,
  "ShimSetting": [4219, -7782, -7233, 225, -177, -91, -21, 91],
  "SliceThickness": 2.7,
  "SliceTiming": [0, 0.2525, 0.0625, 0.315, 0.1275, 0.3775, 0.19, 0, 0.2525, 0.0625, 0.315, 0.1275, 0.3775, 0.19, 0, 0.2525, 0.0625, 0.315, 0.1275, 0.3775, 0.19, 0, 0.2525, 0.0625, 0.315, 0.1275, 0.3775, 0.19, 0, 0.2525, 0.0625, 0.315, 0.1275, 0.3775, 0.19, 0, 0.2525, 0.0625, 0.315, 0.1275, 0.3775, 0.19, 0, 0.2525, 0.0625, 0.315, 0.1275, 0.3775, 0.19, 0, 0.2525, 0.0625, 0.315, 0.1275, 0.3775, 0.19],
  "SoftwareVersions": "syngo MR E11",
  "SpacingBetweenSlices": 2.7,
  "StationName": "AWP66112",
  "TaskName": "social",
  "TotalReadoutTime": 0.03969,
  "TxRefAmp": 261.806,
  "WipMemBlock": "eddae413-1b89-45cf-b0b5-44cf2e2b7ef6||Sequence: R016 ve11e/master r/434b28f1; Aug  7 2019 18:53:46 by eja",
  "dcmmeta_affine": [
    [-2.6687188148498535, -0.2602594494819641, 0.09169615060091019, 121.51197814941406],
    [-0.26176440715789795, 2.6698124408721924, -0.04121542349457741, -86.54476165771484],
    [0.08669808506965637, 0.049627840518951416, 2.698127508163452, -83.18268585205078],
    [0.0, 0.0, 0.0, 1.0]
],
  "dcmmeta_reorient_transform": [
    [0.0, -1.0, 0.0, 81.0],
    [1.0, 0.0, 0.0, 0.0],
    [0.0, 0.0, 1.0, 0.0],
    [0.0, 0.0, 0.0, 1.0]
],
  "dcmmeta_shape": [82, 82, 56, 872],
  "dcmmeta_slice_dim": 2,
  "dcmmeta_version": 0.6,
  "global": {
    "const": {
      "AccessionNumber": "A004932",
      "AcquisitionMatrix": [82, 0, 0, 82],
      "AngioFlag": "N",
      "BitsAllocated": 16,
      "BitsStored": 16,
      "BodyPartExamined": "BRAIN",
      "Columns": 656,
      "EchoNumbers": 1,
      "EchoTime": 27.2,
      "EchoTrainLength": 82,
      "FlipAngle": 44.0,
      "HighBit": 15,
      "ImageOrientationPatient": [0.9947042221711, 0.09756673605536, 0.0323147398332, -0.0970057954694, 0.99511190960716, -0.0184976485894],
      "ImagePositionPatient": [-791.65876750398, -971.07263104119, -89.801992549738],
      "ImageType": [
        "ORIGINAL",
        "PRIMARY",
        "M",
        "MB",
        "ND",
        "NORM",
        "MOSAIC"
],
      "ImagedNucleus": "1H",
      "ImagingFrequency": 123.259027,
      "InPlanePhaseEncodingDirection": "COL",
      "MRAcquisitionType": "2D",
      "MagneticFieldStrength": 3.0,
      "Manufacturer": "SIEMENS",
      "ManufacturerModelName": "Prisma",
      "Modality": "MR",
      "NumberOfAverages": 1.0,
      "NumberOfPhaseEncodingSteps": 82,
      "PercentPhaseFieldOfView": 100.0,
      "PercentSampling": 100.0,
      "PerformedProcedureStepStartTime": "200850.646000",
      "PhotometricInterpretation": "MONOCHROME2",
      "PixelBandwidth": 3050.0,
      "PixelRepresentation": 0,
      "PixelSpacing": [2.6829268932343, 2.6829268932343],
      "ProtocolName": "func_run-02_task-social_acq-ap-mb8",
      "RepetitionTime": 460.0,
      "Rows": 656,
      "SAR": 0.08890121212257,
      "SamplesPerPixel": 1,
      "ScanOptions": "FS",
      "ScanningSequence": "EP",
      "SequenceName": "epfid2d1_82",
      "SequenceVariant": [
        "SK",
        "SS"
],
      "SeriesDescription": "func_run-02_task-social_acq-ap-mb8",
      "SeriesNumber": 10,
      "SeriesTime": "202654.556000",
      "SliceLocation": -77.677167555465,
      "SliceThickness": 2.7000000476837,
      "SmallestImagePixelValue": 0,
      "SoftwareVersions": "syngo MR E11",
      "SpacingBetweenSlices": 2.6999999041885,
      "SpecificCharacterSet": "ISO_IR 100",
      "StudyID": "3",
      "StudyTime": "200850.589000",
      "TransmitCoilName": "Body",
      "VariableFlipAngleFlag": "N",
      "WindowCenterWidthExplanation": "Algo1"
    },
    "slices": {}
  },
  "time": {
    "samples": {
      "AcquisitionNumber": [1, 2, 3, 4, 5, 6, 7, 8, 9, 10, 11, 12, 13, 14, 15, 16, 17, 18, 19, 20, 21, 22, 23, 24, 25, 26, 27, 28, 29, 30, 31, 32, 33, 34, 35, 36, 37, 38, 39, 40, 41, 42, 43, 44, 45, 46, 47, 48, 49, 50, 51, 52, 53, 54, 55, 56, 57, 58, 59, 60, 61, 62, 63, 64, 65, 66, 67, 68, 69, 70, 71, 72, 73, 74, 75, 76, 77, 78, 79, 80, 81, 82, 83, 84, 85, 86, 87, 88, 89, 90, 91, 92, 93, 94, 95, 96, 97, 98, 99, 100, 101, 102, 103, 104, 105, 106, 107, 108, 109, 110, 111, 112, 113, 114, 115, 116, 117, 118, 119, 120, 121, 122, 123, 124, 125, 126, 127, 128, 129, 130, 131, 132, 133, 134, 135, 136, 137, 138, 139, 140, 141, 142, 143, 144, 145, 146, 147, 148, 149, 150, 151, 152, 153, 154, 155, 156, 157, 158, 159, 160, 161, 162, 163, 164, 165, 166, 167, 168, 169, 170, 171, 172, 173, 174, 175, 176, 177, 178, 179, 180, 181, 182, 183, 184, 185, 186, 187, 188, 189, 190, 191, 192, 193, 194, 195, 196, 197, 198, 199, 200, 201, 202, 203, 204, 205, 206, 207, 208, 209, 210, 211, 212, 213, 214, 215, 216, 217, 218, 219, 220, 221, 222, 223, 224, 225, 226, 227, 228, 229, 230, 231, 232, 233, 234, 235, 236, 237, 238, 239, 240, 241, 242, 243, 244, 245, 246, 247, 248, 249, 250, 251, 252, 253, 254, 255, 256, 257, 258, 259, 260, 261, 262, 263, 264, 265, 266, 267, 268, 269, 270, 271, 272, 273, 274, 275, 276, 277, 278, 279, 280, 281, 282, 283, 284, 285, 286, 287, 288, 289, 290, 291, 292, 293, 294, 295, 296, 297, 298, 299, 300, 301, 302, 303, 304, 305, 306, 307, 308, 309, 310, 311, 312, 313, 314, 315, 316, 317, 318, 319, 320, 321, 322, 323, 324, 325, 326, 327, 328, 329, 330, 331, 332, 333, 334, 335, 336, 337, 338, 339, 340, 341, 342, 343, 344, 345, 346, 347, 348, 349, 350, 351, 352, 353, 354, 355, 356, 357, 358, 359, 360, 361, 362, 363, 364, 365, 366, 367, 368, 369, 370, 371, 372, 373, 374, 375, 376, 377, 378, 379, 380, 381, 382, 383, 384, 385, 386, 387, 388, 389, 390, 391, 392, 393, 394, 395, 396, 397, 398, 399, 400, 401, 402, 403, 404, 405, 406, 407, 408, 409, 410, 411, 412, 413, 414, 415, 416, 417, 418, 419, 420, 421, 422, 423, 424, 425, 426, 427, 428, 429, 430, 431, 432, 433, 434, 435, 436, 437, 438, 439, 440, 441, 442, 443, 444, 445, 446, 447, 448, 449, 450, 451, 452, 453, 454, 455, 456, 457, 458, 459, 460, 461, 462, 463, 464, 465, 466, 467, 468, 469, 470, 471, 472, 473, 474, 475, 476, 477, 478, 479, 480, 481, 482, 483, 484, 485, 486, 487, 488, 489, 490, 491, 492, 493, 494, 495, 496, 497, 498, 499, 500, 501, 502, 503, 504, 505, 506, 507, 508, 509, 510, 511, 512, 513, 514, 515, 516, 517, 518, 519, 520, 521, 522, 523, 524, 525, 526, 527, 528, 529, 530, 531, 532, 533, 534, 535, 536, 537, 538, 539, 540, 541, 542, 543, 544, 545, 546, 547, 548, 549, 550, 551, 552, 553, 554, 555, 556, 557, 558, 559, 560, 561, 562, 563, 564, 565, 566, 567, 568, 569, 570, 571, 572, 573, 574, 575, 576, 577, 578, 579, 580, 581, 582, 583, 584, 585, 586, 587, 588, 589, 590, 591, 592, 593, 594, 595, 596, 597, 598, 599, 600, 601, 602, 603, 604, 605, 606, 607, 608, 609, 610, 611, 612, 613, 614, 615, 616, 617, 618, 619, 620, 621, 622, 623, 624, 625, 626, 627, 628, 629, 630, 631, 632, 633, 634, 635, 636, 637, 638, 639, 640, 641, 642, 643, 644, 645, 646, 647, 648, 649, 650, 651, 652, 653, 654, 655, 656, 657, 658, 659, 660, 661, 662, 663, 664, 665, 666, 667, 668, 669, 670, 671, 672, 673, 674, 675, 676, 677, 678, 679, 680, 681, 682, 683, 684, 685, 686, 687, 688, 689, 690, 691, 692, 693, 694, 695, 696, 697, 698, 699, 700, 701, 702, 703, 704, 705, 706, 707, 708, 709, 710, 711, 712, 713, 714, 715, 716, 717, 718, 719, 720, 721, 722, 723, 724, 725, 726, 727, 728, 729, 730, 731, 732, 733, 734, 735, 736, 737, 738, 739, 740, 741, 742, 743, 744, 745, 746, 747, 748, 749, 750, 751, 752, 753, 754, 755, 756, 757, 758, 759, 760, 761, 762, 763, 764, 765, 766, 767, 768, 769, 770, 771, 772, 773, 774, 775, 776, 777, 778, 779, 780, 781, 782, 783, 784, 785, 786, 787, 788, 789, 790, 791, 792, 793, 794, 795, 796, 797, 798, 799, 800, 801, 802, 803, 804, 805, 806, 807, 808, 809, 810, 811, 812, 813, 814, 815, 816, 817, 818, 819, 820, 821, 822, 823, 824, 825, 826, 827, 828, 829, 830, 831, 832, 833, 834, 835, 836, 837, 838, 839, 840, 841, 842, 843, 844, 845, 846, 847, 848, 849, 850, 851, 852, 853, 854, 855, 856, 857, 858, 859, 860, 861, 862, 863, 864, 865, 866, 867, 868, 869, 870, 871, 872],
      "AcquisitionTime": ["202632.982500", "202633.442500", "202633.902500", "202634.362500", "202634.822500", "202635.282500", "202635.742500", "202636.202500", "202636.662500", "202637.122500", "202637.582500", "202638.042500", "202638.502500", "202638.962500", "202639.422500", "202639.882500", "202640.342500", "202640.802500", "202641.262500", "202641.722500", "202642.182500", "202642.642500", "202643.102500", "202643.562500", "202644.022500", "202644.482500", "202644.942500", "202645.402500", "202645.862500", "202646.322500", "202646.782500", "202647.242500", "202647.702500", "202648.162500", "202648.622500", "202649.082500", "202649.542500", "202650.002500", "202650.462500", "202650.922500", "202651.382500", "202651.842500", "202652.302500", "202652.762500", "202653.222500", "202653.682500", "202654.142500", "202654.602500", "202655.062500", "202655.522500", "202655.982500", "202656.442500", "202656.902500", "202657.362500", "202657.822500", "202658.282500", "202658.742500", "202659.202500", "202659.662500", "202700.122500", "202700.582500", "202701.042500", "202701.502500", "202701.962500", "202702.422500", "202702.882500", "202703.342500", "202703.802500", "202704.262500", "202704.722500", "202705.182500", "202705.642500", "202706.102500", "202706.562500", "202707.022500", "202707.482500", "202707.942500", "202708.402500", "202708.862500", "202709.322500", "202709.782500", "202710.242500", "202710.702500", "202711.162500", "202711.622500", "202712.082500", "202712.542500", "202713.002500", "202713.462500", "202713.922500", "202714.382500", "202714.842500", "202715.302500", "202715.762500", "202716.222500", "202716.682500", "202717.142500", "202717.602500", "202718.062500", "202718.522500", "202718.982500", "202719.442500", "202719.902500", "202720.362500", "202720.822500", "202721.282500", "202721.742500", "202722.202500", "202722.662500", "202723.122500", "202723.582500", "202724.042500", "202724.502500", "202724.962500", "202725.422500", "202725.882500", "202726.342500", "202726.802500", "202727.262500", "202727.722500", "202728.182500", "202728.642500", "202729.102500", "202729.562500", "202730.022500", "202730.482500", "202730.942500", "202731.402500", "202731.862500", "202732.322500", "202732.782500", "202733.242500", "202733.702500", "202734.162500", "202734.622500", "202735.082500", "202735.542500", "202736.002500", "202736.462500", "202736.922500", "202737.382500", "202737.842500", "202738.302500", "202738.762500", "202739.222500", "202739.682500", "202740.142500", "202740.602500", "202741.062500", "202741.522500", "202741.982500", "202742.442500", "202742.902500", "202743.362500", "202743.822500", "202744.282500", "202744.742500", "202745.202500", "202745.662500", "202746.122500", "202746.582500", "202747.042500", "202747.502500", "202747.962500", "202748.422500", "202748.882500", "202749.342500", "202749.802500", "202750.262500", "202750.722500", "202751.182500", "202751.642500", "202752.102500", "202752.562500", "202753.022500", "202753.482500", "202753.942500", "202754.402500", "202754.862500", "202755.322500", "202755.782500", "202756.242500", "202756.702500", "202757.162500", "202757.622500", "202758.082500", "202758.542500", "202759.002500", "202759.462500", "202759.922500", "202800.382500", "202800.842500", "202801.302500", "202801.762500", "202802.222500", "202802.682500", "202803.142500", "202803.602500", "202804.062500", "202804.522500", "202804.982500", "202805.442500", "202805.902500", "202806.362500", "202806.822500", "202807.282500", "202807.742500", "202808.202500", "202808.662500", "202809.122500", "202809.582500", "202810.042500", "202810.502500", "202810.962500", "202811.422500", "202811.882500", "202812.342500", "202812.802500", "202813.262500", "202813.722500", "202814.182500", "202814.642500", "202815.102500", "202815.562500", "202816.022500", "202816.482500", "202816.942500", "202817.402500", "202817.862500", "202818.322500", "202818.782500", "202819.242500", "202819.702500", "202820.162500", "202820.622500", "202821.082500", "202821.542500", "202822.002500", "202822.462500", "202822.922500", "202823.382500", "202823.842500", "202824.302500", "202824.762500", "202825.222500", "202825.682500", "202826.142500", "202826.602500", "202827.062500", "202827.522500", "202827.982500", "202828.442500", "202828.902500", "202829.362500", "202829.822500", "202830.282500", "202830.742500", "202831.202500", "202831.662500", "202832.122500", "202832.582500", "202833.042500", "202833.502500", "202833.962500", "202834.422500", "202834.882500", "202835.342500", "202835.802500", "202836.262500", "202836.722500", "202837.182500", "202837.642500", "202838.102500", "202838.562500", "202839.022500", "202839.482500", "202839.942500", "202840.402500", "202840.862500", "202841.322500", "202841.782500", "202842.242500", "202842.702500", "202843.162500", "202843.622500", "202844.082500", "202844.542500", "202845.002500", "202845.462500", "202845.922500", "202846.382500", "202846.842500", "202847.302500", "202847.762500", "202848.222500", "202848.682500", "202849.142500", "202849.602500", "202850.062500", "202850.522500", "202850.982500", "202851.442500", "202851.902500", "202852.362500", "202852.822500", "202853.282500", "202853.742500", "202854.202500", "202854.662500", "202855.122500", "202855.582500", "202856.042500", "202856.502500", "202856.962500", "202857.422500", "202857.882500", "202858.342500", "202858.802500", "202859.262500", "202859.722500", "202900.182500", "202900.642500", "202901.102500", "202901.562500", "202902.022500", "202902.482500", "202902.942500", "202903.402500", "202903.862500", "202904.322500", "202904.782500", "202905.242500", "202905.702500", "202906.162500", "202906.622500", "202907.082500", "202907.542500", "202908.002500", "202908.462500", "202908.922500", "202909.382500", "202909.842500", "202910.302500", "202910.762500", "202911.222500", "202911.682500", "202912.142500", "202912.602500", "202913.062500", "202913.522500", "202913.982500", "202914.442500", "202914.902500", "202915.362500", "202915.822500", "202916.282500", "202916.742500", "202917.202500", "202917.662500", "202918.122500", "202918.582500", "202919.042500", "202919.502500", "202919.962500", "202920.422500", "202920.882500", "202921.342500", "202921.802500", "202922.262500", "202922.722500", "202923.182500", "202923.642500", "202924.102500", "202924.562500", "202925.022500", "202925.482500", "202925.942500", "202926.402500", "202926.862500", "202927.322500", "202927.782500", "202928.242500", "202928.702500", "202929.162500", "202929.622500", "202930.082500", "202930.542500", "202931.002500", "202931.462500", "202931.922500", "202932.382500", "202932.842500", "202933.302500", "202933.762500", "202934.222500", "202934.682500", "202935.142500", "202935.602500", "202936.062500", "202936.522500", "202936.982500", "202937.442500", "202937.902500", "202938.362500", "202938.822500", "202939.282500", "202939.742500", "202940.202500", "202940.662500", "202941.122500", "202941.582500", "202942.042500", "202942.502500", "202942.962500", "202943.422500", "202943.882500", "202944.342500", "202944.802500", "202945.262500", "202945.722500", "202946.182500", "202946.642500", "202947.102500", "202947.562500", "202948.022500", "202948.482500", "202948.942500", "202949.402500", "202949.862500", "202950.322500", "202950.782500", "202951.242500", "202951.702500", "202952.162500", "202952.622500", "202953.082500", "202953.542500", "202954.002500", "202954.462500", "202954.922500", "202955.382500", "202955.842500", "202956.302500", "202956.762500", "202957.222500", "202957.682500", "202958.142500", "202958.602500", "202959.062500", "202959.522500", "202959.982500", "203000.442500", "203000.902500", "203001.362500", "203001.822500", "203002.282500", "203002.742500", "203003.202500", "203003.662500", "203004.122500", "203004.582500", "203005.042500", "203005.502500", "203005.962500", "203006.422500", "203006.882500", "203007.342500", "203007.802500", "203008.262500", "203008.722500", "203009.182500", "203009.642500", "203010.102500", "203010.562500", "203011.022500", "203011.482500", "203011.942500", "203012.402500", "203012.862500", "203013.322500", "203013.782500", "203014.242500", "203014.702500", "203015.162500", "203015.622500", "203016.082500", "203016.542500", "203017.002500", "203017.462500", "203017.922500", "203018.382500", "203018.842500", "203019.302500", "203019.762500", "203020.222500", "203020.682500", "203021.142500", "203021.602500", "203022.062500", "203022.522500", "203022.982500", "203023.442500", "203023.902500", "203024.362500", "203024.822500", "203025.282500", "203025.742500", "203026.202500", "203026.662500", "203027.122500", "203027.582500", "203028.042500", "203028.502500", "203028.962500", "203029.422500", "203029.882500", "203030.342500", "203030.802500", "203031.262500", "203031.722500", "203032.182500", "203032.642500", "203033.102500", "203033.562500", "203034.022500", "203034.482500", "203034.942500", "203035.402500", "203035.862500", "203036.322500", "203036.782500", "203037.242500", "203037.702500", "203038.162500", "203038.622500", "203039.082500", "203039.542500", "203040.002500", "203040.462500", "203040.922500", "203041.382500", "203041.842500", "203042.302500", "203042.762500", "203043.222500", "203043.682500", "203044.142500", "203044.602500", "203045.062500", "203045.522500", "203045.982500", "203046.442500", "203046.902500", "203047.362500", "203047.822500", "203048.282500", "203048.742500", "203049.202500", "203049.662500", "203050.122500", "203050.582500", "203051.042500", "203051.502500", "203051.962500", "203052.422500", "203052.882500", "203053.342500", "203053.802500", "203054.262500", "203054.722500", "203055.182500", "203055.642500", "203056.102500", "203056.562500", "203057.022500", "203057.482500", "203057.942500", "203058.402500", "203058.862500", "203059.322500", "203059.782500", "203100.242500", "203100.702500", "203101.162500", "203101.622500", "203102.082500", "203102.542500", "203103.002500", "203103.462500", "203103.922500", "203104.382500", "203104.842500", "203105.302500", "203105.762500", "203106.222500", "203106.682500", "203107.142500", "203107.602500", "203108.062500", "203108.522500", "203108.982500", "203109.442500", "203109.902500", "203110.362500", "203110.822500", "203111.282500", "203111.742500", "203112.202500", "203112.662500", "203113.122500", "203113.582500", "203114.042500", "203114.502500", "203114.962500", "203115.422500", "203115.882500", "203116.342500", "203116.802500", "203117.262500", "203117.722500", "203118.182500", "203118.642500", "203119.102500", "203119.562500", "203120.022500", "203120.482500", "203120.942500", "203121.402500", "203121.862500", "203122.322500", "203122.782500", "203123.242500", "203123.702500", "203124.162500", "203124.622500", "203125.082500", "203125.542500", "203126.002500", "203126.462500", "203126.922500", "203127.382500", "203127.842500", "203128.302500", "203128.762500", "203129.222500", "203129.682500", "203130.142500", "203130.602500", "203131.062500", "203131.522500", "203131.982500", "203132.442500", "203132.902500", "203133.362500", "203133.822500", "203134.282500", "203134.742500", "203135.202500", "203135.662500", "203136.122500", "203136.582500", "203137.042500", "203137.502500", "203137.962500", "203138.422500", "203138.882500", "203139.342500", "203139.802500", "203140.262500", "203140.722500", "203141.182500", "203141.642500", "203142.102500", "203142.562500", "203143.022500", "203143.482500", "203143.942500", "203144.402500", "203144.862500", "203145.322500", "203145.782500", "203146.242500", "203146.702500", "203147.162500", "203147.622500", "203148.082500", "203148.542500", "203149.002500", "203149.462500", "203149.922500", "203150.382500", "203150.842500", "203151.302500", "203151.762500", "203152.222500", "203152.682500", "203153.142500", "203153.602500", "203154.062500", "203154.522500", "203154.982500", "203155.442500", "203155.902500", "203156.362500", "203156.822500", "203157.282500", "203157.742500", "203158.202500", "203158.662500", "203159.122500", "203159.582500", "203200.042500", "203200.502500", "203200.962500", "203201.422500", "203201.882500", "203202.342500", "203202.802500", "203203.262500", "203203.722500", "203204.182500", "203204.642500", "203205.102500", "203205.562500", "203206.022500", "203206.482500", "203206.942500", "203207.402500", "203207.862500", "203208.322500", "203208.782500", "203209.242500", "203209.702500", "203210.162500", "203210.622500", "203211.082500", "203211.542500", "203212.002500", "203212.462500", "203212.922500", "203213.382500", "203213.842500", "203214.302500", "203214.762500", "203215.222500", "203215.682500", "203216.142500", "203216.602500", "203217.062500", "203217.522500", "203217.982500", "203218.442500", "203218.902500", "203219.362500", "203219.822500", "203220.282500", "203220.742500", "203221.202500", "203221.662500", "203222.122500", "203222.582500", "203223.042500", "203223.502500", "203223.962500", "203224.422500", "203224.882500", "203225.342500", "203225.802500", "203226.262500", "203226.722500", "203227.182500", "203227.642500", "203228.102500", "203228.562500", "203229.022500", "203229.482500", "203229.942500", "203230.402500", "203230.862500", "203231.322500", "203231.782500", "203232.242500", "203232.702500", "203233.162500", "203233.622500", "203234.082500", "203234.542500", "203235.002500", "203235.462500", "203235.922500", "203236.382500", "203236.842500", "203237.302500", "203237.762500", "203238.222500", "203238.682500", "203239.142500", "203239.602500", "203240.062500", "203240.522500", "203240.982500", "203241.442500", "203241.902500", "203242.362500", "203242.822500", "203243.282500", "203243.742500", "203244.202500", "203244.662500", "203245.122500", "203245.582500", "203246.042500", "203246.502500", "203246.962500", "203247.422500", "203247.882500", "203248.342500", "203248.802500", "203249.262500", "203249.722500", "203250.182500", "203250.642500", "203251.102500", "203251.562500", "203252.022500", "203252.482500", "203252.942500", "203253.402500", "203253.862500", "203254.322500", "203254.782500", "203255.242500", "203255.702500", "203256.162500", "203256.622500", "203257.082500", "203257.542500", "203258.002500", "203258.462500", "203258.922500", "203259.382500", "203259.842500", "203300.302500", "203300.762500", "203301.222500", "203301.682500", "203302.142500", "203302.602500", "203303.062500", "203303.522500", "203303.982500", "203304.442500", "203304.902500", "203305.362500", "203305.822500", "203306.282500", "203306.742500", "203307.202500", "203307.662500", "203308.122500", "203308.582500", "203309.042500", "203309.502500", "203309.962500", "203310.422500", "203310.882500", "203311.342500", "203311.802500", "203312.262500", "203312.722500", "203313.182500", "203313.642500"],
