{
  "AcquisitionMatrixPE": 82,
  "AcquisitionNumber": 1,
  "AcquisitionTime": "21:00:4.412500",
  "BandwidthPerPixelPhaseEncode": 24.888,
  "BaseResolution": 82,
  "BodyPartExamined": "BRAIN",
  "ConsistencyInfo": "N4_VE11E_LATEST_20181129",
  "ConversionSoftware": "dcm2niix",
  "ConversionSoftwareVersion": "v1.0.20201102",
  "DerivedVendorReportedEchoSpacing": 0.00049,
  "DeviceSerialNumber": "66112",
  "DwellTime": 2e-06,
  "EchoTime": 0.0272,
  "EchoTrainLength": 82,
  "EffectiveEchoSpacing": 0.00049,
  "FlipAngle": 44,
  "ImageComments": "Unaliased MB8/PE3",
  "ImageOrientationPatientDICOM": [0.994704, 0.0975667, 0.0323147, -0.0970058, 0.995112, -0.0184976],
  "ImageType": [
    "ORIGINAL",
    "PRIMARY",
    "M",
    "MB",
    "ND",
    "NORM",
    "MOSAIC"
],
  "ImagingFrequency": 123.259,
  "InPlanePhaseEncodingDirectionDICOM": "COL",
  "InstitutionAddress": "Maynard 3,Hanover,NH,US,03755",
  "InstitutionName": "Dartmouth College - PBS",
  "InstitutionalDepartmentName": "Department",
  "MRAcquisitionType": "2D",
  "MagneticFieldStrength": 3,
  "Manufacturer": "Siemens",
  "ManufacturersModelName": "Prisma",
  "Modality": "MR",
  "MultibandAccelerationFactor": 8,
  "PartialFourier": 1,
  "PatientPosition": "HFS",
  "PercentPhaseFOV": 100,
  "PercentSampling": 100,
  "PhaseEncodingDirection": "j-",
  "PhaseEncodingSteps": 82,
  "PhaseResolution": 1,
  "PixelBandwidth": 3050,
  "ProcedureStepDescription": "Wager_Wager^1076_spacetop",
  "ProtocolName": "func_run-06_task-social_acq-ap-mb8",
  "PulseSequenceDetails": "%CustomerSeq%\\cmrr_mbep2d_bold",
  "ReceiveCoilActiveElements": "HEA;HEP",
  "ReceiveCoilName": "Head_32",
  "ReconMatrixPE": 82,
  "RepetitionTime": 0.46,
  "SAR": 0.0889012,
  "ScanOptions": "FS",
  "ScanningSequence": "EP",
  "SequenceName": "epfid2d1_82",
  "SequenceVariant": "SK\\SS",
  "SeriesDescription": "func_run-06_task-social_acq-ap-mb8",
  "SeriesNumber": 20,
  "ShimSetting": [4219, -7782, -7233, 225, -177, -91, -21, 91],
  "SliceThickness": 2.7,
  "SliceTiming": [0, 0.2525, 0.0625, 0.315, 0.1275, 0.3775, 0.19, 0, 0.2525, 0.0625, 0.315, 0.1275, 0.3775, 0.19, 0, 0.2525, 0.0625, 0.315, 0.1275, 0.3775, 0.19, 0, 0.2525, 0.0625, 0.315, 0.1275, 0.3775, 0.19, 0, 0.2525, 0.0625, 0.315, 0.1275, 0.3775, 0.19, 0, 0.2525, 0.0625, 0.315, 0.1275, 0.3775, 0.19, 0, 0.2525, 0.0625, 0.315, 0.1275, 0.3775, 0.19, 0, 0.2525, 0.0625, 0.315, 0.1275, 0.3775, 0.19],
  "SoftwareVersions": "syngo MR E11",
  "SpacingBetweenSlices": 2.7,
  "StationName": "AWP66112",
  "TaskName": "social",
  "TotalReadoutTime": 0.03969,
  "TxRefAmp": 261.806,
  "WipMemBlock": "2d29c775-d14a-4877-9187-d639a80bb4c1||Sequence: R016 ve11e/master r/434b28f1; Aug  7 2019 18:53:46 by eja",
  "dcmmeta_affine": [
    [-2.6687188148498535, -0.2602594494819641, 0.09169615060091019, 121.51197814941406],
    [-0.26176440715789795, 2.6698124408721924, -0.04121542349457741, -86.54476165771484],
    [0.08669808506965637, 0.049627840518951416, 2.698127508163452, -83.18268585205078],
    [0.0, 0.0, 0.0, 1.0]
],
  "dcmmeta_reorient_transform": [
    [0.0, -1.0, 0.0, 81.0],
    [1.0, 0.0, 0.0, 0.0],
    [0.0, 0.0, 1.0, 0.0],
    [0.0, 0.0, 0.0, 1.0]
],
  "dcmmeta_shape": [82, 82, 56, 872],
  "dcmmeta_slice_dim": 2,
  "dcmmeta_version": 0.6,
  "global": {
    "const": {
      "AccessionNumber": "A004932",
      "AcquisitionMatrix": [82, 0, 0, 82],
      "AngioFlag": "N",
      "BitsAllocated": 16,
      "BitsStored": 16,
      "BodyPartExamined": "BRAIN",
      "Columns": 656,
      "EchoNumbers": 1,
      "EchoTime": 27.2,
      "EchoTrainLength": 82,
      "FlipAngle": 44.0,
      "HighBit": 15,
      "ImageOrientationPatient": [0.9947042221711, 0.09756673605536, 0.0323147398332, -0.0970057954694, 0.99511190960716, -0.0184976485894],
      "ImagePositionPatient": [-791.65876750398, -971.07263104119, -89.801992549738],
      "ImageType": [
        "ORIGINAL",
        "PRIMARY",
        "M",
        "MB",
        "ND",
        "NORM",
        "MOSAIC"
],
      "ImagedNucleus": "1H",
      "ImagingFrequency": 123.259027,
      "InPlanePhaseEncodingDirection": "COL",
      "MRAcquisitionType": "2D",
      "MagneticFieldStrength": 3.0,
      "Manufacturer": "SIEMENS",
      "ManufacturerModelName": "Prisma",
      "Modality": "MR",
      "NumberOfAverages": 1.0,
      "NumberOfPhaseEncodingSteps": 82,
      "PercentPhaseFieldOfView": 100.0,
      "PercentSampling": 100.0,
      "PerformedProcedureStepStartTime": "200850.646000",
      "PhotometricInterpretation": "MONOCHROME2",
      "PixelBandwidth": 3050.0,
      "PixelRepresentation": 0,
      "PixelSpacing": [2.6829268932343, 2.6829268932343],
      "ProtocolName": "func_run-06_task-social_acq-ap-mb8",
      "RepetitionTime": 460.0,
      "Rows": 656,
      "SAR": 0.08890121212257,
      "SamplesPerPixel": 1,
      "ScanOptions": "FS",
      "ScanningSequence": "EP",
      "SequenceName": "epfid2d1_82",
      "SequenceVariant": [
        "SK",
        "SS"
],
      "SeriesDescription": "func_run-06_task-social_acq-ap-mb8",
      "SeriesNumber": 20,
      "SeriesTime": "210014.610000",
      "SliceLocation": -77.677167555465,
      "SliceThickness": 2.7000000476837,
      "SmallestImagePixelValue": 0,
      "SoftwareVersions": "syngo MR E11",
      "SpacingBetweenSlices": 2.6999999041885,
      "SpecificCharacterSet": "ISO_IR 100",
      "StudyID": "3",
      "StudyTime": "200850.589000",
      "TransmitCoilName": "Body",
      "VariableFlipAngleFlag": "N",
      "WindowCenterWidthExplanation": "Algo1"
    },
    "slices": {}
  },
  "time": {
    "samples": {
      "AcquisitionNumber": [1, 2, 3, 4, 5, 6, 7, 8, 9, 10, 11, 12, 13, 14, 15, 16, 17, 18, 19, 20, 21, 22, 23, 24, 25, 26, 27, 28, 29, 30, 31, 32, 33, 34, 35, 36, 37, 38, 39, 40, 41, 42, 43, 44, 45, 46, 47, 48, 49, 50, 51, 52, 53, 54, 55, 56, 57, 58, 59, 60, 61, 62, 63, 64, 65, 66, 67, 68, 69, 70, 71, 72, 73, 74, 75, 76, 77, 78, 79, 80, 81, 82, 83, 84, 85, 86, 87, 88, 89, 90, 91, 92, 93, 94, 95, 96, 97, 98, 99, 100, 101, 102, 103, 104, 105, 106, 107, 108, 109, 110, 111, 112, 113, 114, 115, 116, 117, 118, 119, 120, 121, 122, 123, 124, 125, 126, 127, 128, 129, 130, 131, 132, 133, 134, 135, 136, 137, 138, 139, 140, 141, 142, 143, 144, 145, 146, 147, 148, 149, 150, 151, 152, 153, 154, 155, 156, 157, 158, 159, 160, 161, 162, 163, 164, 165, 166, 167, 168, 169, 170, 171, 172, 173, 174, 175, 176, 177, 178, 179, 180, 181, 182, 183, 184, 185, 186, 187, 188, 189, 190, 191, 192, 193, 194, 195, 196, 197, 198, 199, 200, 201, 202, 203, 204, 205, 206, 207, 208, 209, 210, 211, 212, 213, 214, 215, 216, 217, 218, 219, 220, 221, 222, 223, 224, 225, 226, 227, 228, 229, 230, 231, 232, 233, 234, 235, 236, 237, 238, 239, 240, 241, 242, 243, 244, 245, 246, 247, 248, 249, 250, 251, 252, 253, 254, 255, 256, 257, 258, 259, 260, 261, 262, 263, 264, 265, 266, 267, 268, 269, 270, 271, 272, 273, 274, 275, 276, 277, 278, 279, 280, 281, 282, 283, 284, 285, 286, 287, 288, 289, 290, 291, 292, 293, 294, 295, 296, 297, 298, 299, 300, 301, 302, 303, 304, 305, 306, 307, 308, 309, 310, 311, 312, 313, 314, 315, 316, 317, 318, 319, 320, 321, 322, 323, 324, 325, 326, 327, 328, 329, 330, 331, 332, 333, 334, 335, 336, 337, 338, 339, 340, 341, 342, 343, 344, 345, 346, 347, 348, 349, 350, 351, 352, 353, 354, 355, 356, 357, 358, 359, 360, 361, 362, 363, 364, 365, 366, 367, 368, 369, 370, 371, 372, 373, 374, 375, 376, 377, 378, 379, 380, 381, 382, 383, 384, 385, 386, 387, 388, 389, 390, 391, 392, 393, 394, 395, 396, 397, 398, 399, 400, 401, 402, 403, 404, 405, 406, 407, 408, 409, 410, 411, 412, 413, 414, 415, 416, 417, 418, 419, 420, 421, 422, 423, 424, 425, 426, 427, 428, 429, 430, 431, 432, 433, 434, 435, 436, 437, 438, 439, 440, 441, 442, 443, 444, 445, 446, 447, 448, 449, 450, 451, 452, 453, 454, 455, 456, 457, 458, 459, 460, 461, 462, 463, 464, 465, 466, 467, 468, 469, 470, 471, 472, 473, 474, 475, 476, 477, 478, 479, 480, 481, 482, 483, 484, 485, 486, 487, 488, 489, 490, 491, 492, 493, 494, 495, 496, 497, 498, 499, 500, 501, 502, 503, 504, 505, 506, 507, 508, 509, 510, 511, 512, 513, 514, 515, 516, 517, 518, 519, 520, 521, 522, 523, 524, 525, 526, 527, 528, 529, 530, 531, 532, 533, 534, 535, 536, 537, 538, 539, 540, 541, 542, 543, 544, 545, 546, 547, 548, 549, 550, 551, 552, 553, 554, 555, 556, 557, 558, 559, 560, 561, 562, 563, 564, 565, 566, 567, 568, 569, 570, 571, 572, 573, 574, 575, 576, 577, 578, 579, 580, 581, 582, 583, 584, 585, 586, 587, 588, 589, 590, 591, 592, 593, 594, 595, 596, 597, 598, 599, 600, 601, 602, 603, 604, 605, 606, 607, 608, 609, 610, 611, 612, 613, 614, 615, 616, 617, 618, 619, 620, 621, 622, 623, 624, 625, 626, 627, 628, 629, 630, 631, 632, 633, 634, 635, 636, 637, 638, 639, 640, 641, 642, 643, 644, 645, 646, 647, 648, 649, 650, 651, 652, 653, 654, 655, 656, 657, 658, 659, 660, 661, 662, 663, 664, 665, 666, 667, 668, 669, 670, 671, 672, 673, 674, 675, 676, 677, 678, 679, 680, 681, 682, 683, 684, 685, 686, 687, 688, 689, 690, 691, 692, 693, 694, 695, 696, 697, 698, 699, 700, 701, 702, 703, 704, 705, 706, 707, 708, 709, 710, 711, 712, 713, 714, 715, 716, 717, 718, 719, 720, 721, 722, 723, 724, 725, 726, 727, 728, 729, 730, 731, 732, 733, 734, 735, 736, 737, 738, 739, 740, 741, 742, 743, 744, 745, 746, 747, 748, 749, 750, 751, 752, 753, 754, 755, 756, 757, 758, 759, 760, 761, 762, 763, 764, 765, 766, 767, 768, 769, 770, 771, 772, 773, 774, 775, 776, 777, 778, 779, 780, 781, 782, 783, 784, 785, 786, 787, 788, 789, 790, 791, 792, 793, 794, 795, 796, 797, 798, 799, 800, 801, 802, 803, 804, 805, 806, 807, 808, 809, 810, 811, 812, 813, 814, 815, 816, 817, 818, 819, 820, 821, 822, 823, 824, 825, 826, 827, 828, 829, 830, 831, 832, 833, 834, 835, 836, 837, 838, 839, 840, 841, 842, 843, 844, 845, 846, 847, 848, 849, 850, 851, 852, 853, 854, 855, 856, 857, 858, 859, 860, 861, 862, 863, 864, 865, 866, 867, 868, 869, 870, 871, 872],
      "AcquisitionTime": ["210004.412500", "210004.872500", "210005.332500", "210005.792500", "210006.252500", "210006.712500", "210007.172500", "210007.632500", "210008.092500", "210008.552500", "210009.012500", "210009.472500", "210009.932500", "210010.392500", "210010.852500", "210011.312500", "210011.772500", "210012.232500", "210012.692500", "210013.152500", "210013.612500", "210014.072500", "210014.532500", "210014.992500", "210015.452500", "210015.912500", "210016.372500", "210016.832500", "210017.292500", "210017.752500", "210018.212500", "210018.672500", "210019.132500", "210019.592500", "210020.052500", "210020.512500", "210020.972500", "210021.432500", "210021.892500", "210022.352500", "210022.812500", "210023.272500", "210023.732500", "210024.192500", "210024.652500", "210025.112500", "210025.572500", "210026.032500", "210026.492500", "210026.952500", "210027.412500", "210027.872500", "210028.332500", "210028.792500", "210029.252500", "210029.712500", "210030.172500", "210030.632500", "210031.092500", "210031.552500", "210032.012500", "210032.472500", "210032.932500", "210033.392500", "210033.852500", "210034.312500", "210034.772500", "210035.232500", "210035.692500", "210036.152500", "210036.612500", "210037.072500", "210037.532500", "210037.992500", "210038.452500", "210038.912500", "210039.372500", "210039.832500", "210040.292500", "210040.752500", "210041.212500", "210041.672500", "210042.132500", "210042.592500", "210043.052500", "210043.512500", "210043.972500", "210044.432500", "210044.892500", "210045.352500", "210045.812500", "210046.272500", "210046.732500", "210047.192500", "210047.652500", "210048.112500", "210048.572500", "210049.032500", "210049.492500", "210049.952500", "210050.412500", "210050.872500", "210051.332500", "210051.792500", "210052.252500", "210052.712500", "210053.172500", "210053.632500", "210054.092500", "210054.552500", "210055.012500", "210055.472500", "210055.932500", "210056.392500", "210056.852500", "210057.312500", "210057.772500", "210058.232500", "210058.692500", "210059.152500", "210059.612500", "210100.072500", "210100.532500", "210100.992500", "210101.452500", "210101.912500", "210102.372500", "210102.832500", "210103.292500", "210103.752500", "210104.212500", "210104.672500", "210105.132500", "210105.592500", "210106.052500", "210106.512500", "210106.972500", "210107.432500", "210107.892500", "210108.352500", "210108.812500", "210109.272500", "210109.732500", "210110.192500", "210110.652500", "210111.112500", "210111.572500", "210112.032500", "210112.492500", "210112.952500", "210113.412500", "210113.872500", "210114.332500", "210114.792500", "210115.252500", "210115.712500", "210116.172500", "210116.632500", "210117.092500", "210117.552500", "210118.012500", "210118.472500", "210118.932500", "210119.392500", "210119.852500", "210120.312500", "210120.772500", "210121.232500", "210121.692500", "210122.152500", "210122.612500", "210123.072500", "210123.532500", "210123.992500", "210124.452500", "210124.912500", "210125.372500", "210125.832500", "210126.292500", "210126.752500", "210127.212500", "210127.672500", "210128.132500", "210128.592500", "210129.052500", "210129.512500", "210129.972500", "210130.432500", "210130.892500", "210131.352500", "210131.812500", "210132.272500", "210132.732500", "210133.192500", "210133.652500", "210134.112500", "210134.572500", "210135.032500", "210135.492500", "210135.952500", "210136.412500", "210136.872500", "210137.332500", "210137.792500", "210138.252500", "210138.712500", "210139.172500", "210139.632500", "210140.092500", "210140.552500", "210141.012500", "210141.472500", "210141.932500", "210142.392500", "210142.852500", "210143.312500", "210143.772500", "210144.232500", "210144.692500", "210145.152500", "210145.612500", "210146.072500", "210146.532500", "210146.992500", "210147.452500", "210147.912500", "210148.372500", "210148.832500", "210149.292500", "210149.752500", "210150.212500", "210150.672500", "210151.132500", "210151.592500", "210152.052500", "210152.512500", "210152.972500", "210153.432500", "210153.892500", "210154.352500", "210154.812500", "210155.272500", "210155.732500", "210156.192500", "210156.652500", "210157.112500", "210157.572500", "210158.032500", "210158.492500", "210158.952500", "210159.412500", "210159.872500", "210200.332500", "210200.792500", "210201.252500", "210201.712500", "210202.172500", "210202.632500", "210203.092500", "210203.552500", "210204.012500", "210204.472500", "210204.932500", "210205.392500", "210205.852500", "210206.312500", "210206.772500", "210207.232500", "210207.692500", "210208.152500", "210208.612500", "210209.072500", "210209.532500", "210209.992500", "210210.452500", "210210.912500", "210211.372500", "210211.832500", "210212.292500", "210212.752500", "210213.212500", "210213.672500", "210214.132500", "210214.592500", "210215.052500", "210215.512500", "210215.972500", "210216.432500", "210216.892500", "210217.352500", "210217.812500", "210218.272500", "210218.732500", "210219.192500", "210219.652500", "210220.112500", "210220.572500", "210221.032500", "210221.492500", "210221.952500", "210222.412500", "210222.872500", "210223.332500", "210223.792500", "210224.252500", "210224.712500", "210225.172500", "210225.632500", "210226.092500", "210226.552500", "210227.012500", "210227.472500", "210227.932500", "210228.392500", "210228.852500", "210229.312500", "210229.772500", "210230.232500", "210230.692500", "210231.152500", "210231.612500", "210232.072500", "210232.532500", "210232.992500", "210233.452500", "210233.912500", "210234.372500", "210234.832500", "210235.292500", "210235.752500", "210236.212500", "210236.672500", "210237.132500", "210237.592500", "210238.052500", "210238.512500", "210238.972500", "210239.432500", "210239.892500", "210240.352500", "210240.812500", "210241.272500", "210241.732500", "210242.192500", "210242.652500", "210243.112500", "210243.572500", "210244.032500", "210244.492500", "210244.952500", "210245.412500", "210245.872500", "210246.332500", "210246.792500", "210247.252500", "210247.712500", "210248.172500", "210248.632500", "210249.092500", "210249.552500", "210250.012500", "210250.472500", "210250.932500", "210251.392500", "210251.852500", "210252.312500", "210252.772500", "210253.232500", "210253.692500", "210254.152500", "210254.612500", "210255.072500", "210255.532500", "210255.992500", "210256.452500", "210256.912500", "210257.372500", "210257.832500", "210258.292500", "210258.752500", "210259.212500", "210259.672500", "210300.132500", "210300.592500", "210301.052500", "210301.512500", "210301.972500", "210302.432500", "210302.892500", "210303.352500", "210303.812500", "210304.272500", "210304.732500", "210305.192500", "210305.652500", "210306.112500", "210306.572500", "210307.032500", "210307.492500", "210307.952500", "210308.412500", "210308.872500", "210309.332500", "210309.792500", "210310.252500", "210310.712500", "210311.172500", "210311.632500", "210312.092500", "210312.552500", "210313.012500", "210313.472500", "210313.932500", "210314.392500", "210314.852500", "210315.312500", "210315.772500", "210316.232500", "210316.692500", "210317.152500", "210317.612500", "210318.072500", "210318.532500", "210318.992500", "210319.452500", "210319.912500", "210320.372500", "210320.832500", "210321.292500", "210321.752500", "210322.212500", "210322.672500", "210323.132500", "210323.592500", "210324.052500", "210324.512500", "210324.972500", "210325.432500", "210325.892500", "210326.352500", "210326.812500", "210327.272500", "210327.732500", "210328.192500", "210328.652500", "210329.112500", "210329.572500", "210330.032500", "210330.492500", "210330.952500", "210331.412500", "210331.872500", "210332.332500", "210332.792500", "210333.252500", "210333.712500", "210334.172500", "210334.632500", "210335.092500", "210335.552500", "210336.012500", "210336.472500", "210336.932500", "210337.392500", "210337.852500", "210338.312500", "210338.772500", "210339.232500", "210339.692500", "210340.152500", "210340.612500", "210341.072500", "210341.532500", "210341.992500", "210342.452500", "210342.912500", "210343.372500", "210343.832500", "210344.292500", "210344.752500", "210345.212500", "210345.672500", "210346.132500", "210346.592500", "210347.052500", "210347.512500", "210347.972500", "210348.432500", "210348.892500", "210349.352500", "210349.812500", "210350.272500", "210350.732500", "210351.192500", "210351.652500", "210352.112500", "210352.572500", "210353.032500", "210353.492500", "210353.952500", "210354.412500", "210354.872500", "210355.332500", "210355.792500", "210356.252500", "210356.712500", "210357.172500", "210357.632500", "210358.092500", "210358.552500", "210359.012500", "210359.472500", "210359.932500", "210400.392500", "210400.852500", "210401.312500", "210401.772500", "210402.232500", "210402.692500", "210403.152500", "210403.612500", "210404.072500", "210404.532500", "210404.992500", "210405.452500", "210405.912500", "210406.372500", "210406.832500", "210407.292500", "210407.752500", "210408.212500", "210408.672500", "210409.132500", "210409.592500", "210410.052500", "210410.512500", "210410.972500", "210411.432500", "210411.892500", "210412.352500", "210412.812500", "210413.272500", "210413.732500", "210414.192500", "210414.652500", "210415.112500", "210415.572500", "210416.032500", "210416.492500", "210416.952500", "210417.412500", "210417.872500", "210418.332500", "210418.792500", "210419.252500", "210419.712500", "210420.172500", "210420.632500", "210421.092500", "210421.552500", "210422.012500", "210422.472500", "210422.932500", "210423.392500", "210423.852500", "210424.312500", "210424.772500", "210425.232500", "210425.692500", "210426.152500", "210426.612500", "210427.072500", "210427.532500", "210427.992500", "210428.452500", "210428.912500", "210429.372500", "210429.832500", "210430.292500", "210430.752500", "210431.212500", "210431.672500", "210432.132500", "210432.592500", "210433.052500", "210433.512500", "210433.972500", "210434.432500", "210434.892500", "210435.352500", "210435.812500", "210436.272500", "210436.732500", "210437.192500", "210437.652500", "210438.112500", "210438.572500", "210439.032500", "210439.492500", "210439.952500", "210440.412500", "210440.872500", "210441.332500", "210441.792500", "210442.252500", "210442.712500", "210443.172500", "210443.632500", "210444.092500", "210444.552500", "210445.012500", "210445.472500", "210445.932500", "210446.392500", "210446.852500", "210447.312500", "210447.772500", "210448.232500", "210448.692500", "210449.152500", "210449.612500", "210450.072500", "210450.532500", "210450.992500", "210451.452500", "210451.912500", "210452.372500", "210452.832500", "210453.292500", "210453.752500", "210454.212500", "210454.672500", "210455.132500", "210455.592500", "210456.052500", "210456.512500", "210456.972500", "210457.432500", "210457.892500", "210458.352500", "210458.812500", "210459.272500", "210459.732500", "210500.192500", "210500.652500", "210501.112500", "210501.572500", "210502.032500", "210502.492500", "210502.952500", "210503.412500", "210503.872500", "210504.332500", "210504.792500", "210505.252500", "210505.712500", "210506.172500", "210506.632500", "210507.092500", "210507.552500", "210508.012500", "210508.472500", "210508.932500", "210509.392500", "210509.852500", "210510.312500", "210510.772500", "210511.232500", "210511.692500", "210512.152500", "210512.612500", "210513.072500", "210513.532500", "210513.992500", "210514.452500", "210514.912500", "210515.372500", "210515.832500", "210516.292500", "210516.752500", "210517.212500", "210517.672500", "210518.132500", "210518.592500", "210519.052500", "210519.512500", "210519.972500", "210520.432500", "210520.892500", "210521.352500", "210521.812500", "210522.272500", "210522.732500", "210523.192500", "210523.652500", "210524.112500", "210524.572500", "210525.032500", "210525.492500", "210525.952500", "210526.412500", "210526.872500", "210527.332500", "210527.792500", "210528.252500", "210528.712500", "210529.172500", "210529.632500", "210530.092500", "210530.552500", "210531.012500", "210531.472500", "210531.932500", "210532.392500", "210532.852500", "210533.312500", "210533.772500", "210534.232500", "210534.692500", "210535.152500", "210535.612500", "210536.072500", "210536.532500", "210536.992500", "210537.452500", "210537.912500", "210538.372500", "210538.832500", "210539.292500", "210539.752500", "210540.212500", "210540.672500", "210541.132500", "210541.592500", "210542.052500", "210542.512500", "210542.972500", "210543.432500", "210543.892500", "210544.352500", "210544.812500", "210545.272500", "210545.732500", "210546.192500", "210546.652500", "210547.112500", "210547.572500", "210548.032500", "210548.492500", "210548.952500", "210549.412500", "210549.872500", "210550.332500", "210550.792500", "210551.252500", "210551.712500", "210552.172500", "210552.632500", "210553.092500", "210553.552500", "210554.012500", "210554.472500", "210554.932500", "210555.392500", "210555.852500", "210556.312500", "210556.772500", "210557.232500", "210557.692500", "210558.152500", "210558.612500", "210559.072500", "210559.532500", "210559.992500", "210600.452500", "210600.912500", "210601.372500", "210601.832500", "210602.292500", "210602.752500", "210603.212500", "210603.672500", "210604.132500", "210604.592500", "210605.052500", "210605.512500", "210605.972500", "210606.432500", "210606.892500", "210607.352500", "210607.812500", "210608.272500", "210608.732500", "210609.192500", "210609.652500", "210610.112500", "210610.572500", "210611.032500", "210611.492500", "210611.952500", "210612.412500", "210612.872500", "210613.332500", "210613.792500", "210614.252500", "210614.712500", "210615.172500", "210615.632500", "210616.092500", "210616.552500", "210617.012500", "210617.472500", "210617.932500", "210618.392500", "210618.852500", "210619.312500", "210619.772500", "210620.232500", "210620.692500", "210621.152500", "210621.612500", "210622.072500", "210622.532500", "210622.992500", "210623.452500", "210623.912500", "210624.372500", "210624.832500", "210625.292500", "210625.752500", "210626.212500", "210626.672500", "210627.132500", "210627.592500", "210628.052500", "210628.512500", "210628.972500", "210629.432500", "210629.892500", "210630.352500", "210630.812500", "210631.272500", "210631.732500", "210632.192500", "210632.652500", "210633.112500", "210633.572500", "210634.032500", "210634.492500", "210634.952500", "210635.412500", "210635.872500", "210636.332500", "210636.792500", "210637.252500", "210637.712500", "210638.172500", "210638.632500", "210639.092500", "210639.552500", "210640.012500", "210640.472500", "210640.932500", "210641.392500", "210641.852500", "210642.312500", "210642.772500", "210643.232500", "210643.692500", "210644.152500", "210644.612500", "210645.072500"],
