{
  "AcquisitionMatrixPE": 82,
  "AcquisitionNumber": 1,
  "AcquisitionTime": "12:40:9.450000",
  "BandwidthPerPixelPhaseEncode": 24.888,
  "BaseResolution": 82,
  "BodyPartExamined": "BRAIN",
  "ConsistencyInfo": "N4_VE11E_LATEST_20181129",
  "ConversionSoftware": "dcm2niix",
  "ConversionSoftwareVersion": "v1.0.20201102",
  "DerivedVendorReportedEchoSpacing": 0.00049,
  "DeviceSerialNumber": "66112",
  "DwellTime": 2e-06,
  "EchoTime": 0.0272,
  "EchoTrainLength": 82,
  "EffectiveEchoSpacing": 0.00049,
  "FlipAngle": 44,
  "ImageComments": "Unaliased MB8/PE3",
  "ImageOrientationPatientDICOM": [0.999588, 0.0207368, 0.0198519, -0.0170989, 0.98555, -0.168517],
  "ImageType": [
    "ORIGINAL",
    "PRIMARY",
    "M",
    "MB",
    "ND",
    "NORM",
    "MOSAIC"
],
  "ImagingFrequency": 123.259,
  "InPlanePhaseEncodingDirectionDICOM": "COL",
  "InstitutionAddress": "Maynard 3,Hanover,NH,US,03755",
  "InstitutionName": "Dartmouth College - PBS",
  "InstitutionalDepartmentName": "Department",
  "MRAcquisitionType": "2D",
  "MagneticFieldStrength": 3,
  "Manufacturer": "Siemens",
  "ManufacturersModelName": "Prisma",
  "Modality": "MR",
  "MultibandAccelerationFactor": 8,
  "PartialFourier": 1,
  "PatientPosition": "HFS",
  "PercentPhaseFOV": 100,
  "PercentSampling": 100,
  "PhaseEncodingDirection": "j-",
  "PhaseEncodingSteps": 82,
  "PhaseResolution": 1,
  "PixelBandwidth": 3050,
  "ProcedureStepDescription": "Wager_Wager^1076_spacetop",
  "ProtocolName": "func_run-05_task-social_acq-ap-mb8",
  "PulseSequenceDetails": "%CustomerSeq%\\cmrr_mbep2d_bold",
  "ReceiveCoilActiveElements": "HEA;HEP",
  "ReceiveCoilName": "Head_32",
  "ReconMatrixPE": 82,
  "RepetitionTime": 0.46,
  "SAR": 0.124025,
  "ScanOptions": "FS",
  "ScanningSequence": "EP",
  "SequenceName": "epfid2d1_82",
  "SequenceVariant": "SK\\SS",
  "SeriesDescription": "func_run-05_task-social_acq-ap-mb8",
  "SeriesNumber": 20,
  "ShimSetting": [4227, -7746, -7226, 27, -175, -137, -42, 65],
  "SliceThickness": 2.7,
  "SliceTiming": [0, 0.2525, 0.0625, 0.315, 0.1275, 0.3775, 0.19, 0, 0.2525, 0.0625, 0.315, 0.1275, 0.3775, 0.19, 0, 0.2525, 0.0625, 0.315, 0.1275, 0.3775, 0.19, 0, 0.2525, 0.0625, 0.315, 0.1275, 0.3775, 0.19, 0, 0.2525, 0.0625, 0.315, 0.1275, 0.3775, 0.19, 0, 0.2525, 0.0625, 0.315, 0.1275, 0.3775, 0.19, 0, 0.2525, 0.0625, 0.315, 0.1275, 0.3775, 0.19, 0, 0.2525, 0.0625, 0.315, 0.1275, 0.3775, 0.19],
  "SoftwareVersions": "syngo MR E11",
  "SpacingBetweenSlices": 2.7,
  "StationName": "AWP66112",
  "TaskName": "social",
  "TotalReadoutTime": 0.03969,
  "TxRefAmp": 312.966,
  "WipMemBlock": "98ecaa65-be7c-4531-99be-8366400ce863||Sequence: R016 ve11e/master r/434b28f1; Aug  7 2019 18:53:46 by eja",
  "dcmmeta_affine": [
    [-2.68182110786438, -0.04587496817111969, 0.06226077303290367, 109.84159851074219],
    [-0.055635400116443634, 2.6441595554351807, -0.45389285683631897, -84.07157135009766],
    [0.05326114967465401, 0.45211976766586304, 2.660846710205078, -94.26454162597656],
    [0.0, 0.0, 0.0, 1.0]
],
  "dcmmeta_reorient_transform": [
    [0.0, -1.0, 0.0, 81.0],
    [1.0, 0.0, 0.0, 0.0],
    [0.0, 0.0, 1.0, 0.0],
    [0.0, 0.0, 0.0, 1.0]
],
  "dcmmeta_shape": [82, 82, 56, 872],
  "dcmmeta_slice_dim": 2,
  "dcmmeta_version": 0.6,
  "global": {
    "const": {
      "AccessionNumber": "A004358",
      "AcquisitionMatrix": [82, 0, 0, 82],
      "AngioFlag": "N",
      "BitsAllocated": 16,
      "BitsStored": 16,
      "BodyPartExamined": "BRAIN",
      "Columns": 656,
      "EchoNumbers": 1,
      "EchoTime": 27.2,
      "EchoTrainLength": 82,
      "FlipAngle": 44.0,
      "HighBit": 15,
      "ImageOrientationPatient": [0.99958785837253, 0.02073683087867, 0.01985188251343, -0.0170988515524, 0.98555036784606, -0.1685173632421],
      "ImagePositionPatient": [-862.64228097663, -904.94651522207, 56.829585816151],
      "ImageType": [
        "ORIGINAL",
        "PRIMARY",
        "M",
        "MB",
        "ND",
        "NORM",
        "MOSAIC"
],
      "ImagedNucleus": "1H",
      "ImagingFrequency": 123.259085,
      "InPlanePhaseEncodingDirection": "COL",
      "MRAcquisitionType": "2D",
      "MagneticFieldStrength": 3.0,
      "Manufacturer": "SIEMENS",
      "ManufacturerModelName": "Prisma",
      "Modality": "MR",
      "NumberOfAverages": 1.0,
      "NumberOfPhaseEncodingSteps": 82,
      "PercentPhaseFieldOfView": 100.0,
      "PercentSampling": 100.0,
      "PerformedProcedureStepStartTime": "113350.578000",
      "PhotometricInterpretation": "MONOCHROME2",
      "PixelBandwidth": 3050.0,
      "PixelRepresentation": 0,
      "PixelSpacing": [2.6829268932343, 2.6829268932343],
      "ProtocolName": "func_run-05_task-social_acq-ap-mb8",
      "RepetitionTime": 460.0,
      "Rows": 656,
      "SAR": 0.1240252893052,
      "SamplesPerPixel": 1,
      "ScanOptions": "FS",
      "ScanningSequence": "EP",
      "SequenceName": "epfid2d1_82",
      "SequenceVariant": [
        "SK",
        "SS"
],
      "SeriesDescription": "func_run-05_task-social_acq-ap-mb8",
      "SeriesNumber": 20,
      "SeriesTime": "124027.297000",
      "SliceLocation": -76.231544609587,
      "SliceThickness": 2.7000000476837,
      "SmallestImagePixelValue": 0,
      "SoftwareVersions": "syngo MR E11",
      "SpacingBetweenSlices": 2.6999999949793,
      "SpecificCharacterSet": "ISO_IR 100",
      "StudyID": "4",
      "StudyTime": "113350.443000",
      "TransmitCoilName": "Body",
      "VariableFlipAngleFlag": "N",
      "WindowCenterWidthExplanation": "Algo1"
    },
    "slices": {}
  },
  "time": {
    "samples": {
      "AcquisitionNumber": [1, 2, 3, 4, 5, 6, 7, 8, 9, 10, 11, 12, 13, 14, 15, 16, 17, 18, 19, 20, 21, 22, 23, 24, 25, 26, 27, 28, 29, 30, 31, 32, 33, 34, 35, 36, 37, 38, 39, 40, 41, 42, 43, 44, 45, 46, 47, 48, 49, 50, 51, 52, 53, 54, 55, 56, 57, 58, 59, 60, 61, 62, 63, 64, 65, 66, 67, 68, 69, 70, 71, 72, 73, 74, 75, 76, 77, 78, 79, 80, 81, 82, 83, 84, 85, 86, 87, 88, 89, 90, 91, 92, 93, 94, 95, 96, 97, 98, 99, 100, 101, 102, 103, 104, 105, 106, 107, 108, 109, 110, 111, 112, 113, 114, 115, 116, 117, 118, 119, 120, 121, 122, 123, 124, 125, 126, 127, 128, 129, 130, 131, 132, 133, 134, 135, 136, 137, 138, 139, 140, 141, 142, 143, 144, 145, 146, 147, 148, 149, 150, 151, 152, 153, 154, 155, 156, 157, 158, 159, 160, 161, 162, 163, 164, 165, 166, 167, 168, 169, 170, 171, 172, 173, 174, 175, 176, 177, 178, 179, 180, 181, 182, 183, 184, 185, 186, 187, 188, 189, 190, 191, 192, 193, 194, 195, 196, 197, 198, 199, 200, 201, 202, 203, 204, 205, 206, 207, 208, 209, 210, 211, 212, 213, 214, 215, 216, 217, 218, 219, 220, 221, 222, 223, 224, 225, 226, 227, 228, 229, 230, 231, 232, 233, 234, 235, 236, 237, 238, 239, 240, 241, 242, 243, 244, 245, 246, 247, 248, 249, 250, 251, 252, 253, 254, 255, 256, 257, 258, 259, 260, 261, 262, 263, 264, 265, 266, 267, 268, 269, 270, 271, 272, 273, 274, 275, 276, 277, 278, 279, 280, 281, 282, 283, 284, 285, 286, 287, 288, 289, 290, 291, 292, 293, 294, 295, 296, 297, 298, 299, 300, 301, 302, 303, 304, 305, 306, 307, 308, 309, 310, 311, 312, 313, 314, 315, 316, 317, 318, 319, 320, 321, 322, 323, 324, 325, 326, 327, 328, 329, 330, 331, 332, 333, 334, 335, 336, 337, 338, 339, 340, 341, 342, 343, 344, 345, 346, 347, 348, 349, 350, 351, 352, 353, 354, 355, 356, 357, 358, 359, 360, 361, 362, 363, 364, 365, 366, 367, 368, 369, 370, 371, 372, 373, 374, 375, 376, 377, 378, 379, 380, 381, 382, 383, 384, 385, 386, 387, 388, 389, 390, 391, 392, 393, 394, 395, 396, 397, 398, 399, 400, 401, 402, 403, 404, 405, 406, 407, 408, 409, 410, 411, 412, 413, 414, 415, 416, 417, 418, 419, 420, 421, 422, 423, 424, 425, 426, 427, 428, 429, 430, 431, 432, 433, 434, 435, 436, 437, 438, 439, 440, 441, 442, 443, 444, 445, 446, 447, 448, 449, 450, 451, 452, 453, 454, 455, 456, 457, 458, 459, 460, 461, 462, 463, 464, 465, 466, 467, 468, 469, 470, 471, 472, 473, 474, 475, 476, 477, 478, 479, 480, 481, 482, 483, 484, 485, 486, 487, 488, 489, 490, 491, 492, 493, 494, 495, 496, 497, 498, 499, 500, 501, 502, 503, 504, 505, 506, 507, 508, 509, 510, 511, 512, 513, 514, 515, 516, 517, 518, 519, 520, 521, 522, 523, 524, 525, 526, 527, 528, 529, 530, 531, 532, 533, 534, 535, 536, 537, 538, 539, 540, 541, 542, 543, 544, 545, 546, 547, 548, 549, 550, 551, 552, 553, 554, 555, 556, 557, 558, 559, 560, 561, 562, 563, 564, 565, 566, 567, 568, 569, 570, 571, 572, 573, 574, 575, 576, 577, 578, 579, 580, 581, 582, 583, 584, 585, 586, 587, 588, 589, 590, 591, 592, 593, 594, 595, 596, 597, 598, 599, 600, 601, 602, 603, 604, 605, 606, 607, 608, 609, 610, 611, 612, 613, 614, 615, 616, 617, 618, 619, 620, 621, 622, 623, 624, 625, 626, 627, 628, 629, 630, 631, 632, 633, 634, 635, 636, 637, 638, 639, 640, 641, 642, 643, 644, 645, 646, 647, 648, 649, 650, 651, 652, 653, 654, 655, 656, 657, 658, 659, 660, 661, 662, 663, 664, 665, 666, 667, 668, 669, 670, 671, 672, 673, 674, 675, 676, 677, 678, 679, 680, 681, 682, 683, 684, 685, 686, 687, 688, 689, 690, 691, 692, 693, 694, 695, 696, 697, 698, 699, 700, 701, 702, 703, 704, 705, 706, 707, 708, 709, 710, 711, 712, 713, 714, 715, 716, 717, 718, 719, 720, 721, 722, 723, 724, 725, 726, 727, 728, 729, 730, 731, 732, 733, 734, 735, 736, 737, 738, 739, 740, 741, 742, 743, 744, 745, 746, 747, 748, 749, 750, 751, 752, 753, 754, 755, 756, 757, 758, 759, 760, 761, 762, 763, 764, 765, 766, 767, 768, 769, 770, 771, 772, 773, 774, 775, 776, 777, 778, 779, 780, 781, 782, 783, 784, 785, 786, 787, 788, 789, 790, 791, 792, 793, 794, 795, 796, 797, 798, 799, 800, 801, 802, 803, 804, 805, 806, 807, 808, 809, 810, 811, 812, 813, 814, 815, 816, 817, 818, 819, 820, 821, 822, 823, 824, 825, 826, 827, 828, 829, 830, 831, 832, 833, 834, 835, 836, 837, 838, 839, 840, 841, 842, 843, 844, 845, 846, 847, 848, 849, 850, 851, 852, 853, 854, 855, 856, 857, 858, 859, 860, 861, 862, 863, 864, 865, 866, 867, 868, 869, 870, 871, 872],
      "AcquisitionTime": ["124009.450000", "124009.910000", "124010.370000", "124010.830000", "124011.290000", "124011.750000", "124012.210000", "124012.670000", "124013.130000", "124013.590000", "124014.050000", "124014.510000", "124014.970000", "124015.430000", "124015.890000", "124016.350000", "124016.810000", "124017.270000", "124017.730000", "124018.190000", "124018.650000", "124019.110000", "124019.570000", "124020.030000", "124020.490000", "124020.950000", "124021.410000", "124021.870000", "124022.330000", "124022.790000", "124023.250000", "124023.710000", "124024.170000", "124024.630000", "124025.090000", "124025.550000", "124026.010000", "124026.470000", "124026.930000", "124027.390000", "124027.850000", "124028.310000", "124028.770000", "124029.230000", "124029.690000", "124030.150000", "124030.610000", "124031.070000", "124031.530000", "124031.990000", "124032.450000", "124032.910000", "124033.370000", "124033.830000", "124034.290000", "124034.750000", "124035.210000", "124035.670000", "124036.130000", "124036.590000", "124037.050000", "124037.510000", "124037.970000", "124038.430000", "124038.890000", "124039.350000", "124039.810000", "124040.270000", "124040.730000", "124041.190000", "124041.650000", "124042.110000", "124042.570000", "124043.030000", "124043.490000", "124043.950000", "124044.410000", "124044.870000", "124045.330000", "124045.790000", "124046.250000", "124046.710000", "124047.170000", "124047.630000", "124048.090000", "124048.550000", "124049.010000", "124049.470000", "124049.930000", "124050.390000", "124050.850000", "124051.310000", "124051.770000", "124052.230000", "124052.690000", "124053.150000", "124053.610000", "124054.070000", "124054.530000", "124054.990000", "124055.450000", "124055.910000", "124056.370000", "124056.830000", "124057.290000", "124057.750000", "124058.210000", "124058.670000", "124059.130000", "124059.590000", "124100.050000", "124100.510000", "124100.970000", "124101.430000", "124101.890000", "124102.350000", "124102.810000", "124103.270000", "124103.730000", "124104.190000", "124104.650000", "124105.110000", "124105.570000", "124106.030000", "124106.490000", "124106.950000", "124107.410000", "124107.870000", "124108.330000", "124108.790000", "124109.250000", "124109.710000", "124110.170000", "124110.630000", "124111.090000", "124111.550000", "124112.010000", "124112.470000", "124112.930000", "124113.390000", "124113.850000", "124114.310000", "124114.770000", "124115.230000", "124115.690000", "124116.150000", "124116.610000", "124117.070000", "124117.530000", "124117.990000", "124118.450000", "124118.910000", "124119.370000", "124119.830000", "124120.290000", "124120.750000", "124121.210000", "124121.670000", "124122.130000", "124122.590000", "124123.050000", "124123.510000", "124123.970000", "124124.430000", "124124.890000", "124125.350000", "124125.810000", "124126.270000", "124126.730000", "124127.190000", "124127.650000", "124128.110000", "124128.570000", "124129.030000", "124129.490000", "124129.950000", "124130.410000", "124130.870000", "124131.330000", "124131.790000", "124132.250000", "124132.710000", "124133.170000", "124133.630000", "124134.090000", "124134.550000", "124135.010000", "124135.470000", "124135.930000", "124136.390000", "124136.850000", "124137.310000", "124137.770000", "124138.230000", "124138.690000", "124139.150000", "124139.610000", "124140.070000", "124140.530000", "124140.990000", "124141.450000", "124141.910000", "124142.370000", "124142.830000", "124143.290000", "124143.750000", "124144.210000", "124144.670000", "124145.130000", "124145.590000", "124146.050000", "124146.510000", "124146.970000", "124147.430000", "124147.890000", "124148.350000", "124148.810000", "124149.270000", "124149.730000", "124150.190000", "124150.650000", "124151.110000", "124151.570000", "124152.030000", "124152.490000", "124152.950000", "124153.410000", "124153.870000", "124154.330000", "124154.790000", "124155.250000", "124155.710000", "124156.170000", "124156.630000", "124157.090000", "124157.550000", "124158.010000", "124158.470000", "124158.930000", "124159.390000", "124159.850000", "124200.310000", "124200.770000", "124201.230000", "124201.690000", "124202.150000", "124202.610000", "124203.070000", "124203.530000", "124203.990000", "124204.450000", "124204.910000", "124205.370000", "124205.830000", "124206.290000", "124206.750000", "124207.210000", "124207.670000", "124208.130000", "124208.590000", "124209.050000", "124209.510000", "124209.970000", "124210.430000", "124210.890000", "124211.350000", "124211.810000", "124212.270000", "124212.730000", "124213.190000", "124213.650000", "124214.110000", "124214.570000", "124215.030000", "124215.490000", "124215.950000", "124216.410000", "124216.870000", "124217.330000", "124217.790000", "124218.250000", "124218.710000", "124219.170000", "124219.630000", "124220.090000", "124220.550000", "124221.010000", "124221.470000", "124221.930000", "124222.390000", "124222.850000", "124223.310000", "124223.770000", "124224.230000", "124224.690000", "124225.150000", "124225.610000", "124226.070000", "124226.530000", "124226.990000", "124227.450000", "124227.910000", "124228.370000", "124228.830000", "124229.290000", "124229.750000", "124230.210000", "124230.670000", "124231.130000", "124231.590000", "124232.050000", "124232.510000", "124232.970000", "124233.430000", "124233.890000", "124234.350000", "124234.810000", "124235.270000", "124235.730000", "124236.190000", "124236.650000", "124237.110000", "124237.570000", "124238.030000", "124238.490000", "124238.950000", "124239.410000", "124239.870000", "124240.330000", "124240.790000", "124241.250000", "124241.710000", "124242.170000", "124242.630000", "124243.090000", "124243.550000", "124244.010000", "124244.470000", "124244.930000", "124245.390000", "124245.850000", "124246.310000", "124246.770000", "124247.230000", "124247.690000", "124248.150000", "124248.610000", "124249.070000", "124249.530000", "124249.990000", "124250.450000", "124250.910000", "124251.370000", "124251.830000", "124252.290000", "124252.750000", "124253.210000", "124253.670000", "124254.130000", "124254.590000", "124255.050000", "124255.510000", "124255.970000", "124256.430000", "124256.890000", "124257.350000", "124257.810000", "124258.270000", "124258.730000", "124259.190000", "124259.650000", "124300.110000", "124300.570000", "124301.030000", "124301.490000", "124301.950000", "124302.410000", "124302.870000", "124303.330000", "124303.790000", "124304.250000", "124304.710000", "124305.170000", "124305.630000", "124306.090000", "124306.550000", "124307.010000", "124307.470000", "124307.930000", "124308.390000", "124308.850000", "124309.310000", "124309.770000", "124310.230000", "124310.690000", "124311.150000", "124311.610000", "124312.070000", "124312.530000", "124312.990000", "124313.450000", "124313.910000", "124314.370000", "124314.830000", "124315.290000", "124315.750000", "124316.210000", "124316.670000", "124317.130000", "124317.590000", "124318.050000", "124318.510000", "124318.970000", "124319.430000", "124319.890000", "124320.350000", "124320.810000", "124321.270000", "124321.730000", "124322.190000", "124322.650000", "124323.110000", "124323.570000", "124324.030000", "124324.490000", "124324.950000", "124325.410000", "124325.870000", "124326.330000", "124326.790000", "124327.250000", "124327.710000", "124328.170000", "124328.630000", "124329.090000", "124329.550000", "124330.010000", "124330.470000", "124330.930000", "124331.390000", "124331.850000", "124332.310000", "124332.770000", "124333.230000", "124333.690000", "124334.150000", "124334.610000", "124335.070000", "124335.530000", "124335.990000", "124336.450000", "124336.910000", "124337.370000", "124337.830000", "124338.290000", "124338.750000", "124339.210000", "124339.670000", "124340.130000", "124340.590000", "124341.050000", "124341.510000", "124341.970000", "124342.430000", "124342.890000", "124343.350000", "124343.810000", "124344.270000", "124344.730000", "124345.190000", "124345.650000", "124346.110000", "124346.570000", "124347.030000", "124347.490000", "124347.950000", "124348.410000", "124348.870000", "124349.330000", "124349.790000", "124350.250000", "124350.710000", "124351.170000", "124351.630000", "124352.090000", "124352.550000", "124353.010000", "124353.470000", "124353.930000", "124354.390000", "124354.850000", "124355.310000", "124355.770000", "124356.230000", "124356.690000", "124357.150000", "124357.610000", "124358.070000", "124358.530000", "124358.990000", "124359.450000", "124359.910000", "124400.370000", "124400.830000", "124401.290000", "124401.750000", "124402.210000", "124402.670000", "124403.130000", "124403.590000", "124404.050000", "124404.510000", "124404.970000", "124405.430000", "124405.890000", "124406.350000", "124406.810000", "124407.270000", "124407.730000", "124408.190000", "124408.650000", "124409.110000", "124409.570000", "124410.030000", "124410.490000", "124410.950000", "124411.410000", "124411.870000", "124412.330000", "124412.790000", "124413.250000", "124413.710000", "124414.170000", "124414.630000", "124415.090000", "124415.550000", "124416.010000", "124416.470000", "124416.930000", "124417.390000", "124417.850000", "124418.310000", "124418.770000", "124419.230000", "124419.690000", "124420.150000", "124420.610000", "124421.070000", "124421.530000", "124421.990000", "124422.450000", "124422.910000", "124423.370000", "124423.830000", "124424.290000", "124424.750000", "124425.210000", "124425.670000", "124426.130000", "124426.590000", "124427.050000", "124427.510000", "124427.970000", "124428.430000", "124428.890000", "124429.350000", "124429.810000", "124430.270000", "124430.730000", "124431.190000", "124431.650000", "124432.110000", "124432.570000", "124433.030000", "124433.490000", "124433.950000", "124434.410000", "124434.870000", "124435.330000", "124435.790000", "124436.250000", "124436.710000", "124437.170000", "124437.630000", "124438.090000", "124438.550000", "124439.010000", "124439.470000", "124439.930000", "124440.390000", "124440.850000", "124441.310000", "124441.770000", "124442.230000", "124442.690000", "124443.150000", "124443.610000", "124444.070000", "124444.530000", "124444.990000", "124445.450000", "124445.910000", "124446.370000", "124446.830000", "124447.290000", "124447.750000", "124448.210000", "124448.670000", "124449.130000", "124449.590000", "124450.050000", "124450.510000", "124450.970000", "124451.430000", "124451.890000", "124452.350000", "124452.810000", "124453.270000", "124453.730000", "124454.190000", "124454.650000", "124455.110000", "124455.570000", "124456.030000", "124456.490000", "124456.950000", "124457.410000", "124457.870000", "124458.330000", "124458.790000", "124459.250000", "124459.710000", "124500.170000", "124500.630000", "124501.090000", "124501.550000", "124502.010000", "124502.470000", "124502.930000", "124503.390000", "124503.850000", "124504.310000", "124504.770000", "124505.230000", "124505.690000", "124506.150000", "124506.610000", "124507.070000", "124507.530000", "124507.990000", "124508.450000", "124508.910000", "124509.370000", "124509.830000", "124510.290000", "124510.750000", "124511.210000", "124511.670000", "124512.130000", "124512.590000", "124513.050000", "124513.510000", "124513.970000", "124514.430000", "124514.890000", "124515.350000", "124515.810000", "124516.270000", "124516.730000", "124517.190000", "124517.650000", "124518.110000", "124518.570000", "124519.030000", "124519.490000", "124519.950000", "124520.410000", "124520.870000", "124521.330000", "124521.790000", "124522.250000", "124522.710000", "124523.170000", "124523.630000", "124524.090000", "124524.550000", "124525.010000", "124525.470000", "124525.930000", "124526.390000", "124526.850000", "124527.310000", "124527.770000", "124528.230000", "124528.690000", "124529.150000", "124529.610000", "124530.070000", "124530.530000", "124530.990000", "124531.450000", "124531.910000", "124532.370000", "124532.830000", "124533.290000", "124533.750000", "124534.210000", "124534.670000", "124535.130000", "124535.590000", "124536.050000", "124536.510000", "124536.970000", "124537.430000", "124537.890000", "124538.350000", "124538.810000", "124539.270000", "124539.730000", "124540.190000", "124540.650000", "124541.110000", "124541.570000", "124542.030000", "124542.490000", "124542.950000", "124543.410000", "124543.870000", "124544.330000", "124544.790000", "124545.250000", "124545.710000", "124546.170000", "124546.630000", "124547.090000", "124547.550000", "124548.010000", "124548.470000", "124548.930000", "124549.390000", "124549.850000", "124550.310000", "124550.770000", "124551.230000", "124551.690000", "124552.150000", "124552.610000", "124553.070000", "124553.530000", "124553.990000", "124554.450000", "124554.910000", "124555.370000", "124555.830000", "124556.290000", "124556.750000", "124557.210000", "124557.670000", "124558.130000", "124558.590000", "124559.050000", "124559.510000", "124559.970000", "124600.430000", "124600.890000", "124601.350000", "124601.810000", "124602.270000", "124602.730000", "124603.190000", "124603.650000", "124604.110000", "124604.570000", "124605.030000", "124605.490000", "124605.950000", "124606.410000", "124606.870000", "124607.330000", "124607.790000", "124608.250000", "124608.710000", "124609.170000", "124609.630000", "124610.090000", "124610.550000", "124611.010000", "124611.470000", "124611.930000", "124612.390000", "124612.850000", "124613.310000", "124613.770000", "124614.230000", "124614.690000", "124615.150000", "124615.610000", "124616.070000", "124616.530000", "124616.990000", "124617.450000", "124617.910000", "124618.370000", "124618.830000", "124619.290000", "124619.750000", "124620.210000", "124620.670000", "124621.130000", "124621.590000", "124622.050000", "124622.510000", "124622.970000", "124623.430000", "124623.890000", "124624.350000", "124624.810000", "124625.270000", "124625.730000", "124626.190000", "124626.650000", "124627.110000", "124627.570000", "124628.030000", "124628.490000", "124628.950000", "124629.410000", "124629.870000", "124630.330000", "124630.790000", "124631.250000", "124631.710000", "124632.170000", "124632.630000", "124633.090000", "124633.550000", "124634.010000", "124634.470000", "124634.930000", "124635.390000", "124635.850000", "124636.310000", "124636.770000", "124637.230000", "124637.690000", "124638.150000", "124638.610000", "124639.070000", "124639.530000", "124639.990000", "124640.450000", "124640.910000", "124641.370000", "124641.830000", "124642.290000", "124642.750000", "124643.210000", "124643.670000", "124644.130000", "124644.590000", "124645.050000", "124645.510000", "124645.970000", "124646.430000", "124646.890000", "124647.350000", "124647.810000", "124648.270000", "124648.730000", "124649.190000", "124649.650000", "124650.110000"],
