{
  "AcquisitionMatrixPE": 82,
  "AcquisitionNumber": 1,
  "AcquisitionTime": "12:33:6.187500",
  "BandwidthPerPixelPhaseEncode": 24.888,
  "BaseResolution": 82,
  "BodyPartExamined": "BRAIN",
  "ConsistencyInfo": "N4_VE11E_LATEST_20181129",
  "ConversionSoftware": "dcm2niix",
  "ConversionSoftwareVersion": "v1.0.20201102",
  "DerivedVendorReportedEchoSpacing": 0.00049,
  "DeviceSerialNumber": "66112",
  "DwellTime": 2e-06,
  "EchoTime": 0.0272,
  "EchoTrainLength": 82,
  "EffectiveEchoSpacing": 0.00049,
  "FlipAngle": 44,
  "ImageComments": "Unaliased MB8/PE3",
  "ImageOrientationPatientDICOM": [0.999588, 0.0207368, 0.0198519, -0.0170989, 0.98555, -0.168517],
  "ImageType": [
    "ORIGINAL",
    "PRIMARY",
    "M",
    "MB",
    "ND",
    "NORM",
    "MOSAIC"
],
  "ImagingFrequency": 123.259,
  "InPlanePhaseEncodingDirectionDICOM": "COL",
  "InstitutionAddress": "Maynard 3,Hanover,NH,US,03755",
  "InstitutionName": "Dartmouth College - PBS",
  "InstitutionalDepartmentName": "Department",
  "MRAcquisitionType": "2D",
  "MagneticFieldStrength": 3,
  "Manufacturer": "Siemens",
  "ManufacturersModelName": "Prisma",
  "Modality": "MR",
  "MultibandAccelerationFactor": 8,
  "PartialFourier": 1,
  "PatientPosition": "HFS",
  "PercentPhaseFOV": 100,
  "PercentSampling": 100,
  "PhaseEncodingDirection": "j-",
  "PhaseEncodingSteps": 82,
  "PhaseResolution": 1,
  "PixelBandwidth": 3050,
  "ProcedureStepDescription": "Wager_Wager^1076_spacetop",
  "ProtocolName": "func_run-04_task-social_acq-ap-mb8",
  "PulseSequenceDetails": "%CustomerSeq%\\cmrr_mbep2d_bold",
  "ReceiveCoilActiveElements": "HEA;HEP",
  "ReceiveCoilName": "Head_32",
  "ReconMatrixPE": 82,
  "RepetitionTime": 0.46,
  "SAR": 0.124025,
  "ScanOptions": "FS",
  "ScanningSequence": "EP",
  "SequenceName": "epfid2d1_82",
  "SequenceVariant": "SK\\SS",
  "SeriesDescription": "func_run-04_task-social_acq-ap-mb8",
  "SeriesNumber": 18,
  "ShimSetting": [4227, -7746, -7226, 27, -175, -137, -42, 65],
  "SliceThickness": 2.7,
  "SliceTiming": [0, 0.2525, 0.0625, 0.315, 0.1275, 0.3775, 0.19, 0, 0.2525, 0.0625, 0.315, 0.1275, 0.3775, 0.19, 0, 0.2525, 0.0625, 0.315, 0.1275, 0.3775, 0.19, 0, 0.2525, 0.0625, 0.315, 0.1275, 0.3775, 0.19, 0, 0.2525, 0.0625, 0.315, 0.1275, 0.3775, 0.19, 0, 0.2525, 0.0625, 0.315, 0.1275, 0.3775, 0.19, 0, 0.2525, 0.0625, 0.315, 0.1275, 0.3775, 0.19, 0, 0.2525, 0.0625, 0.315, 0.1275, 0.3775, 0.19],
  "SoftwareVersions": "syngo MR E11",
  "SpacingBetweenSlices": 2.7,
  "StationName": "AWP66112",
  "TaskName": "social",
  "TotalReadoutTime": 0.03969,
  "TxRefAmp": 312.966,
  "WipMemBlock": "2c3f101e-cac7-4d5e-adf7-29ed688ee760||Sequence: R016 ve11e/master r/434b28f1; Aug  7 2019 18:53:46 by eja",
  "dcmmeta_affine": [
    [-2.68182110786438, -0.04587496817111969, 0.06226077303290367, 109.84159851074219],
    [-0.055635400116443634, 2.6441595554351807, -0.45389285683631897, -84.07157135009766],
    [0.05326114967465401, 0.45211976766586304, 2.660846710205078, -94.26454162597656],
    [0.0, 0.0, 0.0, 1.0]
],
  "dcmmeta_reorient_transform": [
    [0.0, -1.0, 0.0, 81.0],
    [1.0, 0.0, 0.0, 0.0],
    [0.0, 0.0, 1.0, 0.0],
    [0.0, 0.0, 0.0, 1.0]
],
  "dcmmeta_shape": [82, 82, 56, 872],
  "dcmmeta_slice_dim": 2,
  "dcmmeta_version": 0.6,
  "global": {
    "const": {
      "AccessionNumber": "A004358",
      "AcquisitionMatrix": [82, 0, 0, 82],
      "AngioFlag": "N",
      "BitsAllocated": 16,
      "BitsStored": 16,
      "BodyPartExamined": "BRAIN",
      "Columns": 656,
      "EchoNumbers": 1,
      "EchoTime": 27.2,
      "EchoTrainLength": 82,
      "FlipAngle": 44.0,
      "HighBit": 15,
      "ImageOrientationPatient": [0.99958785837253, 0.02073683087867, 0.01985188251343, -0.0170988515524, 0.98555036784606, -0.1685173632421],
      "ImagePositionPatient": [-862.64228097663, -904.94651522207, 56.829585816151],
      "ImageType": [
        "ORIGINAL",
        "PRIMARY",
        "M",
        "MB",
        "ND",
        "NORM",
        "MOSAIC"
],
      "ImagedNucleus": "1H",
      "ImagingFrequency": 123.259083,
      "InPlanePhaseEncodingDirection": "COL",
      "MRAcquisitionType": "2D",
      "MagneticFieldStrength": 3.0,
      "Manufacturer": "SIEMENS",
      "ManufacturerModelName": "Prisma",
      "Modality": "MR",
      "NumberOfAverages": 1.0,
      "NumberOfPhaseEncodingSteps": 82,
      "PercentPhaseFieldOfView": 100.0,
      "PercentSampling": 100.0,
      "PerformedProcedureStepStartTime": "113350.578000",
      "PhotometricInterpretation": "MONOCHROME2",
      "PixelBandwidth": 3050.0,
      "PixelRepresentation": 0,
      "PixelSpacing": [2.6829268932343, 2.6829268932343],
      "ProtocolName": "func_run-04_task-social_acq-ap-mb8",
      "RepetitionTime": 460.0,
      "Rows": 656,
      "SAR": 0.1240252893052,
      "SamplesPerPixel": 1,
      "ScanOptions": "FS",
      "ScanningSequence": "EP",
      "SequenceName": "epfid2d1_82",
      "SequenceVariant": [
        "SK",
        "SS"
],
      "SeriesDescription": "func_run-04_task-social_acq-ap-mb8",
      "SeriesNumber": 18,
      "SeriesTime": "123327.229000",
      "SliceLocation": -76.231544609587,
      "SliceThickness": 2.7000000476837,
      "SmallestImagePixelValue": 0,
      "SoftwareVersions": "syngo MR E11",
      "SpacingBetweenSlices": 2.6999999949793,
      "SpecificCharacterSet": "ISO_IR 100",
      "StudyID": "4",
      "StudyTime": "113350.443000",
      "TransmitCoilName": "Body",
      "VariableFlipAngleFlag": "N",
      "WindowCenterWidthExplanation": "Algo1"
    },
    "slices": {}
  },
  "time": {
    "samples": {
      "AcquisitionNumber": [1, 2, 3, 4, 5, 6, 7, 8, 9, 10, 11, 12, 13, 14, 15, 16, 17, 18, 19, 20, 21, 22, 23, 24, 25, 26, 27, 28, 29, 30, 31, 32, 33, 34, 35, 36, 37, 38, 39, 40, 41, 42, 43, 44, 45, 46, 47, 48, 49, 50, 51, 52, 53, 54, 55, 56, 57, 58, 59, 60, 61, 62, 63, 64, 65, 66, 67, 68, 69, 70, 71, 72, 73, 74, 75, 76, 77, 78, 79, 80, 81, 82, 83, 84, 85, 86, 87, 88, 89, 90, 91, 92, 93, 94, 95, 96, 97, 98, 99, 100, 101, 102, 103, 104, 105, 106, 107, 108, 109, 110, 111, 112, 113, 114, 115, 116, 117, 118, 119, 120, 121, 122, 123, 124, 125, 126, 127, 128, 129, 130, 131, 132, 133, 134, 135, 136, 137, 138, 139, 140, 141, 142, 143, 144, 145, 146, 147, 148, 149, 150, 151, 152, 153, 154, 155, 156, 157, 158, 159, 160, 161, 162, 163, 164, 165, 166, 167, 168, 169, 170, 171, 172, 173, 174, 175, 176, 177, 178, 179, 180, 181, 182, 183, 184, 185, 186, 187, 188, 189, 190, 191, 192, 193, 194, 195, 196, 197, 198, 199, 200, 201, 202, 203, 204, 205, 206, 207, 208, 209, 210, 211, 212, 213, 214, 215, 216, 217, 218, 219, 220, 221, 222, 223, 224, 225, 226, 227, 228, 229, 230, 231, 232, 233, 234, 235, 236, 237, 238, 239, 240, 241, 242, 243, 244, 245, 246, 247, 248, 249, 250, 251, 252, 253, 254, 255, 256, 257, 258, 259, 260, 261, 262, 263, 264, 265, 266, 267, 268, 269, 270, 271, 272, 273, 274, 275, 276, 277, 278, 279, 280, 281, 282, 283, 284, 285, 286, 287, 288, 289, 290, 291, 292, 293, 294, 295, 296, 297, 298, 299, 300, 301, 302, 303, 304, 305, 306, 307, 308, 309, 310, 311, 312, 313, 314, 315, 316, 317, 318, 319, 320, 321, 322, 323, 324, 325, 326, 327, 328, 329, 330, 331, 332, 333, 334, 335, 336, 337, 338, 339, 340, 341, 342, 343, 344, 345, 346, 347, 348, 349, 350, 351, 352, 353, 354, 355, 356, 357, 358, 359, 360, 361, 362, 363, 364, 365, 366, 367, 368, 369, 370, 371, 372, 373, 374, 375, 376, 377, 378, 379, 380, 381, 382, 383, 384, 385, 386, 387, 388, 389, 390, 391, 392, 393, 394, 395, 396, 397, 398, 399, 400, 401, 402, 403, 404, 405, 406, 407, 408, 409, 410, 411, 412, 413, 414, 415, 416, 417, 418, 419, 420, 421, 422, 423, 424, 425, 426, 427, 428, 429, 430, 431, 432, 433, 434, 435, 436, 437, 438, 439, 440, 441, 442, 443, 444, 445, 446, 447, 448, 449, 450, 451, 452, 453, 454, 455, 456, 457, 458, 459, 460, 461, 462, 463, 464, 465, 466, 467, 468, 469, 470, 471, 472, 473, 474, 475, 476, 477, 478, 479, 480, 481, 482, 483, 484, 485, 486, 487, 488, 489, 490, 491, 492, 493, 494, 495, 496, 497, 498, 499, 500, 501, 502, 503, 504, 505, 506, 507, 508, 509, 510, 511, 512, 513, 514, 515, 516, 517, 518, 519, 520, 521, 522, 523, 524, 525, 526, 527, 528, 529, 530, 531, 532, 533, 534, 535, 536, 537, 538, 539, 540, 541, 542, 543, 544, 545, 546, 547, 548, 549, 550, 551, 552, 553, 554, 555, 556, 557, 558, 559, 560, 561, 562, 563, 564, 565, 566, 567, 568, 569, 570, 571, 572, 573, 574, 575, 576, 577, 578, 579, 580, 581, 582, 583, 584, 585, 586, 587, 588, 589, 590, 591, 592, 593, 594, 595, 596, 597, 598, 599, 600, 601, 602, 603, 604, 605, 606, 607, 608, 609, 610, 611, 612, 613, 614, 615, 616, 617, 618, 619, 620, 621, 622, 623, 624, 625, 626, 627, 628, 629, 630, 631, 632, 633, 634, 635, 636, 637, 638, 639, 640, 641, 642, 643, 644, 645, 646, 647, 648, 649, 650, 651, 652, 653, 654, 655, 656, 657, 658, 659, 660, 661, 662, 663, 664, 665, 666, 667, 668, 669, 670, 671, 672, 673, 674, 675, 676, 677, 678, 679, 680, 681, 682, 683, 684, 685, 686, 687, 688, 689, 690, 691, 692, 693, 694, 695, 696, 697, 698, 699, 700, 701, 702, 703, 704, 705, 706, 707, 708, 709, 710, 711, 712, 713, 714, 715, 716, 717, 718, 719, 720, 721, 722, 723, 724, 725, 726, 727, 728, 729, 730, 731, 732, 733, 734, 735, 736, 737, 738, 739, 740, 741, 742, 743, 744, 745, 746, 747, 748, 749, 750, 751, 752, 753, 754, 755, 756, 757, 758, 759, 760, 761, 762, 763, 764, 765, 766, 767, 768, 769, 770, 771, 772, 773, 774, 775, 776, 777, 778, 779, 780, 781, 782, 783, 784, 785, 786, 787, 788, 789, 790, 791, 792, 793, 794, 795, 796, 797, 798, 799, 800, 801, 802, 803, 804, 805, 806, 807, 808, 809, 810, 811, 812, 813, 814, 815, 816, 817, 818, 819, 820, 821, 822, 823, 824, 825, 826, 827, 828, 829, 830, 831, 832, 833, 834, 835, 836, 837, 838, 839, 840, 841, 842, 843, 844, 845, 846, 847, 848, 849, 850, 851, 852, 853, 854, 855, 856, 857, 858, 859, 860, 861, 862, 863, 864, 865, 866, 867, 868, 869, 870, 871, 872],
      "AcquisitionTime": ["123306.187500", "123306.647500", "123307.107500", "123307.567500", "123308.027500", "123308.487500", "123308.947500", "123309.407500", "123309.867500", "123310.327500", "123310.787500", "123311.247500", "123311.707500", "123312.167500", "123312.627500", "123313.087500", "123313.547500", "123314.007500", "123314.467500", "123314.927500", "123315.387500", "123315.847500", "123316.307500", "123316.767500", "123317.227500", "123317.687500", "123318.147500", "123318.607500", "123319.067500", "123319.527500", "123319.987500", "123320.447500", "123320.907500", "123321.367500", "123321.827500", "123322.287500", "123322.747500", "123323.207500", "123323.667500", "123324.127500", "123324.587500", "123325.047500", "123325.507500", "123325.967500", "123326.427500", "123326.887500", "123327.347500", "123327.807500", "123328.267500", "123328.727500", "123329.187500", "123329.647500", "123330.107500", "123330.567500", "123331.027500", "123331.487500", "123331.947500", "123332.407500", "123332.867500", "123333.327500", "123333.787500", "123334.247500", "123334.707500", "123335.167500", "123335.627500", "123336.087500", "123336.547500", "123337.007500", "123337.467500", "123337.927500", "123338.387500", "123338.847500", "123339.307500", "123339.767500", "123340.227500", "123340.687500", "123341.147500", "123341.607500", "123342.067500", "123342.527500", "123342.987500", "123343.447500", "123343.907500", "123344.367500", "123344.827500", "123345.287500", "123345.747500", "123346.207500", "123346.667500", "123347.127500", "123347.587500", "123348.047500", "123348.507500", "123348.967500", "123349.427500", "123349.887500", "123350.347500", "123350.807500", "123351.267500", "123351.727500", "123352.187500", "123352.647500", "123353.107500", "123353.567500", "123354.027500", "123354.487500", "123354.947500", "123355.407500", "123355.867500", "123356.327500", "123356.787500", "123357.247500", "123357.707500", "123358.167500", "123358.627500", "123359.087500", "123359.547500", "123400.007500", "123400.467500", "123400.927500", "123401.387500", "123401.847500", "123402.307500", "123402.767500", "123403.227500", "123403.687500", "123404.147500", "123404.607500", "123405.067500", "123405.527500", "123405.987500", "123406.447500", "123406.907500", "123407.367500", "123407.827500", "123408.287500", "123408.747500", "123409.207500", "123409.667500", "123410.127500", "123410.587500", "123411.047500", "123411.507500", "123411.967500", "123412.427500", "123412.887500", "123413.347500", "123413.807500", "123414.267500", "123414.727500", "123415.187500", "123415.647500", "123416.107500", "123416.567500", "123417.027500", "123417.487500", "123417.947500", "123418.407500", "123418.867500", "123419.327500", "123419.787500", "123420.247500", "123420.707500", "123421.167500", "123421.627500", "123422.087500", "123422.547500", "123423.007500", "123423.467500", "123423.927500", "123424.387500", "123424.847500", "123425.307500", "123425.767500", "123426.227500", "123426.687500", "123427.147500", "123427.607500", "123428.067500", "123428.527500", "123428.987500", "123429.447500", "123429.907500", "123430.367500", "123430.827500", "123431.287500", "123431.747500", "123432.207500", "123432.667500", "123433.127500", "123433.587500", "123434.047500", "123434.507500", "123434.967500", "123435.427500", "123435.887500", "123436.347500", "123436.807500", "123437.267500", "123437.727500", "123438.187500", "123438.647500", "123439.107500", "123439.567500", "123440.027500", "123440.487500", "123440.947500", "123441.407500", "123441.867500", "123442.327500", "123442.787500", "123443.247500", "123443.707500", "123444.167500", "123444.627500", "123445.087500", "123445.547500", "123446.007500", "123446.467500", "123446.927500", "123447.387500", "123447.847500", "123448.307500", "123448.767500", "123449.227500", "123449.687500", "123450.147500", "123450.607500", "123451.067500", "123451.527500", "123451.987500", "123452.447500", "123452.907500", "123453.367500", "123453.827500", "123454.287500", "123454.747500", "123455.207500", "123455.667500", "123456.127500", "123456.587500", "123457.047500", "123457.507500", "123457.967500", "123458.427500", "123458.887500", "123459.347500", "123459.807500", "123500.267500", "123500.727500", "123501.187500", "123501.647500", "123502.107500", "123502.567500", "123503.027500", "123503.487500", "123503.947500", "123504.407500", "123504.867500", "123505.327500", "123505.787500", "123506.247500", "123506.707500", "123507.167500", "123507.627500", "123508.087500", "123508.547500", "123509.007500", "123509.467500", "123509.927500", "123510.387500", "123510.847500", "123511.307500", "123511.767500", "123512.227500", "123512.687500", "123513.147500", "123513.607500", "123514.067500", "123514.527500", "123514.987500", "123515.447500", "123515.907500", "123516.367500", "123516.827500", "123517.287500", "123517.747500", "123518.207500", "123518.667500", "123519.127500", "123519.587500", "123520.047500", "123520.507500", "123520.967500", "123521.427500", "123521.887500", "123522.347500", "123522.807500", "123523.267500", "123523.727500", "123524.187500", "123524.647500", "123525.107500", "123525.567500", "123526.027500", "123526.487500", "123526.947500", "123527.407500", "123527.867500", "123528.327500", "123528.787500", "123529.247500", "123529.707500", "123530.167500", "123530.627500", "123531.087500", "123531.547500", "123532.007500", "123532.467500", "123532.927500", "123533.387500", "123533.847500", "123534.307500", "123534.767500", "123535.227500", "123535.687500", "123536.147500", "123536.607500", "123537.067500", "123537.527500", "123537.987500", "123538.447500", "123538.907500", "123539.367500", "123539.827500", "123540.287500", "123540.747500", "123541.207500", "123541.667500", "123542.127500", "123542.587500", "123543.047500", "123543.507500", "123543.967500", "123544.427500", "123544.887500", "123545.347500", "123545.807500", "123546.267500", "123546.727500", "123547.187500", "123547.647500", "123548.107500", "123548.567500", "123549.027500", "123549.487500", "123549.947500", "123550.407500", "123550.867500", "123551.327500", "123551.787500", "123552.247500", "123552.707500", "123553.167500", "123553.627500", "123554.087500", "123554.547500", "123555.007500", "123555.467500", "123555.927500", "123556.387500", "123556.847500", "123557.307500", "123557.767500", "123558.227500", "123558.687500", "123559.147500", "123559.607500", "123600.067500", "123600.527500", "123600.987500", "123601.447500", "123601.907500", "123602.367500", "123602.827500", "123603.287500", "123603.747500", "123604.207500", "123604.667500", "123605.127500", "123605.587500", "123606.047500", "123606.507500", "123606.967500", "123607.427500", "123607.887500", "123608.347500", "123608.807500", "123609.267500", "123609.727500", "123610.187500", "123610.647500", "123611.107500", "123611.567500", "123612.027500", "123612.487500", "123612.947500", "123613.407500", "123613.867500", "123614.327500", "123614.787500", "123615.247500", "123615.707500", "123616.167500", "123616.627500", "123617.087500", "123617.547500", "123618.007500", "123618.467500", "123618.927500", "123619.387500", "123619.847500", "123620.307500", "123620.767500", "123621.227500", "123621.687500", "123622.147500", "123622.607500", "123623.067500", "123623.527500", "123623.987500", "123624.447500", "123624.907500", "123625.367500", "123625.827500", "123626.287500", "123626.747500", "123627.207500", "123627.667500", "123628.127500", "123628.587500", "123629.047500", "123629.507500", "123629.967500", "123630.427500", "123630.887500", "123631.347500", "123631.807500", "123632.267500", "123632.727500", "123633.187500", "123633.647500", "123634.107500", "123634.567500", "123635.027500", "123635.487500", "123635.947500", "123636.407500", "123636.867500", "123637.327500", "123637.787500", "123638.247500", "123638.707500", "123639.167500", "123639.627500", "123640.087500", "123640.547500", "123641.007500", "123641.467500", "123641.927500", "123642.387500", "123642.847500", "123643.307500", "123643.767500", "123644.227500", "123644.687500", "123645.147500", "123645.607500", "123646.067500", "123646.527500", "123646.987500", "123647.447500", "123647.907500", "123648.367500", "123648.827500", "123649.287500", "123649.747500", "123650.207500", "123650.667500", "123651.127500", "123651.587500", "123652.047500", "123652.507500", "123652.967500", "123653.427500", "123653.887500", "123654.347500", "123654.807500", "123655.267500", "123655.727500", "123656.187500", "123656.647500", "123657.107500", "123657.567500", "123658.027500", "123658.487500", "123658.947500", "123659.407500", "123659.867500", "123700.327500", "123700.787500", "123701.247500", "123701.707500", "123702.167500", "123702.627500", "123703.087500", "123703.547500", "123704.007500", "123704.467500", "123704.927500", "123705.387500", "123705.847500", "123706.307500", "123706.767500", "123707.227500", "123707.687500", "123708.147500", "123708.607500", "123709.067500", "123709.527500", "123709.987500", "123710.447500", "123710.907500", "123711.367500", "123711.827500", "123712.287500", "123712.747500", "123713.207500", "123713.667500", "123714.127500", "123714.587500", "123715.047500", "123715.507500", "123715.967500", "123716.427500", "123716.887500", "123717.347500", "123717.807500", "123718.267500", "123718.727500", "123719.187500", "123719.647500", "123720.107500", "123720.567500", "123721.027500", "123721.487500", "123721.947500", "123722.407500", "123722.867500", "123723.327500", "123723.787500", "123724.247500", "123724.707500", "123725.167500", "123725.627500", "123726.087500", "123726.547500", "123727.007500", "123727.467500", "123727.927500", "123728.387500", "123728.847500", "123729.307500", "123729.767500", "123730.227500", "123730.687500", "123731.147500", "123731.607500", "123732.067500", "123732.527500", "123732.987500", "123733.447500", "123733.907500", "123734.367500", "123734.827500", "123735.287500", "123735.747500", "123736.207500", "123736.667500", "123737.127500", "123737.587500", "123738.047500", "123738.507500", "123738.967500", "123739.427500", "123739.887500", "123740.347500", "123740.807500", "123741.267500", "123741.727500", "123742.187500", "123742.647500", "123743.107500", "123743.567500", "123744.027500", "123744.487500", "123744.947500", "123745.407500", "123745.867500", "123746.327500", "123746.787500", "123747.247500", "123747.707500", "123748.167500", "123748.627500", "123749.087500", "123749.547500", "123750.007500", "123750.467500", "123750.927500", "123751.387500", "123751.847500", "123752.307500", "123752.767500", "123753.227500", "123753.687500", "123754.147500", "123754.607500", "123755.067500", "123755.527500", "123755.987500", "123756.447500", "123756.907500", "123757.367500", "123757.827500", "123758.287500", "123758.747500", "123759.207500", "123759.667500", "123800.127500", "123800.587500", "123801.047500", "123801.507500", "123801.967500", "123802.427500", "123802.887500", "123803.347500", "123803.807500", "123804.267500", "123804.727500", "123805.187500", "123805.647500", "123806.107500", "123806.567500", "123807.027500", "123807.487500", "123807.947500", "123808.407500", "123808.867500", "123809.327500", "123809.787500", "123810.247500", "123810.707500", "123811.167500", "123811.627500", "123812.087500", "123812.547500", "123813.007500", "123813.467500", "123813.927500", "123814.387500", "123814.847500", "123815.307500", "123815.767500", "123816.227500", "123816.687500", "123817.147500", "123817.607500", "123818.067500", "123818.527500", "123818.987500", "123819.447500", "123819.907500", "123820.367500", "123820.827500", "123821.287500", "123821.747500", "123822.207500", "123822.667500", "123823.127500", "123823.587500", "123824.047500", "123824.507500", "123824.967500", "123825.427500", "123825.887500", "123826.347500", "123826.807500", "123827.267500", "123827.727500", "123828.187500", "123828.647500", "123829.107500", "123829.567500", "123830.027500", "123830.487500", "123830.947500", "123831.407500", "123831.867500", "123832.327500", "123832.787500", "123833.247500", "123833.707500", "123834.167500", "123834.627500", "123835.087500", "123835.547500", "123836.007500", "123836.467500", "123836.927500", "123837.387500", "123837.847500", "123838.307500", "123838.767500", "123839.227500", "123839.687500", "123840.147500", "123840.607500", "123841.067500", "123841.527500", "123841.987500", "123842.447500", "123842.907500", "123843.367500", "123843.827500", "123844.287500", "123844.747500", "123845.207500", "123845.667500", "123846.127500", "123846.587500", "123847.047500", "123847.507500", "123847.967500", "123848.427500", "123848.887500", "123849.347500", "123849.807500", "123850.267500", "123850.727500", "123851.187500", "123851.647500", "123852.107500", "123852.567500", "123853.027500", "123853.487500", "123853.947500", "123854.407500", "123854.867500", "123855.327500", "123855.787500", "123856.247500", "123856.707500", "123857.167500", "123857.627500", "123858.087500", "123858.547500", "123859.007500", "123859.467500", "123859.927500", "123900.387500", "123900.847500", "123901.307500", "123901.767500", "123902.227500", "123902.687500", "123903.147500", "123903.607500", "123904.067500", "123904.527500", "123904.987500", "123905.447500", "123905.907500", "123906.367500", "123906.827500", "123907.287500", "123907.747500", "123908.207500", "123908.667500", "123909.127500", "123909.587500", "123910.047500", "123910.507500", "123910.967500", "123911.427500", "123911.887500", "123912.347500", "123912.807500", "123913.267500", "123913.727500", "123914.187500", "123914.647500", "123915.107500", "123915.567500", "123916.027500", "123916.487500", "123916.947500", "123917.407500", "123917.867500", "123918.327500", "123918.787500", "123919.247500", "123919.707500", "123920.167500", "123920.627500", "123921.087500", "123921.547500", "123922.007500", "123922.467500", "123922.927500", "123923.387500", "123923.847500", "123924.307500", "123924.767500", "123925.227500", "123925.687500", "123926.147500", "123926.607500", "123927.067500", "123927.527500", "123927.987500", "123928.447500", "123928.907500", "123929.367500", "123929.827500", "123930.287500", "123930.747500", "123931.207500", "123931.667500", "123932.127500", "123932.587500", "123933.047500", "123933.507500", "123933.967500", "123934.427500", "123934.887500", "123935.347500", "123935.807500", "123936.267500", "123936.727500", "123937.187500", "123937.647500", "123938.107500", "123938.567500", "123939.027500", "123939.487500", "123939.947500", "123940.407500", "123940.867500", "123941.327500", "123941.787500", "123942.247500", "123942.707500", "123943.167500", "123943.627500", "123944.087500", "123944.547500", "123945.007500", "123945.467500", "123945.927500", "123946.387500", "123946.847500"],
