{
  "AcquisitionMatrixPE": 82,
  "AcquisitionNumber": 1,
  "AcquisitionTime": "12:11:41.477500",
  "BandwidthPerPixelPhaseEncode": 24.888,
  "BaseResolution": 82,
  "BodyPartExamined": "BRAIN",
  "ConsistencyInfo": "N4_VE11E_LATEST_20181129",
  "ConversionSoftware": "dcm2niix",
  "ConversionSoftwareVersion": "v1.0.20201102",
  "DerivedVendorReportedEchoSpacing": 0.00049,
  "DeviceSerialNumber": "66112",
  "DwellTime": 2e-06,
  "EchoTime": 0.0272,
  "EchoTrainLength": 82,
  "EffectiveEchoSpacing": 0.00049,
  "FlipAngle": 44,
  "ImageComments": "Unaliased MB8/PE3",
  "ImageOrientationPatientDICOM": [0.999588, 0.0207368, 0.0198519, -0.0170989, 0.98555, -0.168517],
  "ImageType": [
    "ORIGINAL",
    "PRIMARY",
    "M",
    "MB",
    "ND",
    "NORM",
    "MOSAIC"
],
  "ImagingFrequency": 123.259,
  "InPlanePhaseEncodingDirectionDICOM": "COL",
  "InstitutionAddress": "Maynard 3,Hanover,NH,US,03755",
  "InstitutionName": "Dartmouth College - PBS",
  "InstitutionalDepartmentName": "Department",
  "MRAcquisitionType": "2D",
  "MagneticFieldStrength": 3,
  "Manufacturer": "Siemens",
  "ManufacturersModelName": "Prisma",
  "Modality": "MR",
  "MultibandAccelerationFactor": 8,
  "PartialFourier": 1,
  "PatientPosition": "HFS",
  "PercentPhaseFOV": 100,
  "PercentSampling": 100,
  "PhaseEncodingDirection": "j-",
  "PhaseEncodingSteps": 82,
  "PhaseResolution": 1,
  "PixelBandwidth": 3050,
  "ProcedureStepDescription": "Wager_Wager^1076_spacetop",
  "ProtocolName": "func_run-01_task-social_acq-ap-mb8",
  "PulseSequenceDetails": "%CustomerSeq%\\cmrr_mbep2d_bold",
  "ReceiveCoilActiveElements": "HEA;HEP",
  "ReceiveCoilName": "Head_32",
  "ReconMatrixPE": 82,
  "RepetitionTime": 0.46,
  "SAR": 0.124025,
  "ScanOptions": "FS",
  "ScanningSequence": "EP",
  "SequenceName": "epfid2d1_82",
  "SequenceVariant": "SK\\SS",
  "SeriesDescription": "func_run-01_task-social_acq-ap-mb8",
  "SeriesNumber": 12,
  "ShimSetting": [4227, -7746, -7226, 27, -175, -137, -42, 65],
  "SliceThickness": 2.7,
  "SliceTiming": [0, 0.25, 0.0625, 0.3125, 0.125, 0.375, 0.1875, 0, 0.25, 0.0625, 0.3125, 0.125, 0.375, 0.1875, 0, 0.25, 0.0625, 0.3125, 0.125, 0.375, 0.1875, 0, 0.25, 0.0625, 0.3125, 0.125, 0.375, 0.1875, 0, 0.25, 0.0625, 0.3125, 0.125, 0.375, 0.1875, 0, 0.25, 0.0625, 0.3125, 0.125, 0.375, 0.1875, 0, 0.25, 0.0625, 0.3125, 0.125, 0.375, 0.1875, 0, 0.25, 0.0625, 0.3125, 0.125, 0.375, 0.1875],
  "SoftwareVersions": "syngo MR E11",
  "SpacingBetweenSlices": 2.7,
  "StationName": "AWP66112",
  "TaskName": "social",
  "TotalReadoutTime": 0.03969,
  "TxRefAmp": 312.966,
  "WipMemBlock": "3f3a93a2-328c-4feb-b0d5-4667b53e4efc||Sequence: R016 ve11e/master r/434b28f1; Aug  7 2019 18:53:46 by eja",
  "dcmmeta_affine": [
    [-2.68182110786438, -0.04587496817111969, 0.06226077303290367, 109.84159851074219],
    [-0.055635400116443634, 2.6441595554351807, -0.45389285683631897, -84.07157135009766],
    [0.05326114967465401, 0.45211976766586304, 2.660846710205078, -94.26454162597656],
    [0.0, 0.0, 0.0, 1.0]
],
  "dcmmeta_reorient_transform": [
    [0.0, -1.0, 0.0, 81.0],
    [1.0, 0.0, 0.0, 0.0],
    [0.0, 0.0, 1.0, 0.0],
    [0.0, 0.0, 0.0, 1.0]
],
  "dcmmeta_shape": [82, 82, 56, 872],
  "dcmmeta_slice_dim": 2,
  "dcmmeta_version": 0.6,
  "global": {
    "const": {
      "AccessionNumber": "A004358",
      "AcquisitionMatrix": [82, 0, 0, 82],
      "AngioFlag": "N",
      "BitsAllocated": 16,
      "BitsStored": 16,
      "BodyPartExamined": "BRAIN",
      "Columns": 656,
      "EchoNumbers": 1,
      "EchoTime": 27.2,
      "EchoTrainLength": 82,
      "FlipAngle": 44.0,
      "HighBit": 15,
      "ImageOrientationPatient": [0.99958785837253, 0.02073683087867, 0.01985188251343, -0.0170988515524, 0.98555036784606, -0.1685173632421],
      "ImagePositionPatient": [-862.64228097663, -904.94651522207, 56.829585816151],
      "ImageType": [
        "ORIGINAL",
        "PRIMARY",
        "M",
        "MB",
        "ND",
        "NORM",
        "MOSAIC"
],
      "ImagedNucleus": "1H",
      "ImagingFrequency": 123.259075,
      "InPlanePhaseEncodingDirection": "COL",
      "MRAcquisitionType": "2D",
      "MagneticFieldStrength": 3.0,
      "Manufacturer": "SIEMENS",
      "ManufacturerModelName": "Prisma",
      "Modality": "MR",
      "NumberOfAverages": 1.0,
      "NumberOfPhaseEncodingSteps": 82,
      "PercentPhaseFieldOfView": 100.0,
      "PercentSampling": 100.0,
      "PerformedProcedureStepStartTime": "113350.578000",
      "PhotometricInterpretation": "MONOCHROME2",
      "PixelBandwidth": 3050.0,
      "PixelRepresentation": 0,
      "PixelSpacing": [2.6829268932343, 2.6829268932343],
      "ProtocolName": "func_run-01_task-social_acq-ap-mb8",
      "RepetitionTime": 460.0,
      "Rows": 656,
      "SAR": 0.1240252893052,
      "SamplesPerPixel": 1,
      "ScanOptions": "FS",
      "ScanningSequence": "EP",
      "SequenceName": "epfid2d1_82",
      "SequenceVariant": [
        "SK",
        "SS"
],
      "SeriesDescription": "func_run-01_task-social_acq-ap-mb8",
      "SeriesNumber": 12,
      "SeriesTime": "121207.268000",
      "SliceLocation": -76.231544609587,
      "SliceThickness": 2.7000000476837,
      "SmallestImagePixelValue": 0,
      "SoftwareVersions": "syngo MR E11",
      "SpacingBetweenSlices": 2.6999999949793,
      "SpecificCharacterSet": "ISO_IR 100",
      "StudyID": "4",
      "StudyTime": "113350.443000",
      "TransmitCoilName": "Body",
      "VariableFlipAngleFlag": "N",
      "WindowCenterWidthExplanation": "Algo1"
    },
    "slices": {}
  },
  "time": {
    "samples": {
      "AcquisitionNumber": [1, 2, 3, 4, 5, 6, 7, 8, 9, 10, 11, 12, 13, 14, 15, 16, 17, 18, 19, 20, 21, 22, 23, 24, 25, 26, 27, 28, 29, 30, 31, 32, 33, 34, 35, 36, 37, 38, 39, 40, 41, 42, 43, 44, 45, 46, 47, 48, 49, 50, 51, 52, 53, 54, 55, 56, 57, 58, 59, 60, 61, 62, 63, 64, 65, 66, 67, 68, 69, 70, 71, 72, 73, 74, 75, 76, 77, 78, 79, 80, 81, 82, 83, 84, 85, 86, 87, 88, 89, 90, 91, 92, 93, 94, 95, 96, 97, 98, 99, 100, 101, 102, 103, 104, 105, 106, 107, 108, 109, 110, 111, 112, 113, 114, 115, 116, 117, 118, 119, 120, 121, 122, 123, 124, 125, 126, 127, 128, 129, 130, 131, 132, 133, 134, 135, 136, 137, 138, 139, 140, 141, 142, 143, 144, 145, 146, 147, 148, 149, 150, 151, 152, 153, 154, 155, 156, 157, 158, 159, 160, 161, 162, 163, 164, 165, 166, 167, 168, 169, 170, 171, 172, 173, 174, 175, 176, 177, 178, 179, 180, 181, 182, 183, 184, 185, 186, 187, 188, 189, 190, 191, 192, 193, 194, 195, 196, 197, 198, 199, 200, 201, 202, 203, 204, 205, 206, 207, 208, 209, 210, 211, 212, 213, 214, 215, 216, 217, 218, 219, 220, 221, 222, 223, 224, 225, 226, 227, 228, 229, 230, 231, 232, 233, 234, 235, 236, 237, 238, 239, 240, 241, 242, 243, 244, 245, 246, 247, 248, 249, 250, 251, 252, 253, 254, 255, 256, 257, 258, 259, 260, 261, 262, 263, 264, 265, 266, 267, 268, 269, 270, 271, 272, 273, 274, 275, 276, 277, 278, 279, 280, 281, 282, 283, 284, 285, 286, 287, 288, 289, 290, 291, 292, 293, 294, 295, 296, 297, 298, 299, 300, 301, 302, 303, 304, 305, 306, 307, 308, 309, 310, 311, 312, 313, 314, 315, 316, 317, 318, 319, 320, 321, 322, 323, 324, 325, 326, 327, 328, 329, 330, 331, 332, 333, 334, 335, 336, 337, 338, 339, 340, 341, 342, 343, 344, 345, 346, 347, 348, 349, 350, 351, 352, 353, 354, 355, 356, 357, 358, 359, 360, 361, 362, 363, 364, 365, 366, 367, 368, 369, 370, 371, 372, 373, 374, 375, 376, 377, 378, 379, 380, 381, 382, 383, 384, 385, 386, 387, 388, 389, 390, 391, 392, 393, 394, 395, 396, 397, 398, 399, 400, 401, 402, 403, 404, 405, 406, 407, 408, 409, 410, 411, 412, 413, 414, 415, 416, 417, 418, 419, 420, 421, 422, 423, 424, 425, 426, 427, 428, 429, 430, 431, 432, 433, 434, 435, 436, 437, 438, 439, 440, 441, 442, 443, 444, 445, 446, 447, 448, 449, 450, 451, 452, 453, 454, 455, 456, 457, 458, 459, 460, 461, 462, 463, 464, 465, 466, 467, 468, 469, 470, 471, 472, 473, 474, 475, 476, 477, 478, 479, 480, 481, 482, 483, 484, 485, 486, 487, 488, 489, 490, 491, 492, 493, 494, 495, 496, 497, 498, 499, 500, 501, 502, 503, 504, 505, 506, 507, 508, 509, 510, 511, 512, 513, 514, 515, 516, 517, 518, 519, 520, 521, 522, 523, 524, 525, 526, 527, 528, 529, 530, 531, 532, 533, 534, 535, 536, 537, 538, 539, 540, 541, 542, 543, 544, 545, 546, 547, 548, 549, 550, 551, 552, 553, 554, 555, 556, 557, 558, 559, 560, 561, 562, 563, 564, 565, 566, 567, 568, 569, 570, 571, 572, 573, 574, 575, 576, 577, 578, 579, 580, 581, 582, 583, 584, 585, 586, 587, 588, 589, 590, 591, 592, 593, 594, 595, 596, 597, 598, 599, 600, 601, 602, 603, 604, 605, 606, 607, 608, 609, 610, 611, 612, 613, 614, 615, 616, 617, 618, 619, 620, 621, 622, 623, 624, 625, 626, 627, 628, 629, 630, 631, 632, 633, 634, 635, 636, 637, 638, 639, 640, 641, 642, 643, 644, 645, 646, 647, 648, 649, 650, 651, 652, 653, 654, 655, 656, 657, 658, 659, 660, 661, 662, 663, 664, 665, 666, 667, 668, 669, 670, 671, 672, 673, 674, 675, 676, 677, 678, 679, 680, 681, 682, 683, 684, 685, 686, 687, 688, 689, 690, 691, 692, 693, 694, 695, 696, 697, 698, 699, 700, 701, 702, 703, 704, 705, 706, 707, 708, 709, 710, 711, 712, 713, 714, 715, 716, 717, 718, 719, 720, 721, 722, 723, 724, 725, 726, 727, 728, 729, 730, 731, 732, 733, 734, 735, 736, 737, 738, 739, 740, 741, 742, 743, 744, 745, 746, 747, 748, 749, 750, 751, 752, 753, 754, 755, 756, 757, 758, 759, 760, 761, 762, 763, 764, 765, 766, 767, 768, 769, 770, 771, 772, 773, 774, 775, 776, 777, 778, 779, 780, 781, 782, 783, 784, 785, 786, 787, 788, 789, 790, 791, 792, 793, 794, 795, 796, 797, 798, 799, 800, 801, 802, 803, 804, 805, 806, 807, 808, 809, 810, 811, 812, 813, 814, 815, 816, 817, 818, 819, 820, 821, 822, 823, 824, 825, 826, 827, 828, 829, 830, 831, 832, 833, 834, 835, 836, 837, 838, 839, 840, 841, 842, 843, 844, 845, 846, 847, 848, 849, 850, 851, 852, 853, 854, 855, 856, 857, 858, 859, 860, 861, 862, 863, 864, 865, 866, 867, 868, 869, 870, 871, 872],
      "AcquisitionTime": ["121141.477500", "121141.937500", "121142.397500", "121142.857500", "121143.317500", "121143.777500", "121144.237500", "121144.697500", "121145.157500", "121145.617500", "121146.077500", "121146.537500", "121146.997500", "121147.457500", "121147.917500", "121148.377500", "121148.837500", "121149.297500", "121149.757500", "121150.217500", "121150.677500", "121151.137500", "121151.597500", "121152.057500", "121152.517500", "121152.977500", "121153.437500", "121153.897500", "121154.357500", "121154.817500", "121155.277500", "121155.737500", "121156.197500", "121156.657500", "121157.117500", "121157.577500", "121158.037500", "121158.497500", "121158.957500", "121159.417500", "121159.877500", "121200.337500", "121200.797500", "121201.257500", "121201.717500", "121202.177500", "121202.637500", "121203.097500", "121203.557500", "121204.017500", "121204.477500", "121204.937500", "121205.397500", "121205.857500", "121206.317500", "121206.777500", "121207.237500", "121207.697500", "121208.157500", "121208.617500", "121209.077500", "121209.537500", "121209.997500", "121210.457500", "121210.917500", "121211.377500", "121211.837500", "121212.297500", "121212.757500", "121213.217500", "121213.677500", "121214.137500", "121214.597500", "121215.057500", "121215.517500", "121215.977500", "121216.437500", "121216.897500", "121217.357500", "121217.817500", "121218.277500", "121218.737500", "121219.197500", "121219.657500", "121220.117500", "121220.577500", "121221.037500", "121221.497500", "121221.957500", "121222.417500", "121222.877500", "121223.337500", "121223.797500", "121224.257500", "121224.717500", "121225.177500", "121225.637500", "121226.097500", "121226.557500", "121227.017500", "121227.477500", "121227.937500", "121228.397500", "121228.857500", "121229.317500", "121229.777500", "121230.237500", "121230.697500", "121231.157500", "121231.617500", "121232.077500", "121232.537500", "121232.997500", "121233.457500", "121233.917500", "121234.377500", "121234.837500", "121235.297500", "121235.757500", "121236.217500", "121236.677500", "121237.137500", "121237.597500", "121238.057500", "121238.517500", "121238.977500", "121239.437500", "121239.897500", "121240.357500", "121240.817500", "121241.277500", "121241.737500", "121242.197500", "121242.657500", "121243.117500", "121243.577500", "121244.037500", "121244.497500", "121244.957500", "121245.417500", "121245.877500", "121246.337500", "121246.797500", "121247.257500", "121247.717500", "121248.177500", "121248.637500", "121249.097500", "121249.557500", "121250.017500", "121250.477500", "121250.937500", "121251.397500", "121251.857500", "121252.317500", "121252.777500", "121253.237500", "121253.697500", "121254.157500", "121254.617500", "121255.077500", "121255.537500", "121255.997500", "121256.457500", "121256.917500", "121257.377500", "121257.837500", "121258.297500", "121258.757500", "121259.217500", "121259.677500", "121300.137500", "121300.597500", "121301.057500", "121301.517500", "121301.977500", "121302.437500", "121302.897500", "121303.357500", "121303.817500", "121304.277500", "121304.737500", "121305.197500", "121305.657500", "121306.117500", "121306.577500", "121307.037500", "121307.497500", "121307.957500", "121308.417500", "121308.877500", "121309.337500", "121309.797500", "121310.257500", "121310.717500", "121311.177500", "121311.637500", "121312.097500", "121312.557500", "121313.017500", "121313.477500", "121313.937500", "121314.397500", "121314.857500", "121315.317500", "121315.777500", "121316.237500", "121316.697500", "121317.157500", "121317.617500", "121318.077500", "121318.537500", "121318.997500", "121319.457500", "121319.917500", "121320.377500", "121320.837500", "121321.297500", "121321.757500", "121322.217500", "121322.677500", "121323.137500", "121323.597500", "121324.057500", "121324.517500", "121324.977500", "121325.437500", "121325.897500", "121326.357500", "121326.817500", "121327.277500", "121327.737500", "121328.197500", "121328.657500", "121329.117500", "121329.577500", "121330.037500", "121330.497500", "121330.957500", "121331.417500", "121331.877500", "121332.337500", "121332.797500", "121333.257500", "121333.717500", "121334.177500", "121334.637500", "121335.097500", "121335.557500", "121336.017500", "121336.477500", "121336.937500", "121337.397500", "121337.857500", "121338.317500", "121338.777500", "121339.237500", "121339.697500", "121340.157500", "121340.617500", "121341.077500", "121341.537500", "121341.997500", "121342.457500", "121342.917500", "121343.377500", "121343.837500", "121344.297500", "121344.757500", "121345.217500", "121345.677500", "121346.137500", "121346.597500", "121347.057500", "121347.517500", "121347.977500", "121348.437500", "121348.897500", "121349.357500", "121349.817500", "121350.277500", "121350.737500", "121351.197500", "121351.657500", "121352.117500", "121352.577500", "121353.037500", "121353.497500", "121353.957500", "121354.417500", "121354.877500", "121355.337500", "121355.797500", "121356.257500", "121356.717500", "121357.177500", "121357.637500", "121358.097500", "121358.557500", "121359.017500", "121359.477500", "121359.937500", "121400.397500", "121400.857500", "121401.317500", "121401.777500", "121402.237500", "121402.697500", "121403.157500", "121403.617500", "121404.077500", "121404.537500", "121404.997500", "121405.457500", "121405.917500", "121406.377500", "121406.837500", "121407.297500", "121407.757500", "121408.217500", "121408.677500", "121409.137500", "121409.597500", "121410.057500", "121410.517500", "121410.977500", "121411.437500", "121411.897500", "121412.357500", "121412.817500", "121413.277500", "121413.737500", "121414.197500", "121414.657500", "121415.117500", "121415.577500", "121416.037500", "121416.497500", "121416.957500", "121417.417500", "121417.877500", "121418.337500", "121418.797500", "121419.257500", "121419.717500", "121420.177500", "121420.637500", "121421.097500", "121421.557500", "121422.017500", "121422.477500", "121422.937500", "121423.397500", "121423.857500", "121424.317500", "121424.777500", "121425.237500", "121425.697500", "121426.157500", "121426.617500", "121427.077500", "121427.537500", "121427.997500", "121428.457500", "121428.917500", "121429.377500", "121429.837500", "121430.297500", "121430.757500", "121431.217500", "121431.677500", "121432.137500", "121432.597500", "121433.057500", "121433.517500", "121433.977500", "121434.437500", "121434.897500", "121435.357500", "121435.817500", "121436.277500", "121436.737500", "121437.197500", "121437.657500", "121438.117500", "121438.577500", "121439.037500", "121439.497500", "121439.957500", "121440.417500", "121440.877500", "121441.337500", "121441.797500", "121442.257500", "121442.717500", "121443.177500", "121443.637500", "121444.097500", "121444.557500", "121445.017500", "121445.477500", "121445.937500", "121446.397500", "121446.857500", "121447.317500", "121447.777500", "121448.237500", "121448.697500", "121449.157500", "121449.617500", "121450.077500", "121450.537500", "121450.997500", "121451.457500", "121451.917500", "121452.377500", "121452.837500", "121453.297500", "121453.757500", "121454.217500", "121454.677500", "121455.137500", "121455.597500", "121456.057500", "121456.517500", "121456.977500", "121457.437500", "121457.897500", "121458.357500", "121458.817500", "121459.277500", "121459.737500", "121500.197500", "121500.657500", "121501.117500", "121501.577500", "121502.037500", "121502.497500", "121502.957500", "121503.417500", "121503.877500", "121504.337500", "121504.797500", "121505.257500", "121505.717500", "121506.177500", "121506.637500", "121507.097500", "121507.557500", "121508.017500", "121508.477500", "121508.937500", "121509.397500", "121509.857500", "121510.317500", "121510.777500", "121511.237500", "121511.697500", "121512.157500", "121512.617500", "121513.077500", "121513.537500", "121513.997500", "121514.457500", "121514.917500", "121515.377500", "121515.837500", "121516.297500", "121516.757500", "121517.217500", "121517.677500", "121518.137500", "121518.597500", "121519.057500", "121519.517500", "121519.977500", "121520.437500", "121520.897500", "121521.357500", "121521.817500", "121522.277500", "121522.737500", "121523.197500", "121523.657500", "121524.117500", "121524.577500", "121525.037500", "121525.497500", "121525.957500", "121526.417500", "121526.877500", "121527.337500", "121527.797500", "121528.257500", "121528.717500", "121529.177500", "121529.637500", "121530.097500", "121530.557500", "121531.017500", "121531.477500", "121531.937500", "121532.397500", "121532.857500", "121533.317500", "121533.777500", "121534.237500", "121534.697500", "121535.157500", "121535.617500", "121536.077500", "121536.537500", "121536.997500", "121537.457500", "121537.917500", "121538.377500", "121538.837500", "121539.297500", "121539.757500", "121540.217500", "121540.677500", "121541.137500", "121541.597500", "121542.057500", "121542.517500", "121542.977500", "121543.437500", "121543.897500", "121544.357500", "121544.817500", "121545.277500", "121545.737500", "121546.197500", "121546.657500", "121547.117500", "121547.577500", "121548.037500", "121548.497500", "121548.957500", "121549.417500", "121549.877500", "121550.337500", "121550.797500", "121551.257500", "121551.717500", "121552.177500", "121552.637500", "121553.097500", "121553.557500", "121554.017500", "121554.477500", "121554.937500", "121555.397500", "121555.857500", "121556.317500", "121556.777500", "121557.237500", "121557.697500", "121558.157500", "121558.617500", "121559.077500", "121559.537500", "121559.997500", "121600.457500", "121600.917500", "121601.377500", "121601.837500", "121602.297500", "121602.757500", "121603.217500", "121603.677500", "121604.137500", "121604.597500", "121605.057500", "121605.517500", "121605.977500", "121606.437500", "121606.897500", "121607.357500", "121607.817500", "121608.277500", "121608.737500", "121609.197500", "121609.657500", "121610.117500", "121610.577500", "121611.037500", "121611.497500", "121611.957500", "121612.417500", "121612.877500", "121613.337500", "121613.797500", "121614.257500", "121614.717500", "121615.177500", "121615.637500", "121616.097500", "121616.557500", "121617.017500", "121617.477500", "121617.937500", "121618.397500", "121618.857500", "121619.317500", "121619.777500", "121620.237500", "121620.697500", "121621.157500", "121621.617500", "121622.077500", "121622.537500", "121622.997500", "121623.457500", "121623.917500", "121624.377500", "121624.837500", "121625.297500", "121625.757500", "121626.217500", "121626.677500", "121627.137500", "121627.597500", "121628.057500", "121628.517500", "121628.977500", "121629.437500", "121629.897500", "121630.357500", "121630.817500", "121631.277500", "121631.737500", "121632.197500", "121632.657500", "121633.117500", "121633.577500", "121634.037500", "121634.497500", "121634.957500", "121635.417500", "121635.877500", "121636.337500", "121636.797500", "121637.257500", "121637.717500", "121638.177500", "121638.637500", "121639.097500", "121639.557500", "121640.017500", "121640.477500", "121640.937500", "121641.397500", "121641.857500", "121642.317500", "121642.777500", "121643.237500", "121643.697500", "121644.157500", "121644.617500", "121645.077500", "121645.537500", "121645.997500", "121646.457500", "121646.917500", "121647.377500", "121647.837500", "121648.297500", "121648.757500", "121649.217500", "121649.677500", "121650.137500", "121650.597500", "121651.057500", "121651.517500", "121651.977500", "121652.437500", "121652.897500", "121653.357500", "121653.817500", "121654.277500", "121654.737500", "121655.197500", "121655.657500", "121656.117500", "121656.577500", "121657.037500", "121657.497500", "121657.957500", "121658.417500", "121658.877500", "121659.337500", "121659.797500", "121700.257500", "121700.717500", "121701.177500", "121701.637500", "121702.097500", "121702.557500", "121703.017500", "121703.477500", "121703.937500", "121704.397500", "121704.857500", "121705.317500", "121705.777500", "121706.237500", "121706.697500", "121707.157500", "121707.617500", "121708.077500", "121708.537500", "121708.997500", "121709.457500", "121709.917500", "121710.377500", "121710.837500", "121711.297500", "121711.757500", "121712.217500", "121712.677500", "121713.137500", "121713.597500", "121714.057500", "121714.517500", "121714.977500", "121715.437500", "121715.897500", "121716.357500", "121716.817500", "121717.277500", "121717.737500", "121718.197500", "121718.657500", "121719.117500", "121719.577500", "121720.037500", "121720.497500", "121720.957500", "121721.417500", "121721.877500", "121722.337500", "121722.797500", "121723.257500", "121723.717500", "121724.177500", "121724.637500", "121725.097500", "121725.557500", "121726.017500", "121726.477500", "121726.937500", "121727.397500", "121727.857500", "121728.317500", "121728.777500", "121729.237500", "121729.697500", "121730.157500", "121730.617500", "121731.077500", "121731.537500", "121731.997500", "121732.457500", "121732.917500", "121733.377500", "121733.837500", "121734.297500", "121734.757500", "121735.217500", "121735.677500", "121736.137500", "121736.597500", "121737.057500", "121737.517500", "121737.977500", "121738.437500", "121738.897500", "121739.357500", "121739.817500", "121740.277500", "121740.737500", "121741.197500", "121741.657500", "121742.117500", "121742.577500", "121743.037500", "121743.497500", "121743.957500", "121744.417500", "121744.877500", "121745.337500", "121745.797500", "121746.257500", "121746.717500", "121747.177500", "121747.637500", "121748.097500", "121748.557500", "121749.017500", "121749.477500", "121749.937500", "121750.397500", "121750.857500", "121751.317500", "121751.777500", "121752.237500", "121752.697500", "121753.157500", "121753.617500", "121754.077500", "121754.537500", "121754.997500", "121755.457500", "121755.917500", "121756.377500", "121756.837500", "121757.297500", "121757.757500", "121758.217500", "121758.677500", "121759.137500", "121759.597500", "121800.057500", "121800.517500", "121800.977500", "121801.437500", "121801.897500", "121802.357500", "121802.817500", "121803.277500", "121803.737500", "121804.197500", "121804.657500", "121805.117500", "121805.577500", "121806.037500", "121806.497500", "121806.957500", "121807.417500", "121807.877500", "121808.337500", "121808.797500", "121809.257500", "121809.717500", "121810.177500", "121810.637500", "121811.097500", "121811.557500", "121812.017500", "121812.477500", "121812.937500", "121813.397500", "121813.857500", "121814.317500", "121814.777500", "121815.237500", "121815.697500", "121816.157500", "121816.617500", "121817.077500", "121817.537500", "121817.997500", "121818.457500", "121818.917500", "121819.377500", "121819.837500", "121820.297500", "121820.757500", "121821.217500", "121821.677500", "121822.137500"],
