{
  "AcquisitionMatrixPE": 82,
  "AcquisitionNumber": 1,
  "AcquisitionTime": "13:08:44.745000",
  "BandwidthPerPixelPhaseEncode": 24.888,
  "BaseResolution": 82,
  "BodyPartExamined": "BRAIN",
  "ConsistencyInfo": "N4_VE11E_LATEST_20181129",
  "ConversionSoftware": "dcm2niix",
  "ConversionSoftwareVersion": "v1.0.20201102",
  "DerivedVendorReportedEchoSpacing": 0.00049,
  "DeviceSerialNumber": "66112",
  "DwellTime": 2e-06,
  "EchoTime": 0.0272,
  "EchoTrainLength": 82,
  "EffectiveEchoSpacing": 0.00049,
  "FlipAngle": 44,
  "ImageComments": "Unaliased MB8/PE3",
  "ImageOrientationPatientDICOM": [0.999659, 0.0197592, 0.0170705, -0.0165765, 0.985339, -0.169802],
  "ImageType": [
    "ORIGINAL",
    "PRIMARY",
    "M",
    "MB",
    "ND",
    "NORM",
    "MOSAIC"
],
  "ImagingFrequency": 123.259,
  "InPlanePhaseEncodingDirectionDICOM": "COL",
  "InstitutionAddress": "Maynard 3,Hanover,NH,US,03755",
  "InstitutionName": "Dartmouth College - PBS",
  "InstitutionalDepartmentName": "Department",
  "MRAcquisitionType": "2D",
  "MagneticFieldStrength": 3,
  "Manufacturer": "Siemens",
  "ManufacturersModelName": "Prisma",
  "Modality": "MR",
  "MultibandAccelerationFactor": 8,
  "PartialFourier": 1,
  "PatientPosition": "HFS",
  "PercentPhaseFOV": 100,
  "PercentSampling": 100,
  "PhaseEncodingDirection": "j-",
  "PhaseEncodingSteps": 82,
  "PhaseResolution": 1,
  "PixelBandwidth": 3050,
  "ProcedureStepDescription": "Wager_Wager^1076_spacetop",
  "ProtocolName": "func_run-02_task-alignvideo_acq-ap-mb8",
  "PulseSequenceDetails": "%CustomerSeq%\\cmrr_mbep2d_bold",
  "ReceiveCoilActiveElements": "HEA;HEP",
  "ReceiveCoilName": "Head_32",
  "ReconMatrixPE": 82,
  "RepetitionTime": 0.46,
  "SAR": 0.12407,
  "ScanOptions": "FS",
  "ScanningSequence": "EP",
  "SequenceName": "epfid2d1_82",
  "SequenceVariant": "SK\\SS",
  "SeriesDescription": "func_run-02_task-alignvideo_acq-ap-mb8",
  "SeriesNumber": 32,
  "ShimSetting": [4227, -7747, -7227, 32, -174, -140, -37, 64],
  "SliceThickness": 2.7,
  "SliceTiming": [0, 0.25, 0.0625, 0.3125, 0.125, 0.375, 0.1875, 0, 0.25, 0.0625, 0.3125, 0.125, 0.375, 0.1875, 0, 0.25, 0.0625, 0.3125, 0.125, 0.375, 0.1875, 0, 0.25, 0.0625, 0.3125, 0.125, 0.375, 0.1875, 0, 0.25, 0.0625, 0.3125, 0.125, 0.375, 0.1875, 0, 0.25, 0.0625, 0.3125, 0.125, 0.375, 0.1875, 0, 0.25, 0.0625, 0.3125, 0.125, 0.375, 0.1875, 0, 0.25, 0.0625, 0.3125, 0.125, 0.375, 0.1875],
  "SoftwareVersions": "syngo MR E11",
  "SpacingBetweenSlices": 2.7,
  "StationName": "AWP66112",
  "TaskName": "alignvideo",
  "TotalReadoutTime": 0.03969,
  "TxRefAmp": 312.966,
  "WipMemBlock": "3e866b66-40a5-4453-aeea-225c1a79e516||Sequence: R016 ve11e/master r/434b28f1; Aug  7 2019 18:53:46 by eja",
  "dcmmeta_affine": [
    [-2.6820120811462402, -0.044473569840192795, 0.054473426192998886, 110.54507446289062],
    [-0.05301235616207123, 2.64359188079834, -0.45754456520080566, -81.67005920410156],
    [0.04579884186387062, 0.455565869808197, 2.6603920459747314, -96.53742980957031],
    [0.0, 0.0, 0.0, 1.0]
],
  "dcmmeta_reorient_transform": [
    [0.0, -1.0, 0.0, 81.0],
    [1.0, 0.0, 0.0, 0.0],
    [0.0, 0.0, 1.0, 0.0],
    [0.0, 0.0, 0.0, 1.0]
],
  "dcmmeta_shape": [82, 82, 56, 926],
  "dcmmeta_slice_dim": 2,
  "dcmmeta_version": 0.6,
  "global": {
    "const": {
      "AccessionNumber": "A004358",
      "AcquisitionMatrix": [82, 0, 0, 82],
      "AngioFlag": "N",
      "BitsAllocated": 16,
      "BitsStored": 16,
      "BodyPartExamined": "BRAIN",
      "Columns": 656,
      "EchoNumbers": 1,
      "EchoTime": 27.2,
      "EchoTrainLength": 82,
      "FlipAngle": 44.0,
      "HighBit": 15,
      "ImageOrientationPatient": [0.99965902925651, 0.01975915031517, 0.01707047757873, -0.0165765115569, 0.98533880568043, -0.1698018176725],
      "ImagePositionPatient": [-863.9162691762, -906.38633260867, 57.966540250595],
      "ImageType": [
        "ORIGINAL",
        "PRIMARY",
        "M",
        "MB",
        "ND",
        "NORM",
        "MOSAIC"
],
      "ImagedNucleus": "1H",
      "ImagingFrequency": 123.259097,
      "InPlanePhaseEncodingDirection": "COL",
      "MRAcquisitionType": "2D",
      "MagneticFieldStrength": 3.0,
      "Manufacturer": "SIEMENS",
      "ManufacturerModelName": "Prisma",
      "Modality": "MR",
      "NumberOfAverages": 1.0,
      "NumberOfPhaseEncodingSteps": 82,
      "PercentPhaseFieldOfView": 100.0,
      "PercentSampling": 100.0,
      "PerformedProcedureStepStartTime": "113350.578000",
      "PhotometricInterpretation": "MONOCHROME2",
      "PixelBandwidth": 3050.0,
      "PixelRepresentation": 0,
      "PixelSpacing": [2.6829268932343, 2.6829268932343],
      "ProtocolName": "func_run-02_task-alignvideo_acq-ap-mb8",
      "RepetitionTime": 460.0,
      "Rows": 656,
      "SAR": 0.12407021714399,
      "SamplesPerPixel": 1,
      "ScanOptions": "FS",
      "ScanningSequence": "EP",
      "SequenceName": "epfid2d1_82",
      "SequenceVariant": [
        "SK",
        "SS"
],
      "SeriesDescription": "func_run-02_task-alignvideo_acq-ap-mb8",
      "SeriesNumber": 32,
      "SeriesTime": "130907.318000",
      "SliceLocation": -79.051089873299,
      "SliceThickness": 2.7000000476837,
      "SmallestImagePixelValue": 0,
      "SoftwareVersions": "syngo MR E11",
      "SpacingBetweenSlices": 2.6999999300731,
      "SpecificCharacterSet": "ISO_IR 100",
      "StudyID": "4",
      "StudyTime": "113350.443000",
      "TransmitCoilName": "Body",
      "VariableFlipAngleFlag": "N",
      "WindowCenterWidthExplanation": "Algo1"
    },
    "slices": {}
  },
  "time": {
    "samples": {
      "AcquisitionNumber": [1, 2, 3, 4, 5, 6, 7, 8, 9, 10, 11, 12, 13, 14, 15, 16, 17, 18, 19, 20, 21, 22, 23, 24, 25, 26, 27, 28, 29, 30, 31, 32, 33, 34, 35, 36, 37, 38, 39, 40, 41, 42, 43, 44, 45, 46, 47, 48, 49, 50, 51, 52, 53, 54, 55, 56, 57, 58, 59, 60, 61, 62, 63, 64, 65, 66, 67, 68, 69, 70, 71, 72, 73, 74, 75, 76, 77, 78, 79, 80, 81, 82, 83, 84, 85, 86, 87, 88, 89, 90, 91, 92, 93, 94, 95, 96, 97, 98, 99, 100, 101, 102, 103, 104, 105, 106, 107, 108, 109, 110, 111, 112, 113, 114, 115, 116, 117, 118, 119, 120, 121, 122, 123, 124, 125, 126, 127, 128, 129, 130, 131, 132, 133, 134, 135, 136, 137, 138, 139, 140, 141, 142, 143, 144, 145, 146, 147, 148, 149, 150, 151, 152, 153, 154, 155, 156, 157, 158, 159, 160, 161, 162, 163, 164, 165, 166, 167, 168, 169, 170, 171, 172, 173, 174, 175, 176, 177, 178, 179, 180, 181, 182, 183, 184, 185, 186, 187, 188, 189, 190, 191, 192, 193, 194, 195, 196, 197, 198, 199, 200, 201, 202, 203, 204, 205, 206, 207, 208, 209, 210, 211, 212, 213, 214, 215, 216, 217, 218, 219, 220, 221, 222, 223, 224, 225, 226, 227, 228, 229, 230, 231, 232, 233, 234, 235, 236, 237, 238, 239, 240, 241, 242, 243, 244, 245, 246, 247, 248, 249, 250, 251, 252, 253, 254, 255, 256, 257, 258, 259, 260, 261, 262, 263, 264, 265, 266, 267, 268, 269, 270, 271, 272, 273, 274, 275, 276, 277, 278, 279, 280, 281, 282, 283, 284, 285, 286, 287, 288, 289, 290, 291, 292, 293, 294, 295, 296, 297, 298, 299, 300, 301, 302, 303, 304, 305, 306, 307, 308, 309, 310, 311, 312, 313, 314, 315, 316, 317, 318, 319, 320, 321, 322, 323, 324, 325, 326, 327, 328, 329, 330, 331, 332, 333, 334, 335, 336, 337, 338, 339, 340, 341, 342, 343, 344, 345, 346, 347, 348, 349, 350, 351, 352, 353, 354, 355, 356, 357, 358, 359, 360, 361, 362, 363, 364, 365, 366, 367, 368, 369, 370, 371, 372, 373, 374, 375, 376, 377, 378, 379, 380, 381, 382, 383, 384, 385, 386, 387, 388, 389, 390, 391, 392, 393, 394, 395, 396, 397, 398, 399, 400, 401, 402, 403, 404, 405, 406, 407, 408, 409, 410, 411, 412, 413, 414, 415, 416, 417, 418, 419, 420, 421, 422, 423, 424, 425, 426, 427, 428, 429, 430, 431, 432, 433, 434, 435, 436, 437, 438, 439, 440, 441, 442, 443, 444, 445, 446, 447, 448, 449, 450, 451, 452, 453, 454, 455, 456, 457, 458, 459, 460, 461, 462, 463, 464, 465, 466, 467, 468, 469, 470, 471, 472, 473, 474, 475, 476, 477, 478, 479, 480, 481, 482, 483, 484, 485, 486, 487, 488, 489, 490, 491, 492, 493, 494, 495, 496, 497, 498, 499, 500, 501, 502, 503, 504, 505, 506, 507, 508, 509, 510, 511, 512, 513, 514, 515, 516, 517, 518, 519, 520, 521, 522, 523, 524, 525, 526, 527, 528, 529, 530, 531, 532, 533, 534, 535, 536, 537, 538, 539, 540, 541, 542, 543, 544, 545, 546, 547, 548, 549, 550, 551, 552, 553, 554, 555, 556, 557, 558, 559, 560, 561, 562, 563, 564, 565, 566, 567, 568, 569, 570, 571, 572, 573, 574, 575, 576, 577, 578, 579, 580, 581, 582, 583, 584, 585, 586, 587, 588, 589, 590, 591, 592, 593, 594, 595, 596, 597, 598, 599, 600, 601, 602, 603, 604, 605, 606, 607, 608, 609, 610, 611, 612, 613, 614, 615, 616, 617, 618, 619, 620, 621, 622, 623, 624, 625, 626, 627, 628, 629, 630, 631, 632, 633, 634, 635, 636, 637, 638, 639, 640, 641, 642, 643, 644, 645, 646, 647, 648, 649, 650, 651, 652, 653, 654, 655, 656, 657, 658, 659, 660, 661, 662, 663, 664, 665, 666, 667, 668, 669, 670, 671, 672, 673, 674, 675, 676, 677, 678, 679, 680, 681, 682, 683, 684, 685, 686, 687, 688, 689, 690, 691, 692, 693, 694, 695, 696, 697, 698, 699, 700, 701, 702, 703, 704, 705, 706, 707, 708, 709, 710, 711, 712, 713, 714, 715, 716, 717, 718, 719, 720, 721, 722, 723, 724, 725, 726, 727, 728, 729, 730, 731, 732, 733, 734, 735, 736, 737, 738, 739, 740, 741, 742, 743, 744, 745, 746, 747, 748, 749, 750, 751, 752, 753, 754, 755, 756, 757, 758, 759, 760, 761, 762, 763, 764, 765, 766, 767, 768, 769, 770, 771, 772, 773, 774, 775, 776, 777, 778, 779, 780, 781, 782, 783, 784, 785, 786, 787, 788, 789, 790, 791, 792, 793, 794, 795, 796, 797, 798, 799, 800, 801, 802, 803, 804, 805, 806, 807, 808, 809, 810, 811, 812, 813, 814, 815, 816, 817, 818, 819, 820, 821, 822, 823, 824, 825, 826, 827, 828, 829, 830, 831, 832, 833, 834, 835, 836, 837, 838, 839, 840, 841, 842, 843, 844, 845, 846, 847, 848, 849, 850, 851, 852, 853, 854, 855, 856, 857, 858, 859, 860, 861, 862, 863, 864, 865, 866, 867, 868, 869, 870, 871, 872, 873, 874, 875, 876, 877, 878, 879, 880, 881, 882, 883, 884, 885, 886, 887, 888, 889, 890, 891, 892, 893, 894, 895, 896, 897, 898, 899, 900, 901, 902, 903, 904, 905, 906, 907, 908, 909, 910, 911, 912, 913, 914, 915, 916, 917, 918, 919, 920, 921, 922, 923, 924, 925, 926],
      "AcquisitionTime": ["130844.745000", "130845.205000", "130845.665000", "130846.125000", "130846.585000", "130847.045000", "130847.505000", "130847.965000", "130848.425000", "130848.885000", "130849.345000", "130849.805000", "130850.265000", "130850.725000", "130851.185000", "130851.645000", "130852.105000", "130852.565000", "130853.025000", "130853.485000", "130853.945000", "130854.405000", "130854.865000", "130855.325000", "130855.785000", "130856.245000", "130856.705000", "130857.165000", "130857.625000", "130858.085000", "130858.545000", "130859.005000", "130859.465000", "130859.925000", "130900.385000", "130900.845000", "130901.305000", "130901.765000", "130902.225000", "130902.685000", "130903.145000", "130903.605000", "130904.065000", "130904.525000", "130904.985000", "130905.445000", "130905.905000", "130906.365000", "130906.825000", "130907.285000", "130907.745000", "130908.205000", "130908.665000", "130909.125000", "130909.585000", "130910.045000", "130910.505000", "130910.965000", "130911.425000", "130911.885000", "130912.345000", "130912.805000", "130913.265000", "130913.725000", "130914.185000", "130914.645000", "130915.105000", "130915.565000", "130916.025000", "130916.485000", "130916.945000", "130917.405000", "130917.865000", "130918.325000", "130918.785000", "130919.245000", "130919.705000", "130920.165000", "130920.625000", "130921.085000", "130921.545000", "130922.005000", "130922.465000", "130922.925000", "130923.385000", "130923.845000", "130924.305000", "130924.765000", "130925.225000", "130925.685000", "130926.145000", "130926.605000", "130927.065000", "130927.525000", "130927.985000", "130928.445000", "130928.905000", "130929.365000", "130929.825000", "130930.285000", "130930.745000", "130931.205000", "130931.665000", "130932.125000", "130932.585000", "130933.045000", "130933.505000", "130933.965000", "130934.425000", "130934.885000", "130935.345000", "130935.805000", "130936.265000", "130936.725000", "130937.185000", "130937.645000", "130938.105000", "130938.565000", "130939.025000", "130939.485000", "130939.945000", "130940.405000", "130940.865000", "130941.325000", "130941.785000", "130942.245000", "130942.705000", "130943.165000", "130943.625000", "130944.085000", "130944.545000", "130945.005000", "130945.465000", "130945.925000", "130946.385000", "130946.845000", "130947.305000", "130947.765000", "130948.225000", "130948.685000", "130949.145000", "130949.605000", "130950.065000", "130950.525000", "130950.985000", "130951.445000", "130951.905000", "130952.365000", "130952.825000", "130953.285000", "130953.745000", "130954.205000", "130954.665000", "130955.125000", "130955.585000", "130956.045000", "130956.505000", "130956.965000", "130957.425000", "130957.885000", "130958.345000", "130958.805000", "130959.265000", "130959.725000", "131000.185000", "131000.645000", "131001.105000", "131001.565000", "131002.025000", "131002.485000", "131002.945000", "131003.405000", "131003.865000", "131004.325000", "131004.785000", "131005.245000", "131005.705000", "131006.165000", "131006.625000", "131007.085000", "131007.545000", "131008.005000", "131008.465000", "131008.925000", "131009.385000", "131009.845000", "131010.305000", "131010.765000", "131011.225000", "131011.685000", "131012.145000", "131012.605000", "131013.065000", "131013.525000", "131013.985000", "131014.445000", "131014.905000", "131015.365000", "131015.825000", "131016.285000", "131016.745000", "131017.205000", "131017.665000", "131018.125000", "131018.585000", "131019.045000", "131019.505000", "131019.965000", "131020.425000", "131020.885000", "131021.345000", "131021.805000", "131022.265000", "131022.725000", "131023.185000", "131023.645000", "131024.105000", "131024.565000", "131025.025000", "131025.485000", "131025.945000", "131026.405000", "131026.865000", "131027.325000", "131027.785000", "131028.245000", "131028.705000", "131029.165000", "131029.625000", "131030.085000", "131030.545000", "131031.005000", "131031.465000", "131031.925000", "131032.385000", "131032.845000", "131033.305000", "131033.765000", "131034.225000", "131034.685000", "131035.145000", "131035.605000", "131036.065000", "131036.525000", "131036.985000", "131037.445000", "131037.905000", "131038.365000", "131038.825000", "131039.285000", "131039.745000", "131040.205000", "131040.665000", "131041.125000", "131041.585000", "131042.045000", "131042.505000", "131042.965000", "131043.425000", "131043.885000", "131044.345000", "131044.805000", "131045.265000", "131045.725000", "131046.185000", "131046.645000", "131047.105000", "131047.565000", "131048.025000", "131048.485000", "131048.945000", "131049.405000", "131049.865000", "131050.325000", "131050.785000", "131051.245000", "131051.705000", "131052.165000", "131052.625000", "131053.085000", "131053.545000", "131054.005000", "131054.465000", "131054.925000", "131055.385000", "131055.845000", "131056.305000", "131056.765000", "131057.225000", "131057.685000", "131058.145000", "131058.605000", "131059.065000", "131059.525000", "131059.985000", "131100.445000", "131100.905000", "131101.365000", "131101.825000", "131102.285000", "131102.745000", "131103.205000", "131103.665000", "131104.125000", "131104.585000", "131105.045000", "131105.505000", "131105.965000", "131106.425000", "131106.885000", "131107.345000", "131107.805000", "131108.265000", "131108.725000", "131109.185000", "131109.645000", "131110.105000", "131110.565000", "131111.025000", "131111.485000", "131111.945000", "131112.405000", "131112.865000", "131113.325000", "131113.785000", "131114.245000", "131114.705000", "131115.165000", "131115.625000", "131116.085000", "131116.545000", "131117.005000", "131117.465000", "131117.925000", "131118.385000", "131118.845000", "131119.305000", "131119.765000", "131120.225000", "131120.685000", "131121.145000", "131121.605000", "131122.065000", "131122.525000", "131122.985000", "131123.445000", "131123.905000", "131124.365000", "131124.825000", "131125.285000", "131125.745000", "131126.205000", "131126.665000", "131127.125000", "131127.585000", "131128.045000", "131128.505000", "131128.965000", "131129.425000", "131129.885000", "131130.345000", "131130.805000", "131131.265000", "131131.725000", "131132.185000", "131132.645000", "131133.105000", "131133.565000", "131134.025000", "131134.485000", "131134.945000", "131135.405000", "131135.865000", "131136.325000", "131136.785000", "131137.245000", "131137.705000", "131138.165000", "131138.625000", "131139.085000", "131139.545000", "131140.005000", "131140.465000", "131140.925000", "131141.385000", "131141.845000", "131142.305000", "131142.765000", "131143.225000", "131143.685000", "131144.145000", "131144.605000", "131145.065000", "131145.525000", "131145.985000", "131146.445000", "131146.905000", "131147.365000", "131147.825000", "131148.285000", "131148.745000", "131149.205000", "131149.665000", "131150.125000", "131150.585000", "131151.045000", "131151.505000", "131151.965000", "131152.425000", "131152.885000", "131153.345000", "131153.805000", "131154.265000", "131154.725000", "131155.185000", "131155.645000", "131156.105000", "131156.565000", "131157.025000", "131157.485000", "131157.945000", "131158.405000", "131158.865000", "131159.325000", "131159.785000", "131200.245000", "131200.705000", "131201.165000", "131201.625000", "131202.085000", "131202.545000", "131203.005000", "131203.465000", "131203.925000", "131204.385000", "131204.845000", "131205.305000", "131205.765000", "131206.225000", "131206.685000", "131207.145000", "131207.605000", "131208.065000", "131208.525000", "131208.985000", "131209.445000", "131209.905000", "131210.365000", "131210.825000", "131211.285000", "131211.745000", "131212.205000", "131212.665000", "131213.125000", "131213.585000", "131214.045000", "131214.505000", "131214.965000", "131215.425000", "131215.885000", "131216.345000", "131216.805000", "131217.265000", "131217.725000", "131218.185000", "131218.645000", "131219.105000", "131219.565000", "131220.025000", "131220.485000", "131220.945000", "131221.405000", "131221.865000", "131222.325000", "131222.785000", "131223.245000", "131223.705000", "131224.165000", "131224.625000", "131225.085000", "131225.545000", "131226.005000", "131226.465000", "131226.925000", "131227.385000", "131227.845000", "131228.305000", "131228.765000", "131229.225000", "131229.685000", "131230.145000", "131230.605000", "131231.065000", "131231.525000", "131231.985000", "131232.445000", "131232.905000", "131233.365000", "131233.825000", "131234.285000", "131234.745000", "131235.205000", "131235.665000", "131236.125000", "131236.585000", "131237.045000", "131237.505000", "131237.965000", "131238.425000", "131238.885000", "131239.345000", "131239.805000", "131240.265000", "131240.725000", "131241.185000", "131241.645000", "131242.105000", "131242.565000", "131243.025000", "131243.485000", "131243.945000", "131244.405000", "131244.865000", "131245.325000", "131245.785000", "131246.245000", "131246.705000", "131247.165000", "131247.625000", "131248.085000", "131248.545000", "131249.005000", "131249.465000", "131249.925000", "131250.385000", "131250.845000", "131251.305000", "131251.765000", "131252.225000", "131252.685000", "131253.145000", "131253.605000", "131254.065000", "131254.525000", "131254.985000", "131255.445000", "131255.905000", "131256.365000", "131256.825000", "131257.285000", "131257.745000", "131258.205000", "131258.665000", "131259.125000", "131259.585000", "131300.045000", "131300.505000", "131300.965000", "131301.425000", "131301.885000", "131302.345000", "131302.805000", "131303.265000", "131303.725000", "131304.185000", "131304.645000", "131305.105000", "131305.565000", "131306.025000", "131306.485000", "131306.945000", "131307.405000", "131307.865000", "131308.325000", "131308.785000", "131309.245000", "131309.705000", "131310.165000", "131310.625000", "131311.085000", "131311.545000", "131312.005000", "131312.465000", "131312.925000", "131313.385000", "131313.845000", "131314.305000", "131314.765000", "131315.225000", "131315.685000", "131316.145000", "131316.605000", "131317.065000", "131317.525000", "131317.985000", "131318.445000", "131318.905000", "131319.365000", "131319.825000", "131320.285000", "131320.745000", "131321.205000", "131321.665000", "131322.125000", "131322.585000", "131323.045000", "131323.505000", "131323.965000", "131324.425000", "131324.885000", "131325.345000", "131325.805000", "131326.265000", "131326.725000", "131327.185000", "131327.645000", "131328.105000", "131328.565000", "131329.025000", "131329.485000", "131329.945000", "131330.405000", "131330.865000", "131331.325000", "131331.785000", "131332.245000", "131332.705000", "131333.165000", "131333.625000", "131334.085000", "131334.545000", "131335.005000", "131335.465000", "131335.925000", "131336.385000", "131336.845000", "131337.305000", "131337.765000", "131338.225000", "131338.685000", "131339.145000", "131339.605000", "131340.065000", "131340.525000", "131340.985000", "131341.445000", "131341.905000", "131342.365000", "131342.825000", "131343.285000", "131343.745000", "131344.205000", "131344.665000", "131345.125000", "131345.585000", "131346.045000", "131346.505000", "131346.965000", "131347.425000", "131347.885000", "131348.345000", "131348.805000", "131349.265000", "131349.725000", "131350.185000", "131350.645000", "131351.105000", "131351.565000", "131352.025000", "131352.485000", "131352.945000", "131353.405000", "131353.865000", "131354.325000", "131354.785000", "131355.245000", "131355.705000", "131356.165000", "131356.625000", "131357.085000", "131357.545000", "131358.005000", "131358.465000", "131358.925000", "131359.385000", "131359.845000", "131400.305000", "131400.765000", "131401.225000", "131401.685000", "131402.145000", "131402.605000", "131403.065000", "131403.525000", "131403.985000", "131404.445000", "131404.905000", "131405.365000", "131405.825000", "131406.285000", "131406.745000", "131407.205000", "131407.665000", "131408.125000", "131408.585000", "131409.045000", "131409.505000", "131409.965000", "131410.425000", "131410.885000", "131411.345000", "131411.805000", "131412.265000", "131412.725000", "131413.185000", "131413.645000", "131414.105000", "131414.565000", "131415.025000", "131415.485000", "131415.945000", "131416.405000", "131416.865000", "131417.325000", "131417.785000", "131418.245000", "131418.705000", "131419.165000", "131419.625000", "131420.085000", "131420.545000", "131421.005000", "131421.465000", "131421.925000", "131422.385000", "131422.845000", "131423.305000", "131423.765000", "131424.225000", "131424.685000", "131425.145000", "131425.605000", "131426.065000", "131426.525000", "131426.985000", "131427.445000", "131427.905000", "131428.365000", "131428.825000", "131429.285000", "131429.745000", "131430.205000", "131430.665000", "131431.125000", "131431.585000", "131432.045000", "131432.505000", "131432.965000", "131433.425000", "131433.885000", "131434.345000", "131434.805000", "131435.265000", "131435.725000", "131436.185000", "131436.645000", "131437.105000", "131437.565000", "131438.025000", "131438.485000", "131438.945000", "131439.405000", "131439.865000", "131440.325000", "131440.785000", "131441.245000", "131441.705000", "131442.165000", "131442.625000", "131443.085000", "131443.545000", "131444.005000", "131444.465000", "131444.925000", "131445.385000", "131445.845000", "131446.305000", "131446.765000", "131447.225000", "131447.685000", "131448.145000", "131448.605000", "131449.065000", "131449.525000", "131449.985000", "131450.445000", "131450.905000", "131451.365000", "131451.825000", "131452.285000", "131452.745000", "131453.205000", "131453.665000", "131454.125000", "131454.585000", "131455.045000", "131455.505000", "131455.965000", "131456.425000", "131456.885000", "131457.345000", "131457.805000", "131458.265000", "131458.725000", "131459.185000", "131459.645000", "131500.105000", "131500.565000", "131501.025000", "131501.485000", "131501.945000", "131502.405000", "131502.865000", "131503.325000", "131503.785000", "131504.245000", "131504.705000", "131505.165000", "131505.625000", "131506.085000", "131506.545000", "131507.005000", "131507.465000", "131507.925000", "131508.385000", "131508.845000", "131509.305000", "131509.765000", "131510.225000", "131510.685000", "131511.145000", "131511.605000", "131512.065000", "131512.525000", "131512.985000", "131513.445000", "131513.905000", "131514.365000", "131514.825000", "131515.285000", "131515.745000", "131516.205000", "131516.665000", "131517.125000", "131517.585000", "131518.045000", "131518.505000", "131518.965000", "131519.425000", "131519.885000", "131520.345000", "131520.805000", "131521.265000", "131521.725000", "131522.185000", "131522.645000", "131523.105000", "131523.565000", "131524.025000", "131524.485000", "131524.945000", "131525.405000", "131525.865000", "131526.325000", "131526.785000", "131527.245000", "131527.705000", "131528.165000", "131528.625000", "131529.085000", "131529.545000", "131530.005000", "131530.465000", "131530.925000", "131531.385000", "131531.845000", "131532.305000", "131532.765000", "131533.225000", "131533.685000", "131534.145000", "131534.605000", "131535.065000", "131535.525000", "131535.985000", "131536.445000", "131536.905000", "131537.365000", "131537.825000", "131538.285000", "131538.745000", "131539.205000", "131539.665000", "131540.125000", "131540.585000", "131541.045000", "131541.505000", "131541.965000", "131542.425000", "131542.885000", "131543.345000", "131543.805000", "131544.265000", "131544.725000", "131545.185000", "131545.645000", "131546.105000", "131546.565000", "131547.025000", "131547.485000", "131547.945000", "131548.405000", "131548.865000", "131549.325000", "131549.785000", "131550.245000"],
