{
  "AcquisitionMatrixPE": 82,
  "AcquisitionNumber": 1,
  "AcquisitionTime": "12:48:25.912500",
  "BandwidthPerPixelPhaseEncode": 24.888,
  "BaseResolution": 82,
  "BodyPartExamined": "BRAIN",
  "ConsistencyInfo": "N4_VE11E_LATEST_20181129",
  "ConversionSoftware": "dcm2niix",
  "ConversionSoftwareVersion": "v1.0.20201102",
  "DerivedVendorReportedEchoSpacing": 0.00049,
  "DeviceSerialNumber": "66112",
  "DwellTime": 2e-06,
  "EchoTime": 0.0272,
  "EchoTrainLength": 82,
  "EffectiveEchoSpacing": 0.00049,
  "FlipAngle": 44,
  "ImageComments": "Unaliased MB8/PE3",
  "ImageOrientationPatientDICOM": [0.999588, 0.0207368, 0.0198519, -0.0170989, 0.98555, -0.168517],
  "ImageType": [
    "ORIGINAL",
    "PRIMARY",
    "M",
    "MB",
    "ND",
    "NORM",
    "MOSAIC"
],
  "ImagingFrequency": 123.259,
  "InPlanePhaseEncodingDirectionDICOM": "COL",
  "InstitutionAddress": "Maynard 3,Hanover,NH,US,03755",
  "InstitutionName": "Dartmouth College - PBS",
  "InstitutionalDepartmentName": "Department",
  "MRAcquisitionType": "2D",
  "MagneticFieldStrength": 3,
  "Manufacturer": "Siemens",
  "ManufacturersModelName": "Prisma",
  "Modality": "MR",
  "MultibandAccelerationFactor": 8,
  "PartialFourier": 1,
  "PatientPosition": "HFS",
  "PercentPhaseFOV": 100,
  "PercentSampling": 100,
  "PhaseEncodingDirection": "j-",
  "PhaseEncodingSteps": 82,
  "PhaseResolution": 1,
  "PixelBandwidth": 3050,
  "ProcedureStepDescription": "Wager_Wager^1076_spacetop",
  "ProtocolName": "func_run-06_task-social_acq-ap-mb8",
  "PulseSequenceDetails": "%CustomerSeq%\\cmrr_mbep2d_bold",
  "ReceiveCoilActiveElements": "HEA;HEP",
  "ReceiveCoilName": "Head_32",
  "ReconMatrixPE": 82,
  "RepetitionTime": 0.46,
  "SAR": 0.124025,
  "ScanOptions": "FS",
  "ScanningSequence": "EP",
  "SequenceName": "epfid2d1_82",
  "SequenceVariant": "SK\\SS",
  "SeriesDescription": "func_run-06_task-social_acq-ap-mb8",
  "SeriesNumber": 22,
  "ShimSetting": [4227, -7746, -7226, 27, -175, -137, -42, 65],
  "SliceThickness": 2.7,
  "SliceTiming": [0, 0.2525, 0.0625, 0.315, 0.1275, 0.3775, 0.19, 0, 0.2525, 0.0625, 0.315, 0.1275, 0.3775, 0.19, 0, 0.2525, 0.0625, 0.315, 0.1275, 0.3775, 0.19, 0, 0.2525, 0.0625, 0.315, 0.1275, 0.3775, 0.19, 0, 0.2525, 0.0625, 0.315, 0.1275, 0.3775, 0.19, 0, 0.2525, 0.0625, 0.315, 0.1275, 0.3775, 0.19, 0, 0.2525, 0.0625, 0.315, 0.1275, 0.3775, 0.19, 0, 0.2525, 0.0625, 0.315, 0.1275, 0.3775, 0.19],
  "SoftwareVersions": "syngo MR E11",
  "SpacingBetweenSlices": 2.7,
  "StationName": "AWP66112",
  "TaskName": "social",
  "TotalReadoutTime": 0.03969,
  "TxRefAmp": 312.966,
  "WipMemBlock": "9863e2d6-866c-49a6-9cc4-ed2f216bf26b||Sequence: R016 ve11e/master r/434b28f1; Aug  7 2019 18:53:46 by eja",
  "dcmmeta_affine": [
    [-2.68182110786438, -0.04587496817111969, 0.06226077303290367, 109.84159851074219],
    [-0.055635400116443634, 2.6441595554351807, -0.45389285683631897, -84.07157135009766],
    [0.05326114967465401, 0.45211976766586304, 2.660846710205078, -94.26454162597656],
    [0.0, 0.0, 0.0, 1.0]
],
  "dcmmeta_reorient_transform": [
    [0.0, -1.0, 0.0, 81.0],
    [1.0, 0.0, 0.0, 0.0],
    [0.0, 0.0, 1.0, 0.0],
    [0.0, 0.0, 0.0, 1.0]
],
  "dcmmeta_shape": [82, 82, 56, 872],
  "dcmmeta_slice_dim": 2,
  "dcmmeta_version": 0.6,
  "global": {
    "const": {
      "AccessionNumber": "A004358",
      "AcquisitionMatrix": [82, 0, 0, 82],
      "AngioFlag": "N",
      "BitsAllocated": 16,
      "BitsStored": 16,
      "BodyPartExamined": "BRAIN",
      "Columns": 656,
      "EchoNumbers": 1,
      "EchoTime": 27.2,
      "EchoTrainLength": 82,
      "FlipAngle": 44.0,
      "HighBit": 15,
      "ImageOrientationPatient": [0.99958785837253, 0.02073683087867, 0.01985188251343, -0.0170988515524, 0.98555036784606, -0.1685173632421],
      "ImagePositionPatient": [-862.64228097663, -904.94651522207, 56.829585816151],
      "ImageType": [
        "ORIGINAL",
        "PRIMARY",
        "M",
        "MB",
        "ND",
        "NORM",
        "MOSAIC"
],
      "ImagedNucleus": "1H",
      "ImagingFrequency": 123.25909,
      "InPlanePhaseEncodingDirection": "COL",
      "MRAcquisitionType": "2D",
      "MagneticFieldStrength": 3.0,
      "Manufacturer": "SIEMENS",
      "ManufacturerModelName": "Prisma",
      "Modality": "MR",
      "NumberOfAverages": 1.0,
      "NumberOfPhaseEncodingSteps": 82,
      "PercentPhaseFieldOfView": 100.0,
      "PercentSampling": 100.0,
      "PerformedProcedureStepStartTime": "113350.578000",
      "PhotometricInterpretation": "MONOCHROME2",
      "PixelBandwidth": 3050.0,
      "PixelRepresentation": 0,
      "PixelSpacing": [2.6829268932343, 2.6829268932343],
      "ProtocolName": "func_run-06_task-social_acq-ap-mb8",
      "RepetitionTime": 460.0,
      "Rows": 656,
      "SAR": 0.1240252893052,
      "SamplesPerPixel": 1,
      "ScanOptions": "FS",
      "ScanningSequence": "EP",
      "SequenceName": "epfid2d1_82",
      "SequenceVariant": [
        "SK",
        "SS"
],
      "SeriesDescription": "func_run-06_task-social_acq-ap-mb8",
      "SeriesNumber": 22,
      "SeriesTime": "124847.112000",
      "SliceLocation": -76.231544609587,
      "SliceThickness": 2.7000000476837,
      "SmallestImagePixelValue": 0,
      "SoftwareVersions": "syngo MR E11",
      "SpacingBetweenSlices": 2.6999999949793,
      "SpecificCharacterSet": "ISO_IR 100",
      "StudyID": "4",
      "StudyTime": "113350.443000",
      "TransmitCoilName": "Body",
      "VariableFlipAngleFlag": "N",
      "WindowCenterWidthExplanation": "Algo1"
    },
    "slices": {}
  },
  "time": {
    "samples": {
      "AcquisitionNumber": [1, 2, 3, 4, 5, 6, 7, 8, 9, 10, 11, 12, 13, 14, 15, 16, 17, 18, 19, 20, 21, 22, 23, 24, 25, 26, 27, 28, 29, 30, 31, 32, 33, 34, 35, 36, 37, 38, 39, 40, 41, 42, 43, 44, 45, 46, 47, 48, 49, 50, 51, 52, 53, 54, 55, 56, 57, 58, 59, 60, 61, 62, 63, 64, 65, 66, 67, 68, 69, 70, 71, 72, 73, 74, 75, 76, 77, 78, 79, 80, 81, 82, 83, 84, 85, 86, 87, 88, 89, 90, 91, 92, 93, 94, 95, 96, 97, 98, 99, 100, 101, 102, 103, 104, 105, 106, 107, 108, 109, 110, 111, 112, 113, 114, 115, 116, 117, 118, 119, 120, 121, 122, 123, 124, 125, 126, 127, 128, 129, 130, 131, 132, 133, 134, 135, 136, 137, 138, 139, 140, 141, 142, 143, 144, 145, 146, 147, 148, 149, 150, 151, 152, 153, 154, 155, 156, 157, 158, 159, 160, 161, 162, 163, 164, 165, 166, 167, 168, 169, 170, 171, 172, 173, 174, 175, 176, 177, 178, 179, 180, 181, 182, 183, 184, 185, 186, 187, 188, 189, 190, 191, 192, 193, 194, 195, 196, 197, 198, 199, 200, 201, 202, 203, 204, 205, 206, 207, 208, 209, 210, 211, 212, 213, 214, 215, 216, 217, 218, 219, 220, 221, 222, 223, 224, 225, 226, 227, 228, 229, 230, 231, 232, 233, 234, 235, 236, 237, 238, 239, 240, 241, 242, 243, 244, 245, 246, 247, 248, 249, 250, 251, 252, 253, 254, 255, 256, 257, 258, 259, 260, 261, 262, 263, 264, 265, 266, 267, 268, 269, 270, 271, 272, 273, 274, 275, 276, 277, 278, 279, 280, 281, 282, 283, 284, 285, 286, 287, 288, 289, 290, 291, 292, 293, 294, 295, 296, 297, 298, 299, 300, 301, 302, 303, 304, 305, 306, 307, 308, 309, 310, 311, 312, 313, 314, 315, 316, 317, 318, 319, 320, 321, 322, 323, 324, 325, 326, 327, 328, 329, 330, 331, 332, 333, 334, 335, 336, 337, 338, 339, 340, 341, 342, 343, 344, 345, 346, 347, 348, 349, 350, 351, 352, 353, 354, 355, 356, 357, 358, 359, 360, 361, 362, 363, 364, 365, 366, 367, 368, 369, 370, 371, 372, 373, 374, 375, 376, 377, 378, 379, 380, 381, 382, 383, 384, 385, 386, 387, 388, 389, 390, 391, 392, 393, 394, 395, 396, 397, 398, 399, 400, 401, 402, 403, 404, 405, 406, 407, 408, 409, 410, 411, 412, 413, 414, 415, 416, 417, 418, 419, 420, 421, 422, 423, 424, 425, 426, 427, 428, 429, 430, 431, 432, 433, 434, 435, 436, 437, 438, 439, 440, 441, 442, 443, 444, 445, 446, 447, 448, 449, 450, 451, 452, 453, 454, 455, 456, 457, 458, 459, 460, 461, 462, 463, 464, 465, 466, 467, 468, 469, 470, 471, 472, 473, 474, 475, 476, 477, 478, 479, 480, 481, 482, 483, 484, 485, 486, 487, 488, 489, 490, 491, 492, 493, 494, 495, 496, 497, 498, 499, 500, 501, 502, 503, 504, 505, 506, 507, 508, 509, 510, 511, 512, 513, 514, 515, 516, 517, 518, 519, 520, 521, 522, 523, 524, 525, 526, 527, 528, 529, 530, 531, 532, 533, 534, 535, 536, 537, 538, 539, 540, 541, 542, 543, 544, 545, 546, 547, 548, 549, 550, 551, 552, 553, 554, 555, 556, 557, 558, 559, 560, 561, 562, 563, 564, 565, 566, 567, 568, 569, 570, 571, 572, 573, 574, 575, 576, 577, 578, 579, 580, 581, 582, 583, 584, 585, 586, 587, 588, 589, 590, 591, 592, 593, 594, 595, 596, 597, 598, 599, 600, 601, 602, 603, 604, 605, 606, 607, 608, 609, 610, 611, 612, 613, 614, 615, 616, 617, 618, 619, 620, 621, 622, 623, 624, 625, 626, 627, 628, 629, 630, 631, 632, 633, 634, 635, 636, 637, 638, 639, 640, 641, 642, 643, 644, 645, 646, 647, 648, 649, 650, 651, 652, 653, 654, 655, 656, 657, 658, 659, 660, 661, 662, 663, 664, 665, 666, 667, 668, 669, 670, 671, 672, 673, 674, 675, 676, 677, 678, 679, 680, 681, 682, 683, 684, 685, 686, 687, 688, 689, 690, 691, 692, 693, 694, 695, 696, 697, 698, 699, 700, 701, 702, 703, 704, 705, 706, 707, 708, 709, 710, 711, 712, 713, 714, 715, 716, 717, 718, 719, 720, 721, 722, 723, 724, 725, 726, 727, 728, 729, 730, 731, 732, 733, 734, 735, 736, 737, 738, 739, 740, 741, 742, 743, 744, 745, 746, 747, 748, 749, 750, 751, 752, 753, 754, 755, 756, 757, 758, 759, 760, 761, 762, 763, 764, 765, 766, 767, 768, 769, 770, 771, 772, 773, 774, 775, 776, 777, 778, 779, 780, 781, 782, 783, 784, 785, 786, 787, 788, 789, 790, 791, 792, 793, 794, 795, 796, 797, 798, 799, 800, 801, 802, 803, 804, 805, 806, 807, 808, 809, 810, 811, 812, 813, 814, 815, 816, 817, 818, 819, 820, 821, 822, 823, 824, 825, 826, 827, 828, 829, 830, 831, 832, 833, 834, 835, 836, 837, 838, 839, 840, 841, 842, 843, 844, 845, 846, 847, 848, 849, 850, 851, 852, 853, 854, 855, 856, 857, 858, 859, 860, 861, 862, 863, 864, 865, 866, 867, 868, 869, 870, 871, 872],
      "AcquisitionTime": ["124825.912500", "124826.372500", "124826.832500", "124827.292500", "124827.752500", "124828.212500", "124828.672500", "124829.132500", "124829.592500", "124830.052500", "124830.512500", "124830.972500", "124831.432500", "124831.892500", "124832.352500", "124832.812500", "124833.272500", "124833.732500", "124834.192500", "124834.652500", "124835.112500", "124835.572500", "124836.032500", "124836.492500", "124836.952500", "124837.412500", "124837.872500", "124838.332500", "124838.792500", "124839.252500", "124839.712500", "124840.172500", "124840.632500", "124841.092500", "124841.552500", "124842.012500", "124842.472500", "124842.932500", "124843.392500", "124843.852500", "124844.312500", "124844.772500", "124845.232500", "124845.692500", "124846.152500", "124846.612500", "124847.072500", "124847.532500", "124847.992500", "124848.452500", "124848.912500", "124849.372500", "124849.832500", "124850.292500", "124850.752500", "124851.212500", "124851.672500", "124852.132500", "124852.592500", "124853.052500", "124853.512500", "124853.972500", "124854.432500", "124854.892500", "124855.352500", "124855.812500", "124856.272500", "124856.732500", "124857.192500", "124857.652500", "124858.112500", "124858.572500", "124859.032500", "124859.492500", "124859.952500", "124900.412500", "124900.872500", "124901.332500", "124901.792500", "124902.252500", "124902.712500", "124903.172500", "124903.632500", "124904.092500", "124904.552500", "124905.012500", "124905.472500", "124905.932500", "124906.392500", "124906.852500", "124907.312500", "124907.772500", "124908.232500", "124908.692500", "124909.152500", "124909.612500", "124910.072500", "124910.532500", "124910.992500", "124911.452500", "124911.912500", "124912.372500", "124912.832500", "124913.292500", "124913.752500", "124914.212500", "124914.672500", "124915.132500", "124915.592500", "124916.052500", "124916.512500", "124916.972500", "124917.432500", "124917.892500", "124918.352500", "124918.812500", "124919.272500", "124919.732500", "124920.192500", "124920.652500", "124921.112500", "124921.572500", "124922.032500", "124922.492500", "124922.952500", "124923.412500", "124923.872500", "124924.332500", "124924.792500", "124925.252500", "124925.712500", "124926.172500", "124926.632500", "124927.092500", "124927.552500", "124928.012500", "124928.472500", "124928.932500", "124929.392500", "124929.852500", "124930.312500", "124930.772500", "124931.232500", "124931.692500", "124932.152500", "124932.612500", "124933.072500", "124933.532500", "124933.992500", "124934.452500", "124934.912500", "124935.372500", "124935.832500", "124936.292500", "124936.752500", "124937.212500", "124937.672500", "124938.132500", "124938.592500", "124939.052500", "124939.512500", "124939.972500", "124940.432500", "124940.892500", "124941.352500", "124941.812500", "124942.272500", "124942.732500", "124943.192500", "124943.652500", "124944.112500", "124944.572500", "124945.032500", "124945.492500", "124945.952500", "124946.412500", "124946.872500", "124947.332500", "124947.792500", "124948.252500", "124948.712500", "124949.172500", "124949.632500", "124950.092500", "124950.552500", "124951.012500", "124951.472500", "124951.932500", "124952.392500", "124952.852500", "124953.312500", "124953.772500", "124954.232500", "124954.692500", "124955.152500", "124955.612500", "124956.072500", "124956.532500", "124956.992500", "124957.452500", "124957.912500", "124958.372500", "124958.832500", "124959.292500", "124959.752500", "125000.212500", "125000.672500", "125001.132500", "125001.592500", "125002.052500", "125002.512500", "125002.972500", "125003.432500", "125003.892500", "125004.352500", "125004.812500", "125005.272500", "125005.732500", "125006.192500", "125006.652500", "125007.112500", "125007.572500", "125008.032500", "125008.492500", "125008.952500", "125009.412500", "125009.872500", "125010.332500", "125010.792500", "125011.252500", "125011.712500", "125012.172500", "125012.632500", "125013.092500", "125013.552500", "125014.012500", "125014.472500", "125014.932500", "125015.392500", "125015.852500", "125016.312500", "125016.772500", "125017.232500", "125017.692500", "125018.152500", "125018.612500", "125019.072500", "125019.532500", "125019.992500", "125020.452500", "125020.912500", "125021.372500", "125021.832500", "125022.292500", "125022.752500", "125023.212500", "125023.672500", "125024.132500", "125024.592500", "125025.052500", "125025.512500", "125025.972500", "125026.432500", "125026.892500", "125027.352500", "125027.812500", "125028.272500", "125028.732500", "125029.192500", "125029.652500", "125030.112500", "125030.572500", "125031.032500", "125031.492500", "125031.952500", "125032.412500", "125032.872500", "125033.332500", "125033.792500", "125034.252500", "125034.712500", "125035.172500", "125035.632500", "125036.092500", "125036.552500", "125037.012500", "125037.472500", "125037.932500", "125038.392500", "125038.852500", "125039.312500", "125039.772500", "125040.232500", "125040.692500", "125041.152500", "125041.612500", "125042.072500", "125042.532500", "125042.992500", "125043.452500", "125043.912500", "125044.372500", "125044.832500", "125045.292500", "125045.752500", "125046.212500", "125046.672500", "125047.132500", "125047.592500", "125048.052500", "125048.512500", "125048.972500", "125049.432500", "125049.892500", "125050.352500", "125050.812500", "125051.272500", "125051.732500", "125052.192500", "125052.652500", "125053.112500", "125053.572500", "125054.032500", "125054.492500", "125054.952500", "125055.412500", "125055.872500", "125056.332500", "125056.792500", "125057.252500", "125057.712500", "125058.172500", "125058.632500", "125059.092500", "125059.552500", "125100.012500", "125100.472500", "125100.932500", "125101.392500", "125101.852500", "125102.312500", "125102.772500", "125103.232500", "125103.692500", "125104.152500", "125104.612500", "125105.072500", "125105.532500", "125105.992500", "125106.452500", "125106.912500", "125107.372500", "125107.832500", "125108.292500", "125108.752500", "125109.212500", "125109.672500", "125110.132500", "125110.592500", "125111.052500", "125111.512500", "125111.972500", "125112.432500", "125112.892500", "125113.352500", "125113.812500", "125114.272500", "125114.732500", "125115.192500", "125115.652500", "125116.112500", "125116.572500", "125117.032500", "125117.492500", "125117.952500", "125118.412500", "125118.872500", "125119.332500", "125119.792500", "125120.252500", "125120.712500", "125121.172500", "125121.632500", "125122.092500", "125122.552500", "125123.012500", "125123.472500", "125123.932500", "125124.392500", "125124.852500", "125125.312500", "125125.772500", "125126.232500", "125126.692500", "125127.152500", "125127.612500", "125128.072500", "125128.532500", "125128.992500", "125129.452500", "125129.912500", "125130.372500", "125130.832500", "125131.292500", "125131.752500", "125132.212500", "125132.672500", "125133.132500", "125133.592500", "125134.052500", "125134.512500", "125134.972500", "125135.432500", "125135.892500", "125136.352500", "125136.812500", "125137.272500", "125137.732500", "125138.192500", "125138.652500", "125139.112500", "125139.572500", "125140.032500", "125140.492500", "125140.952500", "125141.412500", "125141.872500", "125142.332500", "125142.792500", "125143.252500", "125143.712500", "125144.172500", "125144.632500", "125145.092500", "125145.552500", "125146.012500", "125146.472500", "125146.932500", "125147.392500", "125147.852500", "125148.312500", "125148.772500", "125149.232500", "125149.692500", "125150.152500", "125150.612500", "125151.072500", "125151.532500", "125151.992500", "125152.452500", "125152.912500", "125153.372500", "125153.832500", "125154.292500", "125154.752500", "125155.212500", "125155.672500", "125156.132500", "125156.592500", "125157.052500", "125157.512500", "125157.972500", "125158.432500", "125158.892500", "125159.352500", "125159.812500", "125200.272500", "125200.732500", "125201.192500", "125201.652500", "125202.112500", "125202.572500", "125203.032500", "125203.492500", "125203.952500", "125204.412500", "125204.872500", "125205.332500", "125205.792500", "125206.252500", "125206.712500", "125207.172500", "125207.632500", "125208.092500", "125208.552500", "125209.012500", "125209.472500", "125209.932500", "125210.392500", "125210.852500", "125211.312500", "125211.772500", "125212.232500", "125212.692500", "125213.152500", "125213.612500", "125214.072500", "125214.532500", "125214.992500", "125215.452500", "125215.912500", "125216.372500", "125216.832500", "125217.292500", "125217.752500", "125218.212500", "125218.672500", "125219.132500", "125219.592500", "125220.052500", "125220.512500", "125220.972500", "125221.432500", "125221.892500", "125222.352500", "125222.812500", "125223.272500", "125223.732500", "125224.192500", "125224.652500", "125225.112500", "125225.572500", "125226.032500", "125226.492500", "125226.952500", "125227.412500", "125227.872500", "125228.332500", "125228.792500", "125229.252500", "125229.712500", "125230.172500", "125230.632500", "125231.092500", "125231.552500", "125232.012500", "125232.472500", "125232.932500", "125233.392500", "125233.852500", "125234.312500", "125234.772500", "125235.232500", "125235.692500", "125236.152500", "125236.612500", "125237.072500", "125237.532500", "125237.992500", "125238.452500", "125238.912500", "125239.372500", "125239.832500", "125240.292500", "125240.752500", "125241.212500", "125241.672500", "125242.132500", "125242.592500", "125243.052500", "125243.512500", "125243.972500", "125244.432500", "125244.892500", "125245.352500", "125245.812500", "125246.272500", "125246.732500", "125247.192500", "125247.652500", "125248.112500", "125248.572500", "125249.032500", "125249.492500", "125249.952500", "125250.412500", "125250.872500", "125251.332500", "125251.792500", "125252.252500", "125252.712500", "125253.172500", "125253.632500", "125254.092500", "125254.552500", "125255.012500", "125255.472500", "125255.932500", "125256.392500", "125256.852500", "125257.312500", "125257.772500", "125258.232500", "125258.692500", "125259.152500", "125259.612500", "125300.072500", "125300.532500", "125300.992500", "125301.452500", "125301.912500", "125302.372500", "125302.832500", "125303.292500", "125303.752500", "125304.212500", "125304.672500", "125305.132500", "125305.592500", "125306.052500", "125306.512500", "125306.972500", "125307.432500", "125307.892500", "125308.352500", "125308.812500", "125309.272500", "125309.732500", "125310.192500", "125310.652500", "125311.112500", "125311.572500", "125312.032500", "125312.492500", "125312.952500", "125313.412500", "125313.872500", "125314.332500", "125314.792500", "125315.252500", "125315.712500", "125316.172500", "125316.632500", "125317.092500", "125317.552500", "125318.012500", "125318.472500", "125318.932500", "125319.392500", "125319.852500", "125320.312500", "125320.772500", "125321.232500", "125321.692500", "125322.152500", "125322.612500", "125323.072500", "125323.532500", "125323.992500", "125324.452500", "125324.912500", "125325.372500", "125325.832500", "125326.292500", "125326.752500", "125327.212500", "125327.672500", "125328.132500", "125328.592500", "125329.052500", "125329.512500", "125329.972500", "125330.432500", "125330.892500", "125331.352500", "125331.812500", "125332.272500", "125332.732500", "125333.192500", "125333.652500", "125334.112500", "125334.572500", "125335.032500", "125335.492500", "125335.952500", "125336.412500", "125336.872500", "125337.332500", "125337.792500", "125338.252500", "125338.712500", "125339.172500", "125339.632500", "125340.092500", "125340.552500", "125341.012500", "125341.472500", "125341.932500", "125342.392500", "125342.852500", "125343.312500", "125343.772500", "125344.232500", "125344.692500", "125345.152500", "125345.612500", "125346.072500", "125346.532500", "125346.992500", "125347.452500", "125347.912500", "125348.372500", "125348.832500", "125349.292500", "125349.752500", "125350.212500", "125350.672500", "125351.132500", "125351.592500", "125352.052500", "125352.512500", "125352.972500", "125353.432500", "125353.892500", "125354.352500", "125354.812500", "125355.272500", "125355.732500", "125356.192500", "125356.652500", "125357.112500", "125357.572500", "125358.032500", "125358.492500", "125358.952500", "125359.412500", "125359.872500", "125400.332500", "125400.792500", "125401.252500", "125401.712500", "125402.172500", "125402.632500", "125403.092500", "125403.552500", "125404.012500", "125404.472500", "125404.932500", "125405.392500", "125405.852500", "125406.312500", "125406.772500", "125407.232500", "125407.692500", "125408.152500", "125408.612500", "125409.072500", "125409.532500", "125409.992500", "125410.452500", "125410.912500", "125411.372500", "125411.832500", "125412.292500", "125412.752500", "125413.212500", "125413.672500", "125414.132500", "125414.592500", "125415.052500", "125415.512500", "125415.972500", "125416.432500", "125416.892500", "125417.352500", "125417.812500", "125418.272500", "125418.732500", "125419.192500", "125419.652500", "125420.112500", "125420.572500", "125421.032500", "125421.492500", "125421.952500", "125422.412500", "125422.872500", "125423.332500", "125423.792500", "125424.252500", "125424.712500", "125425.172500", "125425.632500", "125426.092500", "125426.552500", "125427.012500", "125427.472500", "125427.932500", "125428.392500", "125428.852500", "125429.312500", "125429.772500", "125430.232500", "125430.692500", "125431.152500", "125431.612500", "125432.072500", "125432.532500", "125432.992500", "125433.452500", "125433.912500", "125434.372500", "125434.832500", "125435.292500", "125435.752500", "125436.212500", "125436.672500", "125437.132500", "125437.592500", "125438.052500", "125438.512500", "125438.972500", "125439.432500", "125439.892500", "125440.352500", "125440.812500", "125441.272500", "125441.732500", "125442.192500", "125442.652500", "125443.112500", "125443.572500", "125444.032500", "125444.492500", "125444.952500", "125445.412500", "125445.872500", "125446.332500", "125446.792500", "125447.252500", "125447.712500", "125448.172500", "125448.632500", "125449.092500", "125449.552500", "125450.012500", "125450.472500", "125450.932500", "125451.392500", "125451.852500", "125452.312500", "125452.772500", "125453.232500", "125453.692500", "125454.152500", "125454.612500", "125455.072500", "125455.532500", "125455.992500", "125456.452500", "125456.912500", "125457.372500", "125457.832500", "125458.292500", "125458.752500", "125459.212500", "125459.672500", "125500.132500", "125500.592500", "125501.052500", "125501.512500", "125501.972500", "125502.432500", "125502.892500", "125503.352500", "125503.812500", "125504.272500", "125504.732500", "125505.192500", "125505.652500", "125506.112500", "125506.572500"],
