{
  "AcquisitionMatrixPE": 82,
  "AcquisitionNumber": 1,
  "AcquisitionTime": "12:25:59.225000",
  "BandwidthPerPixelPhaseEncode": 24.888,
  "BaseResolution": 82,
  "BodyPartExamined": "BRAIN",
  "ConsistencyInfo": "N4_VE11E_LATEST_20181129",
  "ConversionSoftware": "dcm2niix",
  "ConversionSoftwareVersion": "v1.0.20201102",
  "DerivedVendorReportedEchoSpacing": 0.00049,
  "DeviceSerialNumber": "66112",
  "DwellTime": 2e-06,
  "EchoTime": 0.0272,
  "EchoTrainLength": 82,
  "EffectiveEchoSpacing": 0.00049,
  "FlipAngle": 44,
  "ImageComments": "Unaliased MB8/PE3",
  "ImageOrientationPatientDICOM": [0.999588, 0.0207368, 0.0198519, -0.0170989, 0.98555, -0.168517],
  "ImageType": [
    "ORIGINAL",
    "PRIMARY",
    "M",
    "MB",
    "ND",
    "NORM",
    "MOSAIC"
],
  "ImagingFrequency": 123.259,
  "InPlanePhaseEncodingDirectionDICOM": "COL",
  "InstitutionAddress": "Maynard 3,Hanover,NH,US,03755",
  "InstitutionName": "Dartmouth College - PBS",
  "InstitutionalDepartmentName": "Department",
  "MRAcquisitionType": "2D",
  "MagneticFieldStrength": 3,
  "Manufacturer": "Siemens",
  "ManufacturersModelName": "Prisma",
  "Modality": "MR",
  "MultibandAccelerationFactor": 8,
  "PartialFourier": 1,
  "PatientPosition": "HFS",
  "PercentPhaseFOV": 100,
  "PercentSampling": 100,
  "PhaseEncodingDirection": "j-",
  "PhaseEncodingSteps": 82,
  "PhaseResolution": 1,
  "PixelBandwidth": 3050,
  "ProcedureStepDescription": "Wager_Wager^1076_spacetop",
  "ProtocolName": "func_run-03_task-social_acq-ap-mb8",
  "PulseSequenceDetails": "%CustomerSeq%\\cmrr_mbep2d_bold",
  "ReceiveCoilActiveElements": "HEA;HEP",
  "ReceiveCoilName": "Head_32",
  "ReconMatrixPE": 82,
  "RepetitionTime": 0.46,
  "SAR": 0.124025,
  "ScanOptions": "FS",
  "ScanningSequence": "EP",
  "SequenceName": "epfid2d1_82",
  "SequenceVariant": "SK\\SS",
  "SeriesDescription": "func_run-03_task-social_acq-ap-mb8",
  "SeriesNumber": 16,
  "ShimSetting": [4227, -7746, -7226, 27, -175, -137, -42, 65],
  "SliceThickness": 2.7,
  "SliceTiming": [0, 0.2525, 0.0625, 0.315, 0.1275, 0.3775, 0.19, 0, 0.2525, 0.0625, 0.315, 0.1275, 0.3775, 0.19, 0, 0.2525, 0.0625, 0.315, 0.1275, 0.3775, 0.19, 0, 0.2525, 0.0625, 0.315, 0.1275, 0.3775, 0.19, 0, 0.2525, 0.0625, 0.315, 0.1275, 0.3775, 0.19, 0, 0.2525, 0.0625, 0.315, 0.1275, 0.3775, 0.19, 0, 0.2525, 0.0625, 0.315, 0.1275, 0.3775, 0.19, 0, 0.2525, 0.0625, 0.315, 0.1275, 0.3775, 0.19],
  "SoftwareVersions": "syngo MR E11",
  "SpacingBetweenSlices": 2.7,
  "StationName": "AWP66112",
  "TaskName": "social",
  "TotalReadoutTime": 0.03969,
  "TxRefAmp": 312.966,
  "WipMemBlock": "a099b497-fa08-452e-b124-2384898c6aa2||Sequence: R016 ve11e/master r/434b28f1; Aug  7 2019 18:53:46 by eja",
  "dcmmeta_affine": [
    [-2.68182110786438, -0.04587496817111969, 0.06226077303290367, 109.84159851074219],
    [-0.055635400116443634, 2.6441595554351807, -0.45389285683631897, -84.07157135009766],
    [0.05326114967465401, 0.45211976766586304, 2.660846710205078, -94.26454162597656],
    [0.0, 0.0, 0.0, 1.0]
],
  "dcmmeta_reorient_transform": [
    [0.0, -1.0, 0.0, 81.0],
    [1.0, 0.0, 0.0, 0.0],
    [0.0, 0.0, 1.0, 0.0],
    [0.0, 0.0, 0.0, 1.0]
],
  "dcmmeta_shape": [82, 82, 56, 872],
  "dcmmeta_slice_dim": 2,
  "dcmmeta_version": 0.6,
  "global": {
    "const": {
      "AccessionNumber": "A004358",
      "AcquisitionMatrix": [82, 0, 0, 82],
      "AngioFlag": "N",
      "BitsAllocated": 16,
      "BitsStored": 16,
      "BodyPartExamined": "BRAIN",
      "Columns": 656,
      "EchoNumbers": 1,
      "EchoTime": 27.2,
      "EchoTrainLength": 82,
      "FlipAngle": 44.0,
      "HighBit": 15,
      "ImageOrientationPatient": [0.99958785837253, 0.02073683087867, 0.01985188251343, -0.0170988515524, 0.98555036784606, -0.1685173632421],
      "ImagePositionPatient": [-862.64228097663, -904.94651522207, 56.829585816151],
      "ImageType": [
        "ORIGINAL",
        "PRIMARY",
        "M",
        "MB",
        "ND",
        "NORM",
        "MOSAIC"
],
      "ImagedNucleus": "1H",
      "ImagingFrequency": 123.259082,
      "InPlanePhaseEncodingDirection": "COL",
      "MRAcquisitionType": "2D",
      "MagneticFieldStrength": 3.0,
      "Manufacturer": "SIEMENS",
      "ManufacturerModelName": "Prisma",
      "Modality": "MR",
      "NumberOfAverages": 1.0,
      "NumberOfPhaseEncodingSteps": 82,
      "PercentPhaseFieldOfView": 100.0,
      "PercentSampling": 100.0,
      "PerformedProcedureStepStartTime": "113350.578000",
      "PhotometricInterpretation": "MONOCHROME2",
      "PixelBandwidth": 3050.0,
      "PixelRepresentation": 0,
      "PixelSpacing": [2.6829268932343, 2.6829268932343],
      "ProtocolName": "func_run-03_task-social_acq-ap-mb8",
      "RepetitionTime": 460.0,
      "Rows": 656,
      "SAR": 0.1240252893052,
      "SamplesPerPixel": 1,
      "ScanOptions": "FS",
      "ScanningSequence": "EP",
      "SequenceName": "epfid2d1_82",
      "SequenceVariant": [
        "SK",
        "SS"
],
      "SeriesDescription": "func_run-03_task-social_acq-ap-mb8",
      "SeriesNumber": 16,
      "SeriesTime": "122627.100000",
      "SliceLocation": -76.231544609587,
      "SliceThickness": 2.7000000476837,
      "SmallestImagePixelValue": 0,
      "SoftwareVersions": "syngo MR E11",
      "SpacingBetweenSlices": 2.6999999949793,
      "SpecificCharacterSet": "ISO_IR 100",
      "StudyID": "4",
      "StudyTime": "113350.443000",
      "TransmitCoilName": "Body",
      "VariableFlipAngleFlag": "N",
      "WindowCenterWidthExplanation": "Algo1"
    },
    "slices": {}
  },
  "time": {
    "samples": {
      "AcquisitionNumber": [1, 2, 3, 4, 5, 6, 7, 8, 9, 10, 11, 12, 13, 14, 15, 16, 17, 18, 19, 20, 21, 22, 23, 24, 25, 26, 27, 28, 29, 30, 31, 32, 33, 34, 35, 36, 37, 38, 39, 40, 41, 42, 43, 44, 45, 46, 47, 48, 49, 50, 51, 52, 53, 54, 55, 56, 57, 58, 59, 60, 61, 62, 63, 64, 65, 66, 67, 68, 69, 70, 71, 72, 73, 74, 75, 76, 77, 78, 79, 80, 81, 82, 83, 84, 85, 86, 87, 88, 89, 90, 91, 92, 93, 94, 95, 96, 97, 98, 99, 100, 101, 102, 103, 104, 105, 106, 107, 108, 109, 110, 111, 112, 113, 114, 115, 116, 117, 118, 119, 120, 121, 122, 123, 124, 125, 126, 127, 128, 129, 130, 131, 132, 133, 134, 135, 136, 137, 138, 139, 140, 141, 142, 143, 144, 145, 146, 147, 148, 149, 150, 151, 152, 153, 154, 155, 156, 157, 158, 159, 160, 161, 162, 163, 164, 165, 166, 167, 168, 169, 170, 171, 172, 173, 174, 175, 176, 177, 178, 179, 180, 181, 182, 183, 184, 185, 186, 187, 188, 189, 190, 191, 192, 193, 194, 195, 196, 197, 198, 199, 200, 201, 202, 203, 204, 205, 206, 207, 208, 209, 210, 211, 212, 213, 214, 215, 216, 217, 218, 219, 220, 221, 222, 223, 224, 225, 226, 227, 228, 229, 230, 231, 232, 233, 234, 235, 236, 237, 238, 239, 240, 241, 242, 243, 244, 245, 246, 247, 248, 249, 250, 251, 252, 253, 254, 255, 256, 257, 258, 259, 260, 261, 262, 263, 264, 265, 266, 267, 268, 269, 270, 271, 272, 273, 274, 275, 276, 277, 278, 279, 280, 281, 282, 283, 284, 285, 286, 287, 288, 289, 290, 291, 292, 293, 294, 295, 296, 297, 298, 299, 300, 301, 302, 303, 304, 305, 306, 307, 308, 309, 310, 311, 312, 313, 314, 315, 316, 317, 318, 319, 320, 321, 322, 323, 324, 325, 326, 327, 328, 329, 330, 331, 332, 333, 334, 335, 336, 337, 338, 339, 340, 341, 342, 343, 344, 345, 346, 347, 348, 349, 350, 351, 352, 353, 354, 355, 356, 357, 358, 359, 360, 361, 362, 363, 364, 365, 366, 367, 368, 369, 370, 371, 372, 373, 374, 375, 376, 377, 378, 379, 380, 381, 382, 383, 384, 385, 386, 387, 388, 389, 390, 391, 392, 393, 394, 395, 396, 397, 398, 399, 400, 401, 402, 403, 404, 405, 406, 407, 408, 409, 410, 411, 412, 413, 414, 415, 416, 417, 418, 419, 420, 421, 422, 423, 424, 425, 426, 427, 428, 429, 430, 431, 432, 433, 434, 435, 436, 437, 438, 439, 440, 441, 442, 443, 444, 445, 446, 447, 448, 449, 450, 451, 452, 453, 454, 455, 456, 457, 458, 459, 460, 461, 462, 463, 464, 465, 466, 467, 468, 469, 470, 471, 472, 473, 474, 475, 476, 477, 478, 479, 480, 481, 482, 483, 484, 485, 486, 487, 488, 489, 490, 491, 492, 493, 494, 495, 496, 497, 498, 499, 500, 501, 502, 503, 504, 505, 506, 507, 508, 509, 510, 511, 512, 513, 514, 515, 516, 517, 518, 519, 520, 521, 522, 523, 524, 525, 526, 527, 528, 529, 530, 531, 532, 533, 534, 535, 536, 537, 538, 539, 540, 541, 542, 543, 544, 545, 546, 547, 548, 549, 550, 551, 552, 553, 554, 555, 556, 557, 558, 559, 560, 561, 562, 563, 564, 565, 566, 567, 568, 569, 570, 571, 572, 573, 574, 575, 576, 577, 578, 579, 580, 581, 582, 583, 584, 585, 586, 587, 588, 589, 590, 591, 592, 593, 594, 595, 596, 597, 598, 599, 600, 601, 602, 603, 604, 605, 606, 607, 608, 609, 610, 611, 612, 613, 614, 615, 616, 617, 618, 619, 620, 621, 622, 623, 624, 625, 626, 627, 628, 629, 630, 631, 632, 633, 634, 635, 636, 637, 638, 639, 640, 641, 642, 643, 644, 645, 646, 647, 648, 649, 650, 651, 652, 653, 654, 655, 656, 657, 658, 659, 660, 661, 662, 663, 664, 665, 666, 667, 668, 669, 670, 671, 672, 673, 674, 675, 676, 677, 678, 679, 680, 681, 682, 683, 684, 685, 686, 687, 688, 689, 690, 691, 692, 693, 694, 695, 696, 697, 698, 699, 700, 701, 702, 703, 704, 705, 706, 707, 708, 709, 710, 711, 712, 713, 714, 715, 716, 717, 718, 719, 720, 721, 722, 723, 724, 725, 726, 727, 728, 729, 730, 731, 732, 733, 734, 735, 736, 737, 738, 739, 740, 741, 742, 743, 744, 745, 746, 747, 748, 749, 750, 751, 752, 753, 754, 755, 756, 757, 758, 759, 760, 761, 762, 763, 764, 765, 766, 767, 768, 769, 770, 771, 772, 773, 774, 775, 776, 777, 778, 779, 780, 781, 782, 783, 784, 785, 786, 787, 788, 789, 790, 791, 792, 793, 794, 795, 796, 797, 798, 799, 800, 801, 802, 803, 804, 805, 806, 807, 808, 809, 810, 811, 812, 813, 814, 815, 816, 817, 818, 819, 820, 821, 822, 823, 824, 825, 826, 827, 828, 829, 830, 831, 832, 833, 834, 835, 836, 837, 838, 839, 840, 841, 842, 843, 844, 845, 846, 847, 848, 849, 850, 851, 852, 853, 854, 855, 856, 857, 858, 859, 860, 861, 862, 863, 864, 865, 866, 867, 868, 869, 870, 871, 872],
      "AcquisitionTime": ["122559.225000", "122559.685000", "122600.145000", "122600.605000", "122601.065000", "122601.525000", "122601.985000", "122602.445000", "122602.905000", "122603.365000", "122603.825000", "122604.285000", "122604.745000", "122605.205000", "122605.665000", "122606.125000", "122606.585000", "122607.045000", "122607.505000", "122607.965000", "122608.425000", "122608.885000", "122609.345000", "122609.805000", "122610.265000", "122610.725000", "122611.185000", "122611.645000", "122612.105000", "122612.565000", "122613.025000", "122613.485000", "122613.945000", "122614.405000", "122614.865000", "122615.325000", "122615.785000", "122616.245000", "122616.705000", "122617.165000", "122617.625000", "122618.085000", "122618.545000", "122619.005000", "122619.465000", "122619.925000", "122620.385000", "122620.845000", "122621.305000", "122621.765000", "122622.225000", "122622.685000", "122623.145000", "122623.605000", "122624.065000", "122624.525000", "122624.985000", "122625.445000", "122625.905000", "122626.365000", "122626.825000", "122627.285000", "122627.745000", "122628.205000", "122628.665000", "122629.125000", "122629.585000", "122630.045000", "122630.505000", "122630.965000", "122631.425000", "122631.885000", "122632.345000", "122632.805000", "122633.265000", "122633.725000", "122634.185000", "122634.645000", "122635.105000", "122635.565000", "122636.025000", "122636.485000", "122636.945000", "122637.405000", "122637.865000", "122638.325000", "122638.785000", "122639.245000", "122639.705000", "122640.165000", "122640.625000", "122641.085000", "122641.545000", "122642.005000", "122642.465000", "122642.925000", "122643.385000", "122643.845000", "122644.305000", "122644.765000", "122645.225000", "122645.685000", "122646.145000", "122646.605000", "122647.065000", "122647.525000", "122647.985000", "122648.445000", "122648.905000", "122649.365000", "122649.825000", "122650.285000", "122650.745000", "122651.205000", "122651.665000", "122652.125000", "122652.585000", "122653.045000", "122653.505000", "122653.965000", "122654.425000", "122654.885000", "122655.345000", "122655.805000", "122656.265000", "122656.725000", "122657.185000", "122657.645000", "122658.105000", "122658.565000", "122659.025000", "122659.485000", "122659.945000", "122700.405000", "122700.865000", "122701.325000", "122701.785000", "122702.245000", "122702.705000", "122703.165000", "122703.625000", "122704.085000", "122704.545000", "122705.005000", "122705.465000", "122705.925000", "122706.385000", "122706.845000", "122707.305000", "122707.765000", "122708.225000", "122708.685000", "122709.145000", "122709.605000", "122710.065000", "122710.525000", "122710.985000", "122711.445000", "122711.905000", "122712.365000", "122712.825000", "122713.285000", "122713.745000", "122714.205000", "122714.665000", "122715.125000", "122715.585000", "122716.045000", "122716.505000", "122716.965000", "122717.425000", "122717.885000", "122718.345000", "122718.805000", "122719.265000", "122719.725000", "122720.185000", "122720.645000", "122721.105000", "122721.565000", "122722.025000", "122722.485000", "122722.945000", "122723.405000", "122723.865000", "122724.325000", "122724.785000", "122725.245000", "122725.705000", "122726.165000", "122726.625000", "122727.085000", "122727.545000", "122728.005000", "122728.465000", "122728.925000", "122729.385000", "122729.845000", "122730.305000", "122730.765000", "122731.225000", "122731.685000", "122732.145000", "122732.605000", "122733.065000", "122733.525000", "122733.985000", "122734.445000", "122734.905000", "122735.365000", "122735.825000", "122736.285000", "122736.745000", "122737.205000", "122737.665000", "122738.125000", "122738.585000", "122739.045000", "122739.505000", "122739.965000", "122740.425000", "122740.885000", "122741.345000", "122741.805000", "122742.265000", "122742.725000", "122743.185000", "122743.645000", "122744.105000", "122744.565000", "122745.025000", "122745.485000", "122745.945000", "122746.405000", "122746.865000", "122747.325000", "122747.785000", "122748.245000", "122748.705000", "122749.165000", "122749.625000", "122750.085000", "122750.545000", "122751.005000", "122751.465000", "122751.925000", "122752.385000", "122752.845000", "122753.305000", "122753.765000", "122754.225000", "122754.685000", "122755.145000", "122755.605000", "122756.065000", "122756.525000", "122756.985000", "122757.445000", "122757.905000", "122758.365000", "122758.825000", "122759.285000", "122759.745000", "122800.205000", "122800.665000", "122801.125000", "122801.585000", "122802.045000", "122802.505000", "122802.965000", "122803.425000", "122803.885000", "122804.345000", "122804.805000", "122805.265000", "122805.725000", "122806.185000", "122806.645000", "122807.105000", "122807.565000", "122808.025000", "122808.485000", "122808.945000", "122809.405000", "122809.865000", "122810.325000", "122810.785000", "122811.245000", "122811.705000", "122812.165000", "122812.625000", "122813.085000", "122813.545000", "122814.005000", "122814.465000", "122814.925000", "122815.385000", "122815.845000", "122816.305000", "122816.765000", "122817.225000", "122817.685000", "122818.145000", "122818.605000", "122819.065000", "122819.525000", "122819.985000", "122820.445000", "122820.905000", "122821.365000", "122821.825000", "122822.285000", "122822.745000", "122823.205000", "122823.665000", "122824.125000", "122824.585000", "122825.045000", "122825.505000", "122825.965000", "122826.425000", "122826.885000", "122827.345000", "122827.805000", "122828.265000", "122828.725000", "122829.185000", "122829.645000", "122830.105000", "122830.565000", "122831.025000", "122831.485000", "122831.945000", "122832.405000", "122832.865000", "122833.325000", "122833.785000", "122834.245000", "122834.705000", "122835.165000", "122835.625000", "122836.085000", "122836.545000", "122837.005000", "122837.465000", "122837.925000", "122838.385000", "122838.845000", "122839.305000", "122839.765000", "122840.225000", "122840.685000", "122841.145000", "122841.605000", "122842.065000", "122842.525000", "122842.985000", "122843.445000", "122843.905000", "122844.365000", "122844.825000", "122845.285000", "122845.745000", "122846.205000", "122846.665000", "122847.125000", "122847.585000", "122848.045000", "122848.505000", "122848.965000", "122849.425000", "122849.885000", "122850.345000", "122850.805000", "122851.265000", "122851.725000", "122852.185000", "122852.645000", "122853.105000", "122853.565000", "122854.025000", "122854.485000", "122854.945000", "122855.405000", "122855.865000", "122856.325000", "122856.785000", "122857.245000", "122857.705000", "122858.165000", "122858.625000", "122859.085000", "122859.545000", "122900.005000", "122900.465000", "122900.925000", "122901.385000", "122901.845000", "122902.305000", "122902.765000", "122903.225000", "122903.685000", "122904.145000", "122904.605000", "122905.065000", "122905.525000", "122905.985000", "122906.445000", "122906.905000", "122907.365000", "122907.825000", "122908.285000", "122908.745000", "122909.205000", "122909.665000", "122910.125000", "122910.585000", "122911.045000", "122911.505000", "122911.965000", "122912.425000", "122912.885000", "122913.345000", "122913.805000", "122914.265000", "122914.725000", "122915.185000", "122915.645000", "122916.105000", "122916.565000", "122917.025000", "122917.485000", "122917.945000", "122918.405000", "122918.865000", "122919.325000", "122919.785000", "122920.245000", "122920.705000", "122921.165000", "122921.625000", "122922.085000", "122922.545000", "122923.005000", "122923.465000", "122923.925000", "122924.385000", "122924.845000", "122925.305000", "122925.765000", "122926.225000", "122926.685000", "122927.145000", "122927.605000", "122928.065000", "122928.525000", "122928.985000", "122929.445000", "122929.905000", "122930.365000", "122930.825000", "122931.285000", "122931.745000", "122932.205000", "122932.665000", "122933.125000", "122933.585000", "122934.045000", "122934.505000", "122934.965000", "122935.425000", "122935.885000", "122936.345000", "122936.805000", "122937.265000", "122937.725000", "122938.185000", "122938.645000", "122939.105000", "122939.565000", "122940.025000", "122940.485000", "122940.945000", "122941.405000", "122941.865000", "122942.325000", "122942.785000", "122943.245000", "122943.705000", "122944.165000", "122944.625000", "122945.085000", "122945.545000", "122946.005000", "122946.465000", "122946.925000", "122947.385000", "122947.845000", "122948.305000", "122948.765000", "122949.225000", "122949.685000", "122950.145000", "122950.605000", "122951.065000", "122951.525000", "122951.985000", "122952.445000", "122952.905000", "122953.365000", "122953.825000", "122954.285000", "122954.745000", "122955.205000", "122955.665000", "122956.125000", "122956.585000", "122957.045000", "122957.505000", "122957.965000", "122958.425000", "122958.885000", "122959.345000", "122959.805000", "123000.265000", "123000.725000", "123001.185000", "123001.645000", "123002.105000", "123002.565000", "123003.025000", "123003.485000", "123003.945000", "123004.405000", "123004.865000", "123005.325000", "123005.785000", "123006.245000", "123006.705000", "123007.165000", "123007.625000", "123008.085000", "123008.545000", "123009.005000", "123009.465000", "123009.925000", "123010.385000", "123010.845000", "123011.305000", "123011.765000", "123012.225000", "123012.685000", "123013.145000", "123013.605000", "123014.065000", "123014.525000", "123014.985000", "123015.445000", "123015.905000", "123016.365000", "123016.825000", "123017.285000", "123017.745000", "123018.205000", "123018.665000", "123019.125000", "123019.585000", "123020.045000", "123020.505000", "123020.965000", "123021.425000", "123021.885000", "123022.345000", "123022.805000", "123023.265000", "123023.725000", "123024.185000", "123024.645000", "123025.105000", "123025.565000", "123026.025000", "123026.485000", "123026.945000", "123027.405000", "123027.865000", "123028.325000", "123028.785000", "123029.245000", "123029.705000", "123030.165000", "123030.625000", "123031.085000", "123031.545000", "123032.005000", "123032.465000", "123032.925000", "123033.385000", "123033.845000", "123034.305000", "123034.765000", "123035.225000", "123035.685000", "123036.145000", "123036.605000", "123037.065000", "123037.525000", "123037.985000", "123038.445000", "123038.905000", "123039.365000", "123039.825000", "123040.285000", "123040.745000", "123041.205000", "123041.665000", "123042.125000", "123042.585000", "123043.045000", "123043.505000", "123043.965000", "123044.425000", "123044.885000", "123045.345000", "123045.805000", "123046.265000", "123046.725000", "123047.185000", "123047.645000", "123048.105000", "123048.565000", "123049.025000", "123049.485000", "123049.945000", "123050.405000", "123050.865000", "123051.325000", "123051.785000", "123052.245000", "123052.705000", "123053.165000", "123053.625000", "123054.085000", "123054.545000", "123055.005000", "123055.465000", "123055.925000", "123056.385000", "123056.845000", "123057.305000", "123057.765000", "123058.225000", "123058.685000", "123059.145000", "123059.605000", "123100.065000", "123100.525000", "123100.985000", "123101.445000", "123101.905000", "123102.365000", "123102.825000", "123103.285000", "123103.745000", "123104.205000", "123104.665000", "123105.125000", "123105.585000", "123106.045000", "123106.505000", "123106.965000", "123107.425000", "123107.885000", "123108.345000", "123108.805000", "123109.265000", "123109.725000", "123110.185000", "123110.645000", "123111.105000", "123111.565000", "123112.025000", "123112.485000", "123112.945000", "123113.405000", "123113.865000", "123114.325000", "123114.785000", "123115.245000", "123115.705000", "123116.165000", "123116.625000", "123117.085000", "123117.545000", "123118.005000", "123118.465000", "123118.925000", "123119.385000", "123119.845000", "123120.305000", "123120.765000", "123121.225000", "123121.685000", "123122.145000", "123122.605000", "123123.065000", "123123.525000", "123123.985000", "123124.445000", "123124.905000", "123125.365000", "123125.825000", "123126.285000", "123126.745000", "123127.205000", "123127.665000", "123128.125000", "123128.585000", "123129.045000", "123129.505000", "123129.965000", "123130.425000", "123130.885000", "123131.345000", "123131.805000", "123132.265000", "123132.725000", "123133.185000", "123133.645000", "123134.105000", "123134.565000", "123135.025000", "123135.485000", "123135.945000", "123136.405000", "123136.865000", "123137.325000", "123137.785000", "123138.245000", "123138.705000", "123139.165000", "123139.625000", "123140.085000", "123140.545000", "123141.005000", "123141.465000", "123141.925000", "123142.385000", "123142.845000", "123143.305000", "123143.765000", "123144.225000", "123144.685000", "123145.145000", "123145.605000", "123146.065000", "123146.525000", "123146.985000", "123147.445000", "123147.905000", "123148.365000", "123148.825000", "123149.285000", "123149.745000", "123150.205000", "123150.665000", "123151.125000", "123151.585000", "123152.045000", "123152.505000", "123152.965000", "123153.425000", "123153.885000", "123154.345000", "123154.805000", "123155.265000", "123155.725000", "123156.185000", "123156.645000", "123157.105000", "123157.565000", "123158.025000", "123158.485000", "123158.945000", "123159.405000", "123159.865000", "123200.325000", "123200.785000", "123201.245000", "123201.705000", "123202.165000", "123202.625000", "123203.085000", "123203.545000", "123204.005000", "123204.465000", "123204.925000", "123205.385000", "123205.845000", "123206.305000", "123206.765000", "123207.225000", "123207.685000", "123208.145000", "123208.605000", "123209.065000", "123209.525000", "123209.985000", "123210.445000", "123210.905000", "123211.365000", "123211.825000", "123212.285000", "123212.745000", "123213.205000", "123213.665000", "123214.125000", "123214.585000", "123215.045000", "123215.505000", "123215.965000", "123216.425000", "123216.885000", "123217.345000", "123217.805000", "123218.265000", "123218.725000", "123219.185000", "123219.645000", "123220.105000", "123220.565000", "123221.025000", "123221.485000", "123221.945000", "123222.405000", "123222.865000", "123223.325000", "123223.785000", "123224.245000", "123224.705000", "123225.165000", "123225.625000", "123226.085000", "123226.545000", "123227.005000", "123227.465000", "123227.925000", "123228.385000", "123228.845000", "123229.305000", "123229.765000", "123230.225000", "123230.685000", "123231.145000", "123231.605000", "123232.065000", "123232.525000", "123232.985000", "123233.445000", "123233.905000", "123234.365000", "123234.825000", "123235.285000", "123235.745000", "123236.205000", "123236.665000", "123237.125000", "123237.585000", "123238.045000", "123238.505000", "123238.965000", "123239.425000", "123239.885000"],
