{
  "AcquisitionMatrixPE": 82,
  "AcquisitionNumber": 1,
  "AcquisitionTime": "16:46:17.285000",
  "BandwidthPerPixelPhaseEncode": 24.888,
  "BaseResolution": 82,
  "BodyPartExamined": "BRAIN",
  "ConsistencyInfo": "N4_VE11E_LATEST_20181129",
  "ConversionSoftware": "dcm2niix",
  "ConversionSoftwareVersion": "v1.0.20201102",
  "DerivedVendorReportedEchoSpacing": 0.00049,
  "DeviceSerialNumber": "66112",
  "DwellTime": 2e-06,
  "EchoTime": 0.0272,
  "EchoTrainLength": 82,
  "EffectiveEchoSpacing": 0.00049,
  "FlipAngle": 44,
  "ImageComments": "Unaliased MB8/PE3",
  "ImageOrientationPatientDICOM": [0.996723, 0.0351561, -0.0728516, -0.0396841, 0.997308, -0.061667],
  "ImageType": [
    "ORIGINAL",
    "PRIMARY",
    "M",
    "MB",
    "ND",
    "NORM",
    "MOSAIC"
],
  "ImagingFrequency": 123.252,
  "InPlanePhaseEncodingDirectionDICOM": "COL",
  "InstitutionAddress": "Maynard 3,Hanover,NH,US,03755",
  "InstitutionName": "Dartmouth College - PBS",
  "InstitutionalDepartmentName": "Department",
  "MRAcquisitionType": "2D",
  "MagneticFieldStrength": 3,
  "Manufacturer": "Siemens",
  "ManufacturersModelName": "Prisma",
  "Modality": "MR",
  "MultibandAccelerationFactor": 8,
  "PartialFourier": 1,
  "PatientPosition": "HFS",
  "PercentPhaseFOV": 100,
  "PercentSampling": 100,
  "PhaseEncodingDirection": "j-",
  "PhaseEncodingSteps": 82,
  "PhaseResolution": 1,
  "PixelBandwidth": 3050,
  "ProcedureStepDescription": "Wager_Wager^1076_spacetop",
  "ProtocolName": "func_run-02_task-social_acq-ap-mb8",
  "PulseSequenceDetails": "%CustomerSeq%\\cmrr_mbep2d_bold",
  "ReceiveCoilActiveElements": "HEA;HEP",
  "ReceiveCoilName": "Head_32",
  "ReconMatrixPE": 82,
  "RepetitionTime": 0.46,
  "SAR": 0.0812003,
  "ScanOptions": "FS",
  "ScanningSequence": "EP",
  "SequenceName": "epfid2d1_82",
  "SequenceVariant": "SK\\SS",
  "SeriesDescription": "func_run-02_task-social_acq-ap-mb8",
  "SeriesNumber": 10,
  "ShimSetting": [4138, -7705, -7249, 466, -27, -18, -31, 89],
  "SliceThickness": 2.7,
  "SliceTiming": [0, 0.2525, 0.065, 0.315, 0.1275, 0.3775, 0.19, 0, 0.2525, 0.065, 0.315, 0.1275, 0.3775, 0.19, 0, 0.2525, 0.065, 0.315, 0.1275, 0.3775, 0.19, 0, 0.2525, 0.065, 0.315, 0.1275, 0.3775, 0.19, 0, 0.2525, 0.065, 0.315, 0.1275, 0.3775, 0.19, 0, 0.2525, 0.065, 0.315, 0.1275, 0.3775, 0.19, 0, 0.2525, 0.065, 0.315, 0.1275, 0.3775, 0.19, 0, 0.2525, 0.065, 0.315, 0.1275, 0.3775, 0.19],
  "SoftwareVersions": "syngo MR E11",
  "SpacingBetweenSlices": 2.7,
  "StationName": "AWP66112",
  "TaskName": "social",
  "TotalReadoutTime": 0.03969,
  "TxRefAmp": 245.092,
  "WipMemBlock": "93f30a62-0793-4d1b-af16-cb18f84acabf||Sequence: R016 ve11e/master r/434b28f1; Aug  7 2019 18:53:46 by eja",
  "dcmmeta_affine": [
    [-2.6741349697113037, -0.10646944493055344, -0.1903161257505417, 119.3976058959961],
    [-0.0943213403224945, 2.675703287124634, -0.17376112937927246, -81.53611755371094],
    [-0.19545544683933258, 0.16544808447360992, 2.6876730918884277, -57.602256774902344],
    [0.0, 0.0, 0.0, 1.0]
],
  "dcmmeta_reorient_transform": [
    [0.0, -1.0, 0.0, 81.0],
    [1.0, 0.0, 0.0, 0.0],
    [0.0, 0.0, 1.0, 0.0],
    [0.0, 0.0, 0.0, 1.0]
],
  "dcmmeta_shape": [82, 82, 56, 872],
  "dcmmeta_slice_dim": 2,
  "dcmmeta_version": 0.6,
  "global": {
    "const": {
      "AccessionNumber": "A003937",
      "AcquisitionMatrix": [82, 0, 0, 82],
      "AngioFlag": "N",
      "BitsAllocated": 16,
      "BitsStored": 16,
      "BodyPartExamined": "BRAIN",
      "Columns": 656,
      "EchoNumbers": 1,
      "EchoTime": 27.2,
      "EchoTrainLength": 82,
      "FlipAngle": 44.0,
      "HighBit": 15,
      "ImageOrientationPatient": [0.99672297764522, 0.03515613623752, -0.0728515745807, -0.0396840646338, 0.99730755273, -0.0616670112933],
      "ImagePositionPatient": [-847.69356162521, -930.19290582873, 59.378349663412],
      "ImageType": [
        "ORIGINAL",
        "PRIMARY",
        "M",
        "MB",
        "ND",
        "NORM",
        "MOSAIC"
],
      "ImagedNucleus": "1H",
      "ImagingFrequency": 123.252167,
      "InPlanePhaseEncodingDirection": "COL",
      "MRAcquisitionType": "2D",
      "MagneticFieldStrength": 3.0,
      "Manufacturer": "SIEMENS",
      "ManufacturerModelName": "Prisma",
      "Modality": "MR",
      "NumberOfAverages": 1.0,
      "NumberOfPhaseEncodingSteps": 82,
      "PercentPhaseFieldOfView": 100.0,
      "PercentSampling": 100.0,
      "PerformedProcedureStepStartTime": "160407.390000",
      "PhotometricInterpretation": "MONOCHROME2",
      "PixelBandwidth": 3050.0,
      "PixelRepresentation": 0,
      "PixelSpacing": [2.6829268932343, 2.6829268932343],
      "ProtocolName": "func_run-02_task-social_acq-ap-mb8",
      "RepetitionTime": 460.0,
      "Rows": 656,
      "SAR": 0.08120029061015,
      "SamplesPerPixel": 1,
      "ScanOptions": "FS",
      "ScanningSequence": "EP",
      "SequenceName": "epfid2d1_82",
      "SequenceVariant": [
        "SK",
        "SS"
],
      "SeriesDescription": "func_run-02_task-social_acq-ap-mb8",
      "SeriesNumber": 10,
      "SeriesTime": "164637.801000",
      "SliceLocation": -60.507971852099,
      "SliceThickness": 2.7000000476837,
      "SmallestImagePixelValue": 0,
      "SoftwareVersions": "syngo MR E11",
      "SpacingBetweenSlices": 2.6999999895605,
      "SpecificCharacterSet": "ISO_IR 100",
      "StudyID": "1",
      "StudyTime": "160407.320000",
      "TransmitCoilName": "Body",
      "VariableFlipAngleFlag": "N",
      "WindowCenterWidthExplanation": "Algo1"
    },
    "slices": {}
  },
  "time": {
    "samples": {
      "AcquisitionNumber": [1, 2, 3, 4, 5, 6, 7, 8, 9, 10, 11, 12, 13, 14, 15, 16, 17, 18, 19, 20, 21, 22, 23, 24, 25, 26, 27, 28, 29, 30, 31, 32, 33, 34, 35, 36, 37, 38, 39, 40, 41, 42, 43, 44, 45, 46, 47, 48, 49, 50, 51, 52, 53, 54, 55, 56, 57, 58, 59, 60, 61, 62, 63, 64, 65, 66, 67, 68, 69, 70, 71, 72, 73, 74, 75, 76, 77, 78, 79, 80, 81, 82, 83, 84, 85, 86, 87, 88, 89, 90, 91, 92, 93, 94, 95, 96, 97, 98, 99, 100, 101, 102, 103, 104, 105, 106, 107, 108, 109, 110, 111, 112, 113, 114, 115, 116, 117, 118, 119, 120, 121, 122, 123, 124, 125, 126, 127, 128, 129, 130, 131, 132, 133, 134, 135, 136, 137, 138, 139, 140, 141, 142, 143, 144, 145, 146, 147, 148, 149, 150, 151, 152, 153, 154, 155, 156, 157, 158, 159, 160, 161, 162, 163, 164, 165, 166, 167, 168, 169, 170, 171, 172, 173, 174, 175, 176, 177, 178, 179, 180, 181, 182, 183, 184, 185, 186, 187, 188, 189, 190, 191, 192, 193, 194, 195, 196, 197, 198, 199, 200, 201, 202, 203, 204, 205, 206, 207, 208, 209, 210, 211, 212, 213, 214, 215, 216, 217, 218, 219, 220, 221, 222, 223, 224, 225, 226, 227, 228, 229, 230, 231, 232, 233, 234, 235, 236, 237, 238, 239, 240, 241, 242, 243, 244, 245, 246, 247, 248, 249, 250, 251, 252, 253, 254, 255, 256, 257, 258, 259, 260, 261, 262, 263, 264, 265, 266, 267, 268, 269, 270, 271, 272, 273, 274, 275, 276, 277, 278, 279, 280, 281, 282, 283, 284, 285, 286, 287, 288, 289, 290, 291, 292, 293, 294, 295, 296, 297, 298, 299, 300, 301, 302, 303, 304, 305, 306, 307, 308, 309, 310, 311, 312, 313, 314, 315, 316, 317, 318, 319, 320, 321, 322, 323, 324, 325, 326, 327, 328, 329, 330, 331, 332, 333, 334, 335, 336, 337, 338, 339, 340, 341, 342, 343, 344, 345, 346, 347, 348, 349, 350, 351, 352, 353, 354, 355, 356, 357, 358, 359, 360, 361, 362, 363, 364, 365, 366, 367, 368, 369, 370, 371, 372, 373, 374, 375, 376, 377, 378, 379, 380, 381, 382, 383, 384, 385, 386, 387, 388, 389, 390, 391, 392, 393, 394, 395, 396, 397, 398, 399, 400, 401, 402, 403, 404, 405, 406, 407, 408, 409, 410, 411, 412, 413, 414, 415, 416, 417, 418, 419, 420, 421, 422, 423, 424, 425, 426, 427, 428, 429, 430, 431, 432, 433, 434, 435, 436, 437, 438, 439, 440, 441, 442, 443, 444, 445, 446, 447, 448, 449, 450, 451, 452, 453, 454, 455, 456, 457, 458, 459, 460, 461, 462, 463, 464, 465, 466, 467, 468, 469, 470, 471, 472, 473, 474, 475, 476, 477, 478, 479, 480, 481, 482, 483, 484, 485, 486, 487, 488, 489, 490, 491, 492, 493, 494, 495, 496, 497, 498, 499, 500, 501, 502, 503, 504, 505, 506, 507, 508, 509, 510, 511, 512, 513, 514, 515, 516, 517, 518, 519, 520, 521, 522, 523, 524, 525, 526, 527, 528, 529, 530, 531, 532, 533, 534, 535, 536, 537, 538, 539, 540, 541, 542, 543, 544, 545, 546, 547, 548, 549, 550, 551, 552, 553, 554, 555, 556, 557, 558, 559, 560, 561, 562, 563, 564, 565, 566, 567, 568, 569, 570, 571, 572, 573, 574, 575, 576, 577, 578, 579, 580, 581, 582, 583, 584, 585, 586, 587, 588, 589, 590, 591, 592, 593, 594, 595, 596, 597, 598, 599, 600, 601, 602, 603, 604, 605, 606, 607, 608, 609, 610, 611, 612, 613, 614, 615, 616, 617, 618, 619, 620, 621, 622, 623, 624, 625, 626, 627, 628, 629, 630, 631, 632, 633, 634, 635, 636, 637, 638, 639, 640, 641, 642, 643, 644, 645, 646, 647, 648, 649, 650, 651, 652, 653, 654, 655, 656, 657, 658, 659, 660, 661, 662, 663, 664, 665, 666, 667, 668, 669, 670, 671, 672, 673, 674, 675, 676, 677, 678, 679, 680, 681, 682, 683, 684, 685, 686, 687, 688, 689, 690, 691, 692, 693, 694, 695, 696, 697, 698, 699, 700, 701, 702, 703, 704, 705, 706, 707, 708, 709, 710, 711, 712, 713, 714, 715, 716, 717, 718, 719, 720, 721, 722, 723, 724, 725, 726, 727, 728, 729, 730, 731, 732, 733, 734, 735, 736, 737, 738, 739, 740, 741, 742, 743, 744, 745, 746, 747, 748, 749, 750, 751, 752, 753, 754, 755, 756, 757, 758, 759, 760, 761, 762, 763, 764, 765, 766, 767, 768, 769, 770, 771, 772, 773, 774, 775, 776, 777, 778, 779, 780, 781, 782, 783, 784, 785, 786, 787, 788, 789, 790, 791, 792, 793, 794, 795, 796, 797, 798, 799, 800, 801, 802, 803, 804, 805, 806, 807, 808, 809, 810, 811, 812, 813, 814, 815, 816, 817, 818, 819, 820, 821, 822, 823, 824, 825, 826, 827, 828, 829, 830, 831, 832, 833, 834, 835, 836, 837, 838, 839, 840, 841, 842, 843, 844, 845, 846, 847, 848, 849, 850, 851, 852, 853, 854, 855, 856, 857, 858, 859, 860, 861, 862, 863, 864, 865, 866, 867, 868, 869, 870, 871, 872],
      "AcquisitionTime": ["164617.285000", "164617.745000", "164618.205000", "164618.665000", "164619.125000", "164619.585000", "164620.045000", "164620.505000", "164620.965000", "164621.425000", "164621.885000", "164622.345000", "164622.805000", "164623.265000", "164623.725000", "164624.185000", "164624.645000", "164625.105000", "164625.565000", "164626.025000", "164626.485000", "164626.945000", "164627.405000", "164627.865000", "164628.325000", "164628.785000", "164629.245000", "164629.705000", "164630.165000", "164630.625000", "164631.085000", "164631.545000", "164632.005000", "164632.465000", "164632.925000", "164633.385000", "164633.845000", "164634.305000", "164634.765000", "164635.225000", "164635.685000", "164636.145000", "164636.605000", "164637.065000", "164637.525000", "164637.985000", "164638.445000", "164638.905000", "164639.365000", "164639.825000", "164640.285000", "164640.745000", "164641.205000", "164641.665000", "164642.125000", "164642.585000", "164643.045000", "164643.505000", "164643.965000", "164644.425000", "164644.885000", "164645.345000", "164645.805000", "164646.265000", "164646.725000", "164647.185000", "164647.645000", "164648.105000", "164648.565000", "164649.025000", "164649.485000", "164649.945000", "164650.405000", "164650.865000", "164651.325000", "164651.785000", "164652.245000", "164652.705000", "164653.165000", "164653.625000", "164654.085000", "164654.545000", "164655.005000", "164655.465000", "164655.925000", "164656.385000", "164656.845000", "164657.305000", "164657.765000", "164658.225000", "164658.685000", "164659.145000", "164659.605000", "164700.065000", "164700.525000", "164700.985000", "164701.445000", "164701.905000", "164702.365000", "164702.825000", "164703.285000", "164703.745000", "164704.205000", "164704.665000", "164705.125000", "164705.585000", "164706.045000", "164706.505000", "164706.965000", "164707.425000", "164707.885000", "164708.345000", "164708.805000", "164709.265000", "164709.725000", "164710.185000", "164710.645000", "164711.105000", "164711.565000", "164712.025000", "164712.485000", "164712.945000", "164713.405000", "164713.865000", "164714.325000", "164714.785000", "164715.245000", "164715.705000", "164716.165000", "164716.625000", "164717.085000", "164717.545000", "164718.005000", "164718.465000", "164718.925000", "164719.385000", "164719.845000", "164720.305000", "164720.765000", "164721.225000", "164721.685000", "164722.145000", "164722.605000", "164723.065000", "164723.525000", "164723.985000", "164724.445000", "164724.905000", "164725.365000", "164725.825000", "164726.285000", "164726.745000", "164727.205000", "164727.665000", "164728.125000", "164728.585000", "164729.045000", "164729.505000", "164729.965000", "164730.425000", "164730.885000", "164731.345000", "164731.805000", "164732.265000", "164732.725000", "164733.185000", "164733.645000", "164734.105000", "164734.565000", "164735.025000", "164735.485000", "164735.945000", "164736.405000", "164736.865000", "164737.325000", "164737.785000", "164738.245000", "164738.705000", "164739.165000", "164739.625000", "164740.085000", "164740.545000", "164741.005000", "164741.465000", "164741.925000", "164742.385000", "164742.845000", "164743.305000", "164743.765000", "164744.225000", "164744.685000", "164745.145000", "164745.605000", "164746.065000", "164746.525000", "164746.985000", "164747.445000", "164747.905000", "164748.365000", "164748.825000", "164749.285000", "164749.745000", "164750.205000", "164750.665000", "164751.125000", "164751.585000", "164752.045000", "164752.505000", "164752.965000", "164753.425000", "164753.885000", "164754.345000", "164754.805000", "164755.265000", "164755.725000", "164756.185000", "164756.645000", "164757.105000", "164757.565000", "164758.025000", "164758.485000", "164758.945000", "164759.405000", "164759.865000", "164800.325000", "164800.785000", "164801.245000", "164801.705000", "164802.165000", "164802.625000", "164803.085000", "164803.545000", "164804.005000", "164804.465000", "164804.925000", "164805.385000", "164805.845000", "164806.305000", "164806.765000", "164807.225000", "164807.685000", "164808.145000", "164808.605000", "164809.065000", "164809.525000", "164809.985000", "164810.445000", "164810.905000", "164811.365000", "164811.825000", "164812.285000", "164812.745000", "164813.205000", "164813.665000", "164814.125000", "164814.585000", "164815.045000", "164815.505000", "164815.965000", "164816.425000", "164816.885000", "164817.345000", "164817.805000", "164818.265000", "164818.725000", "164819.185000", "164819.645000", "164820.105000", "164820.565000", "164821.025000", "164821.485000", "164821.945000", "164822.405000", "164822.865000", "164823.325000", "164823.785000", "164824.245000", "164824.705000", "164825.165000", "164825.625000", "164826.085000", "164826.545000", "164827.005000", "164827.465000", "164827.925000", "164828.385000", "164828.845000", "164829.305000", "164829.765000", "164830.225000", "164830.685000", "164831.145000", "164831.605000", "164832.065000", "164832.525000", "164832.985000", "164833.445000", "164833.905000", "164834.365000", "164834.825000", "164835.285000", "164835.745000", "164836.205000", "164836.665000", "164837.125000", "164837.585000", "164838.045000", "164838.505000", "164838.965000", "164839.425000", "164839.885000", "164840.345000", "164840.805000", "164841.265000", "164841.725000", "164842.185000", "164842.645000", "164843.105000", "164843.565000", "164844.025000", "164844.485000", "164844.945000", "164845.405000", "164845.865000", "164846.325000", "164846.785000", "164847.245000", "164847.705000", "164848.165000", "164848.625000", "164849.085000", "164849.545000", "164850.005000", "164850.465000", "164850.925000", "164851.385000", "164851.845000", "164852.305000", "164852.765000", "164853.225000", "164853.685000", "164854.145000", "164854.605000", "164855.065000", "164855.525000", "164855.985000", "164856.445000", "164856.905000", "164857.365000", "164857.825000", "164858.285000", "164858.745000", "164859.205000", "164859.665000", "164900.125000", "164900.585000", "164901.045000", "164901.505000", "164901.965000", "164902.425000", "164902.885000", "164903.345000", "164903.805000", "164904.265000", "164904.725000", "164905.185000", "164905.645000", "164906.105000", "164906.565000", "164907.025000", "164907.485000", "164907.945000", "164908.405000", "164908.865000", "164909.325000", "164909.785000", "164910.245000", "164910.705000", "164911.165000", "164911.625000", "164912.085000", "164912.545000", "164913.005000", "164913.465000", "164913.925000", "164914.385000", "164914.845000", "164915.305000", "164915.765000", "164916.225000", "164916.685000", "164917.145000", "164917.605000", "164918.065000", "164918.525000", "164918.985000", "164919.445000", "164919.905000", "164920.365000", "164920.825000", "164921.285000", "164921.745000", "164922.205000", "164922.665000", "164923.125000", "164923.585000", "164924.045000", "164924.505000", "164924.965000", "164925.425000", "164925.885000", "164926.345000", "164926.805000", "164927.265000", "164927.725000", "164928.185000", "164928.645000", "164929.105000", "164929.565000", "164930.025000", "164930.485000", "164930.945000", "164931.405000", "164931.865000", "164932.325000", "164932.785000", "164933.245000", "164933.705000", "164934.165000", "164934.625000", "164935.085000", "164935.545000", "164936.005000", "164936.465000", "164936.925000", "164937.385000", "164937.845000", "164938.305000", "164938.765000", "164939.225000", "164939.685000", "164940.145000", "164940.605000", "164941.065000", "164941.525000", "164941.985000", "164942.445000", "164942.905000", "164943.365000", "164943.825000", "164944.285000", "164944.745000", "164945.205000", "164945.665000", "164946.125000", "164946.585000", "164947.045000", "164947.505000", "164947.965000", "164948.425000", "164948.885000", "164949.345000", "164949.805000", "164950.265000", "164950.725000", "164951.185000", "164951.645000", "164952.105000", "164952.565000", "164953.025000", "164953.485000", "164953.945000", "164954.405000", "164954.865000", "164955.325000", "164955.785000", "164956.245000", "164956.705000", "164957.165000", "164957.625000", "164958.085000", "164958.545000", "164959.005000", "164959.465000", "164959.925000", "165000.385000", "165000.845000", "165001.305000", "165001.765000", "165002.225000", "165002.685000", "165003.145000", "165003.605000", "165004.065000", "165004.525000", "165004.985000", "165005.445000", "165005.905000", "165006.365000", "165006.825000", "165007.285000", "165007.745000", "165008.205000", "165008.665000", "165009.125000", "165009.585000", "165010.045000", "165010.505000", "165010.965000", "165011.425000", "165011.885000", "165012.345000", "165012.805000", "165013.265000", "165013.725000", "165014.185000", "165014.645000", "165015.105000", "165015.565000", "165016.025000", "165016.485000", "165016.945000", "165017.405000", "165017.865000", "165018.325000", "165018.785000", "165019.245000", "165019.705000", "165020.165000", "165020.625000", "165021.085000", "165021.545000", "165022.005000", "165022.465000", "165022.925000", "165023.385000", "165023.845000", "165024.305000", "165024.765000", "165025.225000", "165025.685000", "165026.145000", "165026.605000", "165027.065000", "165027.525000", "165027.985000", "165028.445000", "165028.905000", "165029.365000", "165029.825000", "165030.285000", "165030.745000", "165031.205000", "165031.665000", "165032.125000", "165032.585000", "165033.045000", "165033.505000", "165033.965000", "165034.425000", "165034.885000", "165035.345000", "165035.805000", "165036.265000", "165036.725000", "165037.185000", "165037.645000", "165038.105000", "165038.565000", "165039.025000", "165039.485000", "165039.945000", "165040.405000", "165040.865000", "165041.325000", "165041.785000", "165042.245000", "165042.705000", "165043.165000", "165043.625000", "165044.085000", "165044.545000", "165045.005000", "165045.465000", "165045.925000", "165046.385000", "165046.845000", "165047.305000", "165047.765000", "165048.225000", "165048.685000", "165049.145000", "165049.605000", "165050.065000", "165050.525000", "165050.985000", "165051.445000", "165051.905000", "165052.365000", "165052.825000", "165053.285000", "165053.745000", "165054.205000", "165054.665000", "165055.125000", "165055.585000", "165056.045000", "165056.505000", "165056.965000", "165057.425000", "165057.885000", "165058.345000", "165058.805000", "165059.265000", "165059.725000", "165100.185000", "165100.645000", "165101.105000", "165101.565000", "165102.025000", "165102.485000", "165102.945000", "165103.405000", "165103.865000", "165104.325000", "165104.785000", "165105.245000", "165105.705000", "165106.165000", "165106.625000", "165107.085000", "165107.545000", "165108.005000", "165108.465000", "165108.925000", "165109.385000", "165109.845000", "165110.305000", "165110.765000", "165111.225000", "165111.685000", "165112.145000", "165112.605000", "165113.065000", "165113.525000", "165113.985000", "165114.445000", "165114.905000", "165115.365000", "165115.825000", "165116.285000", "165116.745000", "165117.205000", "165117.665000", "165118.125000", "165118.585000", "165119.045000", "165119.505000", "165119.965000", "165120.425000", "165120.885000", "165121.345000", "165121.805000", "165122.265000", "165122.725000", "165123.185000", "165123.645000", "165124.105000", "165124.565000", "165125.025000", "165125.485000", "165125.945000", "165126.405000", "165126.865000", "165127.325000", "165127.785000", "165128.245000", "165128.705000", "165129.165000", "165129.625000", "165130.085000", "165130.545000", "165131.005000", "165131.465000", "165131.925000", "165132.385000", "165132.845000", "165133.305000", "165133.765000", "165134.225000", "165134.685000", "165135.145000", "165135.605000", "165136.065000", "165136.525000", "165136.985000", "165137.445000", "165137.905000", "165138.365000", "165138.825000", "165139.285000", "165139.745000", "165140.205000", "165140.665000", "165141.125000", "165141.585000", "165142.045000", "165142.505000", "165142.965000", "165143.425000", "165143.885000", "165144.345000", "165144.805000", "165145.265000", "165145.725000", "165146.185000", "165146.645000", "165147.105000", "165147.565000", "165148.025000", "165148.485000", "165148.945000", "165149.405000", "165149.865000", "165150.325000", "165150.785000", "165151.245000", "165151.705000", "165152.165000", "165152.625000", "165153.085000", "165153.545000", "165154.005000", "165154.465000", "165154.925000", "165155.385000", "165155.845000", "165156.305000", "165156.765000", "165157.225000", "165157.685000", "165158.145000", "165158.605000", "165159.065000", "165159.525000", "165159.985000", "165200.445000", "165200.905000", "165201.365000", "165201.825000", "165202.285000", "165202.745000", "165203.205000", "165203.665000", "165204.125000", "165204.585000", "165205.045000", "165205.505000", "165205.965000", "165206.425000", "165206.885000", "165207.345000", "165207.805000", "165208.265000", "165208.725000", "165209.185000", "165209.645000", "165210.105000", "165210.565000", "165211.025000", "165211.485000", "165211.945000", "165212.405000", "165212.865000", "165213.325000", "165213.785000", "165214.245000", "165214.705000", "165215.165000", "165215.625000", "165216.085000", "165216.545000", "165217.005000", "165217.465000", "165217.925000", "165218.385000", "165218.845000", "165219.305000", "165219.765000", "165220.225000", "165220.685000", "165221.145000", "165221.605000", "165222.065000", "165222.525000", "165222.985000", "165223.445000", "165223.905000", "165224.365000", "165224.825000", "165225.285000", "165225.745000", "165226.205000", "165226.665000", "165227.125000", "165227.585000", "165228.045000", "165228.505000", "165228.965000", "165229.425000", "165229.885000", "165230.345000", "165230.805000", "165231.265000", "165231.725000", "165232.185000", "165232.645000", "165233.105000", "165233.565000", "165234.025000", "165234.485000", "165234.945000", "165235.405000", "165235.865000", "165236.325000", "165236.785000", "165237.245000", "165237.705000", "165238.165000", "165238.625000", "165239.085000", "165239.545000", "165240.005000", "165240.465000", "165240.925000", "165241.385000", "165241.845000", "165242.305000", "165242.765000", "165243.225000", "165243.685000", "165244.145000", "165244.605000", "165245.065000", "165245.525000", "165245.985000", "165246.445000", "165246.905000", "165247.365000", "165247.825000", "165248.285000", "165248.745000", "165249.205000", "165249.665000", "165250.125000", "165250.585000", "165251.045000", "165251.505000", "165251.965000", "165252.425000", "165252.885000", "165253.345000", "165253.805000", "165254.265000", "165254.725000", "165255.185000", "165255.645000", "165256.105000", "165256.565000", "165257.025000", "165257.485000", "165257.945000"],
