{
  "AcquisitionMatrixPE": 82,
  "AcquisitionNumber": 1,
  "AcquisitionTime": "10:43:48.735000",
  "BandwidthPerPixelPhaseEncode": 24.888,
  "BaseResolution": 82,
  "BodyPartExamined": "BRAIN",
  "ConsistencyInfo": "N4_VE11C_LATEST_20160120",
  "ConversionSoftware": "dcm2niix",
  "ConversionSoftwareVersion": "v1.0.20201102",
  "DerivedVendorReportedEchoSpacing": 0.00049,
  "DeviceSerialNumber": "66112",
  "DwellTime": 2e-06,
  "EchoTime": 0.0272,
  "EchoTrainLength": 82,
  "EffectiveEchoSpacing": 0.00049,
  "FlipAngle": 44,
  "ImageComments": "Unaliased MB8/PE3",
  "ImageOrientationPatientDICOM": [0.997561, 0.0697549, -0.00243124, -0.067832, 0.977092, 0.20172],
  "ImageType": [
    "ORIGINAL",
    "PRIMARY",
    "M",
    "MB",
    "ND",
    "NORM",
    "MOSAIC"
],
  "ImagingFrequency": 123.252,
  "InPlanePhaseEncodingDirectionDICOM": "COL",
  "InstitutionAddress": "Maynard 3,Hanover,NH,US,03755",
  "InstitutionName": "Dartmouth College - PBS",
  "InstitutionalDepartmentName": "Department",
  "MRAcquisitionType": "2D",
  "MagneticFieldStrength": 3,
  "Manufacturer": "Siemens",
  "ManufacturersModelName": "Prisma",
  "Modality": "MR",
  "MultibandAccelerationFactor": 8,
  "PartialFourier": 1,
  "PatientPosition": "HFS",
  "PercentPhaseFOV": 100,
  "PercentSampling": 100,
  "PhaseEncodingDirection": "j-",
  "PhaseEncodingSteps": 82,
  "PhaseResolution": 1,
  "PixelBandwidth": 3050,
  "ProcedureStepDescription": "Wager_Wager^1076_spacetop",
  "ProtocolName": "func_run-01_task-alignvideo_acq-ap-mb8",
  "PulseSequenceDetails": "%CustomerSeq%\\cmrr_mbep2d_bold",
  "ReceiveCoilActiveElements": "HEA;HEP",
  "ReceiveCoilName": "Head_32",
  "ReconMatrixPE": 82,
  "RepetitionTime": 0.46,
  "SAR": 0.0900184,
  "ScanOptions": "FS",
  "ScanningSequence": "EP",
  "SequenceName": "epfid2d1_82",
  "SequenceVariant": "SK\\SS",
  "SeriesDescription": "func_run-01_task-alignvideo_acq-ap-mb8",
  "SeriesNumber": 28,
  "ShimSetting": [4130, -7768, -7236, 459, -204, -234, 33, 45],
  "SliceThickness": 2.7,
  "SliceTiming": [0, 0.2525, 0.065, 0.315, 0.1275, 0.3775, 0.19, 0, 0.2525, 0.065, 0.315, 0.1275, 0.3775, 0.19, 0, 0.2525, 0.065, 0.315, 0.1275, 0.3775, 0.19, 0, 0.2525, 0.065, 0.315, 0.1275, 0.3775, 0.19, 0, 0.2525, 0.065, 0.315, 0.1275, 0.3775, 0.19, 0, 0.2525, 0.065, 0.315, 0.1275, 0.3775, 0.19, 0, 0.2525, 0.065, 0.315, 0.1275, 0.3775, 0.19, 0, 0.2525, 0.065, 0.315, 0.1275, 0.3775, 0.19],
  "SoftwareVersions": "syngo MR E11",
  "SpacingBetweenSlices": 2.7,
  "StationName": "AWP66112",
  "TaskName": "alignvideo",
  "TotalReadoutTime": 0.03969,
  "TxRefAmp": 243.756,
  "WipMemBlock": "f79eeb8a-0c8d-4941-9734-6b401503bb16||Sequence: R016 ve11c/master r/e634e98; Dec 19 2017 11:00:25 by eja",
  "dcmmeta_affine": [
    [-2.6763837337493896, -0.1819881796836853, -0.04440555348992348, 121.89144134521484],
    [-0.1871473789215088, 2.6214652061462402, 0.5428702235221863, -95.25267791748047],
    [-0.0065228319726884365, -0.541199803352356, 2.644488573074341, -23.980213165283203],
    [0.0, 0.0, 0.0, 1.0]
],
  "dcmmeta_reorient_transform": [
    [0.0, -1.0, 0.0, 81.0],
    [1.0, 0.0, 0.0, 0.0],
    [0.0, 0.0, 1.0, 0.0],
    [0.0, 0.0, 0.0, 1.0]
],
  "dcmmeta_shape": [82, 82, 56, 839],
  "dcmmeta_slice_dim": 2,
  "dcmmeta_version": 0.6,
  "global": {
    "const": {
      "AccessionNumber": "A003514",
      "AcquisitionMatrix": [82, 0, 0, 82],
      "AngioFlag": "N",
      "BitsAllocated": 16,
      "BitsStored": 16,
      "BodyPartExamined": "BRAIN",
      "Columns": 656,
      "EchoNumbers": 1,
      "EchoTime": 27.2,
      "EchoTrainLength": 82,
      "FlipAngle": 44.0,
      "HighBit": 15,
      "ImageOrientationPatient": [0.99756119539418, 0.06975493193101, -0.0024312373452, -0.0678319544943, 0.97709155085801, 0.20171992264366],
      "ImagePositionPatient": [-823.04192899626, -923.15781735245, -221.26968857076],
      "ImageType": [
        "ORIGINAL",
        "PRIMARY",
        "M",
        "MB",
        "ND",
        "NORM",
        "MOSAIC"
],
      "ImagedNucleus": "1H",
      "ImagingFrequency": 123.252208,
      "InPlanePhaseEncodingDirection": "COL",
      "MRAcquisitionType": "2D",
      "MagneticFieldStrength": 3.0,
      "Manufacturer": "SIEMENS",
      "ManufacturerModelName": "Prisma",
      "Modality": "MR",
      "NumberOfAverages": 1.0,
      "NumberOfPhaseEncodingSteps": 82,
      "PercentPhaseFieldOfView": 100.0,
      "PercentSampling": 100.0,
      "PerformedProcedureStepStartTime": "085750.373000",
      "PhotometricInterpretation": "MONOCHROME2",
      "PixelBandwidth": 3050.0,
      "PixelRepresentation": 0,
      "PixelSpacing": [2.6829268932343, 2.6829268932343],
      "ProtocolName": "func_run-01_task-alignvideo_acq-ap-mb8",
      "RepetitionTime": 460.0,
      "Rows": 656,
      "SAR": 0.09001838958409,
      "SamplesPerPixel": 1,
      "ScanOptions": "FS",
      "ScanningSequence": "EP",
      "SequenceName": "epfid2d1_82",
      "SequenceVariant": [
        "SK",
        "SS"
],
      "SeriesDescription": "func_run-01_task-alignvideo_acq-ap-mb8",
      "SeriesNumber": 28,
      "SeriesTime": "104403.007000",
      "SliceLocation": -44.643666419115,
      "SliceThickness": 2.7000000476837,
      "SmallestImagePixelValue": 0,
      "SoftwareVersions": "syngo MR E11",
      "SpacingBetweenSlices": 2.6999999799405,
      "SpecificCharacterSet": "ISO_IR 100",
      "StudyID": "2",
      "StudyTime": "085750.278000",
      "TransmitCoilName": "Body",
      "VariableFlipAngleFlag": "N",
      "WindowCenterWidthExplanation": "Algo1",
      "dBdt": 0.0},
    "slices": {}
  },
  "time": {
    "samples": {
      "AcquisitionNumber": [1, 2, 3, 4, 5, 6, 7, 8, 9, 10, 11, 12, 13, 14, 15, 16, 17, 18, 19, 20, 21, 22, 23, 24, 25, 26, 27, 28, 29, 30, 31, 32, 33, 34, 35, 36, 37, 38, 39, 40, 41, 42, 43, 44, 45, 46, 47, 48, 49, 50, 51, 52, 53, 54, 55, 56, 57, 58, 59, 60, 61, 62, 63, 64, 65, 66, 67, 68, 69, 70, 71, 72, 73, 74, 75, 76, 77, 78, 79, 80, 81, 82, 83, 84, 85, 86, 87, 88, 89, 90, 91, 92, 93, 94, 95, 96, 97, 98, 99, 100, 101, 102, 103, 104, 105, 106, 107, 108, 109, 110, 111, 112, 113, 114, 115, 116, 117, 118, 119, 120, 121, 122, 123, 124, 125, 126, 127, 128, 129, 130, 131, 132, 133, 134, 135, 136, 137, 138, 139, 140, 141, 142, 143, 144, 145, 146, 147, 148, 149, 150, 151, 152, 153, 154, 155, 156, 157, 158, 159, 160, 161, 162, 163, 164, 165, 166, 167, 168, 169, 170, 171, 172, 173, 174, 175, 176, 177, 178, 179, 180, 181, 182, 183, 184, 185, 186, 187, 188, 189, 190, 191, 192, 193, 194, 195, 196, 197, 198, 199, 200, 201, 202, 203, 204, 205, 206, 207, 208, 209, 210, 211, 212, 213, 214, 215, 216, 217, 218, 219, 220, 221, 222, 223, 224, 225, 226, 227, 228, 229, 230, 231, 232, 233, 234, 235, 236, 237, 238, 239, 240, 241, 242, 243, 244, 245, 246, 247, 248, 249, 250, 251, 252, 253, 254, 255, 256, 257, 258, 259, 260, 261, 262, 263, 264, 265, 266, 267, 268, 269, 270, 271, 272, 273, 274, 275, 276, 277, 278, 279, 280, 281, 282, 283, 284, 285, 286, 287, 288, 289, 290, 291, 292, 293, 294, 295, 296, 297, 298, 299, 300, 301, 302, 303, 304, 305, 306, 307, 308, 309, 310, 311, 312, 313, 314, 315, 316, 317, 318, 319, 320, 321, 322, 323, 324, 325, 326, 327, 328, 329, 330, 331, 332, 333, 334, 335, 336, 337, 338, 339, 340, 341, 342, 343, 344, 345, 346, 347, 348, 349, 350, 351, 352, 353, 354, 355, 356, 357, 358, 359, 360, 361, 362, 363, 364, 365, 366, 367, 368, 369, 370, 371, 372, 373, 374, 375, 376, 377, 378, 379, 380, 381, 382, 383, 384, 385, 386, 387, 388, 389, 390, 391, 392, 393, 394, 395, 396, 397, 398, 399, 400, 401, 402, 403, 404, 405, 406, 407, 408, 409, 410, 411, 412, 413, 414, 415, 416, 417, 418, 419, 420, 421, 422, 423, 424, 425, 426, 427, 428, 429, 430, 431, 432, 433, 434, 435, 436, 437, 438, 439, 440, 441, 442, 443, 444, 445, 446, 447, 448, 449, 450, 451, 452, 453, 454, 455, 456, 457, 458, 459, 460, 461, 462, 463, 464, 465, 466, 467, 468, 469, 470, 471, 472, 473, 474, 475, 476, 477, 478, 479, 480, 481, 482, 483, 484, 485, 486, 487, 488, 489, 490, 491, 492, 493, 494, 495, 496, 497, 498, 499, 500, 501, 502, 503, 504, 505, 506, 507, 508, 509, 510, 511, 512, 513, 514, 515, 516, 517, 518, 519, 520, 521, 522, 523, 524, 525, 526, 527, 528, 529, 530, 531, 532, 533, 534, 535, 536, 537, 538, 539, 540, 541, 542, 543, 544, 545, 546, 547, 548, 549, 550, 551, 552, 553, 554, 555, 556, 557, 558, 559, 560, 561, 562, 563, 564, 565, 566, 567, 568, 569, 570, 571, 572, 573, 574, 575, 576, 577, 578, 579, 580, 581, 582, 583, 584, 585, 586, 587, 588, 589, 590, 591, 592, 593, 594, 595, 596, 597, 598, 599, 600, 601, 602, 603, 604, 605, 606, 607, 608, 609, 610, 611, 612, 613, 614, 615, 616, 617, 618, 619, 620, 621, 622, 623, 624, 625, 626, 627, 628, 629, 630, 631, 632, 633, 634, 635, 636, 637, 638, 639, 640, 641, 642, 643, 644, 645, 646, 647, 648, 649, 650, 651, 652, 653, 654, 655, 656, 657, 658, 659, 660, 661, 662, 663, 664, 665, 666, 667, 668, 669, 670, 671, 672, 673, 674, 675, 676, 677, 678, 679, 680, 681, 682, 683, 684, 685, 686, 687, 688, 689, 690, 691, 692, 693, 694, 695, 696, 697, 698, 699, 700, 701, 702, 703, 704, 705, 706, 707, 708, 709, 710, 711, 712, 713, 714, 715, 716, 717, 718, 719, 720, 721, 722, 723, 724, 725, 726, 727, 728, 729, 730, 731, 732, 733, 734, 735, 736, 737, 738, 739, 740, 741, 742, 743, 744, 745, 746, 747, 748, 749, 750, 751, 752, 753, 754, 755, 756, 757, 758, 759, 760, 761, 762, 763, 764, 765, 766, 767, 768, 769, 770, 771, 772, 773, 774, 775, 776, 777, 778, 779, 780, 781, 782, 783, 784, 785, 786, 787, 788, 789, 790, 791, 792, 793, 794, 795, 796, 797, 798, 799, 800, 801, 802, 803, 804, 805, 806, 807, 808, 809, 810, 811, 812, 813, 814, 815, 816, 817, 818, 819, 820, 821, 822, 823, 824, 825, 826, 827, 828, 829, 830, 831, 832, 833, 834, 835, 836, 837, 838, 839],
      "AcquisitionTime": ["104348.735000", "104349.195000", "104349.655000", "104350.115000", "104350.575000", "104351.035000", "104351.495000", "104351.955000", "104352.415000", "104352.875000", "104353.335000", "104353.795000", "104354.255000", "104354.715000", "104355.175000", "104355.635000", "104356.095000", "104356.555000", "104357.015000", "104357.475000", "104357.935000", "104358.395000", "104358.855000", "104359.315000", "104359.775000", "104400.235000", "104400.695000", "104401.155000", "104401.615000", "104402.075000", "104402.535000", "104402.995000", "104403.455000", "104403.915000", "104404.375000", "104404.835000", "104405.295000", "104405.755000", "104406.215000", "104406.675000", "104407.135000", "104407.595000", "104408.055000", "104408.515000", "104408.975000", "104409.435000", "104409.895000", "104410.355000", "104410.815000", "104411.275000", "104411.735000", "104412.195000", "104412.655000", "104413.115000", "104413.575000", "104414.035000", "104414.495000", "104414.955000", "104415.415000", "104415.875000", "104416.335000", "104416.795000", "104417.255000", "104417.715000", "104418.175000", "104418.635000", "104419.095000", "104419.555000", "104420.015000", "104420.475000", "104420.935000", "104421.395000", "104421.855000", "104422.315000", "104422.775000", "104423.235000", "104423.695000", "104424.155000", "104424.615000", "104425.075000", "104425.535000", "104425.995000", "104426.455000", "104426.915000", "104427.375000", "104427.835000", "104428.295000", "104428.755000", "104429.215000", "104429.675000", "104430.135000", "104430.595000", "104431.055000", "104431.515000", "104431.975000", "104432.435000", "104432.895000", "104433.355000", "104433.815000", "104434.275000", "104434.735000", "104435.195000", "104435.655000", "104436.115000", "104436.575000", "104437.035000", "104437.495000", "104437.955000", "104438.415000", "104438.875000", "104439.335000", "104439.795000", "104440.255000", "104440.715000", "104441.175000", "104441.635000", "104442.095000", "104442.555000", "104443.015000", "104443.475000", "104443.935000", "104444.395000", "104444.855000", "104445.315000", "104445.775000", "104446.235000", "104446.695000", "104447.155000", "104447.615000", "104448.075000", "104448.535000", "104448.995000", "104449.455000", "104449.915000", "104450.375000", "104450.835000", "104451.295000", "104451.755000", "104452.215000", "104452.675000", "104453.135000", "104453.595000", "104454.055000", "104454.515000", "104454.975000", "104455.435000", "104455.895000", "104456.355000", "104456.815000", "104457.275000", "104457.735000", "104458.195000", "104458.655000", "104459.115000", "104459.575000", "104500.035000", "104500.495000", "104500.955000", "104501.415000", "104501.875000", "104502.335000", "104502.795000", "104503.255000", "104503.715000", "104504.175000", "104504.635000", "104505.095000", "104505.555000", "104506.015000", "104506.475000", "104506.935000", "104507.395000", "104507.855000", "104508.315000", "104508.775000", "104509.235000", "104509.695000", "104510.155000", "104510.615000", "104511.075000", "104511.535000", "104511.995000", "104512.455000", "104512.915000", "104513.375000", "104513.835000", "104514.295000", "104514.755000", "104515.215000", "104515.675000", "104516.135000", "104516.595000", "104517.055000", "104517.515000", "104517.975000", "104518.435000", "104518.895000", "104519.355000", "104519.815000", "104520.275000", "104520.735000", "104521.195000", "104521.655000", "104522.115000", "104522.575000", "104523.035000", "104523.495000", "104523.955000", "104524.415000", "104524.875000", "104525.335000", "104525.795000", "104526.255000", "104526.715000", "104527.175000", "104527.635000", "104528.095000", "104528.555000", "104529.015000", "104529.475000", "104529.935000", "104530.395000", "104530.855000", "104531.315000", "104531.775000", "104532.235000", "104532.695000", "104533.155000", "104533.615000", "104534.075000", "104534.535000", "104534.995000", "104535.455000", "104535.915000", "104536.375000", "104536.835000", "104537.295000", "104537.755000", "104538.215000", "104538.675000", "104539.135000", "104539.595000", "104540.055000", "104540.515000", "104540.975000", "104541.435000", "104541.895000", "104542.355000", "104542.815000", "104543.275000", "104543.735000", "104544.195000", "104544.655000", "104545.115000", "104545.575000", "104546.035000", "104546.495000", "104546.955000", "104547.415000", "104547.875000", "104548.335000", "104548.795000", "104549.255000", "104549.715000", "104550.175000", "104550.635000", "104551.095000", "104551.555000", "104552.015000", "104552.475000", "104552.935000", "104553.395000", "104553.855000", "104554.315000", "104554.775000", "104555.235000", "104555.695000", "104556.155000", "104556.615000", "104557.075000", "104557.535000", "104557.995000", "104558.455000", "104558.915000", "104559.375000", "104559.835000", "104600.295000", "104600.755000", "104601.215000", "104601.675000", "104602.135000", "104602.595000", "104603.055000", "104603.515000", "104603.975000", "104604.435000", "104604.895000", "104605.355000", "104605.815000", "104606.275000", "104606.735000", "104607.195000", "104607.655000", "104608.115000", "104608.575000", "104609.035000", "104609.495000", "104609.955000", "104610.415000", "104610.875000", "104611.335000", "104611.795000", "104612.255000", "104612.715000", "104613.175000", "104613.635000", "104614.095000", "104614.555000", "104615.015000", "104615.475000", "104615.935000", "104616.395000", "104616.855000", "104617.315000", "104617.775000", "104618.235000", "104618.695000", "104619.155000", "104619.615000", "104620.075000", "104620.535000", "104620.995000", "104621.455000", "104621.915000", "104622.375000", "104622.835000", "104623.295000", "104623.755000", "104624.215000", "104624.675000", "104625.135000", "104625.595000", "104626.055000", "104626.515000", "104626.975000", "104627.435000", "104627.895000", "104628.355000", "104628.815000", "104629.275000", "104629.735000", "104630.195000", "104630.655000", "104631.115000", "104631.575000", "104632.035000", "104632.495000", "104632.955000", "104633.415000", "104633.875000", "104634.335000", "104634.795000", "104635.255000", "104635.715000", "104636.175000", "104636.635000", "104637.095000", "104637.555000", "104638.015000", "104638.475000", "104638.935000", "104639.395000", "104639.855000", "104640.315000", "104640.775000", "104641.235000", "104641.695000", "104642.155000", "104642.615000", "104643.075000", "104643.535000", "104643.995000", "104644.455000", "104644.915000", "104645.375000", "104645.835000", "104646.295000", "104646.755000", "104647.215000", "104647.675000", "104648.135000", "104648.595000", "104649.055000", "104649.515000", "104649.975000", "104650.435000", "104650.895000", "104651.355000", "104651.815000", "104652.275000", "104652.735000", "104653.195000", "104653.655000", "104654.115000", "104654.575000", "104655.035000", "104655.495000", "104655.955000", "104656.415000", "104656.875000", "104657.335000", "104657.795000", "104658.255000", "104658.715000", "104659.175000", "104659.635000", "104700.095000", "104700.555000", "104701.015000", "104701.475000", "104701.935000", "104702.395000", "104702.855000", "104703.315000", "104703.775000", "104704.235000", "104704.695000", "104705.155000", "104705.615000", "104706.075000", "104706.535000", "104706.995000", "104707.455000", "104707.915000", "104708.375000", "104708.835000", "104709.295000", "104709.755000", "104710.215000", "104710.675000", "104711.135000", "104711.595000", "104712.055000", "104712.515000", "104712.975000", "104713.435000", "104713.895000", "104714.355000", "104714.815000", "104715.275000", "104715.735000", "104716.195000", "104716.655000", "104717.115000", "104717.575000", "104718.035000", "104718.495000", "104718.955000", "104719.415000", "104719.875000", "104720.335000", "104720.795000", "104721.255000", "104721.715000", "104722.175000", "104722.635000", "104723.095000", "104723.555000", "104724.015000", "104724.475000", "104724.935000", "104725.395000", "104725.855000", "104726.315000", "104726.775000", "104727.235000", "104727.695000", "104728.155000", "104728.615000", "104729.075000", "104729.535000", "104729.995000", "104730.455000", "104730.915000", "104731.375000", "104731.835000", "104732.295000", "104732.755000", "104733.215000", "104733.675000", "104734.135000", "104734.595000", "104735.055000", "104735.515000", "104735.975000", "104736.435000", "104736.895000", "104737.355000", "104737.815000", "104738.275000", "104738.735000", "104739.195000", "104739.655000", "104740.115000", "104740.575000", "104741.035000", "104741.495000", "104741.955000", "104742.415000", "104742.875000", "104743.335000", "104743.795000", "104744.255000", "104744.715000", "104745.175000", "104745.635000", "104746.095000", "104746.555000", "104747.015000", "104747.475000", "104747.935000", "104748.395000", "104748.855000", "104749.315000", "104749.775000", "104750.235000", "104750.695000", "104751.155000", "104751.615000", "104752.075000", "104752.535000", "104752.995000", "104753.455000", "104753.915000", "104754.375000", "104754.835000", "104755.295000", "104755.755000", "104756.215000", "104756.675000", "104757.135000", "104757.595000", "104758.055000", "104758.515000", "104758.975000", "104759.435000", "104759.895000", "104800.355000", "104800.815000", "104801.275000", "104801.735000", "104802.195000", "104802.655000", "104803.115000", "104803.575000", "104804.035000", "104804.495000", "104804.955000", "104805.415000", "104805.875000", "104806.335000", "104806.795000", "104807.255000", "104807.715000", "104808.175000", "104808.635000", "104809.095000", "104809.555000", "104810.015000", "104810.475000", "104810.935000", "104811.395000", "104811.855000", "104812.315000", "104812.775000", "104813.235000", "104813.695000", "104814.155000", "104814.615000", "104815.075000", "104815.535000", "104815.995000", "104816.455000", "104816.915000", "104817.375000", "104817.835000", "104818.295000", "104818.755000", "104819.215000", "104819.675000", "104820.135000", "104820.595000", "104821.055000", "104821.515000", "104821.975000", "104822.435000", "104822.895000", "104823.355000", "104823.815000", "104824.275000", "104824.735000", "104825.195000", "104825.655000", "104826.115000", "104826.575000", "104827.035000", "104827.495000", "104827.955000", "104828.415000", "104828.875000", "104829.335000", "104829.795000", "104830.255000", "104830.715000", "104831.175000", "104831.635000", "104832.095000", "104832.555000", "104833.015000", "104833.475000", "104833.935000", "104834.395000", "104834.855000", "104835.315000", "104835.775000", "104836.235000", "104836.695000", "104837.155000", "104837.615000", "104838.075000", "104838.535000", "104838.995000", "104839.455000", "104839.915000", "104840.375000", "104840.835000", "104841.295000", "104841.755000", "104842.215000", "104842.675000", "104843.135000", "104843.595000", "104844.055000", "104844.515000", "104844.975000", "104845.435000", "104845.895000", "104846.355000", "104846.815000", "104847.275000", "104847.735000", "104848.195000", "104848.655000", "104849.115000", "104849.575000", "104850.035000", "104850.495000", "104850.955000", "104851.415000", "104851.875000", "104852.335000", "104852.795000", "104853.255000", "104853.715000", "104854.175000", "104854.635000", "104855.095000", "104855.555000", "104856.015000", "104856.475000", "104856.935000", "104857.395000", "104857.855000", "104858.315000", "104858.775000", "104859.235000", "104859.695000", "104900.155000", "104900.615000", "104901.075000", "104901.535000", "104901.995000", "104902.455000", "104902.915000", "104903.375000", "104903.835000", "104904.295000", "104904.755000", "104905.215000", "104905.675000", "104906.135000", "104906.595000", "104907.055000", "104907.515000", "104907.975000", "104908.435000", "104908.895000", "104909.355000", "104909.815000", "104910.275000", "104910.735000", "104911.195000", "104911.655000", "104912.115000", "104912.575000", "104913.035000", "104913.495000", "104913.955000", "104914.415000", "104914.875000", "104915.335000", "104915.795000", "104916.255000", "104916.715000", "104917.175000", "104917.635000", "104918.095000", "104918.555000", "104919.015000", "104919.475000", "104919.935000", "104920.395000", "104920.855000", "104921.315000", "104921.775000", "104922.235000", "104922.695000", "104923.155000", "104923.615000", "104924.075000", "104924.535000", "104924.995000", "104925.455000", "104925.915000", "104926.375000", "104926.835000", "104927.295000", "104927.755000", "104928.215000", "104928.675000", "104929.135000", "104929.595000", "104930.055000", "104930.515000", "104930.975000", "104931.435000", "104931.895000", "104932.355000", "104932.815000", "104933.275000", "104933.735000", "104934.195000", "104934.655000", "104935.115000", "104935.575000", "104936.035000", "104936.495000", "104936.955000", "104937.415000", "104937.875000", "104938.335000", "104938.795000", "104939.255000", "104939.715000", "104940.175000", "104940.635000", "104941.095000", "104941.555000", "104942.015000", "104942.475000", "104942.935000", "104943.395000", "104943.855000", "104944.315000", "104944.775000", "104945.235000", "104945.695000", "104946.155000", "104946.615000", "104947.075000", "104947.535000", "104947.995000", "104948.455000", "104948.915000", "104949.375000", "104949.835000", "104950.295000", "104950.755000", "104951.215000", "104951.675000", "104952.135000", "104952.595000", "104953.055000", "104953.515000", "104953.975000", "104954.435000", "104954.895000", "104955.355000", "104955.815000", "104956.275000", "104956.735000", "104957.195000", "104957.655000", "104958.115000", "104958.575000", "104959.035000", "104959.495000", "104959.955000", "105000.415000", "105000.875000", "105001.335000", "105001.795000", "105002.255000", "105002.715000", "105003.175000", "105003.635000", "105004.095000", "105004.555000", "105005.015000", "105005.475000", "105005.935000", "105006.395000", "105006.855000", "105007.315000", "105007.775000", "105008.235000", "105008.695000", "105009.155000", "105009.615000", "105010.075000", "105010.535000", "105010.995000", "105011.455000", "105011.915000", "105012.375000", "105012.835000", "105013.295000", "105013.755000", "105014.215000"],
