{
  "AcquisitionMatrixPE": 82,
  "AcquisitionNumber": 1,
  "AcquisitionTime": "11:14:51.765000",
  "BandwidthPerPixelPhaseEncode": 24.888,
  "BaseResolution": 82,
  "BodyPartExamined": "BRAIN",
  "ConsistencyInfo": "N4_VE11C_LATEST_20160120",
  "ConversionSoftware": "dcm2niix",
  "ConversionSoftwareVersion": "v1.0.20201102",
  "DerivedVendorReportedEchoSpacing": 0.00049,
  "DeviceSerialNumber": "66112",
  "DwellTime": 2e-06,
  "EchoTime": 0.0272,
  "EchoTrainLength": 82,
  "EffectiveEchoSpacing": 0.00049,
  "FlipAngle": 44,
  "ImageComments": "Unaliased MB8/PE3",
  "ImageOrientationPatientDICOM": [0.997561, 0.0697549, -0.00243124, -0.067832, 0.977092, 0.20172],
  "ImageType": [
    "ORIGINAL",
    "PRIMARY",
    "M",
    "MB",
    "ND",
    "NORM",
    "MOSAIC"
],
  "ImagingFrequency": 123.252,
  "InPlanePhaseEncodingDirectionDICOM": "COL",
  "InstitutionAddress": "Maynard 3,Hanover,NH,US,03755",
  "InstitutionName": "Dartmouth College - PBS",
  "InstitutionalDepartmentName": "Department",
  "MRAcquisitionType": "2D",
  "MagneticFieldStrength": 3,
  "Manufacturer": "Siemens",
  "ManufacturersModelName": "Prisma",
  "Modality": "MR",
  "MultibandAccelerationFactor": 8,
  "PartialFourier": 1,
  "PatientPosition": "HFS",
  "PercentPhaseFOV": 100,
  "PercentSampling": 100,
  "PhaseEncodingDirection": "j-",
  "PhaseEncodingSteps": 82,
  "PhaseResolution": 1,
  "PixelBandwidth": 3050,
  "ProcedureStepDescription": "Wager_Wager^1076_spacetop",
  "ProtocolName": "func_run-04_task-alignvideo_acq-ap-mb8",
  "PulseSequenceDetails": "%CustomerSeq%\\cmrr_mbep2d_bold",
  "ReceiveCoilActiveElements": "HEA;HEP",
  "ReceiveCoilName": "Head_32",
  "ReconMatrixPE": 82,
  "RepetitionTime": 0.46,
  "SAR": 0.090066,
  "ScanOptions": "FS",
  "ScanningSequence": "EP",
  "SequenceName": "epfid2d1_82",
  "SequenceVariant": "SK\\SS",
  "SeriesDescription": "func_run-04_task-alignvideo_acq-ap-mb8",
  "SeriesNumber": 34,
  "ShimSetting": [4130, -7768, -7236, 459, -204, -234, 33, 45],
  "SliceThickness": 2.7,
  "SliceTiming": [0, 0.2525, 0.0625, 0.315, 0.125, 0.3775, 0.19, 0, 0.2525, 0.0625, 0.315, 0.125, 0.3775, 0.19, 0, 0.2525, 0.0625, 0.315, 0.125, 0.3775, 0.19, 0, 0.2525, 0.0625, 0.315, 0.125, 0.3775, 0.19, 0, 0.2525, 0.0625, 0.315, 0.125, 0.3775, 0.19, 0, 0.2525, 0.0625, 0.315, 0.125, 0.3775, 0.19, 0, 0.2525, 0.0625, 0.315, 0.125, 0.3775, 0.19, 0, 0.2525, 0.0625, 0.315, 0.125, 0.3775, 0.19],
  "SoftwareVersions": "syngo MR E11",
  "SpacingBetweenSlices": 2.7,
  "StationName": "AWP66112",
  "TaskName": "alignvideo",
  "TotalReadoutTime": 0.03969,
  "TxRefAmp": 243.756,
  "WipMemBlock": "03dd4926-102c-45a4-ad97-ab26157be1ca||Sequence: R016 ve11c/master r/e634e98; Dec 19 2017 11:00:25 by eja",
  "dcmmeta_affine": [
    [-2.6763837337493896, -0.1819881796836853, -0.04440555348992348, 121.89144134521484],
    [-0.1871473789215088, 2.6214652061462402, 0.5428702235221863, -95.25267791748047],
    [-0.0065228319726884365, -0.541199803352356, 2.644488573074341, -23.980213165283203],
    [0.0, 0.0, 0.0, 1.0]
],
  "dcmmeta_reorient_transform": [
    [0.0, -1.0, 0.0, 81.0],
    [1.0, 0.0, 0.0, 0.0],
    [0.0, 0.0, 1.0, 0.0],
    [0.0, 0.0, 0.0, 1.0]
],
  "dcmmeta_shape": [82, 82, 56, 914],
  "dcmmeta_slice_dim": 2,
  "dcmmeta_version": 0.6,
  "global": {
    "const": {
      "AccessionNumber": "A003514",
      "AcquisitionMatrix": [82, 0, 0, 82],
      "AngioFlag": "N",
      "BitsAllocated": 16,
      "BitsStored": 16,
      "BodyPartExamined": "BRAIN",
      "Columns": 656,
      "EchoNumbers": 1,
      "EchoTime": 27.2,
      "EchoTrainLength": 82,
      "FlipAngle": 44.0,
      "HighBit": 15,
      "ImageOrientationPatient": [0.99756119539418, 0.06975493193101, -0.0024312373452, -0.0678319544943, 0.97709155085801, 0.20171992264366],
      "ImagePositionPatient": [-823.04192899626, -923.15781735245, -221.26968857076],
      "ImageType": [
        "ORIGINAL",
        "PRIMARY",
        "M",
        "MB",
        "ND",
        "NORM",
        "MOSAIC"
],
      "ImagedNucleus": "1H",
      "ImagingFrequency": 123.252216,
      "InPlanePhaseEncodingDirection": "COL",
      "MRAcquisitionType": "2D",
      "MagneticFieldStrength": 3.0,
      "Manufacturer": "SIEMENS",
      "ManufacturerModelName": "Prisma",
      "Modality": "MR",
      "NumberOfAverages": 1.0,
      "NumberOfPhaseEncodingSteps": 82,
      "PercentPhaseFieldOfView": 100.0,
      "PercentSampling": 100.0,
      "PerformedProcedureStepStartTime": "085750.373000",
      "PhotometricInterpretation": "MONOCHROME2",
      "PixelBandwidth": 3050.0,
      "PixelRepresentation": 0,
      "PixelSpacing": [2.6829268932343, 2.6829268932343],
      "ProtocolName": "func_run-04_task-alignvideo_acq-ap-mb8",
      "RepetitionTime": 460.0,
      "Rows": 656,
      "SAR": 0.09006604456914,
      "SamplesPerPixel": 1,
      "ScanOptions": "FS",
      "ScanningSequence": "EP",
      "SequenceName": "epfid2d1_82",
      "SequenceVariant": [
        "SK",
        "SS"
],
      "SeriesDescription": "func_run-04_task-alignvideo_acq-ap-mb8",
      "SeriesNumber": 34,
      "SeriesTime": "111503.018000",
      "SliceLocation": -44.643666419115,
      "SliceThickness": 2.7000000476837,
      "SmallestImagePixelValue": 0,
      "SoftwareVersions": "syngo MR E11",
      "SpacingBetweenSlices": 2.6999999799405,
      "SpecificCharacterSet": "ISO_IR 100",
      "StudyID": "2",
      "StudyTime": "085750.278000",
      "TransmitCoilName": "Body",
      "VariableFlipAngleFlag": "N",
      "WindowCenterWidthExplanation": "Algo1",
      "dBdt": 0.0},
    "slices": {}
  },
  "time": {
    "samples": {
      "AcquisitionNumber": [1, 2, 3, 4, 5, 6, 7, 8, 9, 10, 11, 12, 13, 14, 15, 16, 17, 18, 19, 20, 21, 22, 23, 24, 25, 26, 27, 28, 29, 30, 31, 32, 33, 34, 35, 36, 37, 38, 39, 40, 41, 42, 43, 44, 45, 46, 47, 48, 49, 50, 51, 52, 53, 54, 55, 56, 57, 58, 59, 60, 61, 62, 63, 64, 65, 66, 67, 68, 69, 70, 71, 72, 73, 74, 75, 76, 77, 78, 79, 80, 81, 82, 83, 84, 85, 86, 87, 88, 89, 90, 91, 92, 93, 94, 95, 96, 97, 98, 99, 100, 101, 102, 103, 104, 105, 106, 107, 108, 109, 110, 111, 112, 113, 114, 115, 116, 117, 118, 119, 120, 121, 122, 123, 124, 125, 126, 127, 128, 129, 130, 131, 132, 133, 134, 135, 136, 137, 138, 139, 140, 141, 142, 143, 144, 145, 146, 147, 148, 149, 150, 151, 152, 153, 154, 155, 156, 157, 158, 159, 160, 161, 162, 163, 164, 165, 166, 167, 168, 169, 170, 171, 172, 173, 174, 175, 176, 177, 178, 179, 180, 181, 182, 183, 184, 185, 186, 187, 188, 189, 190, 191, 192, 193, 194, 195, 196, 197, 198, 199, 200, 201, 202, 203, 204, 205, 206, 207, 208, 209, 210, 211, 212, 213, 214, 215, 216, 217, 218, 219, 220, 221, 222, 223, 224, 225, 226, 227, 228, 229, 230, 231, 232, 233, 234, 235, 236, 237, 238, 239, 240, 241, 242, 243, 244, 245, 246, 247, 248, 249, 250, 251, 252, 253, 254, 255, 256, 257, 258, 259, 260, 261, 262, 263, 264, 265, 266, 267, 268, 269, 270, 271, 272, 273, 274, 275, 276, 277, 278, 279, 280, 281, 282, 283, 284, 285, 286, 287, 288, 289, 290, 291, 292, 293, 294, 295, 296, 297, 298, 299, 300, 301, 302, 303, 304, 305, 306, 307, 308, 309, 310, 311, 312, 313, 314, 315, 316, 317, 318, 319, 320, 321, 322, 323, 324, 325, 326, 327, 328, 329, 330, 331, 332, 333, 334, 335, 336, 337, 338, 339, 340, 341, 342, 343, 344, 345, 346, 347, 348, 349, 350, 351, 352, 353, 354, 355, 356, 357, 358, 359, 360, 361, 362, 363, 364, 365, 366, 367, 368, 369, 370, 371, 372, 373, 374, 375, 376, 377, 378, 379, 380, 381, 382, 383, 384, 385, 386, 387, 388, 389, 390, 391, 392, 393, 394, 395, 396, 397, 398, 399, 400, 401, 402, 403, 404, 405, 406, 407, 408, 409, 410, 411, 412, 413, 414, 415, 416, 417, 418, 419, 420, 421, 422, 423, 424, 425, 426, 427, 428, 429, 430, 431, 432, 433, 434, 435, 436, 437, 438, 439, 440, 441, 442, 443, 444, 445, 446, 447, 448, 449, 450, 451, 452, 453, 454, 455, 456, 457, 458, 459, 460, 461, 462, 463, 464, 465, 466, 467, 468, 469, 470, 471, 472, 473, 474, 475, 476, 477, 478, 479, 480, 481, 482, 483, 484, 485, 486, 487, 488, 489, 490, 491, 492, 493, 494, 495, 496, 497, 498, 499, 500, 501, 502, 503, 504, 505, 506, 507, 508, 509, 510, 511, 512, 513, 514, 515, 516, 517, 518, 519, 520, 521, 522, 523, 524, 525, 526, 527, 528, 529, 530, 531, 532, 533, 534, 535, 536, 537, 538, 539, 540, 541, 542, 543, 544, 545, 546, 547, 548, 549, 550, 551, 552, 553, 554, 555, 556, 557, 558, 559, 560, 561, 562, 563, 564, 565, 566, 567, 568, 569, 570, 571, 572, 573, 574, 575, 576, 577, 578, 579, 580, 581, 582, 583, 584, 585, 586, 587, 588, 589, 590, 591, 592, 593, 594, 595, 596, 597, 598, 599, 600, 601, 602, 603, 604, 605, 606, 607, 608, 609, 610, 611, 612, 613, 614, 615, 616, 617, 618, 619, 620, 621, 622, 623, 624, 625, 626, 627, 628, 629, 630, 631, 632, 633, 634, 635, 636, 637, 638, 639, 640, 641, 642, 643, 644, 645, 646, 647, 648, 649, 650, 651, 652, 653, 654, 655, 656, 657, 658, 659, 660, 661, 662, 663, 664, 665, 666, 667, 668, 669, 670, 671, 672, 673, 674, 675, 676, 677, 678, 679, 680, 681, 682, 683, 684, 685, 686, 687, 688, 689, 690, 691, 692, 693, 694, 695, 696, 697, 698, 699, 700, 701, 702, 703, 704, 705, 706, 707, 708, 709, 710, 711, 712, 713, 714, 715, 716, 717, 718, 719, 720, 721, 722, 723, 724, 725, 726, 727, 728, 729, 730, 731, 732, 733, 734, 735, 736, 737, 738, 739, 740, 741, 742, 743, 744, 745, 746, 747, 748, 749, 750, 751, 752, 753, 754, 755, 756, 757, 758, 759, 760, 761, 762, 763, 764, 765, 766, 767, 768, 769, 770, 771, 772, 773, 774, 775, 776, 777, 778, 779, 780, 781, 782, 783, 784, 785, 786, 787, 788, 789, 790, 791, 792, 793, 794, 795, 796, 797, 798, 799, 800, 801, 802, 803, 804, 805, 806, 807, 808, 809, 810, 811, 812, 813, 814, 815, 816, 817, 818, 819, 820, 821, 822, 823, 824, 825, 826, 827, 828, 829, 830, 831, 832, 833, 834, 835, 836, 837, 838, 839, 840, 841, 842, 843, 844, 845, 846, 847, 848, 849, 850, 851, 852, 853, 854, 855, 856, 857, 858, 859, 860, 861, 862, 863, 864, 865, 866, 867, 868, 869, 870, 871, 872, 873, 874, 875, 876, 877, 878, 879, 880, 881, 882, 883, 884, 885, 886, 887, 888, 889, 890, 891, 892, 893, 894, 895, 896, 897, 898, 899, 900, 901, 902, 903, 904, 905, 906, 907, 908, 909, 910, 911, 912, 913, 914],
      "AcquisitionTime": ["111451.765000", "111452.225000", "111452.685000", "111453.145000", "111453.605000", "111454.065000", "111454.525000", "111454.985000", "111455.445000", "111455.905000", "111456.365000", "111456.825000", "111457.285000", "111457.745000", "111458.205000", "111458.665000", "111459.125000", "111459.585000", "111500.045000", "111500.505000", "111500.965000", "111501.425000", "111501.885000", "111502.345000", "111502.805000", "111503.265000", "111503.725000", "111504.185000", "111504.645000", "111505.105000", "111505.565000", "111506.025000", "111506.485000", "111506.945000", "111507.405000", "111507.865000", "111508.325000", "111508.785000", "111509.245000", "111509.705000", "111510.165000", "111510.625000", "111511.085000", "111511.545000", "111512.005000", "111512.465000", "111512.925000", "111513.385000", "111513.845000", "111514.305000", "111514.765000", "111515.225000", "111515.685000", "111516.145000", "111516.605000", "111517.065000", "111517.525000", "111517.985000", "111518.445000", "111518.905000", "111519.365000", "111519.825000", "111520.285000", "111520.745000", "111521.205000", "111521.665000", "111522.125000", "111522.585000", "111523.045000", "111523.505000", "111523.965000", "111524.425000", "111524.885000", "111525.345000", "111525.805000", "111526.265000", "111526.725000", "111527.185000", "111527.645000", "111528.105000", "111528.565000", "111529.025000", "111529.485000", "111529.945000", "111530.405000", "111530.865000", "111531.325000", "111531.785000", "111532.245000", "111532.705000", "111533.165000", "111533.625000", "111534.085000", "111534.545000", "111535.005000", "111535.465000", "111535.925000", "111536.385000", "111536.845000", "111537.305000", "111537.765000", "111538.225000", "111538.685000", "111539.145000", "111539.605000", "111540.065000", "111540.525000", "111540.985000", "111541.445000", "111541.905000", "111542.365000", "111542.825000", "111543.285000", "111543.745000", "111544.205000", "111544.665000", "111545.125000", "111545.585000", "111546.045000", "111546.505000", "111546.965000", "111547.425000", "111547.885000", "111548.345000", "111548.805000", "111549.265000", "111549.725000", "111550.185000", "111550.645000", "111551.105000", "111551.565000", "111552.025000", "111552.485000", "111552.945000", "111553.405000", "111553.865000", "111554.325000", "111554.785000", "111555.245000", "111555.705000", "111556.165000", "111556.625000", "111557.085000", "111557.545000", "111558.005000", "111558.465000", "111558.925000", "111559.385000", "111559.845000", "111600.305000", "111600.765000", "111601.225000", "111601.685000", "111602.145000", "111602.605000", "111603.065000", "111603.525000", "111603.985000", "111604.445000", "111604.905000", "111605.365000", "111605.825000", "111606.285000", "111606.745000", "111607.205000", "111607.665000", "111608.125000", "111608.585000", "111609.045000", "111609.505000", "111609.965000", "111610.425000", "111610.885000", "111611.345000", "111611.805000", "111612.265000", "111612.725000", "111613.185000", "111613.645000", "111614.105000", "111614.565000", "111615.025000", "111615.485000", "111615.945000", "111616.405000", "111616.865000", "111617.325000", "111617.785000", "111618.245000", "111618.705000", "111619.165000", "111619.625000", "111620.085000", "111620.545000", "111621.005000", "111621.465000", "111621.925000", "111622.385000", "111622.845000", "111623.305000", "111623.765000", "111624.225000", "111624.685000", "111625.145000", "111625.605000", "111626.065000", "111626.525000", "111626.985000", "111627.445000", "111627.905000", "111628.365000", "111628.825000", "111629.285000", "111629.745000", "111630.205000", "111630.665000", "111631.125000", "111631.585000", "111632.045000", "111632.505000", "111632.965000", "111633.425000", "111633.885000", "111634.345000", "111634.805000", "111635.265000", "111635.725000", "111636.185000", "111636.645000", "111637.105000", "111637.565000", "111638.025000", "111638.485000", "111638.945000", "111639.405000", "111639.865000", "111640.325000", "111640.785000", "111641.245000", "111641.705000", "111642.165000", "111642.625000", "111643.085000", "111643.545000", "111644.005000", "111644.465000", "111644.925000", "111645.385000", "111645.845000", "111646.305000", "111646.765000", "111647.225000", "111647.685000", "111648.145000", "111648.605000", "111649.065000", "111649.525000", "111649.985000", "111650.445000", "111650.905000", "111651.365000", "111651.825000", "111652.285000", "111652.745000", "111653.205000", "111653.665000", "111654.125000", "111654.585000", "111655.045000", "111655.505000", "111655.965000", "111656.425000", "111656.885000", "111657.345000", "111657.805000", "111658.265000", "111658.725000", "111659.185000", "111659.645000", "111700.105000", "111700.565000", "111701.025000", "111701.485000", "111701.945000", "111702.405000", "111702.865000", "111703.325000", "111703.785000", "111704.245000", "111704.705000", "111705.165000", "111705.625000", "111706.085000", "111706.545000", "111707.005000", "111707.465000", "111707.925000", "111708.385000", "111708.845000", "111709.305000", "111709.765000", "111710.225000", "111710.685000", "111711.145000", "111711.605000", "111712.065000", "111712.525000", "111712.985000", "111713.445000", "111713.905000", "111714.365000", "111714.825000", "111715.285000", "111715.745000", "111716.205000", "111716.665000", "111717.125000", "111717.585000", "111718.045000", "111718.505000", "111718.965000", "111719.425000", "111719.885000", "111720.345000", "111720.805000", "111721.265000", "111721.725000", "111722.185000", "111722.645000", "111723.105000", "111723.565000", "111724.025000", "111724.485000", "111724.945000", "111725.405000", "111725.865000", "111726.325000", "111726.785000", "111727.245000", "111727.705000", "111728.165000", "111728.625000", "111729.085000", "111729.545000", "111730.005000", "111730.465000", "111730.925000", "111731.385000", "111731.845000", "111732.305000", "111732.765000", "111733.225000", "111733.685000", "111734.145000", "111734.605000", "111735.065000", "111735.525000", "111735.985000", "111736.445000", "111736.905000", "111737.365000", "111737.825000", "111738.285000", "111738.745000", "111739.205000", "111739.665000", "111740.125000", "111740.585000", "111741.045000", "111741.505000", "111741.965000", "111742.425000", "111742.885000", "111743.345000", "111743.805000", "111744.265000", "111744.725000", "111745.185000", "111745.645000", "111746.105000", "111746.565000", "111747.025000", "111747.485000", "111747.945000", "111748.405000", "111748.865000", "111749.325000", "111749.785000", "111750.245000", "111750.705000", "111751.165000", "111751.625000", "111752.085000", "111752.545000", "111753.005000", "111753.465000", "111753.925000", "111754.385000", "111754.845000", "111755.305000", "111755.765000", "111756.225000", "111756.685000", "111757.145000", "111757.605000", "111758.065000", "111758.525000", "111758.985000", "111759.445000", "111759.905000", "111800.365000", "111800.825000", "111801.285000", "111801.745000", "111802.205000", "111802.665000", "111803.125000", "111803.585000", "111804.045000", "111804.505000", "111804.965000", "111805.425000", "111805.885000", "111806.345000", "111806.805000", "111807.265000", "111807.725000", "111808.185000", "111808.645000", "111809.105000", "111809.565000", "111810.025000", "111810.485000", "111810.945000", "111811.405000", "111811.865000", "111812.325000", "111812.785000", "111813.245000", "111813.705000", "111814.165000", "111814.625000", "111815.085000", "111815.545000", "111816.005000", "111816.465000", "111816.925000", "111817.385000", "111817.845000", "111818.305000", "111818.765000", "111819.225000", "111819.685000", "111820.145000", "111820.605000", "111821.065000", "111821.525000", "111821.985000", "111822.445000", "111822.905000", "111823.365000", "111823.825000", "111824.285000", "111824.745000", "111825.205000", "111825.665000", "111826.125000", "111826.585000", "111827.045000", "111827.505000", "111827.965000", "111828.425000", "111828.885000", "111829.345000", "111829.805000", "111830.265000", "111830.725000", "111831.185000", "111831.645000", "111832.105000", "111832.565000", "111833.025000", "111833.485000", "111833.945000", "111834.405000", "111834.865000", "111835.325000", "111835.785000", "111836.245000", "111836.705000", "111837.165000", "111837.625000", "111838.085000", "111838.545000", "111839.005000", "111839.465000", "111839.925000", "111840.385000", "111840.845000", "111841.305000", "111841.765000", "111842.225000", "111842.685000", "111843.145000", "111843.605000", "111844.065000", "111844.525000", "111844.985000", "111845.445000", "111845.905000", "111846.365000", "111846.825000", "111847.285000", "111847.745000", "111848.205000", "111848.665000", "111849.125000", "111849.585000", "111850.045000", "111850.505000", "111850.965000", "111851.425000", "111851.885000", "111852.345000", "111852.805000", "111853.265000", "111853.725000", "111854.185000", "111854.645000", "111855.105000", "111855.565000", "111856.025000", "111856.485000", "111856.945000", "111857.405000", "111857.865000", "111858.325000", "111858.785000", "111859.245000", "111859.705000", "111900.165000", "111900.625000", "111901.085000", "111901.545000", "111902.005000", "111902.465000", "111902.925000", "111903.385000", "111903.845000", "111904.305000", "111904.765000", "111905.225000", "111905.685000", "111906.145000", "111906.605000", "111907.065000", "111907.525000", "111907.985000", "111908.445000", "111908.905000", "111909.365000", "111909.825000", "111910.285000", "111910.745000", "111911.205000", "111911.665000", "111912.125000", "111912.585000", "111913.045000", "111913.505000", "111913.965000", "111914.425000", "111914.885000", "111915.345000", "111915.805000", "111916.265000", "111916.725000", "111917.185000", "111917.645000", "111918.105000", "111918.565000", "111919.025000", "111919.485000", "111919.945000", "111920.405000", "111920.865000", "111921.325000", "111921.785000", "111922.245000", "111922.705000", "111923.165000", "111923.625000", "111924.085000", "111924.545000", "111925.005000", "111925.465000", "111925.925000", "111926.385000", "111926.845000", "111927.305000", "111927.765000", "111928.225000", "111928.685000", "111929.145000", "111929.605000", "111930.065000", "111930.525000", "111930.985000", "111931.445000", "111931.905000", "111932.365000", "111932.825000", "111933.285000", "111933.745000", "111934.205000", "111934.665000", "111935.125000", "111935.585000", "111936.045000", "111936.505000", "111936.965000", "111937.425000", "111937.885000", "111938.345000", "111938.805000", "111939.265000", "111939.725000", "111940.185000", "111940.645000", "111941.105000", "111941.565000", "111942.025000", "111942.485000", "111942.945000", "111943.405000", "111943.865000", "111944.325000", "111944.785000", "111945.245000", "111945.705000", "111946.165000", "111946.625000", "111947.085000", "111947.545000", "111948.005000", "111948.465000", "111948.925000", "111949.385000", "111949.845000", "111950.305000", "111950.765000", "111951.225000", "111951.685000", "111952.145000", "111952.605000", "111953.065000", "111953.525000", "111953.985000", "111954.445000", "111954.905000", "111955.365000", "111955.825000", "111956.285000", "111956.745000", "111957.205000", "111957.665000", "111958.125000", "111958.585000", "111959.045000", "111959.505000", "111959.965000", "112000.425000", "112000.885000", "112001.345000", "112001.805000", "112002.265000", "112002.725000", "112003.185000", "112003.645000", "112004.105000", "112004.565000", "112005.025000", "112005.485000", "112005.945000", "112006.405000", "112006.865000", "112007.325000", "112007.785000", "112008.245000", "112008.705000", "112009.165000", "112009.625000", "112010.085000", "112010.545000", "112011.005000", "112011.465000", "112011.925000", "112012.385000", "112012.845000", "112013.305000", "112013.765000", "112014.225000", "112014.685000", "112015.145000", "112015.605000", "112016.065000", "112016.525000", "112016.985000", "112017.445000", "112017.905000", "112018.365000", "112018.825000", "112019.285000", "112019.745000", "112020.205000", "112020.665000", "112021.125000", "112021.585000", "112022.045000", "112022.505000", "112022.965000", "112023.425000", "112023.885000", "112024.345000", "112024.805000", "112025.265000", "112025.725000", "112026.185000", "112026.645000", "112027.105000", "112027.565000", "112028.025000", "112028.485000", "112028.945000", "112029.405000", "112029.865000", "112030.325000", "112030.785000", "112031.245000", "112031.705000", "112032.165000", "112032.625000", "112033.085000", "112033.545000", "112034.005000", "112034.465000", "112034.925000", "112035.385000", "112035.845000", "112036.305000", "112036.765000", "112037.225000", "112037.685000", "112038.145000", "112038.605000", "112039.065000", "112039.525000", "112039.985000", "112040.445000", "112040.905000", "112041.365000", "112041.825000", "112042.285000", "112042.745000", "112043.205000", "112043.665000", "112044.125000", "112044.585000", "112045.045000", "112045.505000", "112045.965000", "112046.425000", "112046.885000", "112047.345000", "112047.805000", "112048.265000", "112048.725000", "112049.185000", "112049.645000", "112050.105000", "112050.565000", "112051.025000", "112051.485000", "112051.945000", "112052.405000", "112052.865000", "112053.325000", "112053.785000", "112054.245000", "112054.705000", "112055.165000", "112055.625000", "112056.085000", "112056.545000", "112057.005000", "112057.465000", "112057.925000", "112058.385000", "112058.845000", "112059.305000", "112059.765000", "112100.225000", "112100.685000", "112101.145000", "112101.605000", "112102.065000", "112102.525000", "112102.985000", "112103.445000", "112103.905000", "112104.365000", "112104.825000", "112105.285000", "112105.745000", "112106.205000", "112106.665000", "112107.125000", "112107.585000", "112108.045000", "112108.505000", "112108.965000", "112109.425000", "112109.885000", "112110.345000", "112110.805000", "112111.265000", "112111.725000", "112112.185000", "112112.645000", "112113.105000", "112113.565000", "112114.025000", "112114.485000", "112114.945000", "112115.405000", "112115.865000", "112116.325000", "112116.785000", "112117.245000", "112117.705000", "112118.165000", "112118.625000", "112119.085000", "112119.545000", "112120.005000", "112120.465000", "112120.925000", "112121.385000", "112121.845000", "112122.305000", "112122.765000", "112123.225000", "112123.685000", "112124.145000", "112124.605000", "112125.065000", "112125.525000", "112125.985000", "112126.445000", "112126.905000", "112127.365000", "112127.825000", "112128.285000", "112128.745000", "112129.205000", "112129.665000", "112130.125000", "112130.585000", "112131.045000", "112131.505000", "112131.965000", "112132.425000", "112132.885000", "112133.345000", "112133.805000", "112134.265000", "112134.725000", "112135.185000", "112135.645000", "112136.105000", "112136.565000", "112137.025000", "112137.485000", "112137.945000", "112138.405000", "112138.865000", "112139.325000", "112139.785000", "112140.245000", "112140.705000", "112141.165000", "112141.625000", "112142.085000", "112142.545000", "112143.005000", "112143.465000", "112143.925000", "112144.385000", "112144.845000", "112145.305000", "112145.765000", "112146.225000", "112146.685000", "112147.145000", "112147.605000", "112148.065000", "112148.525000", "112148.985000", "112149.445000", "112149.905000", "112150.365000", "112150.825000", "112151.285000", "112151.745000"],
