{
  "AcquisitionMatrixPE": 82,
  "AcquisitionNumber": 1,
  "AcquisitionTime": "09:33:37.567500",
  "BandwidthPerPixelPhaseEncode": 24.888,
  "BaseResolution": 82,
  "BodyPartExamined": "BRAIN",
  "ConsistencyInfo": "N4_VE11C_LATEST_20160120",
  "ConversionSoftware": "dcm2niix",
  "ConversionSoftwareVersion": "v1.0.20201102",
  "DerivedVendorReportedEchoSpacing": 0.00049,
  "DeviceSerialNumber": "66112",
  "DwellTime": 2e-06,
  "EchoTime": 0.0272,
  "EchoTrainLength": 82,
  "EffectiveEchoSpacing": 0.00049,
  "FlipAngle": 44,
  "ImageComments": "Unaliased MB8/PE3",
  "ImageOrientationPatientDICOM": [0.998714, 0.0492497, 0.0120257, -0.0505927, 0.983403, 0.174239],
  "ImageType": [
    "ORIGINAL",
    "PRIMARY",
    "M",
    "MB",
    "ND",
    "NORM",
    "MOSAIC"
],
  "ImagingFrequency": 123.252,
  "InPlanePhaseEncodingDirectionDICOM": "COL",
  "InstitutionAddress": "Maynard 3,Hanover,NH,US,03755",
  "InstitutionName": "Dartmouth College - PBS",
  "InstitutionalDepartmentName": "Department",
  "MRAcquisitionType": "2D",
  "MagneticFieldStrength": 3,
  "Manufacturer": "Siemens",
  "ManufacturersModelName": "Prisma",
  "Modality": "MR",
  "MultibandAccelerationFactor": 8,
  "PartialFourier": 1,
  "PatientPosition": "HFS",
  "PercentPhaseFOV": 100,
  "PercentSampling": 100,
  "PhaseEncodingDirection": "j-",
  "PhaseEncodingSteps": 82,
  "PhaseResolution": 1,
  "PixelBandwidth": 3050,
  "ProcedureStepDescription": "Wager_Wager^1076_spacetop",
  "ProtocolName": "func_run-01_task-narratives_acq-ap-mb8",
  "PulseSequenceDetails": "%CustomerSeq%\\cmrr_mbep2d_bold",
  "ReceiveCoilActiveElements": "HEA;HEP",
  "ReceiveCoilName": "Head_32",
  "ReconMatrixPE": 82,
  "RepetitionTime": 0.46,
  "SAR": 0.0900953,
  "ScanOptions": "FS",
  "ScanningSequence": "EP",
  "SequenceName": "epfid2d1_82",
  "SequenceVariant": "SK\\SS",
  "SeriesDescription": "func_run-01_task-narratives_acq-ap-mb8",
  "SeriesNumber": 8,
  "ShimSetting": [4130, -7768, -7234, 464, -203, -232, 35, 44],
  "SliceThickness": 2.7,
  "SliceTiming": [0, 0.25, 0.0625, 0.3125, 0.125, 0.3775, 0.1875, 0, 0.25, 0.0625, 0.3125, 0.125, 0.3775, 0.1875, 0, 0.25, 0.0625, 0.3125, 0.125, 0.3775, 0.1875, 0, 0.25, 0.0625, 0.3125, 0.125, 0.3775, 0.1875, 0, 0.25, 0.0625, 0.3125, 0.125, 0.3775, 0.1875, 0, 0.25, 0.0625, 0.3125, 0.125, 0.3775, 0.1875, 0, 0.25, 0.0625, 0.3125, 0.125, 0.3775, 0.1875, 0, 0.25, 0.0625, 0.3125, 0.125, 0.3775, 0.1875],
  "SoftwareVersions": "syngo MR E11",
  "SpacingBetweenSlices": 2.7,
  "StationName": "AWP66112",
  "TaskName": "narratives",
  "TotalReadoutTime": 0.03969,
  "TxRefAmp": 243.756,
  "WipMemBlock": "bc91d566-cea7-4dbe-9cf1-7ea2fd2b9acf||Sequence: R016 ve11c/master r/e634e98; Dec 19 2017 11:00:25 by eja",
  "dcmmeta_affine": [
    [-2.6794769763946533, -0.1357364058494568, 0.008761233650147915, 119.34879302978516],
    [-0.13213324546813965, 2.6383981704711914, 0.4714818596839905, -95.38330841064453],
    [0.03226402774453163, -0.46746930480003357, 2.658501148223877, -28.553653717041016],
    [0.0, 0.0, 0.0, 1.0]
],
  "dcmmeta_reorient_transform": [
    [0.0, -1.0, 0.0, 81.0],
    [1.0, 0.0, 0.0, 0.0],
    [0.0, 0.0, 1.0, 0.0],
    [0.0, 0.0, 0.0, 1.0]
],
  "dcmmeta_shape": [82, 82, 56, 967],
  "dcmmeta_slice_dim": 2,
  "dcmmeta_version": 0.6,
  "global": {
    "const": {
      "AccessionNumber": "A003514",
      "AcquisitionMatrix": [82, 0, 0, 82],
      "AngioFlag": "N",
      "BitsAllocated": 16,
      "BitsStored": 16,
      "BodyPartExamined": "BRAIN",
      "Columns": 656,
      "EchoNumbers": 1,
      "EchoTime": 27.2,
      "EchoTrainLength": 82,
      "FlipAngle": 44.0,
      "HighBit": 15,
      "ImageOrientationPatient": [0.99871409995553, 0.04924966500093, 0.012025682821, -0.0505926592014, 0.98340292361508, 0.17423855101625],
      "ImagePositionPatient": [-838.40767209592, -913.46945141573, -209.84212944672],
      "ImageType": [
        "ORIGINAL",
        "PRIMARY",
        "M",
        "MB",
        "ND",
        "NORM",
        "MOSAIC"
],
      "ImagedNucleus": "1H",
      "ImagingFrequency": 123.252205,
      "InPlanePhaseEncodingDirection": "COL",
      "MRAcquisitionType": "2D",
      "MagneticFieldStrength": 3.0,
      "Manufacturer": "SIEMENS",
      "ManufacturerModelName": "Prisma",
      "Modality": "MR",
      "NumberOfAverages": 1.0,
      "NumberOfPhaseEncodingSteps": 82,
      "PercentPhaseFieldOfView": 100.0,
      "PercentSampling": 100.0,
      "PerformedProcedureStepStartTime": "085750.373000",
      "PhotometricInterpretation": "MONOCHROME2",
      "PixelBandwidth": 3050.0,
      "PixelRepresentation": 0,
      "PixelSpacing": [2.6829268932343, 2.6829268932343],
      "ProtocolName": "func_run-01_task-narratives_acq-ap-mb8",
      "RepetitionTime": 460.0,
      "Rows": 656,
      "SAR": 0.09009533308251,
      "SamplesPerPixel": 1,
      "ScanOptions": "FS",
      "ScanningSequence": "EP",
      "SequenceName": "epfid2d1_82",
      "SequenceVariant": [
        "SK",
        "SS"
],
      "SeriesDescription": "func_run-01_task-narratives_acq-ap-mb8",
      "SeriesNumber": 8,
      "SeriesTime": "093402.945000",
      "SliceLocation": -44.38362070478,
      "SliceThickness": 2.7000000476837,
      "SmallestImagePixelValue": 0,
      "SoftwareVersions": "syngo MR E11",
      "SpacingBetweenSlices": 2.7000000519918,
      "SpecificCharacterSet": "ISO_IR 100",
      "StudyID": "2",
      "StudyTime": "085750.278000",
      "TransmitCoilName": "Body",
      "VariableFlipAngleFlag": "N",
      "WindowCenterWidthExplanation": "Algo1",
      "dBdt": 0.0},
    "slices": {}
  },
  "time": {
    "samples": {
      "AcquisitionNumber": [1, 2, 3, 4, 5, 6, 7, 8, 9, 10, 11, 12, 13, 14, 15, 16, 17, 18, 19, 20, 21, 22, 23, 24, 25, 26, 27, 28, 29, 30, 31, 32, 33, 34, 35, 36, 37, 38, 39, 40, 41, 42, 43, 44, 45, 46, 47, 48, 49, 50, 51, 52, 53, 54, 55, 56, 57, 58, 59, 60, 61, 62, 63, 64, 65, 66, 67, 68, 69, 70, 71, 72, 73, 74, 75, 76, 77, 78, 79, 80, 81, 82, 83, 84, 85, 86, 87, 88, 89, 90, 91, 92, 93, 94, 95, 96, 97, 98, 99, 100, 101, 102, 103, 104, 105, 106, 107, 108, 109, 110, 111, 112, 113, 114, 115, 116, 117, 118, 119, 120, 121, 122, 123, 124, 125, 126, 127, 128, 129, 130, 131, 132, 133, 134, 135, 136, 137, 138, 139, 140, 141, 142, 143, 144, 145, 146, 147, 148, 149, 150, 151, 152, 153, 154, 155, 156, 157, 158, 159, 160, 161, 162, 163, 164, 165, 166, 167, 168, 169, 170, 171, 172, 173, 174, 175, 176, 177, 178, 179, 180, 181, 182, 183, 184, 185, 186, 187, 188, 189, 190, 191, 192, 193, 194, 195, 196, 197, 198, 199, 200, 201, 202, 203, 204, 205, 206, 207, 208, 209, 210, 211, 212, 213, 214, 215, 216, 217, 218, 219, 220, 221, 222, 223, 224, 225, 226, 227, 228, 229, 230, 231, 232, 233, 234, 235, 236, 237, 238, 239, 240, 241, 242, 243, 244, 245, 246, 247, 248, 249, 250, 251, 252, 253, 254, 255, 256, 257, 258, 259, 260, 261, 262, 263, 264, 265, 266, 267, 268, 269, 270, 271, 272, 273, 274, 275, 276, 277, 278, 279, 280, 281, 282, 283, 284, 285, 286, 287, 288, 289, 290, 291, 292, 293, 294, 295, 296, 297, 298, 299, 300, 301, 302, 303, 304, 305, 306, 307, 308, 309, 310, 311, 312, 313, 314, 315, 316, 317, 318, 319, 320, 321, 322, 323, 324, 325, 326, 327, 328, 329, 330, 331, 332, 333, 334, 335, 336, 337, 338, 339, 340, 341, 342, 343, 344, 345, 346, 347, 348, 349, 350, 351, 352, 353, 354, 355, 356, 357, 358, 359, 360, 361, 362, 363, 364, 365, 366, 367, 368, 369, 370, 371, 372, 373, 374, 375, 376, 377, 378, 379, 380, 381, 382, 383, 384, 385, 386, 387, 388, 389, 390, 391, 392, 393, 394, 395, 396, 397, 398, 399, 400, 401, 402, 403, 404, 405, 406, 407, 408, 409, 410, 411, 412, 413, 414, 415, 416, 417, 418, 419, 420, 421, 422, 423, 424, 425, 426, 427, 428, 429, 430, 431, 432, 433, 434, 435, 436, 437, 438, 439, 440, 441, 442, 443, 444, 445, 446, 447, 448, 449, 450, 451, 452, 453, 454, 455, 456, 457, 458, 459, 460, 461, 462, 463, 464, 465, 466, 467, 468, 469, 470, 471, 472, 473, 474, 475, 476, 477, 478, 479, 480, 481, 482, 483, 484, 485, 486, 487, 488, 489, 490, 491, 492, 493, 494, 495, 496, 497, 498, 499, 500, 501, 502, 503, 504, 505, 506, 507, 508, 509, 510, 511, 512, 513, 514, 515, 516, 517, 518, 519, 520, 521, 522, 523, 524, 525, 526, 527, 528, 529, 530, 531, 532, 533, 534, 535, 536, 537, 538, 539, 540, 541, 542, 543, 544, 545, 546, 547, 548, 549, 550, 551, 552, 553, 554, 555, 556, 557, 558, 559, 560, 561, 562, 563, 564, 565, 566, 567, 568, 569, 570, 571, 572, 573, 574, 575, 576, 577, 578, 579, 580, 581, 582, 583, 584, 585, 586, 587, 588, 589, 590, 591, 592, 593, 594, 595, 596, 597, 598, 599, 600, 601, 602, 603, 604, 605, 606, 607, 608, 609, 610, 611, 612, 613, 614, 615, 616, 617, 618, 619, 620, 621, 622, 623, 624, 625, 626, 627, 628, 629, 630, 631, 632, 633, 634, 635, 636, 637, 638, 639, 640, 641, 642, 643, 644, 645, 646, 647, 648, 649, 650, 651, 652, 653, 654, 655, 656, 657, 658, 659, 660, 661, 662, 663, 664, 665, 666, 667, 668, 669, 670, 671, 672, 673, 674, 675, 676, 677, 678, 679, 680, 681, 682, 683, 684, 685, 686, 687, 688, 689, 690, 691, 692, 693, 694, 695, 696, 697, 698, 699, 700, 701, 702, 703, 704, 705, 706, 707, 708, 709, 710, 711, 712, 713, 714, 715, 716, 717, 718, 719, 720, 721, 722, 723, 724, 725, 726, 727, 728, 729, 730, 731, 732, 733, 734, 735, 736, 737, 738, 739, 740, 741, 742, 743, 744, 745, 746, 747, 748, 749, 750, 751, 752, 753, 754, 755, 756, 757, 758, 759, 760, 761, 762, 763, 764, 765, 766, 767, 768, 769, 770, 771, 772, 773, 774, 775, 776, 777, 778, 779, 780, 781, 782, 783, 784, 785, 786, 787, 788, 789, 790, 791, 792, 793, 794, 795, 796, 797, 798, 799, 800, 801, 802, 803, 804, 805, 806, 807, 808, 809, 810, 811, 812, 813, 814, 815, 816, 817, 818, 819, 820, 821, 822, 823, 824, 825, 826, 827, 828, 829, 830, 831, 832, 833, 834, 835, 836, 837, 838, 839, 840, 841, 842, 843, 844, 845, 846, 847, 848, 849, 850, 851, 852, 853, 854, 855, 856, 857, 858, 859, 860, 861, 862, 863, 864, 865, 866, 867, 868, 869, 870, 871, 872, 873, 874, 875, 876, 877, 878, 879, 880, 881, 882, 883, 884, 885, 886, 887, 888, 889, 890, 891, 892, 893, 894, 895, 896, 897, 898, 899, 900, 901, 902, 903, 904, 905, 906, 907, 908, 909, 910, 911, 912, 913, 914, 915, 916, 917, 918, 919, 920, 921, 922, 923, 924, 925, 926, 927, 928, 929, 930, 931, 932, 933, 934, 935, 936, 937, 938, 939, 940, 941, 942, 943, 944, 945, 946, 947, 948, 949, 950, 951, 952, 953, 954, 955, 956, 957, 958, 959, 960, 961, 962, 963, 964, 965, 966, 967],
      "AcquisitionTime": ["093337.567500", "093338.027500", "093338.487500", "093338.947500", "093339.407500", "093339.867500", "093340.327500", "093340.787500", "093341.247500", "093341.707500", "093342.167500", "093342.627500", "093343.087500", "093343.547500", "093344.007500", "093344.467500", "093344.927500", "093345.387500", "093345.847500", "093346.307500", "093346.767500", "093347.227500", "093347.687500", "093348.147500", "093348.607500", "093349.067500", "093349.527500", "093349.987500", "093350.447500", "093350.907500", "093351.367500", "093351.827500", "093352.287500", "093352.747500", "093353.207500", "093353.667500", "093354.127500", "093354.587500", "093355.047500", "093355.507500", "093355.967500", "093356.427500", "093356.887500", "093357.347500", "093357.807500", "093358.267500", "093358.727500", "093359.187500", "093359.647500", "093400.107500", "093400.567500", "093401.027500", "093401.487500", "093401.947500", "093402.407500", "093402.867500", "093403.327500", "093403.787500", "093404.247500", "093404.707500", "093405.167500", "093405.627500", "093406.087500", "093406.547500", "093407.007500", "093407.467500", "093407.927500", "093408.387500", "093408.847500", "093409.307500", "093409.767500", "093410.227500", "093410.687500", "093411.147500", "093411.607500", "093412.067500", "093412.527500", "093412.987500", "093413.447500", "093413.907500", "093414.367500", "093414.827500", "093415.287500", "093415.747500", "093416.207500", "093416.667500", "093417.127500", "093417.587500", "093418.047500", "093418.507500", "093418.967500", "093419.427500", "093419.887500", "093420.347500", "093420.807500", "093421.267500", "093421.727500", "093422.187500", "093422.647500", "093423.107500", "093423.567500", "093424.027500", "093424.487500", "093424.947500", "093425.407500", "093425.867500", "093426.327500", "093426.787500", "093427.247500", "093427.707500", "093428.167500", "093428.627500", "093429.087500", "093429.547500", "093430.007500", "093430.467500", "093430.927500", "093431.387500", "093431.847500", "093432.307500", "093432.767500", "093433.227500", "093433.687500", "093434.147500", "093434.607500", "093435.067500", "093435.527500", "093435.987500", "093436.447500", "093436.907500", "093437.367500", "093437.827500", "093438.287500", "093438.747500", "093439.207500", "093439.667500", "093440.127500", "093440.587500", "093441.047500", "093441.507500", "093441.967500", "093442.427500", "093442.887500", "093443.347500", "093443.807500", "093444.267500", "093444.727500", "093445.187500", "093445.647500", "093446.107500", "093446.567500", "093447.027500", "093447.487500", "093447.947500", "093448.407500", "093448.867500", "093449.327500", "093449.787500", "093450.247500", "093450.707500", "093451.167500", "093451.627500", "093452.087500", "093452.547500", "093453.007500", "093453.467500", "093453.927500", "093454.387500", "093454.847500", "093455.307500", "093455.767500", "093456.227500", "093456.687500", "093457.147500", "093457.607500", "093458.067500", "093458.527500", "093458.987500", "093459.447500", "093459.907500", "093500.367500", "093500.827500", "093501.287500", "093501.747500", "093502.207500", "093502.667500", "093503.127500", "093503.587500", "093504.047500", "093504.507500", "093504.967500", "093505.427500", "093505.887500", "093506.347500", "093506.807500", "093507.267500", "093507.727500", "093508.187500", "093508.647500", "093509.107500", "093509.567500", "093510.027500", "093510.487500", "093510.947500", "093511.407500", "093511.867500", "093512.327500", "093512.787500", "093513.247500", "093513.707500", "093514.167500", "093514.627500", "093515.087500", "093515.547500", "093516.007500", "093516.467500", "093516.927500", "093517.387500", "093517.847500", "093518.307500", "093518.767500", "093519.227500", "093519.687500", "093520.147500", "093520.607500", "093521.067500", "093521.527500", "093521.987500", "093522.447500", "093522.907500", "093523.367500", "093523.827500", "093524.287500", "093524.747500", "093525.207500", "093525.667500", "093526.127500", "093526.587500", "093527.047500", "093527.507500", "093527.967500", "093528.427500", "093528.887500", "093529.347500", "093529.807500", "093530.267500", "093530.727500", "093531.187500", "093531.647500", "093532.107500", "093532.567500", "093533.027500", "093533.487500", "093533.947500", "093534.407500", "093534.867500", "093535.327500", "093535.787500", "093536.247500", "093536.707500", "093537.167500", "093537.627500", "093538.087500", "093538.547500", "093539.007500", "093539.467500", "093539.927500", "093540.387500", "093540.847500", "093541.307500", "093541.767500", "093542.227500", "093542.687500", "093543.147500", "093543.607500", "093544.067500", "093544.527500", "093544.987500", "093545.447500", "093545.907500", "093546.367500", "093546.827500", "093547.287500", "093547.747500", "093548.207500", "093548.667500", "093549.127500", "093549.587500", "093550.047500", "093550.507500", "093550.967500", "093551.427500", "093551.887500", "093552.347500", "093552.807500", "093553.267500", "093553.727500", "093554.187500", "093554.647500", "093555.107500", "093555.567500", "093556.027500", "093556.487500", "093556.947500", "093557.407500", "093557.867500", "093558.327500", "093558.787500", "093559.247500", "093559.707500", "093600.167500", "093600.627500", "093601.087500", "093601.547500", "093602.007500", "093602.467500", "093602.927500", "093603.387500", "093603.847500", "093604.307500", "093604.767500", "093605.227500", "093605.687500", "093606.147500", "093606.607500", "093607.067500", "093607.527500", "093607.987500", "093608.447500", "093608.907500", "093609.367500", "093609.827500", "093610.287500", "093610.747500", "093611.207500", "093611.667500", "093612.127500", "093612.587500", "093613.047500", "093613.507500", "093613.967500", "093614.427500", "093614.887500", "093615.347500", "093615.807500", "093616.267500", "093616.727500", "093617.187500", "093617.647500", "093618.107500", "093618.567500", "093619.027500", "093619.487500", "093619.947500", "093620.407500", "093620.867500", "093621.327500", "093621.787500", "093622.247500", "093622.707500", "093623.167500", "093623.627500", "093624.087500", "093624.547500", "093625.007500", "093625.467500", "093625.927500", "093626.387500", "093626.847500", "093627.307500", "093627.767500", "093628.227500", "093628.687500", "093629.147500", "093629.607500", "093630.067500", "093630.527500", "093630.987500", "093631.447500", "093631.907500", "093632.367500", "093632.827500", "093633.287500", "093633.747500", "093634.207500", "093634.667500", "093635.127500", "093635.587500", "093636.047500", "093636.507500", "093636.967500", "093637.427500", "093637.887500", "093638.347500", "093638.807500", "093639.267500", "093639.727500", "093640.187500", "093640.647500", "093641.107500", "093641.567500", "093642.027500", "093642.487500", "093642.947500", "093643.407500", "093643.867500", "093644.327500", "093644.787500", "093645.247500", "093645.707500", "093646.167500", "093646.627500", "093647.087500", "093647.547500", "093648.007500", "093648.467500", "093648.927500", "093649.387500", "093649.847500", "093650.307500", "093650.767500", "093651.227500", "093651.687500", "093652.147500", "093652.607500", "093653.067500", "093653.527500", "093653.987500", "093654.447500", "093654.907500", "093655.367500", "093655.827500", "093656.287500", "093656.747500", "093657.207500", "093657.667500", "093658.127500", "093658.587500", "093659.047500", "093659.507500", "093659.967500", "093700.427500", "093700.887500", "093701.347500", "093701.807500", "093702.267500", "093702.727500", "093703.187500", "093703.647500", "093704.107500", "093704.567500", "093705.027500", "093705.487500", "093705.947500", "093706.407500", "093706.867500", "093707.327500", "093707.787500", "093708.247500", "093708.707500", "093709.167500", "093709.627500", "093710.087500", "093710.547500", "093711.007500", "093711.467500", "093711.927500", "093712.387500", "093712.847500", "093713.307500", "093713.767500", "093714.227500", "093714.687500", "093715.147500", "093715.607500", "093716.067500", "093716.527500", "093716.987500", "093717.447500", "093717.907500", "093718.367500", "093718.827500", "093719.287500", "093719.747500", "093720.207500", "093720.667500", "093721.127500", "093721.587500", "093722.047500", "093722.507500", "093722.967500", "093723.427500", "093723.887500", "093724.347500", "093724.807500", "093725.267500", "093725.727500", "093726.187500", "093726.647500", "093727.107500", "093727.567500", "093728.027500", "093728.487500", "093728.947500", "093729.407500", "093729.867500", "093730.327500", "093730.787500", "093731.247500", "093731.707500", "093732.167500", "093732.627500", "093733.087500", "093733.547500", "093734.007500", "093734.467500", "093734.927500", "093735.387500", "093735.847500", "093736.307500", "093736.767500", "093737.227500", "093737.687500", "093738.147500", "093738.607500", "093739.067500", "093739.527500", "093739.987500", "093740.447500", "093740.907500", "093741.367500", "093741.827500", "093742.287500", "093742.747500", "093743.207500", "093743.667500", "093744.127500", "093744.587500", "093745.047500", "093745.507500", "093745.967500", "093746.427500", "093746.887500", "093747.347500", "093747.807500", "093748.267500", "093748.727500", "093749.187500", "093749.647500", "093750.107500", "093750.567500", "093751.027500", "093751.487500", "093751.947500", "093752.407500", "093752.867500", "093753.327500", "093753.787500", "093754.247500", "093754.707500", "093755.167500", "093755.627500", "093756.087500", "093756.547500", "093757.007500", "093757.467500", "093757.927500", "093758.387500", "093758.847500", "093759.307500", "093759.767500", "093800.227500", "093800.687500", "093801.147500", "093801.607500", "093802.067500", "093802.527500", "093802.987500", "093803.447500", "093803.907500", "093804.367500", "093804.827500", "093805.287500", "093805.747500", "093806.207500", "093806.667500", "093807.127500", "093807.587500", "093808.047500", "093808.507500", "093808.967500", "093809.427500", "093809.887500", "093810.347500", "093810.807500", "093811.267500", "093811.727500", "093812.187500", "093812.647500", "093813.107500", "093813.567500", "093814.027500", "093814.487500", "093814.947500", "093815.407500", "093815.867500", "093816.327500", "093816.787500", "093817.247500", "093817.707500", "093818.167500", "093818.627500", "093819.087500", "093819.547500", "093820.007500", "093820.467500", "093820.927500", "093821.387500", "093821.847500", "093822.307500", "093822.767500", "093823.227500", "093823.687500", "093824.147500", "093824.607500", "093825.067500", "093825.527500", "093825.987500", "093826.447500", "093826.907500", "093827.367500", "093827.827500", "093828.287500", "093828.747500", "093829.207500", "093829.667500", "093830.127500", "093830.587500", "093831.047500", "093831.507500", "093831.967500", "093832.427500", "093832.887500", "093833.347500", "093833.807500", "093834.267500", "093834.727500", "093835.187500", "093835.647500", "093836.107500", "093836.567500", "093837.027500", "093837.487500", "093837.947500", "093838.407500", "093838.867500", "093839.327500", "093839.787500", "093840.247500", "093840.707500", "093841.167500", "093841.627500", "093842.087500", "093842.547500", "093843.007500", "093843.467500", "093843.927500", "093844.387500", "093844.847500", "093845.307500", "093845.767500", "093846.227500", "093846.687500", "093847.147500", "093847.607500", "093848.067500", "093848.527500", "093848.987500", "093849.447500", "093849.907500", "093850.367500", "093850.827500", "093851.287500", "093851.747500", "093852.207500", "093852.667500", "093853.127500", "093853.587500", "093854.047500", "093854.507500", "093854.967500", "093855.427500", "093855.887500", "093856.347500", "093856.807500", "093857.267500", "093857.727500", "093858.187500", "093858.647500", "093859.107500", "093859.567500", "093900.027500", "093900.487500", "093900.947500", "093901.407500", "093901.867500", "093902.327500", "093902.787500", "093903.247500", "093903.707500", "093904.167500", "093904.627500", "093905.087500", "093905.547500", "093906.007500", "093906.467500", "093906.927500", "093907.387500", "093907.847500", "093908.307500", "093908.767500", "093909.227500", "093909.687500", "093910.147500", "093910.607500", "093911.067500", "093911.527500", "093911.987500", "093912.447500", "093912.907500", "093913.367500", "093913.827500", "093914.287500", "093914.747500", "093915.207500", "093915.667500", "093916.127500", "093916.587500", "093917.047500", "093917.507500", "093917.967500", "093918.427500", "093918.887500", "093919.347500", "093919.807500", "093920.267500", "093920.727500", "093921.187500", "093921.647500", "093922.107500", "093922.567500", "093923.027500", "093923.487500", "093923.947500", "093924.407500", "093924.867500", "093925.327500", "093925.787500", "093926.247500", "093926.707500", "093927.167500", "093927.627500", "093928.087500", "093928.547500", "093929.007500", "093929.467500", "093929.927500", "093930.387500", "093930.847500", "093931.307500", "093931.767500", "093932.227500", "093932.687500", "093933.147500", "093933.607500", "093934.067500", "093934.527500", "093934.987500", "093935.447500", "093935.907500", "093936.367500", "093936.827500", "093937.287500", "093937.747500", "093938.207500", "093938.667500", "093939.127500", "093939.587500", "093940.047500", "093940.507500", "093940.967500", "093941.427500", "093941.887500", "093942.347500", "093942.807500", "093943.267500", "093943.727500", "093944.187500", "093944.647500", "093945.107500", "093945.567500", "093946.027500", "093946.487500", "093946.947500", "093947.407500", "093947.867500", "093948.327500", "093948.787500", "093949.247500", "093949.707500", "093950.167500", "093950.627500", "093951.087500", "093951.547500", "093952.007500", "093952.467500", "093952.927500", "093953.387500", "093953.847500", "093954.307500", "093954.767500", "093955.227500", "093955.687500", "093956.147500", "093956.607500", "093957.067500", "093957.527500", "093957.987500", "093958.447500", "093958.907500", "093959.367500", "093959.827500", "094000.287500", "094000.747500", "094001.207500", "094001.667500", "094002.127500", "094002.587500", "094003.047500", "094003.507500", "094003.967500", "094004.427500", "094004.887500", "094005.347500", "094005.807500", "094006.267500", "094006.727500", "094007.187500", "094007.647500", "094008.107500", "094008.567500", "094009.027500", "094009.487500", "094009.947500", "094010.407500", "094010.867500", "094011.327500", "094011.787500", "094012.247500", "094012.707500", "094013.167500", "094013.627500", "094014.087500", "094014.547500", "094015.007500", "094015.467500", "094015.927500", "094016.387500", "094016.847500", "094017.307500", "094017.767500", "094018.227500", "094018.687500", "094019.147500", "094019.607500", "094020.067500", "094020.527500", "094020.987500", "094021.447500", "094021.907500", "094022.367500", "094022.827500", "094023.287500", "094023.747500", "094024.207500", "094024.667500", "094025.127500", "094025.587500", "094026.047500", "094026.507500", "094026.967500", "094027.427500", "094027.887500", "094028.347500", "094028.807500", "094029.267500", "094029.727500", "094030.187500", "094030.647500", "094031.107500", "094031.567500", "094032.027500", "094032.487500", "094032.947500", "094033.407500", "094033.867500", "094034.327500", "094034.787500", "094035.247500", "094035.707500", "094036.167500", "094036.627500", "094037.087500", "094037.547500", "094038.007500", "094038.467500", "094038.927500", "094039.387500", "094039.847500", "094040.307500", "094040.767500", "094041.227500", "094041.687500", "094042.147500", "094042.607500", "094043.067500", "094043.527500", "094043.987500", "094044.447500", "094044.907500", "094045.367500", "094045.827500", "094046.287500", "094046.747500", "094047.207500", "094047.667500", "094048.127500", "094048.587500", "094049.047500", "094049.507500", "094049.967500", "094050.427500", "094050.887500", "094051.347500", "094051.807500", "094052.267500", "094052.727500", "094053.187500", "094053.647500", "094054.107500", "094054.567500", "094055.027500", "094055.487500", "094055.947500", "094056.407500", "094056.867500", "094057.327500", "094057.787500", "094058.247500", "094058.707500", "094059.167500", "094059.627500", "094100.087500", "094100.547500", "094101.007500", "094101.467500", "094101.927500"],
