{
  "AcquisitionMatrixPE": 82,
  "AcquisitionNumber": 1,
  "AcquisitionTime": "10:32:27.150000",
  "BandwidthPerPixelPhaseEncode": 24.888,
  "BaseResolution": 82,
  "BodyPartExamined": "BRAIN",
  "ConsistencyInfo": "N4_VE11C_LATEST_20160120",
  "ConversionSoftware": "dcm2niix",
  "ConversionSoftwareVersion": "v1.0.20201102",
  "DerivedVendorReportedEchoSpacing": 0.00049,
  "DeviceSerialNumber": "66112",
  "DwellTime": 2e-06,
  "EchoTime": 0.0272,
  "EchoTrainLength": 82,
  "EffectiveEchoSpacing": 0.00049,
  "FlipAngle": 44,
  "ImageComments": "Unaliased MB8/PE3",
  "ImageOrientationPatientDICOM": [0.998714, 0.0492497, 0.0120257, -0.0505927, 0.983403, 0.174239],
  "ImageType": [
    "ORIGINAL",
    "PRIMARY",
    "M",
    "MB",
    "ND",
    "NORM",
    "MOSAIC"
],
  "ImagingFrequency": 123.252,
  "InPlanePhaseEncodingDirectionDICOM": "COL",
  "InstitutionAddress": "Maynard 3,Hanover,NH,US,03755",
  "InstitutionName": "Dartmouth College - PBS",
  "InstitutionalDepartmentName": "Department",
  "MRAcquisitionType": "2D",
  "MagneticFieldStrength": 3,
  "Manufacturer": "Siemens",
  "ManufacturersModelName": "Prisma",
  "Modality": "MR",
  "MultibandAccelerationFactor": 8,
  "PartialFourier": 1,
  "PatientPosition": "HFS",
  "PercentPhaseFOV": 100,
  "PercentSampling": 100,
  "PhaseEncodingDirection": "j-",
  "PhaseEncodingSteps": 82,
  "PhaseResolution": 1,
  "PixelBandwidth": 3050,
  "ProcedureStepDescription": "Wager_Wager^1076_spacetop",
  "ProtocolName": "func_run-03_task-faces_acq-ap-mb8",
  "PulseSequenceDetails": "%CustomerSeq%\\cmrr_mbep2d_bold",
  "ReceiveCoilActiveElements": "HEA;HEP",
  "ReceiveCoilName": "Head_32",
  "ReconMatrixPE": 82,
  "RepetitionTime": 0.46,
  "SAR": 0.090066,
  "ScanOptions": "FS",
  "ScanningSequence": "EP",
  "SequenceName": "epfid2d1_82",
  "SequenceVariant": "SK\\SS",
  "SeriesDescription": "func_run-03_task-faces_acq-ap-mb8",
  "SeriesNumber": 20,
  "ShimSetting": [4130, -7768, -7234, 464, -203, -232, 35, 44],
  "SliceThickness": 2.7,
  "SliceTiming": [0, 0.2525, 0.065, 0.315, 0.1275, 0.3775, 0.19, 0, 0.2525, 0.065, 0.315, 0.1275, 0.3775, 0.19, 0, 0.2525, 0.065, 0.315, 0.1275, 0.3775, 0.19, 0, 0.2525, 0.065, 0.315, 0.1275, 0.3775, 0.19, 0, 0.2525, 0.065, 0.315, 0.1275, 0.3775, 0.19, 0, 0.2525, 0.065, 0.315, 0.1275, 0.3775, 0.19, 0, 0.2525, 0.065, 0.315, 0.1275, 0.3775, 0.19, 0, 0.2525, 0.065, 0.315, 0.1275, 0.3775, 0.19],
  "SoftwareVersions": "syngo MR E11",
  "SpacingBetweenSlices": 2.7,
  "StationName": "AWP66112",
  "TaskName": "faces",
  "TotalReadoutTime": 0.03969,
  "TxRefAmp": 243.756,
  "WipMemBlock": "d2ba558d-b763-4785-a01f-f906b33234a9||Sequence: R016 ve11c/master r/e634e98; Dec 19 2017 11:00:25 by eja",
  "dcmmeta_affine": [
    [-2.6794769763946533, -0.1357364058494568, 0.008761233650147915, 119.34879302978516],
    [-0.13213324546813965, 2.6383981704711914, 0.4714818596839905, -95.38330841064453],
    [0.03226402774453163, -0.46746930480003357, 2.658501148223877, -28.553653717041016],
    [0.0, 0.0, 0.0, 1.0]
],
  "dcmmeta_reorient_transform": [
    [0.0, -1.0, 0.0, 81.0],
    [1.0, 0.0, 0.0, 0.0],
    [0.0, 0.0, 1.0, 0.0],
    [0.0, 0.0, 0.0, 1.0]
],
  "dcmmeta_shape": [82, 82, 56, 914],
  "dcmmeta_slice_dim": 2,
  "dcmmeta_version": 0.6,
  "global": {
    "const": {
      "AccessionNumber": "A003514",
      "AcquisitionMatrix": [82, 0, 0, 82],
      "AngioFlag": "N",
      "BitsAllocated": 16,
      "BitsStored": 16,
      "BodyPartExamined": "BRAIN",
      "Columns": 656,
      "EchoNumbers": 1,
      "EchoTime": 27.2,
      "EchoTrainLength": 82,
      "FlipAngle": 44.0,
      "HighBit": 15,
      "ImageOrientationPatient": [0.99871409995553, 0.04924966500093, 0.012025682821, -0.0505926592014, 0.98340292361508, 0.17423855101625],
      "ImagePositionPatient": [-838.40767209592, -913.46945141573, -209.84212944672],
      "ImageType": [
        "ORIGINAL",
        "PRIMARY",
        "M",
        "MB",
        "ND",
        "NORM",
        "MOSAIC"
],
      "ImagedNucleus": "1H",
      "ImagingFrequency": 123.252214,
      "InPlanePhaseEncodingDirection": "COL",
      "MRAcquisitionType": "2D",
      "MagneticFieldStrength": 3.0,
      "Manufacturer": "SIEMENS",
      "ManufacturerModelName": "Prisma",
      "Modality": "MR",
      "NumberOfAverages": 1.0,
      "NumberOfPhaseEncodingSteps": 82,
      "PercentPhaseFieldOfView": 100.0,
      "PercentSampling": 100.0,
      "PerformedProcedureStepStartTime": "085750.373000",
      "PhotometricInterpretation": "MONOCHROME2",
      "PixelBandwidth": 3050.0,
      "PixelRepresentation": 0,
      "PixelSpacing": [2.6829268932343, 2.6829268932343],
      "ProtocolName": "func_run-03_task-faces_acq-ap-mb8",
      "RepetitionTime": 460.0,
      "Rows": 656,
      "SAR": 0.09006604456914,
      "SamplesPerPixel": 1,
      "ScanOptions": "FS",
      "ScanningSequence": "EP",
      "SequenceName": "epfid2d1_82",
      "SequenceVariant": [
        "SK",
        "SS"
],
      "SeriesDescription": "func_run-03_task-faces_acq-ap-mb8",
      "SeriesNumber": 20,
      "SeriesTime": "103242.931000",
      "SliceLocation": -44.38362070478,
      "SliceThickness": 2.7000000476837,
      "SmallestImagePixelValue": 0,
      "SoftwareVersions": "syngo MR E11",
      "SpacingBetweenSlices": 2.7000000519918,
      "SpecificCharacterSet": "ISO_IR 100",
      "StudyID": "2",
      "StudyTime": "085750.278000",
      "TransmitCoilName": "Body",
      "VariableFlipAngleFlag": "N",
      "WindowCenterWidthExplanation": "Algo1",
      "dBdt": 0.0},
    "slices": {}
  },
  "time": {
    "samples": {
      "AcquisitionNumber": [1, 2, 3, 4, 5, 6, 7, 8, 9, 10, 11, 12, 13, 14, 15, 16, 17, 18, 19, 20, 21, 22, 23, 24, 25, 26, 27, 28, 29, 30, 31, 32, 33, 34, 35, 36, 37, 38, 39, 40, 41, 42, 43, 44, 45, 46, 47, 48, 49, 50, 51, 52, 53, 54, 55, 56, 57, 58, 59, 60, 61, 62, 63, 64, 65, 66, 67, 68, 69, 70, 71, 72, 73, 74, 75, 76, 77, 78, 79, 80, 81, 82, 83, 84, 85, 86, 87, 88, 89, 90, 91, 92, 93, 94, 95, 96, 97, 98, 99, 100, 101, 102, 103, 104, 105, 106, 107, 108, 109, 110, 111, 112, 113, 114, 115, 116, 117, 118, 119, 120, 121, 122, 123, 124, 125, 126, 127, 128, 129, 130, 131, 132, 133, 134, 135, 136, 137, 138, 139, 140, 141, 142, 143, 144, 145, 146, 147, 148, 149, 150, 151, 152, 153, 154, 155, 156, 157, 158, 159, 160, 161, 162, 163, 164, 165, 166, 167, 168, 169, 170, 171, 172, 173, 174, 175, 176, 177, 178, 179, 180, 181, 182, 183, 184, 185, 186, 187, 188, 189, 190, 191, 192, 193, 194, 195, 196, 197, 198, 199, 200, 201, 202, 203, 204, 205, 206, 207, 208, 209, 210, 211, 212, 213, 214, 215, 216, 217, 218, 219, 220, 221, 222, 223, 224, 225, 226, 227, 228, 229, 230, 231, 232, 233, 234, 235, 236, 237, 238, 239, 240, 241, 242, 243, 244, 245, 246, 247, 248, 249, 250, 251, 252, 253, 254, 255, 256, 257, 258, 259, 260, 261, 262, 263, 264, 265, 266, 267, 268, 269, 270, 271, 272, 273, 274, 275, 276, 277, 278, 279, 280, 281, 282, 283, 284, 285, 286, 287, 288, 289, 290, 291, 292, 293, 294, 295, 296, 297, 298, 299, 300, 301, 302, 303, 304, 305, 306, 307, 308, 309, 310, 311, 312, 313, 314, 315, 316, 317, 318, 319, 320, 321, 322, 323, 324, 325, 326, 327, 328, 329, 330, 331, 332, 333, 334, 335, 336, 337, 338, 339, 340, 341, 342, 343, 344, 345, 346, 347, 348, 349, 350, 351, 352, 353, 354, 355, 356, 357, 358, 359, 360, 361, 362, 363, 364, 365, 366, 367, 368, 369, 370, 371, 372, 373, 374, 375, 376, 377, 378, 379, 380, 381, 382, 383, 384, 385, 386, 387, 388, 389, 390, 391, 392, 393, 394, 395, 396, 397, 398, 399, 400, 401, 402, 403, 404, 405, 406, 407, 408, 409, 410, 411, 412, 413, 414, 415, 416, 417, 418, 419, 420, 421, 422, 423, 424, 425, 426, 427, 428, 429, 430, 431, 432, 433, 434, 435, 436, 437, 438, 439, 440, 441, 442, 443, 444, 445, 446, 447, 448, 449, 450, 451, 452, 453, 454, 455, 456, 457, 458, 459, 460, 461, 462, 463, 464, 465, 466, 467, 468, 469, 470, 471, 472, 473, 474, 475, 476, 477, 478, 479, 480, 481, 482, 483, 484, 485, 486, 487, 488, 489, 490, 491, 492, 493, 494, 495, 496, 497, 498, 499, 500, 501, 502, 503, 504, 505, 506, 507, 508, 509, 510, 511, 512, 513, 514, 515, 516, 517, 518, 519, 520, 521, 522, 523, 524, 525, 526, 527, 528, 529, 530, 531, 532, 533, 534, 535, 536, 537, 538, 539, 540, 541, 542, 543, 544, 545, 546, 547, 548, 549, 550, 551, 552, 553, 554, 555, 556, 557, 558, 559, 560, 561, 562, 563, 564, 565, 566, 567, 568, 569, 570, 571, 572, 573, 574, 575, 576, 577, 578, 579, 580, 581, 582, 583, 584, 585, 586, 587, 588, 589, 590, 591, 592, 593, 594, 595, 596, 597, 598, 599, 600, 601, 602, 603, 604, 605, 606, 607, 608, 609, 610, 611, 612, 613, 614, 615, 616, 617, 618, 619, 620, 621, 622, 623, 624, 625, 626, 627, 628, 629, 630, 631, 632, 633, 634, 635, 636, 637, 638, 639, 640, 641, 642, 643, 644, 645, 646, 647, 648, 649, 650, 651, 652, 653, 654, 655, 656, 657, 658, 659, 660, 661, 662, 663, 664, 665, 666, 667, 668, 669, 670, 671, 672, 673, 674, 675, 676, 677, 678, 679, 680, 681, 682, 683, 684, 685, 686, 687, 688, 689, 690, 691, 692, 693, 694, 695, 696, 697, 698, 699, 700, 701, 702, 703, 704, 705, 706, 707, 708, 709, 710, 711, 712, 713, 714, 715, 716, 717, 718, 719, 720, 721, 722, 723, 724, 725, 726, 727, 728, 729, 730, 731, 732, 733, 734, 735, 736, 737, 738, 739, 740, 741, 742, 743, 744, 745, 746, 747, 748, 749, 750, 751, 752, 753, 754, 755, 756, 757, 758, 759, 760, 761, 762, 763, 764, 765, 766, 767, 768, 769, 770, 771, 772, 773, 774, 775, 776, 777, 778, 779, 780, 781, 782, 783, 784, 785, 786, 787, 788, 789, 790, 791, 792, 793, 794, 795, 796, 797, 798, 799, 800, 801, 802, 803, 804, 805, 806, 807, 808, 809, 810, 811, 812, 813, 814, 815, 816, 817, 818, 819, 820, 821, 822, 823, 824, 825, 826, 827, 828, 829, 830, 831, 832, 833, 834, 835, 836, 837, 838, 839, 840, 841, 842, 843, 844, 845, 846, 847, 848, 849, 850, 851, 852, 853, 854, 855, 856, 857, 858, 859, 860, 861, 862, 863, 864, 865, 866, 867, 868, 869, 870, 871, 872, 873, 874, 875, 876, 877, 878, 879, 880, 881, 882, 883, 884, 885, 886, 887, 888, 889, 890, 891, 892, 893, 894, 895, 896, 897, 898, 899, 900, 901, 902, 903, 904, 905, 906, 907, 908, 909, 910, 911, 912, 913, 914],
      "AcquisitionTime": ["103227.150000", "103227.610000", "103228.070000", "103228.530000", "103228.990000", "103229.450000", "103229.910000", "103230.370000", "103230.830000", "103231.290000", "103231.750000", "103232.210000", "103232.670000", "103233.130000", "103233.590000", "103234.050000", "103234.510000", "103234.970000", "103235.430000", "103235.890000", "103236.350000", "103236.810000", "103237.270000", "103237.730000", "103238.190000", "103238.650000", "103239.110000", "103239.570000", "103240.030000", "103240.490000", "103240.950000", "103241.410000", "103241.870000", "103242.330000", "103242.790000", "103243.250000", "103243.710000", "103244.170000", "103244.630000", "103245.090000", "103245.550000", "103246.010000", "103246.470000", "103246.930000", "103247.390000", "103247.850000", "103248.310000", "103248.770000", "103249.230000", "103249.690000", "103250.150000", "103250.610000", "103251.070000", "103251.530000", "103251.990000", "103252.450000", "103252.910000", "103253.370000", "103253.830000", "103254.290000", "103254.750000", "103255.210000", "103255.670000", "103256.130000", "103256.590000", "103257.050000", "103257.510000", "103257.970000", "103258.430000", "103258.890000", "103259.350000", "103259.810000", "103300.270000", "103300.730000", "103301.190000", "103301.650000", "103302.110000", "103302.570000", "103303.030000", "103303.490000", "103303.950000", "103304.410000", "103304.870000", "103305.330000", "103305.790000", "103306.250000", "103306.710000", "103307.170000", "103307.630000", "103308.090000", "103308.550000", "103309.010000", "103309.470000", "103309.930000", "103310.390000", "103310.850000", "103311.310000", "103311.770000", "103312.230000", "103312.690000", "103313.150000", "103313.610000", "103314.070000", "103314.530000", "103314.990000", "103315.450000", "103315.910000", "103316.370000", "103316.830000", "103317.290000", "103317.750000", "103318.210000", "103318.670000", "103319.130000", "103319.590000", "103320.050000", "103320.510000", "103320.970000", "103321.430000", "103321.890000", "103322.350000", "103322.810000", "103323.270000", "103323.730000", "103324.190000", "103324.650000", "103325.110000", "103325.570000", "103326.030000", "103326.490000", "103326.950000", "103327.410000", "103327.870000", "103328.330000", "103328.790000", "103329.250000", "103329.710000", "103330.170000", "103330.630000", "103331.090000", "103331.550000", "103332.010000", "103332.470000", "103332.930000", "103333.390000", "103333.850000", "103334.310000", "103334.770000", "103335.230000", "103335.690000", "103336.150000", "103336.610000", "103337.070000", "103337.530000", "103337.990000", "103338.450000", "103338.910000", "103339.370000", "103339.830000", "103340.290000", "103340.750000", "103341.210000", "103341.670000", "103342.130000", "103342.590000", "103343.050000", "103343.510000", "103343.970000", "103344.430000", "103344.890000", "103345.350000", "103345.810000", "103346.270000", "103346.730000", "103347.190000", "103347.650000", "103348.110000", "103348.570000", "103349.030000", "103349.490000", "103349.950000", "103350.410000", "103350.870000", "103351.330000", "103351.790000", "103352.250000", "103352.710000", "103353.170000", "103353.630000", "103354.090000", "103354.550000", "103355.010000", "103355.470000", "103355.930000", "103356.390000", "103356.850000", "103357.310000", "103357.770000", "103358.230000", "103358.690000", "103359.150000", "103359.610000", "103400.070000", "103400.530000", "103400.990000", "103401.450000", "103401.910000", "103402.370000", "103402.830000", "103403.290000", "103403.750000", "103404.210000", "103404.670000", "103405.130000", "103405.590000", "103406.050000", "103406.510000", "103406.970000", "103407.430000", "103407.890000", "103408.350000", "103408.810000", "103409.270000", "103409.730000", "103410.190000", "103410.650000", "103411.110000", "103411.570000", "103412.030000", "103412.490000", "103412.950000", "103413.410000", "103413.870000", "103414.330000", "103414.790000", "103415.250000", "103415.710000", "103416.170000", "103416.630000", "103417.090000", "103417.550000", "103418.010000", "103418.470000", "103418.930000", "103419.390000", "103419.850000", "103420.310000", "103420.770000", "103421.230000", "103421.690000", "103422.150000", "103422.610000", "103423.070000", "103423.530000", "103423.990000", "103424.450000", "103424.910000", "103425.370000", "103425.830000", "103426.290000", "103426.750000", "103427.210000", "103427.670000", "103428.130000", "103428.590000", "103429.050000", "103429.510000", "103429.970000", "103430.430000", "103430.890000", "103431.350000", "103431.810000", "103432.270000", "103432.730000", "103433.190000", "103433.650000", "103434.110000", "103434.570000", "103435.030000", "103435.490000", "103435.950000", "103436.410000", "103436.870000", "103437.330000", "103437.790000", "103438.250000", "103438.710000", "103439.170000", "103439.630000", "103440.090000", "103440.550000", "103441.010000", "103441.470000", "103441.930000", "103442.390000", "103442.850000", "103443.310000", "103443.770000", "103444.230000", "103444.690000", "103445.150000", "103445.610000", "103446.070000", "103446.530000", "103446.990000", "103447.450000", "103447.910000", "103448.370000", "103448.830000", "103449.290000", "103449.750000", "103450.210000", "103450.670000", "103451.130000", "103451.590000", "103452.050000", "103452.510000", "103452.970000", "103453.430000", "103453.890000", "103454.350000", "103454.810000", "103455.270000", "103455.730000", "103456.190000", "103456.650000", "103457.110000", "103457.570000", "103458.030000", "103458.490000", "103458.950000", "103459.410000", "103459.870000", "103500.330000", "103500.790000", "103501.250000", "103501.710000", "103502.170000", "103502.630000", "103503.090000", "103503.550000", "103504.010000", "103504.470000", "103504.930000", "103505.390000", "103505.850000", "103506.310000", "103506.770000", "103507.230000", "103507.690000", "103508.150000", "103508.610000", "103509.070000", "103509.530000", "103509.990000", "103510.450000", "103510.910000", "103511.370000", "103511.830000", "103512.290000", "103512.750000", "103513.210000", "103513.670000", "103514.130000", "103514.590000", "103515.050000", "103515.510000", "103515.970000", "103516.430000", "103516.890000", "103517.350000", "103517.810000", "103518.270000", "103518.730000", "103519.190000", "103519.650000", "103520.110000", "103520.570000", "103521.030000", "103521.490000", "103521.950000", "103522.410000", "103522.870000", "103523.330000", "103523.790000", "103524.250000", "103524.710000", "103525.170000", "103525.630000", "103526.090000", "103526.550000", "103527.010000", "103527.470000", "103527.930000", "103528.390000", "103528.850000", "103529.310000", "103529.770000", "103530.230000", "103530.690000", "103531.150000", "103531.610000", "103532.070000", "103532.530000", "103532.990000", "103533.450000", "103533.910000", "103534.370000", "103534.830000", "103535.290000", "103535.750000", "103536.210000", "103536.670000", "103537.130000", "103537.590000", "103538.050000", "103538.510000", "103538.970000", "103539.430000", "103539.890000", "103540.350000", "103540.810000", "103541.270000", "103541.730000", "103542.190000", "103542.650000", "103543.110000", "103543.570000", "103544.030000", "103544.490000", "103544.950000", "103545.410000", "103545.870000", "103546.330000", "103546.790000", "103547.250000", "103547.710000", "103548.170000", "103548.630000", "103549.090000", "103549.550000", "103550.010000", "103550.470000", "103550.930000", "103551.390000", "103551.850000", "103552.310000", "103552.770000", "103553.230000", "103553.690000", "103554.150000", "103554.610000", "103555.070000", "103555.530000", "103555.990000", "103556.450000", "103556.910000", "103557.370000", "103557.830000", "103558.290000", "103558.750000", "103559.210000", "103559.670000", "103600.130000", "103600.590000", "103601.050000", "103601.510000", "103601.970000", "103602.430000", "103602.890000", "103603.350000", "103603.810000", "103604.270000", "103604.730000", "103605.190000", "103605.650000", "103606.110000", "103606.570000", "103607.030000", "103607.490000", "103607.950000", "103608.410000", "103608.870000", "103609.330000", "103609.790000", "103610.250000", "103610.710000", "103611.170000", "103611.630000", "103612.090000", "103612.550000", "103613.010000", "103613.470000", "103613.930000", "103614.390000", "103614.850000", "103615.310000", "103615.770000", "103616.230000", "103616.690000", "103617.150000", "103617.610000", "103618.070000", "103618.530000", "103618.990000", "103619.450000", "103619.910000", "103620.370000", "103620.830000", "103621.290000", "103621.750000", "103622.210000", "103622.670000", "103623.130000", "103623.590000", "103624.050000", "103624.510000", "103624.970000", "103625.430000", "103625.890000", "103626.350000", "103626.810000", "103627.270000", "103627.730000", "103628.190000", "103628.650000", "103629.110000", "103629.570000", "103630.030000", "103630.490000", "103630.950000", "103631.410000", "103631.870000", "103632.330000", "103632.790000", "103633.250000", "103633.710000", "103634.170000", "103634.630000", "103635.090000", "103635.550000", "103636.010000", "103636.470000", "103636.930000", "103637.390000", "103637.850000", "103638.310000", "103638.770000", "103639.230000", "103639.690000", "103640.150000", "103640.610000", "103641.070000", "103641.530000", "103641.990000", "103642.450000", "103642.910000", "103643.370000", "103643.830000", "103644.290000", "103644.750000", "103645.210000", "103645.670000", "103646.130000", "103646.590000", "103647.050000", "103647.510000", "103647.970000", "103648.430000", "103648.890000", "103649.350000", "103649.810000", "103650.270000", "103650.730000", "103651.190000", "103651.650000", "103652.110000", "103652.570000", "103653.030000", "103653.490000", "103653.950000", "103654.410000", "103654.870000", "103655.330000", "103655.790000", "103656.250000", "103656.710000", "103657.170000", "103657.630000", "103658.090000", "103658.550000", "103659.010000", "103659.470000", "103659.930000", "103700.390000", "103700.850000", "103701.310000", "103701.770000", "103702.230000", "103702.690000", "103703.150000", "103703.610000", "103704.070000", "103704.530000", "103704.990000", "103705.450000", "103705.910000", "103706.370000", "103706.830000", "103707.290000", "103707.750000", "103708.210000", "103708.670000", "103709.130000", "103709.590000", "103710.050000", "103710.510000", "103710.970000", "103711.430000", "103711.890000", "103712.350000", "103712.810000", "103713.270000", "103713.730000", "103714.190000", "103714.650000", "103715.110000", "103715.570000", "103716.030000", "103716.490000", "103716.950000", "103717.410000", "103717.870000", "103718.330000", "103718.790000", "103719.250000", "103719.710000", "103720.170000", "103720.630000", "103721.090000", "103721.550000", "103722.010000", "103722.470000", "103722.930000", "103723.390000", "103723.850000", "103724.310000", "103724.770000", "103725.230000", "103725.690000", "103726.150000", "103726.610000", "103727.070000", "103727.530000", "103727.990000", "103728.450000", "103728.910000", "103729.370000", "103729.830000", "103730.290000", "103730.750000", "103731.210000", "103731.670000", "103732.130000", "103732.590000", "103733.050000", "103733.510000", "103733.970000", "103734.430000", "103734.890000", "103735.350000", "103735.810000", "103736.270000", "103736.730000", "103737.190000", "103737.650000", "103738.110000", "103738.570000", "103739.030000", "103739.490000", "103739.950000", "103740.410000", "103740.870000", "103741.330000", "103741.790000", "103742.250000", "103742.710000", "103743.170000", "103743.630000", "103744.090000", "103744.550000", "103745.010000", "103745.470000", "103745.930000", "103746.390000", "103746.850000", "103747.310000", "103747.770000", "103748.230000", "103748.690000", "103749.150000", "103749.610000", "103750.070000", "103750.530000", "103750.990000", "103751.450000", "103751.910000", "103752.370000", "103752.830000", "103753.290000", "103753.750000", "103754.210000", "103754.670000", "103755.130000", "103755.590000", "103756.050000", "103756.510000", "103756.970000", "103757.430000", "103757.890000", "103758.350000", "103758.810000", "103759.270000", "103759.730000", "103800.190000", "103800.650000", "103801.110000", "103801.570000", "103802.030000", "103802.490000", "103802.950000", "103803.410000", "103803.870000", "103804.330000", "103804.790000", "103805.250000", "103805.710000", "103806.170000", "103806.630000", "103807.090000", "103807.550000", "103808.010000", "103808.470000", "103808.930000", "103809.390000", "103809.850000", "103810.310000", "103810.770000", "103811.230000", "103811.690000", "103812.150000", "103812.610000", "103813.070000", "103813.530000", "103813.990000", "103814.450000", "103814.910000", "103815.370000", "103815.830000", "103816.290000", "103816.750000", "103817.210000", "103817.670000", "103818.130000", "103818.590000", "103819.050000", "103819.510000", "103819.970000", "103820.430000", "103820.890000", "103821.350000", "103821.810000", "103822.270000", "103822.730000", "103823.190000", "103823.650000", "103824.110000", "103824.570000", "103825.030000", "103825.490000", "103825.950000", "103826.410000", "103826.870000", "103827.330000", "103827.790000", "103828.250000", "103828.710000", "103829.170000", "103829.630000", "103830.090000", "103830.550000", "103831.010000", "103831.470000", "103831.930000", "103832.390000", "103832.850000", "103833.310000", "103833.770000", "103834.230000", "103834.690000", "103835.150000", "103835.610000", "103836.070000", "103836.530000", "103836.990000", "103837.450000", "103837.910000", "103838.370000", "103838.830000", "103839.290000", "103839.750000", "103840.210000", "103840.670000", "103841.130000", "103841.590000", "103842.050000", "103842.510000", "103842.970000", "103843.430000", "103843.890000", "103844.350000", "103844.810000", "103845.270000", "103845.730000", "103846.190000", "103846.650000", "103847.110000", "103847.570000", "103848.030000", "103848.490000", "103848.950000", "103849.410000", "103849.870000", "103850.330000", "103850.790000", "103851.250000", "103851.710000", "103852.170000", "103852.630000", "103853.090000", "103853.550000", "103854.010000", "103854.470000", "103854.930000", "103855.390000", "103855.850000", "103856.310000", "103856.770000", "103857.230000", "103857.690000", "103858.150000", "103858.610000", "103859.070000", "103859.530000", "103859.990000", "103900.450000", "103900.910000", "103901.370000", "103901.830000", "103902.290000", "103902.750000", "103903.210000", "103903.670000", "103904.130000", "103904.590000", "103905.050000", "103905.510000", "103905.970000", "103906.430000", "103906.890000", "103907.350000", "103907.810000", "103908.270000", "103908.730000", "103909.190000", "103909.650000", "103910.110000", "103910.570000", "103911.030000", "103911.490000", "103911.950000", "103912.410000", "103912.870000", "103913.330000", "103913.790000", "103914.250000", "103914.710000", "103915.170000", "103915.630000", "103916.090000", "103916.550000", "103917.010000", "103917.470000", "103917.930000", "103918.390000", "103918.850000", "103919.310000", "103919.770000", "103920.230000", "103920.690000", "103921.150000", "103921.610000", "103922.070000", "103922.530000", "103922.990000", "103923.450000", "103923.910000", "103924.370000", "103924.830000", "103925.290000", "103925.750000", "103926.210000", "103926.670000", "103927.130000"],
