{
  "AcquisitionMatrixPE": 82,
  "AcquisitionNumber": 1,
  "AcquisitionTime": "10:22:12.317500",
  "BandwidthPerPixelPhaseEncode": 24.888,
  "BaseResolution": 82,
  "BodyPartExamined": "BRAIN",
  "ConsistencyInfo": "N4_VE11C_LATEST_20160120",
  "ConversionSoftware": "dcm2niix",
  "ConversionSoftwareVersion": "v1.0.20201102",
  "DerivedVendorReportedEchoSpacing": 0.00049,
  "DeviceSerialNumber": "66112",
  "DwellTime": 2e-06,
  "EchoTime": 0.0272,
  "EchoTrainLength": 82,
  "EffectiveEchoSpacing": 0.00049,
  "FlipAngle": 44,
  "ImageComments": "Unaliased MB8/PE3",
  "ImageOrientationPatientDICOM": [0.998714, 0.0492497, 0.0120257, -0.0505927, 0.983403, 0.174239],
  "ImageType": [
    "ORIGINAL",
    "PRIMARY",
    "M",
    "MB",
    "ND",
    "NORM",
    "MOSAIC"
],
  "ImagingFrequency": 123.252,
  "InPlanePhaseEncodingDirectionDICOM": "COL",
  "InstitutionAddress": "Maynard 3,Hanover,NH,US,03755",
  "InstitutionName": "Dartmouth College - PBS",
  "InstitutionalDepartmentName": "Department",
  "MRAcquisitionType": "2D",
  "MagneticFieldStrength": 3,
  "Manufacturer": "Siemens",
  "ManufacturersModelName": "Prisma",
  "Modality": "MR",
  "MultibandAccelerationFactor": 8,
  "PartialFourier": 1,
  "PatientPosition": "HFS",
  "PercentPhaseFOV": 100,
  "PercentSampling": 100,
  "PhaseEncodingDirection": "j-",
  "PhaseEncodingSteps": 82,
  "PhaseResolution": 1,
  "PixelBandwidth": 3050,
  "ProcedureStepDescription": "Wager_Wager^1076_spacetop",
  "ProtocolName": "func_run-02_task-faces_acq-ap-mb8",
  "PulseSequenceDetails": "%CustomerSeq%\\cmrr_mbep2d_bold",
  "ReceiveCoilActiveElements": "HEA;HEP",
  "ReceiveCoilName": "Head_32",
  "ReconMatrixPE": 82,
  "RepetitionTime": 0.46,
  "SAR": 0.090066,
  "ScanOptions": "FS",
  "ScanningSequence": "EP",
  "SequenceName": "epfid2d1_82",
  "SequenceVariant": "SK\\SS",
  "SeriesDescription": "func_run-02_task-faces_acq-ap-mb8",
  "SeriesNumber": 18,
  "ShimSetting": [4130, -7768, -7234, 464, -203, -232, 35, 44],
  "SliceThickness": 2.7,
  "SliceTiming": [0, 0.2525, 0.0625, 0.315, 0.125, 0.3775, 0.19, 0, 0.2525, 0.0625, 0.315, 0.125, 0.3775, 0.19, 0, 0.2525, 0.0625, 0.315, 0.125, 0.3775, 0.19, 0, 0.2525, 0.0625, 0.315, 0.125, 0.3775, 0.19, 0, 0.2525, 0.0625, 0.315, 0.125, 0.3775, 0.19, 0, 0.2525, 0.0625, 0.315, 0.125, 0.3775, 0.19, 0, 0.2525, 0.0625, 0.315, 0.125, 0.3775, 0.19, 0, 0.2525, 0.0625, 0.315, 0.125, 0.3775, 0.19],
  "SoftwareVersions": "syngo MR E11",
  "SpacingBetweenSlices": 2.7,
  "StationName": "AWP66112",
  "TaskName": "faces",
  "TotalReadoutTime": 0.03969,
  "TxRefAmp": 243.756,
  "WipMemBlock": "1d6823c1-0182-4d87-a6ad-4e14d4bebc40||Sequence: R016 ve11c/master r/e634e98; Dec 19 2017 11:00:25 by eja",
  "dcmmeta_affine": [
    [-2.6794769763946533, -0.1357364058494568, 0.008761233650147915, 119.34879302978516],
    [-0.13213324546813965, 2.6383981704711914, 0.4714818596839905, -95.38330841064453],
    [0.03226402774453163, -0.46746930480003357, 2.658501148223877, -28.553653717041016],
    [0.0, 0.0, 0.0, 1.0]
],
  "dcmmeta_reorient_transform": [
    [0.0, -1.0, 0.0, 81.0],
    [1.0, 0.0, 0.0, 0.0],
    [0.0, 0.0, 1.0, 0.0],
    [0.0, 0.0, 0.0, 1.0]
],
  "dcmmeta_shape": [82, 82, 56, 914],
  "dcmmeta_slice_dim": 2,
  "dcmmeta_version": 0.6,
  "global": {
    "const": {
      "AccessionNumber": "A003514",
      "AcquisitionMatrix": [82, 0, 0, 82],
      "AngioFlag": "N",
      "BitsAllocated": 16,
      "BitsStored": 16,
      "BodyPartExamined": "BRAIN",
      "Columns": 656,
      "EchoNumbers": 1,
      "EchoTime": 27.2,
      "EchoTrainLength": 82,
      "FlipAngle": 44.0,
      "HighBit": 15,
      "ImageOrientationPatient": [0.99871409995553, 0.04924966500093, 0.012025682821, -0.0505926592014, 0.98340292361508, 0.17423855101625],
      "ImagePositionPatient": [-838.40767209592, -913.46945141573, -209.84212944672],
      "ImageType": [
        "ORIGINAL",
        "PRIMARY",
        "M",
        "MB",
        "ND",
        "NORM",
        "MOSAIC"
],
      "ImagedNucleus": "1H",
      "ImagingFrequency": 123.252215,
      "InPlanePhaseEncodingDirection": "COL",
      "MRAcquisitionType": "2D",
      "MagneticFieldStrength": 3.0,
      "Manufacturer": "SIEMENS",
      "ManufacturerModelName": "Prisma",
      "Modality": "MR",
      "NumberOfAverages": 1.0,
      "NumberOfPhaseEncodingSteps": 82,
      "PercentPhaseFieldOfView": 100.0,
      "PercentSampling": 100.0,
      "PerformedProcedureStepStartTime": "085750.373000",
      "PhotometricInterpretation": "MONOCHROME2",
      "PixelBandwidth": 3050.0,
      "PixelRepresentation": 0,
      "PixelSpacing": [2.6829268932343, 2.6829268932343],
      "ProtocolName": "func_run-02_task-faces_acq-ap-mb8",
      "RepetitionTime": 460.0,
      "Rows": 656,
      "SAR": 0.09006604456914,
      "SamplesPerPixel": 1,
      "ScanOptions": "FS",
      "ScanningSequence": "EP",
      "SequenceName": "epfid2d1_82",
      "SequenceVariant": [
        "SK",
        "SS"
],
      "SeriesDescription": "func_run-02_task-faces_acq-ap-mb8",
      "SeriesNumber": 18,
      "SeriesTime": "102222.858000",
      "SliceLocation": -44.38362070478,
      "SliceThickness": 2.7000000476837,
      "SmallestImagePixelValue": 0,
      "SoftwareVersions": "syngo MR E11",
      "SpacingBetweenSlices": 2.7000000519918,
      "SpecificCharacterSet": "ISO_IR 100",
      "StudyID": "2",
      "StudyTime": "085750.278000",
      "TransmitCoilName": "Body",
      "VariableFlipAngleFlag": "N",
      "WindowCenterWidthExplanation": "Algo1",
      "dBdt": 0.0},
    "slices": {}
  },
  "time": {
    "samples": {
      "AcquisitionNumber": [1, 2, 3, 4, 5, 6, 7, 8, 9, 10, 11, 12, 13, 14, 15, 16, 17, 18, 19, 20, 21, 22, 23, 24, 25, 26, 27, 28, 29, 30, 31, 32, 33, 34, 35, 36, 37, 38, 39, 40, 41, 42, 43, 44, 45, 46, 47, 48, 49, 50, 51, 52, 53, 54, 55, 56, 57, 58, 59, 60, 61, 62, 63, 64, 65, 66, 67, 68, 69, 70, 71, 72, 73, 74, 75, 76, 77, 78, 79, 80, 81, 82, 83, 84, 85, 86, 87, 88, 89, 90, 91, 92, 93, 94, 95, 96, 97, 98, 99, 100, 101, 102, 103, 104, 105, 106, 107, 108, 109, 110, 111, 112, 113, 114, 115, 116, 117, 118, 119, 120, 121, 122, 123, 124, 125, 126, 127, 128, 129, 130, 131, 132, 133, 134, 135, 136, 137, 138, 139, 140, 141, 142, 143, 144, 145, 146, 147, 148, 149, 150, 151, 152, 153, 154, 155, 156, 157, 158, 159, 160, 161, 162, 163, 164, 165, 166, 167, 168, 169, 170, 171, 172, 173, 174, 175, 176, 177, 178, 179, 180, 181, 182, 183, 184, 185, 186, 187, 188, 189, 190, 191, 192, 193, 194, 195, 196, 197, 198, 199, 200, 201, 202, 203, 204, 205, 206, 207, 208, 209, 210, 211, 212, 213, 214, 215, 216, 217, 218, 219, 220, 221, 222, 223, 224, 225, 226, 227, 228, 229, 230, 231, 232, 233, 234, 235, 236, 237, 238, 239, 240, 241, 242, 243, 244, 245, 246, 247, 248, 249, 250, 251, 252, 253, 254, 255, 256, 257, 258, 259, 260, 261, 262, 263, 264, 265, 266, 267, 268, 269, 270, 271, 272, 273, 274, 275, 276, 277, 278, 279, 280, 281, 282, 283, 284, 285, 286, 287, 288, 289, 290, 291, 292, 293, 294, 295, 296, 297, 298, 299, 300, 301, 302, 303, 304, 305, 306, 307, 308, 309, 310, 311, 312, 313, 314, 315, 316, 317, 318, 319, 320, 321, 322, 323, 324, 325, 326, 327, 328, 329, 330, 331, 332, 333, 334, 335, 336, 337, 338, 339, 340, 341, 342, 343, 344, 345, 346, 347, 348, 349, 350, 351, 352, 353, 354, 355, 356, 357, 358, 359, 360, 361, 362, 363, 364, 365, 366, 367, 368, 369, 370, 371, 372, 373, 374, 375, 376, 377, 378, 379, 380, 381, 382, 383, 384, 385, 386, 387, 388, 389, 390, 391, 392, 393, 394, 395, 396, 397, 398, 399, 400, 401, 402, 403, 404, 405, 406, 407, 408, 409, 410, 411, 412, 413, 414, 415, 416, 417, 418, 419, 420, 421, 422, 423, 424, 425, 426, 427, 428, 429, 430, 431, 432, 433, 434, 435, 436, 437, 438, 439, 440, 441, 442, 443, 444, 445, 446, 447, 448, 449, 450, 451, 452, 453, 454, 455, 456, 457, 458, 459, 460, 461, 462, 463, 464, 465, 466, 467, 468, 469, 470, 471, 472, 473, 474, 475, 476, 477, 478, 479, 480, 481, 482, 483, 484, 485, 486, 487, 488, 489, 490, 491, 492, 493, 494, 495, 496, 497, 498, 499, 500, 501, 502, 503, 504, 505, 506, 507, 508, 509, 510, 511, 512, 513, 514, 515, 516, 517, 518, 519, 520, 521, 522, 523, 524, 525, 526, 527, 528, 529, 530, 531, 532, 533, 534, 535, 536, 537, 538, 539, 540, 541, 542, 543, 544, 545, 546, 547, 548, 549, 550, 551, 552, 553, 554, 555, 556, 557, 558, 559, 560, 561, 562, 563, 564, 565, 566, 567, 568, 569, 570, 571, 572, 573, 574, 575, 576, 577, 578, 579, 580, 581, 582, 583, 584, 585, 586, 587, 588, 589, 590, 591, 592, 593, 594, 595, 596, 597, 598, 599, 600, 601, 602, 603, 604, 605, 606, 607, 608, 609, 610, 611, 612, 613, 614, 615, 616, 617, 618, 619, 620, 621, 622, 623, 624, 625, 626, 627, 628, 629, 630, 631, 632, 633, 634, 635, 636, 637, 638, 639, 640, 641, 642, 643, 644, 645, 646, 647, 648, 649, 650, 651, 652, 653, 654, 655, 656, 657, 658, 659, 660, 661, 662, 663, 664, 665, 666, 667, 668, 669, 670, 671, 672, 673, 674, 675, 676, 677, 678, 679, 680, 681, 682, 683, 684, 685, 686, 687, 688, 689, 690, 691, 692, 693, 694, 695, 696, 697, 698, 699, 700, 701, 702, 703, 704, 705, 706, 707, 708, 709, 710, 711, 712, 713, 714, 715, 716, 717, 718, 719, 720, 721, 722, 723, 724, 725, 726, 727, 728, 729, 730, 731, 732, 733, 734, 735, 736, 737, 738, 739, 740, 741, 742, 743, 744, 745, 746, 747, 748, 749, 750, 751, 752, 753, 754, 755, 756, 757, 758, 759, 760, 761, 762, 763, 764, 765, 766, 767, 768, 769, 770, 771, 772, 773, 774, 775, 776, 777, 778, 779, 780, 781, 782, 783, 784, 785, 786, 787, 788, 789, 790, 791, 792, 793, 794, 795, 796, 797, 798, 799, 800, 801, 802, 803, 804, 805, 806, 807, 808, 809, 810, 811, 812, 813, 814, 815, 816, 817, 818, 819, 820, 821, 822, 823, 824, 825, 826, 827, 828, 829, 830, 831, 832, 833, 834, 835, 836, 837, 838, 839, 840, 841, 842, 843, 844, 845, 846, 847, 848, 849, 850, 851, 852, 853, 854, 855, 856, 857, 858, 859, 860, 861, 862, 863, 864, 865, 866, 867, 868, 869, 870, 871, 872, 873, 874, 875, 876, 877, 878, 879, 880, 881, 882, 883, 884, 885, 886, 887, 888, 889, 890, 891, 892, 893, 894, 895, 896, 897, 898, 899, 900, 901, 902, 903, 904, 905, 906, 907, 908, 909, 910, 911, 912, 913, 914],
      "AcquisitionTime": ["102212.317500", "102212.777500", "102213.237500", "102213.697500", "102214.157500", "102214.617500", "102215.077500", "102215.537500", "102215.997500", "102216.457500", "102216.917500", "102217.377500", "102217.837500", "102218.297500", "102218.757500", "102219.217500", "102219.677500", "102220.137500", "102220.597500", "102221.057500", "102221.517500", "102221.977500", "102222.437500", "102222.897500", "102223.357500", "102223.817500", "102224.277500", "102224.737500", "102225.197500", "102225.657500", "102226.117500", "102226.577500", "102227.037500", "102227.497500", "102227.957500", "102228.417500", "102228.877500", "102229.337500", "102229.797500", "102230.257500", "102230.717500", "102231.177500", "102231.637500", "102232.097500", "102232.557500", "102233.017500", "102233.477500", "102233.937500", "102234.397500", "102234.857500", "102235.317500", "102235.777500", "102236.237500", "102236.697500", "102237.157500", "102237.617500", "102238.077500", "102238.537500", "102238.997500", "102239.457500", "102239.917500", "102240.377500", "102240.837500", "102241.297500", "102241.757500", "102242.217500", "102242.677500", "102243.137500", "102243.597500", "102244.057500", "102244.517500", "102244.977500", "102245.437500", "102245.897500", "102246.357500", "102246.817500", "102247.277500", "102247.737500", "102248.197500", "102248.657500", "102249.117500", "102249.577500", "102250.037500", "102250.497500", "102250.957500", "102251.417500", "102251.877500", "102252.337500", "102252.797500", "102253.257500", "102253.717500", "102254.177500", "102254.637500", "102255.097500", "102255.557500", "102256.017500", "102256.477500", "102256.937500", "102257.397500", "102257.857500", "102258.317500", "102258.777500", "102259.237500", "102259.697500", "102300.157500", "102300.617500", "102301.077500", "102301.537500", "102301.997500", "102302.457500", "102302.917500", "102303.377500", "102303.837500", "102304.297500", "102304.757500", "102305.217500", "102305.677500", "102306.137500", "102306.597500", "102307.057500", "102307.517500", "102307.977500", "102308.437500", "102308.897500", "102309.357500", "102309.817500", "102310.277500", "102310.737500", "102311.197500", "102311.657500", "102312.117500", "102312.577500", "102313.037500", "102313.497500", "102313.957500", "102314.417500", "102314.877500", "102315.337500", "102315.797500", "102316.257500", "102316.717500", "102317.177500", "102317.637500", "102318.097500", "102318.557500", "102319.017500", "102319.477500", "102319.937500", "102320.397500", "102320.857500", "102321.317500", "102321.777500", "102322.237500", "102322.697500", "102323.157500", "102323.617500", "102324.077500", "102324.537500", "102324.997500", "102325.457500", "102325.917500", "102326.377500", "102326.837500", "102327.297500", "102327.757500", "102328.217500", "102328.677500", "102329.137500", "102329.597500", "102330.057500", "102330.517500", "102330.977500", "102331.437500", "102331.897500", "102332.357500", "102332.817500", "102333.277500", "102333.737500", "102334.197500", "102334.657500", "102335.117500", "102335.577500", "102336.037500", "102336.497500", "102336.957500", "102337.417500", "102337.877500", "102338.337500", "102338.797500", "102339.257500", "102339.717500", "102340.177500", "102340.637500", "102341.097500", "102341.557500", "102342.017500", "102342.477500", "102342.937500", "102343.397500", "102343.857500", "102344.317500", "102344.777500", "102345.237500", "102345.697500", "102346.157500", "102346.617500", "102347.077500", "102347.537500", "102347.997500", "102348.457500", "102348.917500", "102349.377500", "102349.837500", "102350.297500", "102350.757500", "102351.217500", "102351.677500", "102352.137500", "102352.597500", "102353.057500", "102353.517500", "102353.977500", "102354.437500", "102354.897500", "102355.357500", "102355.817500", "102356.277500", "102356.737500", "102357.197500", "102357.657500", "102358.117500", "102358.577500", "102359.037500", "102359.497500", "102359.957500", "102400.417500", "102400.877500", "102401.337500", "102401.797500", "102402.257500", "102402.717500", "102403.177500", "102403.637500", "102404.097500", "102404.557500", "102405.017500", "102405.477500", "102405.937500", "102406.397500", "102406.857500", "102407.317500", "102407.777500", "102408.237500", "102408.697500", "102409.157500", "102409.617500", "102410.077500", "102410.537500", "102410.997500", "102411.457500", "102411.917500", "102412.377500", "102412.837500", "102413.297500", "102413.757500", "102414.217500", "102414.677500", "102415.137500", "102415.597500", "102416.057500", "102416.517500", "102416.977500", "102417.437500", "102417.897500", "102418.357500", "102418.817500", "102419.277500", "102419.737500", "102420.197500", "102420.657500", "102421.117500", "102421.577500", "102422.037500", "102422.497500", "102422.957500", "102423.417500", "102423.877500", "102424.337500", "102424.797500", "102425.257500", "102425.717500", "102426.177500", "102426.637500", "102427.097500", "102427.557500", "102428.017500", "102428.477500", "102428.937500", "102429.397500", "102429.857500", "102430.317500", "102430.777500", "102431.237500", "102431.697500", "102432.157500", "102432.617500", "102433.077500", "102433.537500", "102433.997500", "102434.457500", "102434.917500", "102435.377500", "102435.837500", "102436.297500", "102436.757500", "102437.217500", "102437.677500", "102438.137500", "102438.597500", "102439.057500", "102439.517500", "102439.977500", "102440.437500", "102440.897500", "102441.357500", "102441.817500", "102442.277500", "102442.737500", "102443.197500", "102443.657500", "102444.117500", "102444.577500", "102445.037500", "102445.497500", "102445.957500", "102446.417500", "102446.877500", "102447.337500", "102447.797500", "102448.257500", "102448.717500", "102449.177500", "102449.637500", "102450.097500", "102450.557500", "102451.017500", "102451.477500", "102451.937500", "102452.397500", "102452.857500", "102453.317500", "102453.777500", "102454.237500", "102454.697500", "102455.157500", "102455.617500", "102456.077500", "102456.537500", "102456.997500", "102457.457500", "102457.917500", "102458.377500", "102458.837500", "102459.297500", "102459.757500", "102500.217500", "102500.677500", "102501.137500", "102501.597500", "102502.057500", "102502.517500", "102502.977500", "102503.437500", "102503.897500", "102504.357500", "102504.817500", "102505.277500", "102505.737500", "102506.197500", "102506.657500", "102507.117500", "102507.577500", "102508.037500", "102508.497500", "102508.957500", "102509.417500", "102509.877500", "102510.337500", "102510.797500", "102511.257500", "102511.717500", "102512.177500", "102512.637500", "102513.097500", "102513.557500", "102514.017500", "102514.477500", "102514.937500", "102515.397500", "102515.857500", "102516.317500", "102516.777500", "102517.237500", "102517.697500", "102518.157500", "102518.617500", "102519.077500", "102519.537500", "102519.997500", "102520.457500", "102520.917500", "102521.377500", "102521.837500", "102522.297500", "102522.757500", "102523.217500", "102523.677500", "102524.137500", "102524.597500", "102525.057500", "102525.517500", "102525.977500", "102526.437500", "102526.897500", "102527.357500", "102527.817500", "102528.277500", "102528.737500", "102529.197500", "102529.657500", "102530.117500", "102530.577500", "102531.037500", "102531.497500", "102531.957500", "102532.417500", "102532.877500", "102533.337500", "102533.797500", "102534.257500", "102534.717500", "102535.177500", "102535.637500", "102536.097500", "102536.557500", "102537.017500", "102537.477500", "102537.937500", "102538.397500", "102538.857500", "102539.317500", "102539.777500", "102540.237500", "102540.697500", "102541.157500", "102541.617500", "102542.077500", "102542.537500", "102542.997500", "102543.457500", "102543.917500", "102544.377500", "102544.837500", "102545.297500", "102545.757500", "102546.217500", "102546.677500", "102547.137500", "102547.597500", "102548.057500", "102548.517500", "102548.977500", "102549.437500", "102549.897500", "102550.357500", "102550.817500", "102551.277500", "102551.737500", "102552.197500", "102552.657500", "102553.117500", "102553.577500", "102554.037500", "102554.497500", "102554.957500", "102555.417500", "102555.877500", "102556.337500", "102556.797500", "102557.257500", "102557.717500", "102558.177500", "102558.637500", "102559.097500", "102559.557500", "102600.017500", "102600.477500", "102600.937500", "102601.397500", "102601.857500", "102602.317500", "102602.777500", "102603.237500", "102603.697500", "102604.157500", "102604.617500", "102605.077500", "102605.537500", "102605.997500", "102606.457500", "102606.917500", "102607.377500", "102607.837500", "102608.297500", "102608.757500", "102609.217500", "102609.677500", "102610.137500", "102610.597500", "102611.057500", "102611.517500", "102611.977500", "102612.437500", "102612.897500", "102613.357500", "102613.817500", "102614.277500", "102614.737500", "102615.197500", "102615.657500", "102616.117500", "102616.577500", "102617.037500", "102617.497500", "102617.957500", "102618.417500", "102618.877500", "102619.337500", "102619.797500", "102620.257500", "102620.717500", "102621.177500", "102621.637500", "102622.097500", "102622.557500", "102623.017500", "102623.477500", "102623.937500", "102624.397500", "102624.857500", "102625.317500", "102625.777500", "102626.237500", "102626.697500", "102627.157500", "102627.617500", "102628.077500", "102628.537500", "102628.997500", "102629.457500", "102629.917500", "102630.377500", "102630.837500", "102631.297500", "102631.757500", "102632.217500", "102632.677500", "102633.137500", "102633.597500", "102634.057500", "102634.517500", "102634.977500", "102635.437500", "102635.897500", "102636.357500", "102636.817500", "102637.277500", "102637.737500", "102638.197500", "102638.657500", "102639.117500", "102639.577500", "102640.037500", "102640.497500", "102640.957500", "102641.417500", "102641.877500", "102642.337500", "102642.797500", "102643.257500", "102643.717500", "102644.177500", "102644.637500", "102645.097500", "102645.557500", "102646.017500", "102646.477500", "102646.937500", "102647.397500", "102647.857500", "102648.317500", "102648.777500", "102649.237500", "102649.697500", "102650.157500", "102650.617500", "102651.077500", "102651.537500", "102651.997500", "102652.457500", "102652.917500", "102653.377500", "102653.837500", "102654.297500", "102654.757500", "102655.217500", "102655.677500", "102656.137500", "102656.597500", "102657.057500", "102657.517500", "102657.977500", "102658.437500", "102658.897500", "102659.357500", "102659.817500", "102700.277500", "102700.737500", "102701.197500", "102701.657500", "102702.117500", "102702.577500", "102703.037500", "102703.497500", "102703.957500", "102704.417500", "102704.877500", "102705.337500", "102705.797500", "102706.257500", "102706.717500", "102707.177500", "102707.637500", "102708.097500", "102708.557500", "102709.017500", "102709.477500", "102709.937500", "102710.397500", "102710.857500", "102711.317500", "102711.777500", "102712.237500", "102712.697500", "102713.157500", "102713.617500", "102714.077500", "102714.537500", "102714.997500", "102715.457500", "102715.917500", "102716.377500", "102716.837500", "102717.297500", "102717.757500", "102718.217500", "102718.677500", "102719.137500", "102719.597500", "102720.057500", "102720.517500", "102720.977500", "102721.437500", "102721.897500", "102722.357500", "102722.817500", "102723.277500", "102723.737500", "102724.197500", "102724.657500", "102725.117500", "102725.577500", "102726.037500", "102726.497500", "102726.957500", "102727.417500", "102727.877500", "102728.337500", "102728.797500", "102729.257500", "102729.717500", "102730.177500", "102730.637500", "102731.097500", "102731.557500", "102732.017500", "102732.477500", "102732.937500", "102733.397500", "102733.857500", "102734.317500", "102734.777500", "102735.237500", "102735.697500", "102736.157500", "102736.617500", "102737.077500", "102737.537500", "102737.997500", "102738.457500", "102738.917500", "102739.377500", "102739.837500", "102740.297500", "102740.757500", "102741.217500", "102741.677500", "102742.137500", "102742.597500", "102743.057500", "102743.517500", "102743.977500", "102744.437500", "102744.897500", "102745.357500", "102745.817500", "102746.277500", "102746.737500", "102747.197500", "102747.657500", "102748.117500", "102748.577500", "102749.037500", "102749.497500", "102749.957500", "102750.417500", "102750.877500", "102751.337500", "102751.797500", "102752.257500", "102752.717500", "102753.177500", "102753.637500", "102754.097500", "102754.557500", "102755.017500", "102755.477500", "102755.937500", "102756.397500", "102756.857500", "102757.317500", "102757.777500", "102758.237500", "102758.697500", "102759.157500", "102759.617500", "102800.077500", "102800.537500", "102800.997500", "102801.457500", "102801.917500", "102802.377500", "102802.837500", "102803.297500", "102803.757500", "102804.217500", "102804.677500", "102805.137500", "102805.597500", "102806.057500", "102806.517500", "102806.977500", "102807.437500", "102807.897500", "102808.357500", "102808.817500", "102809.277500", "102809.737500", "102810.197500", "102810.657500", "102811.117500", "102811.577500", "102812.037500", "102812.497500", "102812.957500", "102813.417500", "102813.877500", "102814.337500", "102814.797500", "102815.257500", "102815.717500", "102816.177500", "102816.637500", "102817.097500", "102817.557500", "102818.017500", "102818.477500", "102818.937500", "102819.397500", "102819.857500", "102820.317500", "102820.777500", "102821.237500", "102821.697500", "102822.157500", "102822.617500", "102823.077500", "102823.537500", "102823.997500", "102824.457500", "102824.917500", "102825.377500", "102825.837500", "102826.297500", "102826.757500", "102827.217500", "102827.677500", "102828.137500", "102828.597500", "102829.057500", "102829.517500", "102829.977500", "102830.437500", "102830.897500", "102831.357500", "102831.817500", "102832.277500", "102832.737500", "102833.197500", "102833.657500", "102834.117500", "102834.577500", "102835.037500", "102835.497500", "102835.957500", "102836.417500", "102836.877500", "102837.337500", "102837.797500", "102838.257500", "102838.717500", "102839.177500", "102839.637500", "102840.097500", "102840.557500", "102841.017500", "102841.477500", "102841.937500", "102842.397500", "102842.857500", "102843.317500", "102843.777500", "102844.237500", "102844.697500", "102845.157500", "102845.617500", "102846.077500", "102846.537500", "102846.997500", "102847.457500", "102847.917500", "102848.377500", "102848.837500", "102849.297500", "102849.757500", "102850.217500", "102850.677500", "102851.137500", "102851.597500", "102852.057500", "102852.517500", "102852.977500", "102853.437500", "102853.897500", "102854.357500", "102854.817500", "102855.277500", "102855.737500", "102856.197500", "102856.657500", "102857.117500", "102857.577500", "102858.037500", "102858.497500", "102858.957500", "102859.417500", "102859.877500", "102900.337500", "102900.797500", "102901.257500", "102901.717500", "102902.177500", "102902.637500", "102903.097500", "102903.557500", "102904.017500", "102904.477500", "102904.937500", "102905.397500", "102905.857500", "102906.317500", "102906.777500", "102907.237500", "102907.697500", "102908.157500", "102908.617500", "102909.077500", "102909.537500", "102909.997500", "102910.457500", "102910.917500", "102911.377500", "102911.837500", "102912.297500"],
