{
  "AcquisitionMatrixPE": 82,
  "AcquisitionNumber": 1,
  "AcquisitionTime": "09:40:6.855000",
  "BandwidthPerPixelPhaseEncode": 24.888,
  "BaseResolution": 82,
  "BodyPartExamined": "BRAIN",
  "ConsistencyInfo": "N4_VE11E_LATEST_20181129",
  "ConversionSoftware": "dcm2niix",
  "ConversionSoftwareVersion": "v1.0.20201102",
  "DerivedVendorReportedEchoSpacing": 0.00049,
  "DeviceSerialNumber": "66112",
  "DwellTime": 2e-06,
  "EchoTime": 0.0272,
  "EchoTrainLength": 82,
  "EffectiveEchoSpacing": 0.00049,
  "FlipAngle": 44,
  "ImageComments": "Unaliased MB8/PE3",
  "ImageOrientationPatientDICOM": [0.995342, -0.0744283, -0.0612825, 0.0751895, 0.997117, 0.0102076],
  "ImageType": [
    "ORIGINAL",
    "PRIMARY",
    "M",
    "MB",
    "ND",
    "NORM",
    "MOSAIC"
],
  "ImagingFrequency": 123.259,
  "InPlanePhaseEncodingDirectionDICOM": "COL",
  "InstitutionAddress": "Maynard 3,Hanover,NH,US,03755",
  "InstitutionName": "Dartmouth College - PBS",
  "InstitutionalDepartmentName": "Department",
  "MRAcquisitionType": "2D",
  "MagneticFieldStrength": 3,
  "Manufacturer": "Siemens",
  "ManufacturersModelName": "Prisma",
  "Modality": "MR",
  "MultibandAccelerationFactor": 8,
  "PartialFourier": 1,
  "PatientPosition": "HFS",
  "PercentPhaseFOV": 100,
  "PercentSampling": 100,
  "PhaseEncodingDirection": "j-",
  "PhaseEncodingSteps": 82,
  "PhaseResolution": 1,
  "PixelBandwidth": 3050,
  "ProcedureStepDescription": "Wager_Wager^1076_spacetop",
  "ProtocolName": "func_run-06_task-social_acq-ap-mb8",
  "PulseSequenceDetails": "%CustomerSeq%\\cmrr_mbep2d_bold",
  "ReceiveCoilActiveElements": "HEA;HEP",
  "ReceiveCoilName": "Head_32",
  "ReconMatrixPE": 82,
  "RepetitionTime": 0.46,
  "SAR": 0.0991247,
  "ScanOptions": "FS",
  "ScanningSequence": "EP",
  "SequenceName": "epfid2d1_82",
  "SequenceVariant": "SK\\SS",
  "SeriesDescription": "func_run-06_task-social_acq-ap-mb8",
  "SeriesNumber": 22,
  "ShimSetting": [4223, -7803, -7269, 252, -111, -25, -91, 105],
  "SliceThickness": 2.7,
  "SliceTiming": [0, 0.2525, 0.0625, 0.315, 0.125, 0.3775, 0.1875, 0, 0.2525, 0.0625, 0.315, 0.125, 0.3775, 0.1875, 0, 0.2525, 0.0625, 0.315, 0.125, 0.3775, 0.1875, 0, 0.2525, 0.0625, 0.315, 0.125, 0.3775, 0.1875, 0, 0.2525, 0.0625, 0.315, 0.125, 0.3775, 0.1875, 0, 0.2525, 0.0625, 0.315, 0.125, 0.3775, 0.1875, 0, 0.2525, 0.0625, 0.315, 0.125, 0.3775, 0.1875, 0, 0.2525, 0.0625, 0.315, 0.125, 0.3775, 0.1875],
  "SoftwareVersions": "syngo MR E11",
  "SpacingBetweenSlices": 2.7,
  "StationName": "AWP66112",
  "TaskName": "social",
  "TotalReadoutTime": 0.03969,
  "TxRefAmp": 254.304,
  "WipMemBlock": "506c8600-7961-48e8-917a-5172f7599738||Sequence: R016 ve11e/master r/434b28f1; Aug  7 2019 18:53:46 by eja",
  "dcmmeta_affine": [
    [-2.67042875289917, 0.2017280012369156, -0.1629343181848526, 108.34385681152344],
    [0.19968564808368683, 2.67519211769104, 0.03987326845526695, -103.94312286376953],
    [-0.1644163578748703, -0.02738632634282112, 2.694784164428711, -61.839996337890625],
    [0.0, 0.0, 0.0, 1.0]
],
  "dcmmeta_reorient_transform": [
    [0.0, -1.0, 0.0, 81.0],
    [1.0, 0.0, 0.0, 0.0],
    [0.0, 0.0, 1.0, 0.0],
    [0.0, 0.0, 0.0, 1.0]
],
  "dcmmeta_shape": [82, 82, 56, 872],
  "dcmmeta_slice_dim": 2,
  "dcmmeta_version": 0.6,
  "global": {
    "const": {
      "AccessionNumber": "A004379",
      "AcquisitionMatrix": [82, 0, 0, 82],
      "AngioFlag": "N",
      "BitsAllocated": 16,
      "BitsStored": 16,
      "BodyPartExamined": "BRAIN",
      "Columns": 656,
      "EchoNumbers": 1,
      "EchoTime": 27.2,
      "EchoTrainLength": 82,
      "FlipAngle": 44.0,
      "HighBit": 15,
      "ImageOrientationPatient": [0.99534159485173, -0.0744282876847, -0.0612824571174, 0.07518952391379, 0.99711701408427, 0.01020763034637],
      "ImagePositionPatient": [-948.99280818508, -823.21776942785, -24.730672671193],
      "ImageType": [
        "ORIGINAL",
        "PRIMARY",
        "M",
        "MB",
        "ND",
        "NORM",
        "MOSAIC"
],
      "ImagedNucleus": "1H",
      "ImagingFrequency": 123.259159,
      "InPlanePhaseEncodingDirection": "COL",
      "MRAcquisitionType": "2D",
      "MagneticFieldStrength": 3.0,
      "Manufacturer": "SIEMENS",
      "ManufacturerModelName": "Prisma",
      "Modality": "MR",
      "NumberOfAverages": 1.0,
      "NumberOfPhaseEncodingSteps": 82,
      "PercentPhaseFieldOfView": 100.0,
      "PercentSampling": 100.0,
      "PerformedProcedureStepStartTime": "081156.399000",
      "PhotometricInterpretation": "MONOCHROME2",
      "PixelBandwidth": 3050.0,
      "PixelRepresentation": 0,
      "PixelSpacing": [2.6829268932343, 2.6829268932343],
      "ProtocolName": "func_run-06_task-social_acq-ap-mb8",
      "RepetitionTime": 460.0,
      "Rows": 656,
      "SAR": 0.09912471327466,
      "SamplesPerPixel": 1,
      "ScanOptions": "FS",
      "ScanningSequence": "EP",
      "SequenceName": "epfid2d1_82",
      "SequenceVariant": [
        "SK",
        "SS"
],
      "SeriesDescription": "func_run-06_task-social_acq-ap-mb8",
      "SeriesNumber": 22,
      "SeriesTime": "094024.135000",
      "SliceLocation": -69.793682102893,
      "SliceThickness": 2.7000000476837,
      "SmallestImagePixelValue": 0,
      "SoftwareVersions": "syngo MR E11",
      "SpacingBetweenSlices": 2.6999999490434,
      "SpecificCharacterSet": "ISO_IR 100",
      "StudyID": "6",
      "StudyTime": "081156.337000",
      "TransmitCoilName": "Body",
      "VariableFlipAngleFlag": "N",
      "WindowCenterWidthExplanation": "Algo1"
    },
    "slices": {}
  },
  "time": {
    "samples": {
      "AcquisitionNumber": [1, 2, 3, 4, 5, 6, 7, 8, 9, 10, 11, 12, 13, 14, 15, 16, 17, 18, 19, 20, 21, 22, 23, 24, 25, 26, 27, 28, 29, 30, 31, 32, 33, 34, 35, 36, 37, 38, 39, 40, 41, 42, 43, 44, 45, 46, 47, 48, 49, 50, 51, 52, 53, 54, 55, 56, 57, 58, 59, 60, 61, 62, 63, 64, 65, 66, 67, 68, 69, 70, 71, 72, 73, 74, 75, 76, 77, 78, 79, 80, 81, 82, 83, 84, 85, 86, 87, 88, 89, 90, 91, 92, 93, 94, 95, 96, 97, 98, 99, 100, 101, 102, 103, 104, 105, 106, 107, 108, 109, 110, 111, 112, 113, 114, 115, 116, 117, 118, 119, 120, 121, 122, 123, 124, 125, 126, 127, 128, 129, 130, 131, 132, 133, 134, 135, 136, 137, 138, 139, 140, 141, 142, 143, 144, 145, 146, 147, 148, 149, 150, 151, 152, 153, 154, 155, 156, 157, 158, 159, 160, 161, 162, 163, 164, 165, 166, 167, 168, 169, 170, 171, 172, 173, 174, 175, 176, 177, 178, 179, 180, 181, 182, 183, 184, 185, 186, 187, 188, 189, 190, 191, 192, 193, 194, 195, 196, 197, 198, 199, 200, 201, 202, 203, 204, 205, 206, 207, 208, 209, 210, 211, 212, 213, 214, 215, 216, 217, 218, 219, 220, 221, 222, 223, 224, 225, 226, 227, 228, 229, 230, 231, 232, 233, 234, 235, 236, 237, 238, 239, 240, 241, 242, 243, 244, 245, 246, 247, 248, 249, 250, 251, 252, 253, 254, 255, 256, 257, 258, 259, 260, 261, 262, 263, 264, 265, 266, 267, 268, 269, 270, 271, 272, 273, 274, 275, 276, 277, 278, 279, 280, 281, 282, 283, 284, 285, 286, 287, 288, 289, 290, 291, 292, 293, 294, 295, 296, 297, 298, 299, 300, 301, 302, 303, 304, 305, 306, 307, 308, 309, 310, 311, 312, 313, 314, 315, 316, 317, 318, 319, 320, 321, 322, 323, 324, 325, 326, 327, 328, 329, 330, 331, 332, 333, 334, 335, 336, 337, 338, 339, 340, 341, 342, 343, 344, 345, 346, 347, 348, 349, 350, 351, 352, 353, 354, 355, 356, 357, 358, 359, 360, 361, 362, 363, 364, 365, 366, 367, 368, 369, 370, 371, 372, 373, 374, 375, 376, 377, 378, 379, 380, 381, 382, 383, 384, 385, 386, 387, 388, 389, 390, 391, 392, 393, 394, 395, 396, 397, 398, 399, 400, 401, 402, 403, 404, 405, 406, 407, 408, 409, 410, 411, 412, 413, 414, 415, 416, 417, 418, 419, 420, 421, 422, 423, 424, 425, 426, 427, 428, 429, 430, 431, 432, 433, 434, 435, 436, 437, 438, 439, 440, 441, 442, 443, 444, 445, 446, 447, 448, 449, 450, 451, 452, 453, 454, 455, 456, 457, 458, 459, 460, 461, 462, 463, 464, 465, 466, 467, 468, 469, 470, 471, 472, 473, 474, 475, 476, 477, 478, 479, 480, 481, 482, 483, 484, 485, 486, 487, 488, 489, 490, 491, 492, 493, 494, 495, 496, 497, 498, 499, 500, 501, 502, 503, 504, 505, 506, 507, 508, 509, 510, 511, 512, 513, 514, 515, 516, 517, 518, 519, 520, 521, 522, 523, 524, 525, 526, 527, 528, 529, 530, 531, 532, 533, 534, 535, 536, 537, 538, 539, 540, 541, 542, 543, 544, 545, 546, 547, 548, 549, 550, 551, 552, 553, 554, 555, 556, 557, 558, 559, 560, 561, 562, 563, 564, 565, 566, 567, 568, 569, 570, 571, 572, 573, 574, 575, 576, 577, 578, 579, 580, 581, 582, 583, 584, 585, 586, 587, 588, 589, 590, 591, 592, 593, 594, 595, 596, 597, 598, 599, 600, 601, 602, 603, 604, 605, 606, 607, 608, 609, 610, 611, 612, 613, 614, 615, 616, 617, 618, 619, 620, 621, 622, 623, 624, 625, 626, 627, 628, 629, 630, 631, 632, 633, 634, 635, 636, 637, 638, 639, 640, 641, 642, 643, 644, 645, 646, 647, 648, 649, 650, 651, 652, 653, 654, 655, 656, 657, 658, 659, 660, 661, 662, 663, 664, 665, 666, 667, 668, 669, 670, 671, 672, 673, 674, 675, 676, 677, 678, 679, 680, 681, 682, 683, 684, 685, 686, 687, 688, 689, 690, 691, 692, 693, 694, 695, 696, 697, 698, 699, 700, 701, 702, 703, 704, 705, 706, 707, 708, 709, 710, 711, 712, 713, 714, 715, 716, 717, 718, 719, 720, 721, 722, 723, 724, 725, 726, 727, 728, 729, 730, 731, 732, 733, 734, 735, 736, 737, 738, 739, 740, 741, 742, 743, 744, 745, 746, 747, 748, 749, 750, 751, 752, 753, 754, 755, 756, 757, 758, 759, 760, 761, 762, 763, 764, 765, 766, 767, 768, 769, 770, 771, 772, 773, 774, 775, 776, 777, 778, 779, 780, 781, 782, 783, 784, 785, 786, 787, 788, 789, 790, 791, 792, 793, 794, 795, 796, 797, 798, 799, 800, 801, 802, 803, 804, 805, 806, 807, 808, 809, 810, 811, 812, 813, 814, 815, 816, 817, 818, 819, 820, 821, 822, 823, 824, 825, 826, 827, 828, 829, 830, 831, 832, 833, 834, 835, 836, 837, 838, 839, 840, 841, 842, 843, 844, 845, 846, 847, 848, 849, 850, 851, 852, 853, 854, 855, 856, 857, 858, 859, 860, 861, 862, 863, 864, 865, 866, 867, 868, 869, 870, 871, 872],
      "AcquisitionTime": ["094006.855000", "094007.315000", "094007.775000", "094008.235000", "094008.695000", "094009.155000", "094009.615000", "094010.075000", "094010.535000", "094010.995000", "094011.455000", "094011.915000", "094012.375000", "094012.835000", "094013.295000", "094013.755000", "094014.215000", "094014.675000", "094015.135000", "094015.595000", "094016.055000", "094016.515000", "094016.975000", "094017.435000", "094017.895000", "094018.355000", "094018.815000", "094019.275000", "094019.735000", "094020.195000", "094020.655000", "094021.115000", "094021.575000", "094022.035000", "094022.495000", "094022.955000", "094023.415000", "094023.875000", "094024.335000", "094024.795000", "094025.255000", "094025.715000", "094026.175000", "094026.635000", "094027.095000", "094027.555000", "094028.015000", "094028.475000", "094028.935000", "094029.395000", "094029.855000", "094030.315000", "094030.775000", "094031.235000", "094031.695000", "094032.155000", "094032.615000", "094033.075000", "094033.535000", "094033.995000", "094034.455000", "094034.915000", "094035.375000", "094035.835000", "094036.295000", "094036.755000", "094037.215000", "094037.675000", "094038.135000", "094038.595000", "094039.055000", "094039.515000", "094039.975000", "094040.435000", "094040.895000", "094041.355000", "094041.815000", "094042.275000", "094042.735000", "094043.195000", "094043.655000", "094044.115000", "094044.575000", "094045.035000", "094045.495000", "094045.955000", "094046.415000", "094046.875000", "094047.335000", "094047.795000", "094048.255000", "094048.715000", "094049.175000", "094049.635000", "094050.095000", "094050.555000", "094051.015000", "094051.475000", "094051.935000", "094052.395000", "094052.855000", "094053.315000", "094053.775000", "094054.235000", "094054.695000", "094055.155000", "094055.615000", "094056.075000", "094056.535000", "094056.995000", "094057.455000", "094057.915000", "094058.375000", "094058.835000", "094059.295000", "094059.755000", "094100.215000", "094100.675000", "094101.135000", "094101.595000", "094102.055000", "094102.515000", "094102.975000", "094103.435000", "094103.895000", "094104.355000", "094104.815000", "094105.275000", "094105.735000", "094106.195000", "094106.655000", "094107.115000", "094107.575000", "094108.035000", "094108.495000", "094108.955000", "094109.415000", "094109.875000", "094110.335000", "094110.795000", "094111.255000", "094111.715000", "094112.175000", "094112.635000", "094113.095000", "094113.555000", "094114.015000", "094114.475000", "094114.935000", "094115.395000", "094115.855000", "094116.315000", "094116.775000", "094117.235000", "094117.695000", "094118.155000", "094118.615000", "094119.075000", "094119.535000", "094119.995000", "094120.455000", "094120.915000", "094121.375000", "094121.835000", "094122.295000", "094122.755000", "094123.215000", "094123.675000", "094124.135000", "094124.595000", "094125.055000", "094125.515000", "094125.975000", "094126.435000", "094126.895000", "094127.355000", "094127.815000", "094128.275000", "094128.735000", "094129.195000", "094129.655000", "094130.115000", "094130.575000", "094131.035000", "094131.495000", "094131.955000", "094132.415000", "094132.875000", "094133.335000", "094133.795000", "094134.255000", "094134.715000", "094135.175000", "094135.635000", "094136.095000", "094136.555000", "094137.015000", "094137.475000", "094137.935000", "094138.395000", "094138.855000", "094139.315000", "094139.775000", "094140.235000", "094140.695000", "094141.155000", "094141.615000", "094142.075000", "094142.535000", "094142.995000", "094143.455000", "094143.915000", "094144.375000", "094144.835000", "094145.295000", "094145.755000", "094146.215000", "094146.675000", "094147.135000", "094147.595000", "094148.055000", "094148.515000", "094148.975000", "094149.435000", "094149.895000", "094150.355000", "094150.815000", "094151.275000", "094151.735000", "094152.195000", "094152.655000", "094153.115000", "094153.575000", "094154.035000", "094154.495000", "094154.955000", "094155.415000", "094155.875000", "094156.335000", "094156.795000", "094157.255000", "094157.715000", "094158.175000", "094158.635000", "094159.095000", "094159.555000", "094200.015000", "094200.475000", "094200.935000", "094201.395000", "094201.855000", "094202.315000", "094202.775000", "094203.235000", "094203.695000", "094204.155000", "094204.615000", "094205.075000", "094205.535000", "094205.995000", "094206.455000", "094206.915000", "094207.375000", "094207.835000", "094208.295000", "094208.755000", "094209.215000", "094209.675000", "094210.135000", "094210.595000", "094211.055000", "094211.515000", "094211.975000", "094212.435000", "094212.895000", "094213.355000", "094213.815000", "094214.275000", "094214.735000", "094215.195000", "094215.655000", "094216.115000", "094216.575000", "094217.035000", "094217.495000", "094217.955000", "094218.415000", "094218.875000", "094219.335000", "094219.795000", "094220.255000", "094220.715000", "094221.175000", "094221.635000", "094222.095000", "094222.555000", "094223.015000", "094223.475000", "094223.935000", "094224.395000", "094224.855000", "094225.315000", "094225.775000", "094226.235000", "094226.695000", "094227.155000", "094227.615000", "094228.075000", "094228.535000", "094228.995000", "094229.455000", "094229.915000", "094230.375000", "094230.835000", "094231.295000", "094231.755000", "094232.215000", "094232.675000", "094233.135000", "094233.595000", "094234.055000", "094234.515000", "094234.975000", "094235.435000", "094235.895000", "094236.355000", "094236.815000", "094237.275000", "094237.735000", "094238.195000", "094238.655000", "094239.115000", "094239.575000", "094240.035000", "094240.495000", "094240.955000", "094241.415000", "094241.875000", "094242.335000", "094242.795000", "094243.255000", "094243.715000", "094244.175000", "094244.635000", "094245.095000", "094245.555000", "094246.015000", "094246.475000", "094246.935000", "094247.395000", "094247.855000", "094248.315000", "094248.775000", "094249.235000", "094249.695000", "094250.155000", "094250.615000", "094251.075000", "094251.535000", "094251.995000", "094252.455000", "094252.915000", "094253.375000", "094253.835000", "094254.295000", "094254.755000", "094255.215000", "094255.675000", "094256.135000", "094256.595000", "094257.055000", "094257.515000", "094257.975000", "094258.435000", "094258.895000", "094259.355000", "094259.815000", "094300.275000", "094300.735000", "094301.195000", "094301.655000", "094302.115000", "094302.575000", "094303.035000", "094303.495000", "094303.955000", "094304.415000", "094304.875000", "094305.335000", "094305.795000", "094306.255000", "094306.715000", "094307.175000", "094307.635000", "094308.095000", "094308.555000", "094309.015000", "094309.475000", "094309.935000", "094310.395000", "094310.855000", "094311.315000", "094311.775000", "094312.235000", "094312.695000", "094313.155000", "094313.615000", "094314.075000", "094314.535000", "094314.995000", "094315.455000", "094315.915000", "094316.375000", "094316.835000", "094317.295000", "094317.755000", "094318.215000", "094318.675000", "094319.135000", "094319.595000", "094320.055000", "094320.515000", "094320.975000", "094321.435000", "094321.895000", "094322.355000", "094322.815000", "094323.275000", "094323.735000", "094324.195000", "094324.655000", "094325.115000", "094325.575000", "094326.035000", "094326.495000", "094326.955000", "094327.415000", "094327.875000", "094328.335000", "094328.795000", "094329.255000", "094329.715000", "094330.175000", "094330.635000", "094331.095000", "094331.555000", "094332.015000", "094332.475000", "094332.935000", "094333.395000", "094333.855000", "094334.315000", "094334.775000", "094335.235000", "094335.695000", "094336.155000", "094336.615000", "094337.075000", "094337.535000", "094337.995000", "094338.455000", "094338.915000", "094339.375000", "094339.835000", "094340.295000", "094340.755000", "094341.215000", "094341.675000", "094342.135000", "094342.595000", "094343.055000", "094343.515000", "094343.975000", "094344.435000", "094344.895000", "094345.355000", "094345.815000", "094346.275000", "094346.735000", "094347.195000", "094347.655000", "094348.115000", "094348.575000", "094349.035000", "094349.495000", "094349.955000", "094350.415000", "094350.875000", "094351.335000", "094351.795000", "094352.255000", "094352.715000", "094353.175000", "094353.635000", "094354.095000", "094354.555000", "094355.015000", "094355.475000", "094355.935000", "094356.395000", "094356.855000", "094357.315000", "094357.775000", "094358.235000", "094358.695000", "094359.155000", "094359.615000", "094400.075000", "094400.535000", "094400.995000", "094401.455000", "094401.915000", "094402.375000", "094402.835000", "094403.295000", "094403.755000", "094404.215000", "094404.675000", "094405.135000", "094405.595000", "094406.055000", "094406.515000", "094406.975000", "094407.435000", "094407.895000", "094408.355000", "094408.815000", "094409.275000", "094409.735000", "094410.195000", "094410.655000", "094411.115000", "094411.575000", "094412.035000", "094412.495000", "094412.955000", "094413.415000", "094413.875000", "094414.335000", "094414.795000", "094415.255000", "094415.715000", "094416.175000", "094416.635000", "094417.095000", "094417.555000", "094418.015000", "094418.475000", "094418.935000", "094419.395000", "094419.855000", "094420.315000", "094420.775000", "094421.235000", "094421.695000", "094422.155000", "094422.615000", "094423.075000", "094423.535000", "094423.995000", "094424.455000", "094424.915000", "094425.375000", "094425.835000", "094426.295000", "094426.755000", "094427.215000", "094427.675000", "094428.135000", "094428.595000", "094429.055000", "094429.515000", "094429.975000", "094430.435000", "094430.895000", "094431.355000", "094431.815000", "094432.275000", "094432.735000", "094433.195000", "094433.655000", "094434.115000", "094434.575000", "094435.035000", "094435.495000", "094435.955000", "094436.415000", "094436.875000", "094437.335000", "094437.795000", "094438.255000", "094438.715000", "094439.175000", "094439.635000", "094440.095000", "094440.555000", "094441.015000", "094441.475000", "094441.935000", "094442.395000", "094442.855000", "094443.315000", "094443.775000", "094444.235000", "094444.695000", "094445.155000", "094445.615000", "094446.075000", "094446.535000", "094446.995000", "094447.455000", "094447.915000", "094448.375000", "094448.835000", "094449.295000", "094449.755000", "094450.215000", "094450.675000", "094451.135000", "094451.595000", "094452.055000", "094452.515000", "094452.975000", "094453.435000", "094453.895000", "094454.355000", "094454.815000", "094455.275000", "094455.735000", "094456.195000", "094456.655000", "094457.115000", "094457.575000", "094458.035000", "094458.495000", "094458.955000", "094459.415000", "094459.875000", "094500.335000", "094500.795000", "094501.255000", "094501.715000", "094502.175000", "094502.635000", "094503.095000", "094503.555000", "094504.015000", "094504.475000", "094504.935000", "094505.395000", "094505.855000", "094506.315000", "094506.775000", "094507.235000", "094507.695000", "094508.155000", "094508.615000", "094509.075000", "094509.535000", "094509.995000", "094510.455000", "094510.915000", "094511.375000", "094511.835000", "094512.295000", "094512.755000", "094513.215000", "094513.675000", "094514.135000", "094514.595000", "094515.055000", "094515.515000", "094515.975000", "094516.435000", "094516.895000", "094517.355000", "094517.815000", "094518.275000", "094518.735000", "094519.195000", "094519.655000", "094520.115000", "094520.575000", "094521.035000", "094521.495000", "094521.955000", "094522.415000", "094522.875000", "094523.335000", "094523.795000", "094524.255000", "094524.715000", "094525.175000", "094525.635000", "094526.095000", "094526.555000", "094527.015000", "094527.475000", "094527.935000", "094528.395000", "094528.855000", "094529.315000", "094529.775000", "094530.235000", "094530.695000", "094531.155000", "094531.615000", "094532.075000", "094532.535000", "094532.995000", "094533.455000", "094533.915000", "094534.375000", "094534.835000", "094535.295000", "094535.755000", "094536.215000", "094536.675000", "094537.135000", "094537.595000", "094538.055000", "094538.515000", "094538.975000", "094539.435000", "094539.895000", "094540.355000", "094540.815000", "094541.275000", "094541.735000", "094542.195000", "094542.655000", "094543.115000", "094543.575000", "094544.035000", "094544.495000", "094544.955000", "094545.415000", "094545.875000", "094546.335000", "094546.795000", "094547.255000", "094547.715000", "094548.175000", "094548.635000", "094549.095000", "094549.555000", "094550.015000", "094550.475000", "094550.935000", "094551.395000", "094551.855000", "094552.315000", "094552.775000", "094553.235000", "094553.695000", "094554.155000", "094554.615000", "094555.075000", "094555.535000", "094555.995000", "094556.455000", "094556.915000", "094557.375000", "094557.835000", "094558.295000", "094558.755000", "094559.215000", "094559.675000", "094600.135000", "094600.595000", "094601.055000", "094601.515000", "094601.975000", "094602.435000", "094602.895000", "094603.355000", "094603.815000", "094604.275000", "094604.735000", "094605.195000", "094605.655000", "094606.115000", "094606.575000", "094607.035000", "094607.495000", "094607.955000", "094608.415000", "094608.875000", "094609.335000", "094609.795000", "094610.255000", "094610.715000", "094611.175000", "094611.635000", "094612.095000", "094612.555000", "094613.015000", "094613.475000", "094613.935000", "094614.395000", "094614.855000", "094615.315000", "094615.775000", "094616.235000", "094616.695000", "094617.155000", "094617.615000", "094618.075000", "094618.535000", "094618.995000", "094619.455000", "094619.915000", "094620.375000", "094620.835000", "094621.295000", "094621.755000", "094622.215000", "094622.675000", "094623.135000", "094623.595000", "094624.055000", "094624.515000", "094624.975000", "094625.435000", "094625.895000", "094626.355000", "094626.815000", "094627.275000", "094627.735000", "094628.195000", "094628.655000", "094629.115000", "094629.575000", "094630.035000", "094630.495000", "094630.955000", "094631.415000", "094631.875000", "094632.335000", "094632.795000", "094633.255000", "094633.715000", "094634.175000", "094634.635000", "094635.095000", "094635.555000", "094636.015000", "094636.475000", "094636.935000", "094637.395000", "094637.855000", "094638.315000", "094638.775000", "094639.235000", "094639.695000", "094640.155000", "094640.615000", "094641.075000", "094641.535000", "094641.995000", "094642.455000", "094642.915000", "094643.375000", "094643.835000", "094644.295000", "094644.755000", "094645.215000", "094645.675000", "094646.135000", "094646.595000", "094647.055000", "094647.515000"],
