{
  "AcquisitionMatrixPE": 82,
  "AcquisitionNumber": 1,
  "AcquisitionTime": "09:32:57.505000",
  "BandwidthPerPixelPhaseEncode": 24.888,
  "BaseResolution": 82,
  "BodyPartExamined": "BRAIN",
  "ConsistencyInfo": "N4_VE11E_LATEST_20181129",
  "ConversionSoftware": "dcm2niix",
  "ConversionSoftwareVersion": "v1.0.20201102",
  "DerivedVendorReportedEchoSpacing": 0.00049,
  "DeviceSerialNumber": "66112",
  "DwellTime": 2e-06,
  "EchoTime": 0.0272,
  "EchoTrainLength": 82,
  "EffectiveEchoSpacing": 0.00049,
  "FlipAngle": 44,
  "ImageComments": "Unaliased MB8/PE3",
  "ImageOrientationPatientDICOM": [0.995342, -0.0744283, -0.0612825, 0.0751895, 0.997117, 0.0102076],
  "ImageType": [
    "ORIGINAL",
    "PRIMARY",
    "M",
    "MB",
    "ND",
    "NORM",
    "MOSAIC"
],
  "ImagingFrequency": 123.259,
  "InPlanePhaseEncodingDirectionDICOM": "COL",
  "InstitutionAddress": "Maynard 3,Hanover,NH,US,03755",
  "InstitutionName": "Dartmouth College - PBS",
  "InstitutionalDepartmentName": "Department",
  "MRAcquisitionType": "2D",
  "MagneticFieldStrength": 3,
  "Manufacturer": "Siemens",
  "ManufacturersModelName": "Prisma",
  "Modality": "MR",
  "MultibandAccelerationFactor": 8,
  "PartialFourier": 1,
  "PatientPosition": "HFS",
  "PercentPhaseFOV": 100,
  "PercentSampling": 100,
  "PhaseEncodingDirection": "j-",
  "PhaseEncodingSteps": 82,
  "PhaseResolution": 1,
  "PixelBandwidth": 3050,
  "ProcedureStepDescription": "Wager_Wager^1076_spacetop",
  "ProtocolName": "func_run-05_task-social_acq-ap-mb8",
  "PulseSequenceDetails": "%CustomerSeq%\\cmrr_mbep2d_bold",
  "ReceiveCoilActiveElements": "HEA;HEP",
  "ReceiveCoilName": "Head_32",
  "ReconMatrixPE": 82,
  "RepetitionTime": 0.46,
  "SAR": 0.0991247,
  "ScanOptions": "FS",
  "ScanningSequence": "EP",
  "SequenceName": "epfid2d1_82",
  "SequenceVariant": "SK\\SS",
  "SeriesDescription": "func_run-05_task-social_acq-ap-mb8",
  "SeriesNumber": 20,
  "ShimSetting": [4223, -7803, -7269, 252, -111, -25, -91, 105],
  "SliceThickness": 2.7,
  "SliceTiming": [0, 0.25, 0.0625, 0.3125, 0.125, 0.3775, 0.1875, 0, 0.25, 0.0625, 0.3125, 0.125, 0.3775, 0.1875, 0, 0.25, 0.0625, 0.3125, 0.125, 0.3775, 0.1875, 0, 0.25, 0.0625, 0.3125, 0.125, 0.3775, 0.1875, 0, 0.25, 0.0625, 0.3125, 0.125, 0.3775, 0.1875, 0, 0.25, 0.0625, 0.3125, 0.125, 0.3775, 0.1875, 0, 0.25, 0.0625, 0.3125, 0.125, 0.3775, 0.1875, 0, 0.25, 0.0625, 0.3125, 0.125, 0.3775, 0.1875],
  "SoftwareVersions": "syngo MR E11",
  "SpacingBetweenSlices": 2.7,
  "StationName": "AWP66112",
  "TaskName": "social",
  "TotalReadoutTime": 0.03969,
  "TxRefAmp": 254.304,
  "WipMemBlock": "87ab1cd1-89f1-46cc-b6f2-48d071b0a77c||Sequence: R016 ve11e/master r/434b28f1; Aug  7 2019 18:53:46 by eja",
  "dcmmeta_affine": [
    [-2.67042875289917, 0.2017280012369156, -0.1629343181848526, 108.34385681152344],
    [0.19968564808368683, 2.67519211769104, 0.03987326845526695, -103.94312286376953],
    [-0.1644163578748703, -0.02738632634282112, 2.694784164428711, -61.839996337890625],
    [0.0, 0.0, 0.0, 1.0]
],
  "dcmmeta_reorient_transform": [
    [0.0, -1.0, 0.0, 81.0],
    [1.0, 0.0, 0.0, 0.0],
    [0.0, 0.0, 1.0, 0.0],
    [0.0, 0.0, 0.0, 1.0]
],
  "dcmmeta_shape": [82, 82, 56, 872],
  "dcmmeta_slice_dim": 2,
  "dcmmeta_version": 0.6,
  "global": {
    "const": {
      "AccessionNumber": "A004379",
      "AcquisitionMatrix": [82, 0, 0, 82],
      "AngioFlag": "N",
      "BitsAllocated": 16,
      "BitsStored": 16,
      "BodyPartExamined": "BRAIN",
      "Columns": 656,
      "EchoNumbers": 1,
      "EchoTime": 27.2,
      "EchoTrainLength": 82,
      "FlipAngle": 44.0,
      "HighBit": 15,
      "ImageOrientationPatient": [0.99534159485173, -0.0744282876847, -0.0612824571174, 0.07518952391379, 0.99711701408427, 0.01020763034637],
      "ImagePositionPatient": [-948.99280818508, -823.21776942785, -24.730672671193],
      "ImageType": [
        "ORIGINAL",
        "PRIMARY",
        "M",
        "MB",
        "ND",
        "NORM",
        "MOSAIC"
],
      "ImagedNucleus": "1H",
      "ImagingFrequency": 123.259152,
      "InPlanePhaseEncodingDirection": "COL",
      "MRAcquisitionType": "2D",
      "MagneticFieldStrength": 3.0,
      "Manufacturer": "SIEMENS",
      "ManufacturerModelName": "Prisma",
      "Modality": "MR",
      "NumberOfAverages": 1.0,
      "NumberOfPhaseEncodingSteps": 82,
      "PercentPhaseFieldOfView": 100.0,
      "PercentSampling": 100.0,
      "PerformedProcedureStepStartTime": "081156.399000",
      "PhotometricInterpretation": "MONOCHROME2",
      "PixelBandwidth": 3050.0,
      "PixelRepresentation": 0,
      "PixelSpacing": [2.6829268932343, 2.6829268932343],
      "ProtocolName": "func_run-05_task-social_acq-ap-mb8",
      "RepetitionTime": 460.0,
      "Rows": 656,
      "SAR": 0.09912471327466,
      "SamplesPerPixel": 1,
      "ScanOptions": "FS",
      "ScanningSequence": "EP",
      "SequenceName": "epfid2d1_82",
      "SequenceVariant": [
        "SK",
        "SS"
],
      "SeriesDescription": "func_run-05_task-social_acq-ap-mb8",
      "SeriesNumber": 20,
      "SeriesTime": "093324.031000",
      "SliceLocation": -69.793682102893,
      "SliceThickness": 2.7000000476837,
      "SmallestImagePixelValue": 0,
      "SoftwareVersions": "syngo MR E11",
      "SpacingBetweenSlices": 2.6999999490434,
      "SpecificCharacterSet": "ISO_IR 100",
      "StudyID": "6",
      "StudyTime": "081156.337000",
      "TransmitCoilName": "Body",
      "VariableFlipAngleFlag": "N",
      "WindowCenterWidthExplanation": "Algo1"
    },
    "slices": {}
  },
  "time": {
    "samples": {
      "AcquisitionNumber": [1, 2, 3, 4, 5, 6, 7, 8, 9, 10, 11, 12, 13, 14, 15, 16, 17, 18, 19, 20, 21, 22, 23, 24, 25, 26, 27, 28, 29, 30, 31, 32, 33, 34, 35, 36, 37, 38, 39, 40, 41, 42, 43, 44, 45, 46, 47, 48, 49, 50, 51, 52, 53, 54, 55, 56, 57, 58, 59, 60, 61, 62, 63, 64, 65, 66, 67, 68, 69, 70, 71, 72, 73, 74, 75, 76, 77, 78, 79, 80, 81, 82, 83, 84, 85, 86, 87, 88, 89, 90, 91, 92, 93, 94, 95, 96, 97, 98, 99, 100, 101, 102, 103, 104, 105, 106, 107, 108, 109, 110, 111, 112, 113, 114, 115, 116, 117, 118, 119, 120, 121, 122, 123, 124, 125, 126, 127, 128, 129, 130, 131, 132, 133, 134, 135, 136, 137, 138, 139, 140, 141, 142, 143, 144, 145, 146, 147, 148, 149, 150, 151, 152, 153, 154, 155, 156, 157, 158, 159, 160, 161, 162, 163, 164, 165, 166, 167, 168, 169, 170, 171, 172, 173, 174, 175, 176, 177, 178, 179, 180, 181, 182, 183, 184, 185, 186, 187, 188, 189, 190, 191, 192, 193, 194, 195, 196, 197, 198, 199, 200, 201, 202, 203, 204, 205, 206, 207, 208, 209, 210, 211, 212, 213, 214, 215, 216, 217, 218, 219, 220, 221, 222, 223, 224, 225, 226, 227, 228, 229, 230, 231, 232, 233, 234, 235, 236, 237, 238, 239, 240, 241, 242, 243, 244, 245, 246, 247, 248, 249, 250, 251, 252, 253, 254, 255, 256, 257, 258, 259, 260, 261, 262, 263, 264, 265, 266, 267, 268, 269, 270, 271, 272, 273, 274, 275, 276, 277, 278, 279, 280, 281, 282, 283, 284, 285, 286, 287, 288, 289, 290, 291, 292, 293, 294, 295, 296, 297, 298, 299, 300, 301, 302, 303, 304, 305, 306, 307, 308, 309, 310, 311, 312, 313, 314, 315, 316, 317, 318, 319, 320, 321, 322, 323, 324, 325, 326, 327, 328, 329, 330, 331, 332, 333, 334, 335, 336, 337, 338, 339, 340, 341, 342, 343, 344, 345, 346, 347, 348, 349, 350, 351, 352, 353, 354, 355, 356, 357, 358, 359, 360, 361, 362, 363, 364, 365, 366, 367, 368, 369, 370, 371, 372, 373, 374, 375, 376, 377, 378, 379, 380, 381, 382, 383, 384, 385, 386, 387, 388, 389, 390, 391, 392, 393, 394, 395, 396, 397, 398, 399, 400, 401, 402, 403, 404, 405, 406, 407, 408, 409, 410, 411, 412, 413, 414, 415, 416, 417, 418, 419, 420, 421, 422, 423, 424, 425, 426, 427, 428, 429, 430, 431, 432, 433, 434, 435, 436, 437, 438, 439, 440, 441, 442, 443, 444, 445, 446, 447, 448, 449, 450, 451, 452, 453, 454, 455, 456, 457, 458, 459, 460, 461, 462, 463, 464, 465, 466, 467, 468, 469, 470, 471, 472, 473, 474, 475, 476, 477, 478, 479, 480, 481, 482, 483, 484, 485, 486, 487, 488, 489, 490, 491, 492, 493, 494, 495, 496, 497, 498, 499, 500, 501, 502, 503, 504, 505, 506, 507, 508, 509, 510, 511, 512, 513, 514, 515, 516, 517, 518, 519, 520, 521, 522, 523, 524, 525, 526, 527, 528, 529, 530, 531, 532, 533, 534, 535, 536, 537, 538, 539, 540, 541, 542, 543, 544, 545, 546, 547, 548, 549, 550, 551, 552, 553, 554, 555, 556, 557, 558, 559, 560, 561, 562, 563, 564, 565, 566, 567, 568, 569, 570, 571, 572, 573, 574, 575, 576, 577, 578, 579, 580, 581, 582, 583, 584, 585, 586, 587, 588, 589, 590, 591, 592, 593, 594, 595, 596, 597, 598, 599, 600, 601, 602, 603, 604, 605, 606, 607, 608, 609, 610, 611, 612, 613, 614, 615, 616, 617, 618, 619, 620, 621, 622, 623, 624, 625, 626, 627, 628, 629, 630, 631, 632, 633, 634, 635, 636, 637, 638, 639, 640, 641, 642, 643, 644, 645, 646, 647, 648, 649, 650, 651, 652, 653, 654, 655, 656, 657, 658, 659, 660, 661, 662, 663, 664, 665, 666, 667, 668, 669, 670, 671, 672, 673, 674, 675, 676, 677, 678, 679, 680, 681, 682, 683, 684, 685, 686, 687, 688, 689, 690, 691, 692, 693, 694, 695, 696, 697, 698, 699, 700, 701, 702, 703, 704, 705, 706, 707, 708, 709, 710, 711, 712, 713, 714, 715, 716, 717, 718, 719, 720, 721, 722, 723, 724, 725, 726, 727, 728, 729, 730, 731, 732, 733, 734, 735, 736, 737, 738, 739, 740, 741, 742, 743, 744, 745, 746, 747, 748, 749, 750, 751, 752, 753, 754, 755, 756, 757, 758, 759, 760, 761, 762, 763, 764, 765, 766, 767, 768, 769, 770, 771, 772, 773, 774, 775, 776, 777, 778, 779, 780, 781, 782, 783, 784, 785, 786, 787, 788, 789, 790, 791, 792, 793, 794, 795, 796, 797, 798, 799, 800, 801, 802, 803, 804, 805, 806, 807, 808, 809, 810, 811, 812, 813, 814, 815, 816, 817, 818, 819, 820, 821, 822, 823, 824, 825, 826, 827, 828, 829, 830, 831, 832, 833, 834, 835, 836, 837, 838, 839, 840, 841, 842, 843, 844, 845, 846, 847, 848, 849, 850, 851, 852, 853, 854, 855, 856, 857, 858, 859, 860, 861, 862, 863, 864, 865, 866, 867, 868, 869, 870, 871, 872],
      "AcquisitionTime": ["093257.505000", "093257.965000", "093258.425000", "093258.885000", "093259.345000", "093259.805000", "093300.265000", "093300.725000", "093301.185000", "093301.645000", "093302.105000", "093302.565000", "093303.025000", "093303.485000", "093303.945000", "093304.405000", "093304.865000", "093305.325000", "093305.785000", "093306.245000", "093306.705000", "093307.165000", "093307.625000", "093308.085000", "093308.545000", "093309.005000", "093309.465000", "093309.925000", "093310.385000", "093310.845000", "093311.305000", "093311.765000", "093312.225000", "093312.685000", "093313.145000", "093313.605000", "093314.065000", "093314.525000", "093314.985000", "093315.445000", "093315.905000", "093316.365000", "093316.825000", "093317.285000", "093317.745000", "093318.205000", "093318.665000", "093319.125000", "093319.585000", "093320.045000", "093320.505000", "093320.965000", "093321.425000", "093321.885000", "093322.345000", "093322.805000", "093323.265000", "093323.725000", "093324.185000", "093324.645000", "093325.105000", "093325.565000", "093326.025000", "093326.485000", "093326.945000", "093327.405000", "093327.865000", "093328.325000", "093328.785000", "093329.245000", "093329.705000", "093330.165000", "093330.625000", "093331.085000", "093331.545000", "093332.005000", "093332.465000", "093332.925000", "093333.385000", "093333.845000", "093334.305000", "093334.765000", "093335.225000", "093335.685000", "093336.145000", "093336.605000", "093337.065000", "093337.525000", "093337.985000", "093338.445000", "093338.905000", "093339.365000", "093339.825000", "093340.285000", "093340.745000", "093341.205000", "093341.665000", "093342.125000", "093342.585000", "093343.045000", "093343.505000", "093343.965000", "093344.425000", "093344.885000", "093345.345000", "093345.805000", "093346.265000", "093346.725000", "093347.185000", "093347.645000", "093348.105000", "093348.565000", "093349.025000", "093349.485000", "093349.945000", "093350.405000", "093350.865000", "093351.325000", "093351.785000", "093352.245000", "093352.705000", "093353.165000", "093353.625000", "093354.085000", "093354.545000", "093355.005000", "093355.465000", "093355.925000", "093356.385000", "093356.845000", "093357.305000", "093357.765000", "093358.225000", "093358.685000", "093359.145000", "093359.605000", "093400.065000", "093400.525000", "093400.985000", "093401.445000", "093401.905000", "093402.365000", "093402.825000", "093403.285000", "093403.745000", "093404.205000", "093404.665000", "093405.125000", "093405.585000", "093406.045000", "093406.505000", "093406.965000", "093407.425000", "093407.885000", "093408.345000", "093408.805000", "093409.265000", "093409.725000", "093410.185000", "093410.645000", "093411.105000", "093411.565000", "093412.025000", "093412.485000", "093412.945000", "093413.405000", "093413.865000", "093414.325000", "093414.785000", "093415.245000", "093415.705000", "093416.165000", "093416.625000", "093417.085000", "093417.545000", "093418.005000", "093418.465000", "093418.925000", "093419.385000", "093419.845000", "093420.305000", "093420.765000", "093421.225000", "093421.685000", "093422.145000", "093422.605000", "093423.065000", "093423.525000", "093423.985000", "093424.445000", "093424.905000", "093425.365000", "093425.825000", "093426.285000", "093426.745000", "093427.205000", "093427.665000", "093428.125000", "093428.585000", "093429.045000", "093429.505000", "093429.965000", "093430.425000", "093430.885000", "093431.345000", "093431.805000", "093432.265000", "093432.725000", "093433.185000", "093433.645000", "093434.105000", "093434.565000", "093435.025000", "093435.485000", "093435.945000", "093436.405000", "093436.865000", "093437.325000", "093437.785000", "093438.245000", "093438.705000", "093439.165000", "093439.625000", "093440.085000", "093440.545000", "093441.005000", "093441.465000", "093441.925000", "093442.385000", "093442.845000", "093443.305000", "093443.765000", "093444.225000", "093444.685000", "093445.145000", "093445.605000", "093446.065000", "093446.525000", "093446.985000", "093447.445000", "093447.905000", "093448.365000", "093448.825000", "093449.285000", "093449.745000", "093450.205000", "093450.665000", "093451.125000", "093451.585000", "093452.045000", "093452.505000", "093452.965000", "093453.425000", "093453.885000", "093454.345000", "093454.805000", "093455.265000", "093455.725000", "093456.185000", "093456.645000", "093457.105000", "093457.565000", "093458.025000", "093458.485000", "093458.945000", "093459.405000", "093459.865000", "093500.325000", "093500.785000", "093501.245000", "093501.705000", "093502.165000", "093502.625000", "093503.085000", "093503.545000", "093504.005000", "093504.465000", "093504.925000", "093505.385000", "093505.845000", "093506.305000", "093506.765000", "093507.225000", "093507.685000", "093508.145000", "093508.605000", "093509.065000", "093509.525000", "093509.985000", "093510.445000", "093510.905000", "093511.365000", "093511.825000", "093512.285000", "093512.745000", "093513.205000", "093513.665000", "093514.125000", "093514.585000", "093515.045000", "093515.505000", "093515.965000", "093516.425000", "093516.885000", "093517.345000", "093517.805000", "093518.265000", "093518.725000", "093519.185000", "093519.645000", "093520.105000", "093520.565000", "093521.025000", "093521.485000", "093521.945000", "093522.405000", "093522.865000", "093523.325000", "093523.785000", "093524.245000", "093524.705000", "093525.165000", "093525.625000", "093526.085000", "093526.545000", "093527.005000", "093527.465000", "093527.925000", "093528.385000", "093528.845000", "093529.305000", "093529.765000", "093530.225000", "093530.685000", "093531.145000", "093531.605000", "093532.065000", "093532.525000", "093532.985000", "093533.445000", "093533.905000", "093534.365000", "093534.825000", "093535.285000", "093535.745000", "093536.205000", "093536.665000", "093537.125000", "093537.585000", "093538.045000", "093538.505000", "093538.965000", "093539.425000", "093539.885000", "093540.345000", "093540.805000", "093541.265000", "093541.725000", "093542.185000", "093542.645000", "093543.105000", "093543.565000", "093544.025000", "093544.485000", "093544.945000", "093545.405000", "093545.865000", "093546.325000", "093546.785000", "093547.245000", "093547.705000", "093548.165000", "093548.625000", "093549.085000", "093549.545000", "093550.005000", "093550.465000", "093550.925000", "093551.385000", "093551.845000", "093552.305000", "093552.765000", "093553.225000", "093553.685000", "093554.145000", "093554.605000", "093555.065000", "093555.525000", "093555.985000", "093556.445000", "093556.905000", "093557.365000", "093557.825000", "093558.285000", "093558.745000", "093559.205000", "093559.665000", "093600.125000", "093600.585000", "093601.045000", "093601.505000", "093601.965000", "093602.425000", "093602.885000", "093603.345000", "093603.805000", "093604.265000", "093604.725000", "093605.185000", "093605.645000", "093606.105000", "093606.565000", "093607.025000", "093607.485000", "093607.945000", "093608.405000", "093608.865000", "093609.325000", "093609.785000", "093610.245000", "093610.705000", "093611.165000", "093611.625000", "093612.085000", "093612.545000", "093613.005000", "093613.465000", "093613.925000", "093614.385000", "093614.845000", "093615.305000", "093615.765000", "093616.225000", "093616.685000", "093617.145000", "093617.605000", "093618.065000", "093618.525000", "093618.985000", "093619.445000", "093619.905000", "093620.365000", "093620.825000", "093621.285000", "093621.745000", "093622.205000", "093622.665000", "093623.125000", "093623.585000", "093624.045000", "093624.505000", "093624.965000", "093625.425000", "093625.885000", "093626.345000", "093626.805000", "093627.265000", "093627.725000", "093628.185000", "093628.645000", "093629.105000", "093629.565000", "093630.025000", "093630.485000", "093630.945000", "093631.405000", "093631.865000", "093632.325000", "093632.785000", "093633.245000", "093633.705000", "093634.165000", "093634.625000", "093635.085000", "093635.545000", "093636.005000", "093636.465000", "093636.925000", "093637.385000", "093637.845000", "093638.305000", "093638.765000", "093639.225000", "093639.685000", "093640.145000", "093640.605000", "093641.065000", "093641.525000", "093641.985000", "093642.445000", "093642.905000", "093643.365000", "093643.825000", "093644.285000", "093644.745000", "093645.205000", "093645.665000", "093646.125000", "093646.585000", "093647.045000", "093647.505000", "093647.965000", "093648.425000", "093648.885000", "093649.345000", "093649.805000", "093650.265000", "093650.725000", "093651.185000", "093651.645000", "093652.105000", "093652.565000", "093653.025000", "093653.485000", "093653.945000", "093654.405000", "093654.865000", "093655.325000", "093655.785000", "093656.245000", "093656.705000", "093657.165000", "093657.625000", "093658.085000", "093658.545000", "093659.005000", "093659.465000", "093659.925000", "093700.385000", "093700.845000", "093701.305000", "093701.765000", "093702.225000", "093702.685000", "093703.145000", "093703.605000", "093704.065000", "093704.525000", "093704.985000", "093705.445000", "093705.905000", "093706.365000", "093706.825000", "093707.285000", "093707.745000", "093708.205000", "093708.665000", "093709.125000", "093709.585000", "093710.045000", "093710.505000", "093710.965000", "093711.425000", "093711.885000", "093712.345000", "093712.805000", "093713.265000", "093713.725000", "093714.185000", "093714.645000", "093715.105000", "093715.565000", "093716.025000", "093716.485000", "093716.945000", "093717.405000", "093717.865000", "093718.325000", "093718.785000", "093719.245000", "093719.705000", "093720.165000", "093720.625000", "093721.085000", "093721.545000", "093722.005000", "093722.465000", "093722.925000", "093723.385000", "093723.845000", "093724.305000", "093724.765000", "093725.225000", "093725.685000", "093726.145000", "093726.605000", "093727.065000", "093727.525000", "093727.985000", "093728.445000", "093728.905000", "093729.365000", "093729.825000", "093730.285000", "093730.745000", "093731.205000", "093731.665000", "093732.125000", "093732.585000", "093733.045000", "093733.505000", "093733.965000", "093734.425000", "093734.885000", "093735.345000", "093735.805000", "093736.265000", "093736.725000", "093737.185000", "093737.645000", "093738.105000", "093738.565000", "093739.025000", "093739.485000", "093739.945000", "093740.405000", "093740.865000", "093741.325000", "093741.785000", "093742.245000", "093742.705000", "093743.165000", "093743.625000", "093744.085000", "093744.545000", "093745.005000", "093745.465000", "093745.925000", "093746.385000", "093746.845000", "093747.305000", "093747.765000", "093748.225000", "093748.685000", "093749.145000", "093749.605000", "093750.065000", "093750.525000", "093750.985000", "093751.445000", "093751.905000", "093752.365000", "093752.825000", "093753.285000", "093753.745000", "093754.205000", "093754.665000", "093755.125000", "093755.585000", "093756.045000", "093756.505000", "093756.965000", "093757.425000", "093757.885000", "093758.345000", "093758.805000", "093759.265000", "093759.725000", "093800.185000", "093800.645000", "093801.105000", "093801.565000", "093802.025000", "093802.485000", "093802.945000", "093803.405000", "093803.865000", "093804.325000", "093804.785000", "093805.245000", "093805.705000", "093806.165000", "093806.625000", "093807.085000", "093807.545000", "093808.005000", "093808.465000", "093808.925000", "093809.385000", "093809.845000", "093810.305000", "093810.765000", "093811.225000", "093811.685000", "093812.145000", "093812.605000", "093813.065000", "093813.525000", "093813.985000", "093814.445000", "093814.905000", "093815.365000", "093815.825000", "093816.285000", "093816.745000", "093817.205000", "093817.665000", "093818.125000", "093818.585000", "093819.045000", "093819.505000", "093819.965000", "093820.425000", "093820.885000", "093821.345000", "093821.805000", "093822.265000", "093822.725000", "093823.185000", "093823.645000", "093824.105000", "093824.565000", "093825.025000", "093825.485000", "093825.945000", "093826.405000", "093826.865000", "093827.325000", "093827.785000", "093828.245000", "093828.705000", "093829.165000", "093829.625000", "093830.085000", "093830.545000", "093831.005000", "093831.465000", "093831.925000", "093832.385000", "093832.845000", "093833.305000", "093833.765000", "093834.225000", "093834.685000", "093835.145000", "093835.605000", "093836.065000", "093836.525000", "093836.985000", "093837.445000", "093837.905000", "093838.365000", "093838.825000", "093839.285000", "093839.745000", "093840.205000", "093840.665000", "093841.125000", "093841.585000", "093842.045000", "093842.505000", "093842.965000", "093843.425000", "093843.885000", "093844.345000", "093844.805000", "093845.265000", "093845.725000", "093846.185000", "093846.645000", "093847.105000", "093847.565000", "093848.025000", "093848.485000", "093848.945000", "093849.405000", "093849.865000", "093850.325000", "093850.785000", "093851.245000", "093851.705000", "093852.165000", "093852.625000", "093853.085000", "093853.545000", "093854.005000", "093854.465000", "093854.925000", "093855.385000", "093855.845000", "093856.305000", "093856.765000", "093857.225000", "093857.685000", "093858.145000", "093858.605000", "093859.065000", "093859.525000", "093859.985000", "093900.445000", "093900.905000", "093901.365000", "093901.825000", "093902.285000", "093902.745000", "093903.205000", "093903.665000", "093904.125000", "093904.585000", "093905.045000", "093905.505000", "093905.965000", "093906.425000", "093906.885000", "093907.345000", "093907.805000", "093908.265000", "093908.725000", "093909.185000", "093909.645000", "093910.105000", "093910.565000", "093911.025000", "093911.485000", "093911.945000", "093912.405000", "093912.865000", "093913.325000", "093913.785000", "093914.245000", "093914.705000", "093915.165000", "093915.625000", "093916.085000", "093916.545000", "093917.005000", "093917.465000", "093917.925000", "093918.385000", "093918.845000", "093919.305000", "093919.765000", "093920.225000", "093920.685000", "093921.145000", "093921.605000", "093922.065000", "093922.525000", "093922.985000", "093923.445000", "093923.905000", "093924.365000", "093924.825000", "093925.285000", "093925.745000", "093926.205000", "093926.665000", "093927.125000", "093927.585000", "093928.045000", "093928.505000", "093928.965000", "093929.425000", "093929.885000", "093930.345000", "093930.805000", "093931.265000", "093931.725000", "093932.185000", "093932.645000", "093933.105000", "093933.565000", "093934.025000", "093934.485000", "093934.945000", "093935.405000", "093935.865000", "093936.325000", "093936.785000", "093937.245000", "093937.705000", "093938.165000"],
