{
  "AcquisitionMatrixPE": 82,
  "AcquisitionNumber": 1,
  "AcquisitionTime": "09:03:18.782500",
  "BandwidthPerPixelPhaseEncode": 24.888,
  "BaseResolution": 82,
  "BodyPartExamined": "BRAIN",
  "ConsistencyInfo": "N4_VE11E_LATEST_20181129",
  "ConversionSoftware": "dcm2niix",
  "ConversionSoftwareVersion": "v1.0.20201102",
  "DerivedVendorReportedEchoSpacing": 0.00049,
  "DeviceSerialNumber": "66112",
  "DwellTime": 2e-06,
  "EchoTime": 0.0272,
  "EchoTrainLength": 82,
  "EffectiveEchoSpacing": 0.00049,
  "FlipAngle": 44,
  "ImageComments": "Unaliased MB8/PE3",
  "ImageOrientationPatientDICOM": [0.995342, -0.0744283, -0.0612825, 0.0751895, 0.997117, 0.0102076],
  "ImageType": [
    "ORIGINAL",
    "PRIMARY",
    "M",
    "MB",
    "ND",
    "NORM",
    "MOSAIC"
],
  "ImagingFrequency": 123.259,
  "InPlanePhaseEncodingDirectionDICOM": "COL",
  "InstitutionAddress": "Maynard 3,Hanover,NH,US,03755",
  "InstitutionName": "Dartmouth College - PBS",
  "InstitutionalDepartmentName": "Department",
  "MRAcquisitionType": "2D",
  "MagneticFieldStrength": 3,
  "Manufacturer": "Siemens",
  "ManufacturersModelName": "Prisma",
  "Modality": "MR",
  "MultibandAccelerationFactor": 8,
  "PartialFourier": 1,
  "PatientPosition": "HFS",
  "PercentPhaseFOV": 100,
  "PercentSampling": 100,
  "PhaseEncodingDirection": "j-",
  "PhaseEncodingSteps": 82,
  "PhaseResolution": 1,
  "PixelBandwidth": 3050,
  "ProcedureStepDescription": "Wager_Wager^1076_spacetop",
  "ProtocolName": "func_run-01_task-social_acq-ap-mb8",
  "PulseSequenceDetails": "%CustomerSeq%\\cmrr_mbep2d_bold",
  "ReceiveCoilActiveElements": "HEA;HEP",
  "ReceiveCoilName": "Head_32",
  "ReconMatrixPE": 82,
  "RepetitionTime": 0.46,
  "SAR": 0.0991247,
  "ScanOptions": "FS",
  "ScanningSequence": "EP",
  "SequenceName": "epfid2d1_82",
  "SequenceVariant": "SK\\SS",
  "SeriesDescription": "func_run-01_task-social_acq-ap-mb8",
  "SeriesNumber": 12,
  "ShimSetting": [4223, -7803, -7269, 252, -111, -25, -91, 105],
  "SliceThickness": 2.7,
  "SliceTiming": [0, 0.2525, 0.065, 0.315, 0.1275, 0.3775, 0.19, 0, 0.2525, 0.065, 0.315, 0.1275, 0.3775, 0.19, 0, 0.2525, 0.065, 0.315, 0.1275, 0.3775, 0.19, 0, 0.2525, 0.065, 0.315, 0.1275, 0.3775, 0.19, 0, 0.2525, 0.065, 0.315, 0.1275, 0.3775, 0.19, 0, 0.2525, 0.065, 0.315, 0.1275, 0.3775, 0.19, 0, 0.2525, 0.065, 0.315, 0.1275, 0.3775, 0.19, 0, 0.2525, 0.065, 0.315, 0.1275, 0.3775, 0.19],
  "SoftwareVersions": "syngo MR E11",
  "SpacingBetweenSlices": 2.7,
  "StationName": "AWP66112",
  "TaskName": "social",
  "TotalReadoutTime": 0.03969,
  "TxRefAmp": 254.304,
  "WipMemBlock": "6b2ab2df-6f28-47a7-968c-ac283962a38c||Sequence: R016 ve11e/master r/434b28f1; Aug  7 2019 18:53:46 by eja",
  "dcmmeta_affine": [
    [-2.67042875289917, 0.2017280012369156, -0.1629343181848526, 108.34385681152344],
    [0.19968564808368683, 2.67519211769104, 0.03987326845526695, -103.94312286376953],
    [-0.1644163578748703, -0.02738632634282112, 2.694784164428711, -61.839996337890625],
    [0.0, 0.0, 0.0, 1.0]
],
  "dcmmeta_reorient_transform": [
    [0.0, -1.0, 0.0, 81.0],
    [1.0, 0.0, 0.0, 0.0],
    [0.0, 0.0, 1.0, 0.0],
    [0.0, 0.0, 0.0, 1.0]
],
  "dcmmeta_shape": [82, 82, 56, 872],
  "dcmmeta_slice_dim": 2,
  "dcmmeta_version": 0.6,
  "global": {
    "const": {
      "AccessionNumber": "A004379",
      "AcquisitionMatrix": [82, 0, 0, 82],
      "AngioFlag": "N",
      "BitsAllocated": 16,
      "BitsStored": 16,
      "BodyPartExamined": "BRAIN",
      "Columns": 656,
      "EchoNumbers": 1,
      "EchoTime": 27.2,
      "EchoTrainLength": 82,
      "FlipAngle": 44.0,
      "HighBit": 15,
      "ImageOrientationPatient": [0.99534159485173, -0.0744282876847, -0.0612824571174, 0.07518952391379, 0.99711701408427, 0.01020763034637],
      "ImagePositionPatient": [-948.99280818508, -823.21776942785, -24.730672671193],
      "ImageType": [
        "ORIGINAL",
        "PRIMARY",
        "M",
        "MB",
        "ND",
        "NORM",
        "MOSAIC"
],
      "ImagedNucleus": "1H",
      "ImagingFrequency": 123.259123,
      "InPlanePhaseEncodingDirection": "COL",
      "MRAcquisitionType": "2D",
      "MagneticFieldStrength": 3.0,
      "Manufacturer": "SIEMENS",
      "ManufacturerModelName": "Prisma",
      "Modality": "MR",
      "NumberOfAverages": 1.0,
      "NumberOfPhaseEncodingSteps": 82,
      "PercentPhaseFieldOfView": 100.0,
      "PercentSampling": 100.0,
      "PerformedProcedureStepStartTime": "081156.399000",
      "PhotometricInterpretation": "MONOCHROME2",
      "PixelBandwidth": 3050.0,
      "PixelRepresentation": 0,
      "PixelSpacing": [2.6829268932343, 2.6829268932343],
      "ProtocolName": "func_run-01_task-social_acq-ap-mb8",
      "RepetitionTime": 460.0,
      "Rows": 656,
      "SAR": 0.09912471327466,
      "SamplesPerPixel": 1,
      "ScanOptions": "FS",
      "ScanningSequence": "EP",
      "SequenceName": "epfid2d1_82",
      "SequenceVariant": [
        "SK",
        "SS"
],
      "SeriesDescription": "func_run-01_task-social_acq-ap-mb8",
      "SeriesNumber": 12,
      "SeriesTime": "090343.936000",
      "SliceLocation": -69.793682102893,
      "SliceThickness": 2.7000000476837,
      "SmallestImagePixelValue": 0,
      "SoftwareVersions": "syngo MR E11",
      "SpacingBetweenSlices": 2.6999999490434,
      "SpecificCharacterSet": "ISO_IR 100",
      "StudyID": "6",
      "StudyTime": "081156.337000",
      "TransmitCoilName": "Body",
      "VariableFlipAngleFlag": "N",
      "WindowCenterWidthExplanation": "Algo1"
    },
    "slices": {}
  },
  "time": {
    "samples": {
      "AcquisitionNumber": [1, 2, 3, 4, 5, 6, 7, 8, 9, 10, 11, 12, 13, 14, 15, 16, 17, 18, 19, 20, 21, 22, 23, 24, 25, 26, 27, 28, 29, 30, 31, 32, 33, 34, 35, 36, 37, 38, 39, 40, 41, 42, 43, 44, 45, 46, 47, 48, 49, 50, 51, 52, 53, 54, 55, 56, 57, 58, 59, 60, 61, 62, 63, 64, 65, 66, 67, 68, 69, 70, 71, 72, 73, 74, 75, 76, 77, 78, 79, 80, 81, 82, 83, 84, 85, 86, 87, 88, 89, 90, 91, 92, 93, 94, 95, 96, 97, 98, 99, 100, 101, 102, 103, 104, 105, 106, 107, 108, 109, 110, 111, 112, 113, 114, 115, 116, 117, 118, 119, 120, 121, 122, 123, 124, 125, 126, 127, 128, 129, 130, 131, 132, 133, 134, 135, 136, 137, 138, 139, 140, 141, 142, 143, 144, 145, 146, 147, 148, 149, 150, 151, 152, 153, 154, 155, 156, 157, 158, 159, 160, 161, 162, 163, 164, 165, 166, 167, 168, 169, 170, 171, 172, 173, 174, 175, 176, 177, 178, 179, 180, 181, 182, 183, 184, 185, 186, 187, 188, 189, 190, 191, 192, 193, 194, 195, 196, 197, 198, 199, 200, 201, 202, 203, 204, 205, 206, 207, 208, 209, 210, 211, 212, 213, 214, 215, 216, 217, 218, 219, 220, 221, 222, 223, 224, 225, 226, 227, 228, 229, 230, 231, 232, 233, 234, 235, 236, 237, 238, 239, 240, 241, 242, 243, 244, 245, 246, 247, 248, 249, 250, 251, 252, 253, 254, 255, 256, 257, 258, 259, 260, 261, 262, 263, 264, 265, 266, 267, 268, 269, 270, 271, 272, 273, 274, 275, 276, 277, 278, 279, 280, 281, 282, 283, 284, 285, 286, 287, 288, 289, 290, 291, 292, 293, 294, 295, 296, 297, 298, 299, 300, 301, 302, 303, 304, 305, 306, 307, 308, 309, 310, 311, 312, 313, 314, 315, 316, 317, 318, 319, 320, 321, 322, 323, 324, 325, 326, 327, 328, 329, 330, 331, 332, 333, 334, 335, 336, 337, 338, 339, 340, 341, 342, 343, 344, 345, 346, 347, 348, 349, 350, 351, 352, 353, 354, 355, 356, 357, 358, 359, 360, 361, 362, 363, 364, 365, 366, 367, 368, 369, 370, 371, 372, 373, 374, 375, 376, 377, 378, 379, 380, 381, 382, 383, 384, 385, 386, 387, 388, 389, 390, 391, 392, 393, 394, 395, 396, 397, 398, 399, 400, 401, 402, 403, 404, 405, 406, 407, 408, 409, 410, 411, 412, 413, 414, 415, 416, 417, 418, 419, 420, 421, 422, 423, 424, 425, 426, 427, 428, 429, 430, 431, 432, 433, 434, 435, 436, 437, 438, 439, 440, 441, 442, 443, 444, 445, 446, 447, 448, 449, 450, 451, 452, 453, 454, 455, 456, 457, 458, 459, 460, 461, 462, 463, 464, 465, 466, 467, 468, 469, 470, 471, 472, 473, 474, 475, 476, 477, 478, 479, 480, 481, 482, 483, 484, 485, 486, 487, 488, 489, 490, 491, 492, 493, 494, 495, 496, 497, 498, 499, 500, 501, 502, 503, 504, 505, 506, 507, 508, 509, 510, 511, 512, 513, 514, 515, 516, 517, 518, 519, 520, 521, 522, 523, 524, 525, 526, 527, 528, 529, 530, 531, 532, 533, 534, 535, 536, 537, 538, 539, 540, 541, 542, 543, 544, 545, 546, 547, 548, 549, 550, 551, 552, 553, 554, 555, 556, 557, 558, 559, 560, 561, 562, 563, 564, 565, 566, 567, 568, 569, 570, 571, 572, 573, 574, 575, 576, 577, 578, 579, 580, 581, 582, 583, 584, 585, 586, 587, 588, 589, 590, 591, 592, 593, 594, 595, 596, 597, 598, 599, 600, 601, 602, 603, 604, 605, 606, 607, 608, 609, 610, 611, 612, 613, 614, 615, 616, 617, 618, 619, 620, 621, 622, 623, 624, 625, 626, 627, 628, 629, 630, 631, 632, 633, 634, 635, 636, 637, 638, 639, 640, 641, 642, 643, 644, 645, 646, 647, 648, 649, 650, 651, 652, 653, 654, 655, 656, 657, 658, 659, 660, 661, 662, 663, 664, 665, 666, 667, 668, 669, 670, 671, 672, 673, 674, 675, 676, 677, 678, 679, 680, 681, 682, 683, 684, 685, 686, 687, 688, 689, 690, 691, 692, 693, 694, 695, 696, 697, 698, 699, 700, 701, 702, 703, 704, 705, 706, 707, 708, 709, 710, 711, 712, 713, 714, 715, 716, 717, 718, 719, 720, 721, 722, 723, 724, 725, 726, 727, 728, 729, 730, 731, 732, 733, 734, 735, 736, 737, 738, 739, 740, 741, 742, 743, 744, 745, 746, 747, 748, 749, 750, 751, 752, 753, 754, 755, 756, 757, 758, 759, 760, 761, 762, 763, 764, 765, 766, 767, 768, 769, 770, 771, 772, 773, 774, 775, 776, 777, 778, 779, 780, 781, 782, 783, 784, 785, 786, 787, 788, 789, 790, 791, 792, 793, 794, 795, 796, 797, 798, 799, 800, 801, 802, 803, 804, 805, 806, 807, 808, 809, 810, 811, 812, 813, 814, 815, 816, 817, 818, 819, 820, 821, 822, 823, 824, 825, 826, 827, 828, 829, 830, 831, 832, 833, 834, 835, 836, 837, 838, 839, 840, 841, 842, 843, 844, 845, 846, 847, 848, 849, 850, 851, 852, 853, 854, 855, 856, 857, 858, 859, 860, 861, 862, 863, 864, 865, 866, 867, 868, 869, 870, 871, 872],
      "AcquisitionTime": ["090318.782500", "090319.242500", "090319.702500", "090320.162500", "090320.622500", "090321.082500", "090321.542500", "090322.002500", "090322.462500", "090322.922500", "090323.382500", "090323.842500", "090324.302500", "090324.762500", "090325.222500", "090325.682500", "090326.142500", "090326.602500", "090327.062500", "090327.522500", "090327.982500", "090328.442500", "090328.902500", "090329.362500", "090329.822500", "090330.282500", "090330.742500", "090331.202500", "090331.662500", "090332.122500", "090332.582500", "090333.042500", "090333.502500", "090333.962500", "090334.422500", "090334.882500", "090335.342500", "090335.802500", "090336.262500", "090336.722500", "090337.182500", "090337.642500", "090338.102500", "090338.562500", "090339.022500", "090339.482500", "090339.942500", "090340.402500", "090340.862500", "090341.322500", "090341.782500", "090342.242500", "090342.702500", "090343.162500", "090343.622500", "090344.082500", "090344.542500", "090345.002500", "090345.462500", "090345.922500", "090346.382500", "090346.842500", "090347.302500", "090347.762500", "090348.222500", "090348.682500", "090349.142500", "090349.602500", "090350.062500", "090350.522500", "090350.982500", "090351.442500", "090351.902500", "090352.362500", "090352.822500", "090353.282500", "090353.742500", "090354.202500", "090354.662500", "090355.122500", "090355.582500", "090356.042500", "090356.502500", "090356.962500", "090357.422500", "090357.882500", "090358.342500", "090358.802500", "090359.262500", "090359.722500", "090400.182500", "090400.642500", "090401.102500", "090401.562500", "090402.022500", "090402.482500", "090402.942500", "090403.402500", "090403.862500", "090404.322500", "090404.782500", "090405.242500", "090405.702500", "090406.162500", "090406.622500", "090407.082500", "090407.542500", "090408.002500", "090408.462500", "090408.922500", "090409.382500", "090409.842500", "090410.302500", "090410.762500", "090411.222500", "090411.682500", "090412.142500", "090412.602500", "090413.062500", "090413.522500", "090413.982500", "090414.442500", "090414.902500", "090415.362500", "090415.822500", "090416.282500", "090416.742500", "090417.202500", "090417.662500", "090418.122500", "090418.582500", "090419.042500", "090419.502500", "090419.962500", "090420.422500", "090420.882500", "090421.342500", "090421.802500", "090422.262500", "090422.722500", "090423.182500", "090423.642500", "090424.102500", "090424.562500", "090425.022500", "090425.482500", "090425.942500", "090426.402500", "090426.862500", "090427.322500", "090427.782500", "090428.242500", "090428.702500", "090429.162500", "090429.622500", "090430.082500", "090430.542500", "090431.002500", "090431.462500", "090431.922500", "090432.382500", "090432.842500", "090433.302500", "090433.762500", "090434.222500", "090434.682500", "090435.142500", "090435.602500", "090436.062500", "090436.522500", "090436.982500", "090437.442500", "090437.902500", "090438.362500", "090438.822500", "090439.282500", "090439.742500", "090440.202500", "090440.662500", "090441.122500", "090441.582500", "090442.042500", "090442.502500", "090442.962500", "090443.422500", "090443.882500", "090444.342500", "090444.802500", "090445.262500", "090445.722500", "090446.182500", "090446.642500", "090447.102500", "090447.562500", "090448.022500", "090448.482500", "090448.942500", "090449.402500", "090449.862500", "090450.322500", "090450.782500", "090451.242500", "090451.702500", "090452.162500", "090452.622500", "090453.082500", "090453.542500", "090454.002500", "090454.462500", "090454.922500", "090455.382500", "090455.842500", "090456.302500", "090456.762500", "090457.222500", "090457.682500", "090458.142500", "090458.602500", "090459.062500", "090459.522500", "090459.982500", "090500.442500", "090500.902500", "090501.362500", "090501.822500", "090502.282500", "090502.742500", "090503.202500", "090503.662500", "090504.122500", "090504.582500", "090505.042500", "090505.502500", "090505.962500", "090506.422500", "090506.882500", "090507.342500", "090507.802500", "090508.262500", "090508.722500", "090509.182500", "090509.642500", "090510.102500", "090510.562500", "090511.022500", "090511.482500", "090511.942500", "090512.402500", "090512.862500", "090513.322500", "090513.782500", "090514.242500", "090514.702500", "090515.162500", "090515.622500", "090516.082500", "090516.542500", "090517.002500", "090517.462500", "090517.922500", "090518.382500", "090518.842500", "090519.302500", "090519.762500", "090520.222500", "090520.682500", "090521.142500", "090521.602500", "090522.062500", "090522.522500", "090522.982500", "090523.442500", "090523.902500", "090524.362500", "090524.822500", "090525.282500", "090525.742500", "090526.202500", "090526.662500", "090527.122500", "090527.582500", "090528.042500", "090528.502500", "090528.962500", "090529.422500", "090529.882500", "090530.342500", "090530.802500", "090531.262500", "090531.722500", "090532.182500", "090532.642500", "090533.102500", "090533.562500", "090534.022500", "090534.482500", "090534.942500", "090535.402500", "090535.862500", "090536.322500", "090536.782500", "090537.242500", "090537.702500", "090538.162500", "090538.622500", "090539.082500", "090539.542500", "090540.002500", "090540.462500", "090540.922500", "090541.382500", "090541.842500", "090542.302500", "090542.762500", "090543.222500", "090543.682500", "090544.142500", "090544.602500", "090545.062500", "090545.522500", "090545.982500", "090546.442500", "090546.902500", "090547.362500", "090547.822500", "090548.282500", "090548.742500", "090549.202500", "090549.662500", "090550.122500", "090550.582500", "090551.042500", "090551.502500", "090551.962500", "090552.422500", "090552.882500", "090553.342500", "090553.802500", "090554.262500", "090554.722500", "090555.182500", "090555.642500", "090556.102500", "090556.562500", "090557.022500", "090557.482500", "090557.942500", "090558.402500", "090558.862500", "090559.322500", "090559.782500", "090600.242500", "090600.702500", "090601.162500", "090601.622500", "090602.082500", "090602.542500", "090603.002500", "090603.462500", "090603.922500", "090604.382500", "090604.842500", "090605.302500", "090605.762500", "090606.222500", "090606.682500", "090607.142500", "090607.602500", "090608.062500", "090608.522500", "090608.982500", "090609.442500", "090609.902500", "090610.362500", "090610.822500", "090611.282500", "090611.742500", "090612.202500", "090612.662500", "090613.122500", "090613.582500", "090614.042500", "090614.502500", "090614.962500", "090615.422500", "090615.882500", "090616.342500", "090616.802500", "090617.262500", "090617.722500", "090618.182500", "090618.642500", "090619.102500", "090619.562500", "090620.022500", "090620.482500", "090620.942500", "090621.402500", "090621.862500", "090622.322500", "090622.782500", "090623.242500", "090623.702500", "090624.162500", "090624.622500", "090625.082500", "090625.542500", "090626.002500", "090626.462500", "090626.922500", "090627.382500", "090627.842500", "090628.302500", "090628.762500", "090629.222500", "090629.682500", "090630.142500", "090630.602500", "090631.062500", "090631.522500", "090631.982500", "090632.442500", "090632.902500", "090633.362500", "090633.822500", "090634.282500", "090634.742500", "090635.202500", "090635.662500", "090636.122500", "090636.582500", "090637.042500", "090637.502500", "090637.962500", "090638.422500", "090638.882500", "090639.342500", "090639.802500", "090640.262500", "090640.722500", "090641.182500", "090641.642500", "090642.102500", "090642.562500", "090643.022500", "090643.482500", "090643.942500", "090644.402500", "090644.862500", "090645.322500", "090645.782500", "090646.242500", "090646.702500", "090647.162500", "090647.622500", "090648.082500", "090648.542500", "090649.002500", "090649.462500", "090649.922500", "090650.382500", "090650.842500", "090651.302500", "090651.762500", "090652.222500", "090652.682500", "090653.142500", "090653.602500", "090654.062500", "090654.522500", "090654.982500", "090655.442500", "090655.902500", "090656.362500", "090656.822500", "090657.282500", "090657.742500", "090658.202500", "090658.662500", "090659.122500", "090659.582500", "090700.042500", "090700.502500", "090700.962500", "090701.422500", "090701.882500", "090702.342500", "090702.802500", "090703.262500", "090703.722500", "090704.182500", "090704.642500", "090705.102500", "090705.562500", "090706.022500", "090706.482500", "090706.942500", "090707.402500", "090707.862500", "090708.322500", "090708.782500", "090709.242500", "090709.702500", "090710.162500", "090710.622500", "090711.082500", "090711.542500", "090712.002500", "090712.462500", "090712.922500", "090713.382500", "090713.842500", "090714.302500", "090714.762500", "090715.222500", "090715.682500", "090716.142500", "090716.602500", "090717.062500", "090717.522500", "090717.982500", "090718.442500", "090718.902500", "090719.362500", "090719.822500", "090720.282500", "090720.742500", "090721.202500", "090721.662500", "090722.122500", "090722.582500", "090723.042500", "090723.502500", "090723.962500", "090724.422500", "090724.882500", "090725.342500", "090725.802500", "090726.262500", "090726.722500", "090727.182500", "090727.642500", "090728.102500", "090728.562500", "090729.022500", "090729.482500", "090729.942500", "090730.402500", "090730.862500", "090731.322500", "090731.782500", "090732.242500", "090732.702500", "090733.162500", "090733.622500", "090734.082500", "090734.542500", "090735.002500", "090735.462500", "090735.922500", "090736.382500", "090736.842500", "090737.302500", "090737.762500", "090738.222500", "090738.682500", "090739.142500", "090739.602500", "090740.062500", "090740.522500", "090740.982500", "090741.442500", "090741.902500", "090742.362500", "090742.822500", "090743.282500", "090743.742500", "090744.202500", "090744.662500", "090745.122500", "090745.582500", "090746.042500", "090746.502500", "090746.962500", "090747.422500", "090747.882500", "090748.342500", "090748.802500", "090749.262500", "090749.722500", "090750.182500", "090750.642500", "090751.102500", "090751.562500", "090752.022500", "090752.482500", "090752.942500", "090753.402500", "090753.862500", "090754.322500", "090754.782500", "090755.242500", "090755.702500", "090756.162500", "090756.622500", "090757.082500", "090757.542500", "090758.002500", "090758.462500", "090758.922500", "090759.382500", "090759.842500", "090800.302500", "090800.762500", "090801.222500", "090801.682500", "090802.142500", "090802.602500", "090803.062500", "090803.522500", "090803.982500", "090804.442500", "090804.902500", "090805.362500", "090805.822500", "090806.282500", "090806.742500", "090807.202500", "090807.662500", "090808.122500", "090808.582500", "090809.042500", "090809.502500", "090809.962500", "090810.422500", "090810.882500", "090811.342500", "090811.802500", "090812.262500", "090812.722500", "090813.182500", "090813.642500", "090814.102500", "090814.562500", "090815.022500", "090815.482500", "090815.942500", "090816.402500", "090816.862500", "090817.322500", "090817.782500", "090818.242500", "090818.702500", "090819.162500", "090819.622500", "090820.082500", "090820.542500", "090821.002500", "090821.462500", "090821.922500", "090822.382500", "090822.842500", "090823.302500", "090823.762500", "090824.222500", "090824.682500", "090825.142500", "090825.602500", "090826.062500", "090826.522500", "090826.982500", "090827.442500", "090827.902500", "090828.362500", "090828.822500", "090829.282500", "090829.742500", "090830.202500", "090830.662500", "090831.122500", "090831.582500", "090832.042500", "090832.502500", "090832.962500", "090833.422500", "090833.882500", "090834.342500", "090834.802500", "090835.262500", "090835.722500", "090836.182500", "090836.642500", "090837.102500", "090837.562500", "090838.022500", "090838.482500", "090838.942500", "090839.402500", "090839.862500", "090840.322500", "090840.782500", "090841.242500", "090841.702500", "090842.162500", "090842.622500", "090843.082500", "090843.542500", "090844.002500", "090844.462500", "090844.922500", "090845.382500", "090845.842500", "090846.302500", "090846.762500", "090847.222500", "090847.682500", "090848.142500", "090848.602500", "090849.062500", "090849.522500", "090849.982500", "090850.442500", "090850.902500", "090851.362500", "090851.822500", "090852.282500", "090852.742500", "090853.202500", "090853.662500", "090854.122500", "090854.582500", "090855.042500", "090855.502500", "090855.962500", "090856.422500", "090856.882500", "090857.342500", "090857.802500", "090858.262500", "090858.722500", "090859.182500", "090859.642500", "090900.102500", "090900.562500", "090901.022500", "090901.482500", "090901.942500", "090902.402500", "090902.862500", "090903.322500", "090903.782500", "090904.242500", "090904.702500", "090905.162500", "090905.622500", "090906.082500", "090906.542500", "090907.002500", "090907.462500", "090907.922500", "090908.382500", "090908.842500", "090909.302500", "090909.762500", "090910.222500", "090910.682500", "090911.142500", "090911.602500", "090912.062500", "090912.522500", "090912.982500", "090913.442500", "090913.902500", "090914.362500", "090914.822500", "090915.282500", "090915.742500", "090916.202500", "090916.662500", "090917.122500", "090917.582500", "090918.042500", "090918.502500", "090918.962500", "090919.422500", "090919.882500", "090920.342500", "090920.802500", "090921.262500", "090921.722500", "090922.182500", "090922.642500", "090923.102500", "090923.562500", "090924.022500", "090924.482500", "090924.942500", "090925.402500", "090925.862500", "090926.322500", "090926.782500", "090927.242500", "090927.702500", "090928.162500", "090928.622500", "090929.082500", "090929.542500", "090930.002500", "090930.462500", "090930.922500", "090931.382500", "090931.842500", "090932.302500", "090932.762500", "090933.222500", "090933.682500", "090934.142500", "090934.602500", "090935.062500", "090935.522500", "090935.982500", "090936.442500", "090936.902500", "090937.362500", "090937.822500", "090938.282500", "090938.742500", "090939.202500", "090939.662500", "090940.122500", "090940.582500", "090941.042500", "090941.502500", "090941.962500", "090942.422500", "090942.882500", "090943.342500", "090943.802500", "090944.262500", "090944.722500", "090945.182500", "090945.642500", "090946.102500", "090946.562500", "090947.022500", "090947.482500", "090947.942500", "090948.402500", "090948.862500", "090949.322500", "090949.782500", "090950.242500", "090950.702500", "090951.162500", "090951.622500", "090952.082500", "090952.542500", "090953.002500", "090953.462500", "090953.922500", "090954.382500", "090954.842500", "090955.302500", "090955.762500", "090956.222500", "090956.682500", "090957.142500", "090957.602500", "090958.062500", "090958.522500", "090958.982500", "090959.442500"],
