{
  "AcquisitionMatrixPE": 82,
  "AcquisitionNumber": 1,
  "AcquisitionTime": "09:17:37.622500",
  "BandwidthPerPixelPhaseEncode": 24.888,
  "BaseResolution": 82,
  "BodyPartExamined": "BRAIN",
  "ConsistencyInfo": "N4_VE11E_LATEST_20181129",
  "ConversionSoftware": "dcm2niix",
  "ConversionSoftwareVersion": "v1.0.20201102",
  "DerivedVendorReportedEchoSpacing": 0.00049,
  "DeviceSerialNumber": "66112",
  "DwellTime": 2e-06,
  "EchoTime": 0.0272,
  "EchoTrainLength": 82,
  "EffectiveEchoSpacing": 0.00049,
  "FlipAngle": 44,
  "ImageComments": "Unaliased MB8/PE3",
  "ImageOrientationPatientDICOM": [0.995342, -0.0744283, -0.0612825, 0.0751895, 0.997117, 0.0102076],
  "ImageType": [
    "ORIGINAL",
    "PRIMARY",
    "M",
    "MB",
    "ND",
    "NORM",
    "MOSAIC"
],
  "ImagingFrequency": 123.259,
  "InPlanePhaseEncodingDirectionDICOM": "COL",
  "InstitutionAddress": "Maynard 3,Hanover,NH,US,03755",
  "InstitutionName": "Dartmouth College - PBS",
  "InstitutionalDepartmentName": "Department",
  "MRAcquisitionType": "2D",
  "MagneticFieldStrength": 3,
  "Manufacturer": "Siemens",
  "ManufacturersModelName": "Prisma",
  "Modality": "MR",
  "MultibandAccelerationFactor": 8,
  "PartialFourier": 1,
  "PatientPosition": "HFS",
  "PercentPhaseFOV": 100,
  "PercentSampling": 100,
  "PhaseEncodingDirection": "j-",
  "PhaseEncodingSteps": 82,
  "PhaseResolution": 1,
  "PixelBandwidth": 3050,
  "ProcedureStepDescription": "Wager_Wager^1076_spacetop",
  "ProtocolName": "func_run-03_task-social_acq-ap-mb8",
  "PulseSequenceDetails": "%CustomerSeq%\\cmrr_mbep2d_bold",
  "ReceiveCoilActiveElements": "HEA;HEP",
  "ReceiveCoilName": "Head_32",
  "ReconMatrixPE": 82,
  "RepetitionTime": 0.46,
  "SAR": 0.0991247,
  "ScanOptions": "FS",
  "ScanningSequence": "EP",
  "SequenceName": "epfid2d1_82",
  "SequenceVariant": "SK\\SS",
  "SeriesDescription": "func_run-03_task-social_acq-ap-mb8",
  "SeriesNumber": 16,
  "ShimSetting": [4223, -7803, -7269, 252, -111, -25, -91, 105],
  "SliceThickness": 2.7,
  "SliceTiming": [0, 0.2525, 0.0625, 0.315, 0.1275, 0.3775, 0.19, 0, 0.2525, 0.0625, 0.315, 0.1275, 0.3775, 0.19, 0, 0.2525, 0.0625, 0.315, 0.1275, 0.3775, 0.19, 0, 0.2525, 0.0625, 0.315, 0.1275, 0.3775, 0.19, 0, 0.2525, 0.0625, 0.315, 0.1275, 0.3775, 0.19, 0, 0.2525, 0.0625, 0.315, 0.1275, 0.3775, 0.19, 0, 0.2525, 0.0625, 0.315, 0.1275, 0.3775, 0.19, 0, 0.2525, 0.0625, 0.315, 0.1275, 0.3775, 0.19],
  "SoftwareVersions": "syngo MR E11",
  "SpacingBetweenSlices": 2.7,
  "StationName": "AWP66112",
  "TaskName": "social",
  "TotalReadoutTime": 0.03969,
  "TxRefAmp": 254.304,
  "WipMemBlock": "f7c09bb3-82ef-4a91-bc09-5174e8fe4760||Sequence: R016 ve11e/master r/434b28f1; Aug  7 2019 18:53:46 by eja",
  "dcmmeta_affine": [
    [-2.67042875289917, 0.2017280012369156, -0.1629343181848526, 108.34385681152344],
    [0.19968564808368683, 2.67519211769104, 0.03987326845526695, -103.94312286376953],
    [-0.1644163578748703, -0.02738632634282112, 2.694784164428711, -61.839996337890625],
    [0.0, 0.0, 0.0, 1.0]
],
  "dcmmeta_reorient_transform": [
    [0.0, -1.0, 0.0, 81.0],
    [1.0, 0.0, 0.0, 0.0],
    [0.0, 0.0, 1.0, 0.0],
    [0.0, 0.0, 0.0, 1.0]
],
  "dcmmeta_shape": [82, 82, 56, 872],
  "dcmmeta_slice_dim": 2,
  "dcmmeta_version": 0.6,
  "global": {
    "const": {
      "AccessionNumber": "A004379",
      "AcquisitionMatrix": [82, 0, 0, 82],
      "AngioFlag": "N",
      "BitsAllocated": 16,
      "BitsStored": 16,
      "BodyPartExamined": "BRAIN",
      "Columns": 656,
      "EchoNumbers": 1,
      "EchoTime": 27.2,
      "EchoTrainLength": 82,
      "FlipAngle": 44.0,
      "HighBit": 15,
      "ImageOrientationPatient": [0.99534159485173, -0.0744282876847, -0.0612824571174, 0.07518952391379, 0.99711701408427, 0.01020763034637],
      "ImagePositionPatient": [-948.99280818508, -823.21776942785, -24.730672671193],
      "ImageType": [
        "ORIGINAL",
        "PRIMARY",
        "M",
        "MB",
        "ND",
        "NORM",
        "MOSAIC"
],
      "ImagedNucleus": "1H",
      "ImagingFrequency": 123.259136,
      "InPlanePhaseEncodingDirection": "COL",
      "MRAcquisitionType": "2D",
      "MagneticFieldStrength": 3.0,
      "Manufacturer": "SIEMENS",
      "ManufacturerModelName": "Prisma",
      "Modality": "MR",
      "NumberOfAverages": 1.0,
      "NumberOfPhaseEncodingSteps": 82,
      "PercentPhaseFieldOfView": 100.0,
      "PercentSampling": 100.0,
      "PerformedProcedureStepStartTime": "081156.399000",
      "PhotometricInterpretation": "MONOCHROME2",
      "PixelBandwidth": 3050.0,
      "PixelRepresentation": 0,
      "PixelSpacing": [2.6829268932343, 2.6829268932343],
      "ProtocolName": "func_run-03_task-social_acq-ap-mb8",
      "RepetitionTime": 460.0,
      "Rows": 656,
      "SAR": 0.09912471327466,
      "SamplesPerPixel": 1,
      "ScanOptions": "FS",
      "ScanningSequence": "EP",
      "SequenceName": "epfid2d1_82",
      "SequenceVariant": [
        "SK",
        "SS"
],
      "SeriesDescription": "func_run-03_task-social_acq-ap-mb8",
      "SeriesNumber": 16,
      "SeriesTime": "091804.137000",
      "SliceLocation": -69.793682102893,
      "SliceThickness": 2.7000000476837,
      "SmallestImagePixelValue": 0,
      "SoftwareVersions": "syngo MR E11",
      "SpacingBetweenSlices": 2.6999999490434,
      "SpecificCharacterSet": "ISO_IR 100",
      "StudyID": "6",
      "StudyTime": "081156.337000",
      "TransmitCoilName": "Body",
      "VariableFlipAngleFlag": "N",
      "WindowCenterWidthExplanation": "Algo1"
    },
    "slices": {}
  },
  "time": {
    "samples": {
      "AcquisitionNumber": [1, 2, 3, 4, 5, 6, 7, 8, 9, 10, 11, 12, 13, 14, 15, 16, 17, 18, 19, 20, 21, 22, 23, 24, 25, 26, 27, 28, 29, 30, 31, 32, 33, 34, 35, 36, 37, 38, 39, 40, 41, 42, 43, 44, 45, 46, 47, 48, 49, 50, 51, 52, 53, 54, 55, 56, 57, 58, 59, 60, 61, 62, 63, 64, 65, 66, 67, 68, 69, 70, 71, 72, 73, 74, 75, 76, 77, 78, 79, 80, 81, 82, 83, 84, 85, 86, 87, 88, 89, 90, 91, 92, 93, 94, 95, 96, 97, 98, 99, 100, 101, 102, 103, 104, 105, 106, 107, 108, 109, 110, 111, 112, 113, 114, 115, 116, 117, 118, 119, 120, 121, 122, 123, 124, 125, 126, 127, 128, 129, 130, 131, 132, 133, 134, 135, 136, 137, 138, 139, 140, 141, 142, 143, 144, 145, 146, 147, 148, 149, 150, 151, 152, 153, 154, 155, 156, 157, 158, 159, 160, 161, 162, 163, 164, 165, 166, 167, 168, 169, 170, 171, 172, 173, 174, 175, 176, 177, 178, 179, 180, 181, 182, 183, 184, 185, 186, 187, 188, 189, 190, 191, 192, 193, 194, 195, 196, 197, 198, 199, 200, 201, 202, 203, 204, 205, 206, 207, 208, 209, 210, 211, 212, 213, 214, 215, 216, 217, 218, 219, 220, 221, 222, 223, 224, 225, 226, 227, 228, 229, 230, 231, 232, 233, 234, 235, 236, 237, 238, 239, 240, 241, 242, 243, 244, 245, 246, 247, 248, 249, 250, 251, 252, 253, 254, 255, 256, 257, 258, 259, 260, 261, 262, 263, 264, 265, 266, 267, 268, 269, 270, 271, 272, 273, 274, 275, 276, 277, 278, 279, 280, 281, 282, 283, 284, 285, 286, 287, 288, 289, 290, 291, 292, 293, 294, 295, 296, 297, 298, 299, 300, 301, 302, 303, 304, 305, 306, 307, 308, 309, 310, 311, 312, 313, 314, 315, 316, 317, 318, 319, 320, 321, 322, 323, 324, 325, 326, 327, 328, 329, 330, 331, 332, 333, 334, 335, 336, 337, 338, 339, 340, 341, 342, 343, 344, 345, 346, 347, 348, 349, 350, 351, 352, 353, 354, 355, 356, 357, 358, 359, 360, 361, 362, 363, 364, 365, 366, 367, 368, 369, 370, 371, 372, 373, 374, 375, 376, 377, 378, 379, 380, 381, 382, 383, 384, 385, 386, 387, 388, 389, 390, 391, 392, 393, 394, 395, 396, 397, 398, 399, 400, 401, 402, 403, 404, 405, 406, 407, 408, 409, 410, 411, 412, 413, 414, 415, 416, 417, 418, 419, 420, 421, 422, 423, 424, 425, 426, 427, 428, 429, 430, 431, 432, 433, 434, 435, 436, 437, 438, 439, 440, 441, 442, 443, 444, 445, 446, 447, 448, 449, 450, 451, 452, 453, 454, 455, 456, 457, 458, 459, 460, 461, 462, 463, 464, 465, 466, 467, 468, 469, 470, 471, 472, 473, 474, 475, 476, 477, 478, 479, 480, 481, 482, 483, 484, 485, 486, 487, 488, 489, 490, 491, 492, 493, 494, 495, 496, 497, 498, 499, 500, 501, 502, 503, 504, 505, 506, 507, 508, 509, 510, 511, 512, 513, 514, 515, 516, 517, 518, 519, 520, 521, 522, 523, 524, 525, 526, 527, 528, 529, 530, 531, 532, 533, 534, 535, 536, 537, 538, 539, 540, 541, 542, 543, 544, 545, 546, 547, 548, 549, 550, 551, 552, 553, 554, 555, 556, 557, 558, 559, 560, 561, 562, 563, 564, 565, 566, 567, 568, 569, 570, 571, 572, 573, 574, 575, 576, 577, 578, 579, 580, 581, 582, 583, 584, 585, 586, 587, 588, 589, 590, 591, 592, 593, 594, 595, 596, 597, 598, 599, 600, 601, 602, 603, 604, 605, 606, 607, 608, 609, 610, 611, 612, 613, 614, 615, 616, 617, 618, 619, 620, 621, 622, 623, 624, 625, 626, 627, 628, 629, 630, 631, 632, 633, 634, 635, 636, 637, 638, 639, 640, 641, 642, 643, 644, 645, 646, 647, 648, 649, 650, 651, 652, 653, 654, 655, 656, 657, 658, 659, 660, 661, 662, 663, 664, 665, 666, 667, 668, 669, 670, 671, 672, 673, 674, 675, 676, 677, 678, 679, 680, 681, 682, 683, 684, 685, 686, 687, 688, 689, 690, 691, 692, 693, 694, 695, 696, 697, 698, 699, 700, 701, 702, 703, 704, 705, 706, 707, 708, 709, 710, 711, 712, 713, 714, 715, 716, 717, 718, 719, 720, 721, 722, 723, 724, 725, 726, 727, 728, 729, 730, 731, 732, 733, 734, 735, 736, 737, 738, 739, 740, 741, 742, 743, 744, 745, 746, 747, 748, 749, 750, 751, 752, 753, 754, 755, 756, 757, 758, 759, 760, 761, 762, 763, 764, 765, 766, 767, 768, 769, 770, 771, 772, 773, 774, 775, 776, 777, 778, 779, 780, 781, 782, 783, 784, 785, 786, 787, 788, 789, 790, 791, 792, 793, 794, 795, 796, 797, 798, 799, 800, 801, 802, 803, 804, 805, 806, 807, 808, 809, 810, 811, 812, 813, 814, 815, 816, 817, 818, 819, 820, 821, 822, 823, 824, 825, 826, 827, 828, 829, 830, 831, 832, 833, 834, 835, 836, 837, 838, 839, 840, 841, 842, 843, 844, 845, 846, 847, 848, 849, 850, 851, 852, 853, 854, 855, 856, 857, 858, 859, 860, 861, 862, 863, 864, 865, 866, 867, 868, 869, 870, 871, 872],
      "AcquisitionTime": ["091737.622500", "091738.082500", "091738.542500", "091739.002500", "091739.462500", "091739.922500", "091740.382500", "091740.842500", "091741.302500", "091741.762500", "091742.222500", "091742.682500", "091743.142500", "091743.602500", "091744.062500", "091744.522500", "091744.982500", "091745.442500", "091745.902500", "091746.362500", "091746.822500", "091747.282500", "091747.742500", "091748.202500", "091748.662500", "091749.122500", "091749.582500", "091750.042500", "091750.502500", "091750.962500", "091751.422500", "091751.882500", "091752.342500", "091752.802500", "091753.262500", "091753.722500", "091754.182500", "091754.642500", "091755.102500", "091755.562500", "091756.022500", "091756.482500", "091756.942500", "091757.402500", "091757.862500", "091758.322500", "091758.782500", "091759.242500", "091759.702500", "091800.162500", "091800.622500", "091801.082500", "091801.542500", "091802.002500", "091802.462500", "091802.922500", "091803.382500", "091803.842500", "091804.302500", "091804.762500", "091805.222500", "091805.682500", "091806.142500", "091806.602500", "091807.062500", "091807.522500", "091807.982500", "091808.442500", "091808.902500", "091809.362500", "091809.822500", "091810.282500", "091810.742500", "091811.202500", "091811.662500", "091812.122500", "091812.582500", "091813.042500", "091813.502500", "091813.962500", "091814.422500", "091814.882500", "091815.342500", "091815.802500", "091816.262500", "091816.722500", "091817.182500", "091817.642500", "091818.102500", "091818.562500", "091819.022500", "091819.482500", "091819.942500", "091820.402500", "091820.862500", "091821.322500", "091821.782500", "091822.242500", "091822.702500", "091823.162500", "091823.622500", "091824.082500", "091824.542500", "091825.002500", "091825.462500", "091825.922500", "091826.382500", "091826.842500", "091827.302500", "091827.762500", "091828.222500", "091828.682500", "091829.142500", "091829.602500", "091830.062500", "091830.522500", "091830.982500", "091831.442500", "091831.902500", "091832.362500", "091832.822500", "091833.282500", "091833.742500", "091834.202500", "091834.662500", "091835.122500", "091835.582500", "091836.042500", "091836.502500", "091836.962500", "091837.422500", "091837.882500", "091838.342500", "091838.802500", "091839.262500", "091839.722500", "091840.182500", "091840.642500", "091841.102500", "091841.562500", "091842.022500", "091842.482500", "091842.942500", "091843.402500", "091843.862500", "091844.322500", "091844.782500", "091845.242500", "091845.702500", "091846.162500", "091846.622500", "091847.082500", "091847.542500", "091848.002500", "091848.462500", "091848.922500", "091849.382500", "091849.842500", "091850.302500", "091850.762500", "091851.222500", "091851.682500", "091852.142500", "091852.602500", "091853.062500", "091853.522500", "091853.982500", "091854.442500", "091854.902500", "091855.362500", "091855.822500", "091856.282500", "091856.742500", "091857.202500", "091857.662500", "091858.122500", "091858.582500", "091859.042500", "091859.502500", "091859.962500", "091900.422500", "091900.882500", "091901.342500", "091901.802500", "091902.262500", "091902.722500", "091903.182500", "091903.642500", "091904.102500", "091904.562500", "091905.022500", "091905.482500", "091905.942500", "091906.402500", "091906.862500", "091907.322500", "091907.782500", "091908.242500", "091908.702500", "091909.162500", "091909.622500", "091910.082500", "091910.542500", "091911.002500", "091911.462500", "091911.922500", "091912.382500", "091912.842500", "091913.302500", "091913.762500", "091914.222500", "091914.682500", "091915.142500", "091915.602500", "091916.062500", "091916.522500", "091916.982500", "091917.442500", "091917.902500", "091918.362500", "091918.822500", "091919.282500", "091919.742500", "091920.202500", "091920.662500", "091921.122500", "091921.582500", "091922.042500", "091922.502500", "091922.962500", "091923.422500", "091923.882500", "091924.342500", "091924.802500", "091925.262500", "091925.722500", "091926.182500", "091926.642500", "091927.102500", "091927.562500", "091928.022500", "091928.482500", "091928.942500", "091929.402500", "091929.862500", "091930.322500", "091930.782500", "091931.242500", "091931.702500", "091932.162500", "091932.622500", "091933.082500", "091933.542500", "091934.002500", "091934.462500", "091934.922500", "091935.382500", "091935.842500", "091936.302500", "091936.762500", "091937.222500", "091937.682500", "091938.142500", "091938.602500", "091939.062500", "091939.522500", "091939.982500", "091940.442500", "091940.902500", "091941.362500", "091941.822500", "091942.282500", "091942.742500", "091943.202500", "091943.662500", "091944.122500", "091944.582500", "091945.042500", "091945.502500", "091945.962500", "091946.422500", "091946.882500", "091947.342500", "091947.802500", "091948.262500", "091948.722500", "091949.182500", "091949.642500", "091950.102500", "091950.562500", "091951.022500", "091951.482500", "091951.942500", "091952.402500", "091952.862500", "091953.322500", "091953.782500", "091954.242500", "091954.702500", "091955.162500", "091955.622500", "091956.082500", "091956.542500", "091957.002500", "091957.462500", "091957.922500", "091958.382500", "091958.842500", "091959.302500", "091959.762500", "092000.222500", "092000.682500", "092001.142500", "092001.602500", "092002.062500", "092002.522500", "092002.982500", "092003.442500", "092003.902500", "092004.362500", "092004.822500", "092005.282500", "092005.742500", "092006.202500", "092006.662500", "092007.122500", "092007.582500", "092008.042500", "092008.502500", "092008.962500", "092009.422500", "092009.882500", "092010.342500", "092010.802500", "092011.262500", "092011.722500", "092012.182500", "092012.642500", "092013.102500", "092013.562500", "092014.022500", "092014.482500", "092014.942500", "092015.402500", "092015.862500", "092016.322500", "092016.782500", "092017.242500", "092017.702500", "092018.162500", "092018.622500", "092019.082500", "092019.542500", "092020.002500", "092020.462500", "092020.922500", "092021.382500", "092021.842500", "092022.302500", "092022.762500", "092023.222500", "092023.682500", "092024.142500", "092024.602500", "092025.062500", "092025.522500", "092025.982500", "092026.442500", "092026.902500", "092027.362500", "092027.822500", "092028.282500", "092028.742500", "092029.202500", "092029.662500", "092030.122500", "092030.582500", "092031.042500", "092031.502500", "092031.962500", "092032.422500", "092032.882500", "092033.342500", "092033.802500", "092034.262500", "092034.722500", "092035.182500", "092035.642500", "092036.102500", "092036.562500", "092037.022500", "092037.482500", "092037.942500", "092038.402500", "092038.862500", "092039.322500", "092039.782500", "092040.242500", "092040.702500", "092041.162500", "092041.622500", "092042.082500", "092042.542500", "092043.002500", "092043.462500", "092043.922500", "092044.382500", "092044.842500", "092045.302500", "092045.762500", "092046.222500", "092046.682500", "092047.142500", "092047.602500", "092048.062500", "092048.522500", "092048.982500", "092049.442500", "092049.902500", "092050.362500", "092050.822500", "092051.282500", "092051.742500", "092052.202500", "092052.662500", "092053.122500", "092053.582500", "092054.042500", "092054.502500", "092054.962500", "092055.422500", "092055.882500", "092056.342500", "092056.802500", "092057.262500", "092057.722500", "092058.182500", "092058.642500", "092059.102500", "092059.562500", "092100.022500", "092100.482500", "092100.942500", "092101.402500", "092101.862500", "092102.322500", "092102.782500", "092103.242500", "092103.702500", "092104.162500", "092104.622500", "092105.082500", "092105.542500", "092106.002500", "092106.462500", "092106.922500", "092107.382500", "092107.842500", "092108.302500", "092108.762500", "092109.222500", "092109.682500", "092110.142500", "092110.602500", "092111.062500", "092111.522500", "092111.982500", "092112.442500", "092112.902500", "092113.362500", "092113.822500", "092114.282500", "092114.742500", "092115.202500", "092115.662500", "092116.122500", "092116.582500", "092117.042500", "092117.502500", "092117.962500", "092118.422500", "092118.882500", "092119.342500", "092119.802500", "092120.262500", "092120.722500", "092121.182500", "092121.642500", "092122.102500", "092122.562500", "092123.022500", "092123.482500", "092123.942500", "092124.402500", "092124.862500", "092125.322500", "092125.782500", "092126.242500", "092126.702500", "092127.162500", "092127.622500", "092128.082500", "092128.542500", "092129.002500", "092129.462500", "092129.922500", "092130.382500", "092130.842500", "092131.302500", "092131.762500", "092132.222500", "092132.682500", "092133.142500", "092133.602500", "092134.062500", "092134.522500", "092134.982500", "092135.442500", "092135.902500", "092136.362500", "092136.822500", "092137.282500", "092137.742500", "092138.202500", "092138.662500", "092139.122500", "092139.582500", "092140.042500", "092140.502500", "092140.962500", "092141.422500", "092141.882500", "092142.342500", "092142.802500", "092143.262500", "092143.722500", "092144.182500", "092144.642500", "092145.102500", "092145.562500", "092146.022500", "092146.482500", "092146.942500", "092147.402500", "092147.862500", "092148.322500", "092148.782500", "092149.242500", "092149.702500", "092150.162500", "092150.622500", "092151.082500", "092151.542500", "092152.002500", "092152.462500", "092152.922500", "092153.382500", "092153.842500", "092154.302500", "092154.762500", "092155.222500", "092155.682500", "092156.142500", "092156.602500", "092157.062500", "092157.522500", "092157.982500", "092158.442500", "092158.902500", "092159.362500", "092159.822500", "092200.282500", "092200.742500", "092201.202500", "092201.662500", "092202.122500", "092202.582500", "092203.042500", "092203.502500", "092203.962500", "092204.422500", "092204.882500", "092205.342500", "092205.802500", "092206.262500", "092206.722500", "092207.182500", "092207.642500", "092208.102500", "092208.562500", "092209.022500", "092209.482500", "092209.942500", "092210.402500", "092210.862500", "092211.322500", "092211.782500", "092212.242500", "092212.702500", "092213.162500", "092213.622500", "092214.082500", "092214.542500", "092215.002500", "092215.462500", "092215.922500", "092216.382500", "092216.842500", "092217.302500", "092217.762500", "092218.222500", "092218.682500", "092219.142500", "092219.602500", "092220.062500", "092220.522500", "092220.982500", "092221.442500", "092221.902500", "092222.362500", "092222.822500", "092223.282500", "092223.742500", "092224.202500", "092224.662500", "092225.122500", "092225.582500", "092226.042500", "092226.502500", "092226.962500", "092227.422500", "092227.882500", "092228.342500", "092228.802500", "092229.262500", "092229.722500", "092230.182500", "092230.642500", "092231.102500", "092231.562500", "092232.022500", "092232.482500", "092232.942500", "092233.402500", "092233.862500", "092234.322500", "092234.782500", "092235.242500", "092235.702500", "092236.162500", "092236.622500", "092237.082500", "092237.542500", "092238.002500", "092238.462500", "092238.922500", "092239.382500", "092239.842500", "092240.302500", "092240.762500", "092241.222500", "092241.682500", "092242.142500", "092242.602500", "092243.062500", "092243.522500", "092243.982500", "092244.442500", "092244.902500", "092245.362500", "092245.822500", "092246.282500", "092246.742500", "092247.202500", "092247.662500", "092248.122500", "092248.582500", "092249.042500", "092249.502500", "092249.962500", "092250.422500", "092250.882500", "092251.342500", "092251.802500", "092252.262500", "092252.722500", "092253.182500", "092253.642500", "092254.102500", "092254.562500", "092255.022500", "092255.482500", "092255.942500", "092256.402500", "092256.862500", "092257.322500", "092257.782500", "092258.242500", "092258.702500", "092259.162500", "092259.622500", "092300.082500", "092300.542500", "092301.002500", "092301.462500", "092301.922500", "092302.382500", "092302.842500", "092303.302500", "092303.762500", "092304.222500", "092304.682500", "092305.142500", "092305.602500", "092306.062500", "092306.522500", "092306.982500", "092307.442500", "092307.902500", "092308.362500", "092308.822500", "092309.282500", "092309.742500", "092310.202500", "092310.662500", "092311.122500", "092311.582500", "092312.042500", "092312.502500", "092312.962500", "092313.422500", "092313.882500", "092314.342500", "092314.802500", "092315.262500", "092315.722500", "092316.182500", "092316.642500", "092317.102500", "092317.562500", "092318.022500", "092318.482500", "092318.942500", "092319.402500", "092319.862500", "092320.322500", "092320.782500", "092321.242500", "092321.702500", "092322.162500", "092322.622500", "092323.082500", "092323.542500", "092324.002500", "092324.462500", "092324.922500", "092325.382500", "092325.842500", "092326.302500", "092326.762500", "092327.222500", "092327.682500", "092328.142500", "092328.602500", "092329.062500", "092329.522500", "092329.982500", "092330.442500", "092330.902500", "092331.362500", "092331.822500", "092332.282500", "092332.742500", "092333.202500", "092333.662500", "092334.122500", "092334.582500", "092335.042500", "092335.502500", "092335.962500", "092336.422500", "092336.882500", "092337.342500", "092337.802500", "092338.262500", "092338.722500", "092339.182500", "092339.642500", "092340.102500", "092340.562500", "092341.022500", "092341.482500", "092341.942500", "092342.402500", "092342.862500", "092343.322500", "092343.782500", "092344.242500", "092344.702500", "092345.162500", "092345.622500", "092346.082500", "092346.542500", "092347.002500", "092347.462500", "092347.922500", "092348.382500", "092348.842500", "092349.302500", "092349.762500", "092350.222500", "092350.682500", "092351.142500", "092351.602500", "092352.062500", "092352.522500", "092352.982500", "092353.442500", "092353.902500", "092354.362500", "092354.822500", "092355.282500", "092355.742500", "092356.202500", "092356.662500", "092357.122500", "092357.582500", "092358.042500", "092358.502500", "092358.962500", "092359.422500", "092359.882500", "092400.342500", "092400.802500", "092401.262500", "092401.722500", "092402.182500", "092402.642500", "092403.102500", "092403.562500", "092404.022500", "092404.482500", "092404.942500", "092405.402500", "092405.862500", "092406.322500", "092406.782500", "092407.242500", "092407.702500", "092408.162500", "092408.622500", "092409.082500", "092409.542500", "092410.002500", "092410.462500", "092410.922500", "092411.382500", "092411.842500", "092412.302500", "092412.762500", "092413.222500", "092413.682500", "092414.142500", "092414.602500", "092415.062500", "092415.522500", "092415.982500", "092416.442500", "092416.902500", "092417.362500", "092417.822500", "092418.282500"],
