{
  "AcquisitionMatrixPE": 82,
  "AcquisitionNumber": 1,
  "AcquisitionTime": "09:59:10.902500",
  "BandwidthPerPixelPhaseEncode": 24.888,
  "BaseResolution": 82,
  "BodyPartExamined": "BRAIN",
  "ConsistencyInfo": "N4_VE11E_LATEST_20181129",
  "ConversionSoftware": "dcm2niix",
  "ConversionSoftwareVersion": "v1.0.20201102",
  "DerivedVendorReportedEchoSpacing": 0.00049,
  "DeviceSerialNumber": "66112",
  "DwellTime": 2e-06,
  "EchoTime": 0.0272,
  "EchoTrainLength": 82,
  "EffectiveEchoSpacing": 0.00049,
  "FlipAngle": 44,
  "ImageComments": "Unaliased MB8/PE3",
  "ImageOrientationPatientDICOM": [0.997556, -0.0683827, 0.01436, 0.0688812, 0.996912, -0.0376958],
  "ImageType": [
    "ORIGINAL",
    "PRIMARY",
    "M",
    "MB",
    "ND",
    "NORM",
    "MOSAIC"
],
  "ImagingFrequency": 123.259,
  "InPlanePhaseEncodingDirectionDICOM": "COL",
  "InstitutionAddress": "Maynard 3,Hanover,NH,US,03755",
  "InstitutionName": "Dartmouth College - PBS",
  "InstitutionalDepartmentName": "Department",
  "MRAcquisitionType": "2D",
  "MagneticFieldStrength": 3,
  "Manufacturer": "Siemens",
  "ManufacturersModelName": "Prisma",
  "Modality": "MR",
  "MultibandAccelerationFactor": 8,
  "PartialFourier": 1,
  "PatientPosition": "HFS",
  "PercentPhaseFOV": 100,
  "PercentSampling": 100,
  "PhaseEncodingDirection": "j-",
  "PhaseEncodingSteps": 82,
  "PhaseResolution": 1,
  "PixelBandwidth": 3050,
  "ProcedureStepDescription": "Wager_Wager^1076_spacetop",
  "ProtocolName": "func_run-02_task-alignvideo_acq-ap-mb8",
  "PulseSequenceDetails": "%CustomerSeq%\\cmrr_mbep2d_bold",
  "ReceiveCoilActiveElements": "HEA;HEP",
  "ReceiveCoilName": "Head_32",
  "ReconMatrixPE": 82,
  "RepetitionTime": 0.46,
  "SAR": 0.0991606,
  "ScanOptions": "FS",
  "ScanningSequence": "EP",
  "SequenceName": "epfid2d1_82",
  "SequenceVariant": "SK\\SS",
  "SeriesDescription": "func_run-02_task-alignvideo_acq-ap-mb8",
  "SeriesNumber": 32,
  "ShimSetting": [4224, -7811, -7275, 154, -79, -97, -104, 106],
  "SliceThickness": 2.7,
  "SliceTiming": [0, 0.25, 0.0625, 0.3125, 0.125, 0.375, 0.1875, 0, 0.25, 0.0625, 0.3125, 0.125, 0.375, 0.1875, 0, 0.25, 0.0625, 0.3125, 0.125, 0.375, 0.1875, 0, 0.25, 0.0625, 0.3125, 0.125, 0.375, 0.1875, 0, 0.25, 0.0625, 0.3125, 0.125, 0.375, 0.1875, 0, 0.25, 0.0625, 0.3125, 0.125, 0.375, 0.1875, 0, 0.25, 0.0625, 0.3125, 0.125, 0.375, 0.1875, 0, 0.25, 0.0625, 0.3125, 0.125, 0.375, 0.1875],
  "SoftwareVersions": "syngo MR E11",
  "SpacingBetweenSlices": 2.7,
  "StationName": "AWP66112",
  "TaskName": "alignvideo",
  "TotalReadoutTime": 0.03969,
  "TxRefAmp": 254.304,
  "WipMemBlock": "16088b4a-6a10-4bc4-baf6-d216ecc61fdc||Sequence: R016 ve11e/master r/434b28f1; Aug  7 2019 18:53:46 by eja",
  "dcmmeta_affine": [
    [-2.6763694286346436, 0.184803307056427, 0.03169241547584534, 102.95755767822266],
    [0.18346576392650604, 2.6746432781219482, -0.10420046001672745, -103.98102569580078],
    [0.03852685168385506, 0.10113497823476791, 2.6978025436401367, -91.9148178100586],
    [0.0, 0.0, 0.0, 1.0]
],
  "dcmmeta_reorient_transform": [
    [0.0, -1.0, 0.0, 81.0],
    [1.0, 0.0, 0.0, 0.0],
    [0.0, 0.0, 1.0, 0.0],
    [0.0, 0.0, 0.0, 1.0]
],
  "dcmmeta_shape": [82, 82, 56, 926],
  "dcmmeta_slice_dim": 2,
  "dcmmeta_version": 0.6,
  "global": {
    "const": {
      "AccessionNumber": "A004379",
      "AcquisitionMatrix": [82, 0, 0, 82],
      "AngioFlag": "N",
      "BitsAllocated": 16,
      "BitsStored": 16,
      "BodyPartExamined": "BRAIN",
      "Columns": 656,
      "EchoNumbers": 1,
      "EchoTime": 27.2,
      "EchoTrainLength": 82,
      "FlipAngle": 44.0,
      "HighBit": 15,
      "ImageOrientationPatient": [0.99755581163928, -0.0683826941084, 0.01436000735282, 0.06888122832137, 0.99691243639331, -0.0376957630152],
      "ImagePositionPatient": [-939.08316623139, -827.63299284767, -65.754352337561],
      "ImageType": [
        "ORIGINAL",
        "PRIMARY",
        "M",
        "MB",
        "ND",
        "NORM",
        "MOSAIC"
],
      "ImagedNucleus": "1H",
      "ImagingFrequency": 123.259165,
      "InPlanePhaseEncodingDirection": "COL",
      "MRAcquisitionType": "2D",
      "MagneticFieldStrength": 3.0,
      "Manufacturer": "SIEMENS",
      "ManufacturerModelName": "Prisma",
      "Modality": "MR",
      "NumberOfAverages": 1.0,
      "NumberOfPhaseEncodingSteps": 82,
      "PercentPhaseFieldOfView": 100.0,
      "PercentSampling": 100.0,
      "PerformedProcedureStepStartTime": "081156.399000",
      "PhotometricInterpretation": "MONOCHROME2",
      "PixelBandwidth": 3050.0,
      "PixelRepresentation": 0,
      "PixelSpacing": [2.6829268932343, 2.6829268932343],
      "ProtocolName": "func_run-02_task-alignvideo_acq-ap-mb8",
      "RepetitionTime": 460.0,
      "Rows": 656,
      "SAR": 0.09916062309039,
      "SamplesPerPixel": 1,
      "ScanOptions": "FS",
      "ScanningSequence": "EP",
      "SequenceName": "epfid2d1_82",
      "SequenceVariant": [
        "SK",
        "SS"
],
      "SeriesDescription": "func_run-02_task-alignvideo_acq-ap-mb8",
      "SeriesNumber": 32,
      "SeriesTime": "095924.037000",
      "SliceLocation": -86.618582494378,
      "SliceThickness": 2.7000000476837,
      "SmallestImagePixelValue": 0,
      "SoftwareVersions": "syngo MR E11",
      "SpacingBetweenSlices": 2.7000000444466,
      "SpecificCharacterSet": "ISO_IR 100",
      "StudyID": "6",
      "StudyTime": "081156.337000",
      "TransmitCoilName": "Body",
      "VariableFlipAngleFlag": "N",
      "WindowCenterWidthExplanation": "Algo1"
    },
    "slices": {}
  },
  "time": {
    "samples": {
      "AcquisitionNumber": [1, 2, 3, 4, 5, 6, 7, 8, 9, 10, 11, 12, 13, 14, 15, 16, 17, 18, 19, 20, 21, 22, 23, 24, 25, 26, 27, 28, 29, 30, 31, 32, 33, 34, 35, 36, 37, 38, 39, 40, 41, 42, 43, 44, 45, 46, 47, 48, 49, 50, 51, 52, 53, 54, 55, 56, 57, 58, 59, 60, 61, 62, 63, 64, 65, 66, 67, 68, 69, 70, 71, 72, 73, 74, 75, 76, 77, 78, 79, 80, 81, 82, 83, 84, 85, 86, 87, 88, 89, 90, 91, 92, 93, 94, 95, 96, 97, 98, 99, 100, 101, 102, 103, 104, 105, 106, 107, 108, 109, 110, 111, 112, 113, 114, 115, 116, 117, 118, 119, 120, 121, 122, 123, 124, 125, 126, 127, 128, 129, 130, 131, 132, 133, 134, 135, 136, 137, 138, 139, 140, 141, 142, 143, 144, 145, 146, 147, 148, 149, 150, 151, 152, 153, 154, 155, 156, 157, 158, 159, 160, 161, 162, 163, 164, 165, 166, 167, 168, 169, 170, 171, 172, 173, 174, 175, 176, 177, 178, 179, 180, 181, 182, 183, 184, 185, 186, 187, 188, 189, 190, 191, 192, 193, 194, 195, 196, 197, 198, 199, 200, 201, 202, 203, 204, 205, 206, 207, 208, 209, 210, 211, 212, 213, 214, 215, 216, 217, 218, 219, 220, 221, 222, 223, 224, 225, 226, 227, 228, 229, 230, 231, 232, 233, 234, 235, 236, 237, 238, 239, 240, 241, 242, 243, 244, 245, 246, 247, 248, 249, 250, 251, 252, 253, 254, 255, 256, 257, 258, 259, 260, 261, 262, 263, 264, 265, 266, 267, 268, 269, 270, 271, 272, 273, 274, 275, 276, 277, 278, 279, 280, 281, 282, 283, 284, 285, 286, 287, 288, 289, 290, 291, 292, 293, 294, 295, 296, 297, 298, 299, 300, 301, 302, 303, 304, 305, 306, 307, 308, 309, 310, 311, 312, 313, 314, 315, 316, 317, 318, 319, 320, 321, 322, 323, 324, 325, 326, 327, 328, 329, 330, 331, 332, 333, 334, 335, 336, 337, 338, 339, 340, 341, 342, 343, 344, 345, 346, 347, 348, 349, 350, 351, 352, 353, 354, 355, 356, 357, 358, 359, 360, 361, 362, 363, 364, 365, 366, 367, 368, 369, 370, 371, 372, 373, 374, 375, 376, 377, 378, 379, 380, 381, 382, 383, 384, 385, 386, 387, 388, 389, 390, 391, 392, 393, 394, 395, 396, 397, 398, 399, 400, 401, 402, 403, 404, 405, 406, 407, 408, 409, 410, 411, 412, 413, 414, 415, 416, 417, 418, 419, 420, 421, 422, 423, 424, 425, 426, 427, 428, 429, 430, 431, 432, 433, 434, 435, 436, 437, 438, 439, 440, 441, 442, 443, 444, 445, 446, 447, 448, 449, 450, 451, 452, 453, 454, 455, 456, 457, 458, 459, 460, 461, 462, 463, 464, 465, 466, 467, 468, 469, 470, 471, 472, 473, 474, 475, 476, 477, 478, 479, 480, 481, 482, 483, 484, 485, 486, 487, 488, 489, 490, 491, 492, 493, 494, 495, 496, 497, 498, 499, 500, 501, 502, 503, 504, 505, 506, 507, 508, 509, 510, 511, 512, 513, 514, 515, 516, 517, 518, 519, 520, 521, 522, 523, 524, 525, 526, 527, 528, 529, 530, 531, 532, 533, 534, 535, 536, 537, 538, 539, 540, 541, 542, 543, 544, 545, 546, 547, 548, 549, 550, 551, 552, 553, 554, 555, 556, 557, 558, 559, 560, 561, 562, 563, 564, 565, 566, 567, 568, 569, 570, 571, 572, 573, 574, 575, 576, 577, 578, 579, 580, 581, 582, 583, 584, 585, 586, 587, 588, 589, 590, 591, 592, 593, 594, 595, 596, 597, 598, 599, 600, 601, 602, 603, 604, 605, 606, 607, 608, 609, 610, 611, 612, 613, 614, 615, 616, 617, 618, 619, 620, 621, 622, 623, 624, 625, 626, 627, 628, 629, 630, 631, 632, 633, 634, 635, 636, 637, 638, 639, 640, 641, 642, 643, 644, 645, 646, 647, 648, 649, 650, 651, 652, 653, 654, 655, 656, 657, 658, 659, 660, 661, 662, 663, 664, 665, 666, 667, 668, 669, 670, 671, 672, 673, 674, 675, 676, 677, 678, 679, 680, 681, 682, 683, 684, 685, 686, 687, 688, 689, 690, 691, 692, 693, 694, 695, 696, 697, 698, 699, 700, 701, 702, 703, 704, 705, 706, 707, 708, 709, 710, 711, 712, 713, 714, 715, 716, 717, 718, 719, 720, 721, 722, 723, 724, 725, 726, 727, 728, 729, 730, 731, 732, 733, 734, 735, 736, 737, 738, 739, 740, 741, 742, 743, 744, 745, 746, 747, 748, 749, 750, 751, 752, 753, 754, 755, 756, 757, 758, 759, 760, 761, 762, 763, 764, 765, 766, 767, 768, 769, 770, 771, 772, 773, 774, 775, 776, 777, 778, 779, 780, 781, 782, 783, 784, 785, 786, 787, 788, 789, 790, 791, 792, 793, 794, 795, 796, 797, 798, 799, 800, 801, 802, 803, 804, 805, 806, 807, 808, 809, 810, 811, 812, 813, 814, 815, 816, 817, 818, 819, 820, 821, 822, 823, 824, 825, 826, 827, 828, 829, 830, 831, 832, 833, 834, 835, 836, 837, 838, 839, 840, 841, 842, 843, 844, 845, 846, 847, 848, 849, 850, 851, 852, 853, 854, 855, 856, 857, 858, 859, 860, 861, 862, 863, 864, 865, 866, 867, 868, 869, 870, 871, 872, 873, 874, 875, 876, 877, 878, 879, 880, 881, 882, 883, 884, 885, 886, 887, 888, 889, 890, 891, 892, 893, 894, 895, 896, 897, 898, 899, 900, 901, 902, 903, 904, 905, 906, 907, 908, 909, 910, 911, 912, 913, 914, 915, 916, 917, 918, 919, 920, 921, 922, 923, 924, 925, 926],
      "AcquisitionTime": ["095910.902500", "095911.362500", "095911.822500", "095912.282500", "095912.742500", "095913.202500", "095913.662500", "095914.122500", "095914.582500", "095915.042500", "095915.502500", "095915.962500", "095916.422500", "095916.882500", "095917.342500", "095917.802500", "095918.262500", "095918.722500", "095919.182500", "095919.642500", "095920.102500", "095920.562500", "095921.022500", "095921.482500", "095921.942500", "095922.402500", "095922.862500", "095923.322500", "095923.782500", "095924.242500", "095924.702500", "095925.162500", "095925.622500", "095926.082500", "095926.542500", "095927.002500", "095927.462500", "095927.922500", "095928.382500", "095928.842500", "095929.302500", "095929.762500", "095930.222500", "095930.682500", "095931.142500", "095931.602500", "095932.062500", "095932.522500", "095932.982500", "095933.442500", "095933.902500", "095934.362500", "095934.822500", "095935.282500", "095935.742500", "095936.202500", "095936.662500", "095937.122500", "095937.582500", "095938.042500", "095938.502500", "095938.962500", "095939.422500", "095939.882500", "095940.342500", "095940.802500", "095941.262500", "095941.722500", "095942.182500", "095942.642500", "095943.102500", "095943.562500", "095944.022500", "095944.482500", "095944.942500", "095945.402500", "095945.862500", "095946.322500", "095946.782500", "095947.242500", "095947.702500", "095948.162500", "095948.622500", "095949.082500", "095949.542500", "095950.002500", "095950.462500", "095950.922500", "095951.382500", "095951.842500", "095952.302500", "095952.762500", "095953.222500", "095953.682500", "095954.142500", "095954.602500", "095955.062500", "095955.522500", "095955.982500", "095956.442500", "095956.902500", "095957.362500", "095957.822500", "095958.282500", "095958.742500", "095959.202500", "095959.662500", "100000.122500", "100000.582500", "100001.042500", "100001.502500", "100001.962500", "100002.422500", "100002.882500", "100003.342500", "100003.802500", "100004.262500", "100004.722500", "100005.182500", "100005.642500", "100006.102500", "100006.562500", "100007.022500", "100007.482500", "100007.942500", "100008.402500", "100008.862500", "100009.322500", "100009.782500", "100010.242500", "100010.702500", "100011.162500", "100011.622500", "100012.082500", "100012.542500", "100013.002500", "100013.462500", "100013.922500", "100014.382500", "100014.842500", "100015.302500", "100015.762500", "100016.222500", "100016.682500", "100017.142500", "100017.602500", "100018.062500", "100018.522500", "100018.982500", "100019.442500", "100019.902500", "100020.362500", "100020.822500", "100021.282500", "100021.742500", "100022.202500", "100022.662500", "100023.122500", "100023.582500", "100024.042500", "100024.502500", "100024.962500", "100025.422500", "100025.882500", "100026.342500", "100026.802500", "100027.262500", "100027.722500", "100028.182500", "100028.642500", "100029.102500", "100029.562500", "100030.022500", "100030.482500", "100030.942500", "100031.402500", "100031.862500", "100032.322500", "100032.782500", "100033.242500", "100033.702500", "100034.162500", "100034.622500", "100035.082500", "100035.542500", "100036.002500", "100036.462500", "100036.922500", "100037.382500", "100037.842500", "100038.302500", "100038.762500", "100039.222500", "100039.682500", "100040.142500", "100040.602500", "100041.062500", "100041.522500", "100041.982500", "100042.442500", "100042.902500", "100043.362500", "100043.822500", "100044.282500", "100044.742500", "100045.202500", "100045.662500", "100046.122500", "100046.582500", "100047.042500", "100047.502500", "100047.962500", "100048.422500", "100048.882500", "100049.342500", "100049.802500", "100050.262500", "100050.722500", "100051.182500", "100051.642500", "100052.102500", "100052.562500", "100053.022500", "100053.482500", "100053.942500", "100054.402500", "100054.862500", "100055.322500", "100055.782500", "100056.242500", "100056.702500", "100057.162500", "100057.622500", "100058.082500", "100058.542500", "100059.002500", "100059.462500", "100059.922500", "100100.382500", "100100.842500", "100101.302500", "100101.762500", "100102.222500", "100102.682500", "100103.142500", "100103.602500", "100104.062500", "100104.522500", "100104.982500", "100105.442500", "100105.902500", "100106.362500", "100106.822500", "100107.282500", "100107.742500", "100108.202500", "100108.662500", "100109.122500", "100109.582500", "100110.042500", "100110.502500", "100110.962500", "100111.422500", "100111.882500", "100112.342500", "100112.802500", "100113.262500", "100113.722500", "100114.182500", "100114.642500", "100115.102500", "100115.562500", "100116.022500", "100116.482500", "100116.942500", "100117.402500", "100117.862500", "100118.322500", "100118.782500", "100119.242500", "100119.702500", "100120.162500", "100120.622500", "100121.082500", "100121.542500", "100122.002500", "100122.462500", "100122.922500", "100123.382500", "100123.842500", "100124.302500", "100124.762500", "100125.222500", "100125.682500", "100126.142500", "100126.602500", "100127.062500", "100127.522500", "100127.982500", "100128.442500", "100128.902500", "100129.362500", "100129.822500", "100130.282500", "100130.742500", "100131.202500", "100131.662500", "100132.122500", "100132.582500", "100133.042500", "100133.502500", "100133.962500", "100134.422500", "100134.882500", "100135.342500", "100135.802500", "100136.262500", "100136.722500", "100137.182500", "100137.642500", "100138.102500", "100138.562500", "100139.022500", "100139.482500", "100139.942500", "100140.402500", "100140.862500", "100141.322500", "100141.782500", "100142.242500", "100142.702500", "100143.162500", "100143.622500", "100144.082500", "100144.542500", "100145.002500", "100145.462500", "100145.922500", "100146.382500", "100146.842500", "100147.302500", "100147.762500", "100148.222500", "100148.682500", "100149.142500", "100149.602500", "100150.062500", "100150.522500", "100150.982500", "100151.442500", "100151.902500", "100152.362500", "100152.822500", "100153.282500", "100153.742500", "100154.202500", "100154.662500", "100155.122500", "100155.582500", "100156.042500", "100156.502500", "100156.962500", "100157.422500", "100157.882500", "100158.342500", "100158.802500", "100159.262500", "100159.722500", "100200.182500", "100200.642500", "100201.102500", "100201.562500", "100202.022500", "100202.482500", "100202.942500", "100203.402500", "100203.862500", "100204.322500", "100204.782500", "100205.242500", "100205.702500", "100206.162500", "100206.622500", "100207.082500", "100207.542500", "100208.002500", "100208.462500", "100208.922500", "100209.382500", "100209.842500", "100210.302500", "100210.762500", "100211.222500", "100211.682500", "100212.142500", "100212.602500", "100213.062500", "100213.522500", "100213.982500", "100214.442500", "100214.902500", "100215.362500", "100215.822500", "100216.282500", "100216.742500", "100217.202500", "100217.662500", "100218.122500", "100218.582500", "100219.042500", "100219.502500", "100219.962500", "100220.422500", "100220.882500", "100221.342500", "100221.802500", "100222.262500", "100222.722500", "100223.182500", "100223.642500", "100224.102500", "100224.562500", "100225.022500", "100225.482500", "100225.942500", "100226.402500", "100226.862500", "100227.322500", "100227.782500", "100228.242500", "100228.702500", "100229.162500", "100229.622500", "100230.082500", "100230.542500", "100231.002500", "100231.462500", "100231.922500", "100232.382500", "100232.842500", "100233.302500", "100233.762500", "100234.222500", "100234.682500", "100235.142500", "100235.602500", "100236.062500", "100236.522500", "100236.982500", "100237.442500", "100237.902500", "100238.362500", "100238.822500", "100239.282500", "100239.742500", "100240.202500", "100240.662500", "100241.122500", "100241.582500", "100242.042500", "100242.502500", "100242.962500", "100243.422500", "100243.882500", "100244.342500", "100244.802500", "100245.262500", "100245.722500", "100246.182500", "100246.642500", "100247.102500", "100247.562500", "100248.022500", "100248.482500", "100248.942500", "100249.402500", "100249.862500", "100250.322500", "100250.782500", "100251.242500", "100251.702500", "100252.162500", "100252.622500", "100253.082500", "100253.542500", "100254.002500", "100254.462500", "100254.922500", "100255.382500", "100255.842500", "100256.302500", "100256.762500", "100257.222500", "100257.682500", "100258.142500", "100258.602500", "100259.062500", "100259.522500", "100259.982500", "100300.442500", "100300.902500", "100301.362500", "100301.822500", "100302.282500", "100302.742500", "100303.202500", "100303.662500", "100304.122500", "100304.582500", "100305.042500", "100305.502500", "100305.962500", "100306.422500", "100306.882500", "100307.342500", "100307.802500", "100308.262500", "100308.722500", "100309.182500", "100309.642500", "100310.102500", "100310.562500", "100311.022500", "100311.482500", "100311.942500", "100312.402500", "100312.862500", "100313.322500", "100313.782500", "100314.242500", "100314.702500", "100315.162500", "100315.622500", "100316.082500", "100316.542500", "100317.002500", "100317.462500", "100317.922500", "100318.382500", "100318.842500", "100319.302500", "100319.762500", "100320.222500", "100320.682500", "100321.142500", "100321.602500", "100322.062500", "100322.522500", "100322.982500", "100323.442500", "100323.902500", "100324.362500", "100324.822500", "100325.282500", "100325.742500", "100326.202500", "100326.662500", "100327.122500", "100327.582500", "100328.042500", "100328.502500", "100328.962500", "100329.422500", "100329.882500", "100330.342500", "100330.802500", "100331.262500", "100331.722500", "100332.182500", "100332.642500", "100333.102500", "100333.562500", "100334.022500", "100334.482500", "100334.942500", "100335.402500", "100335.862500", "100336.322500", "100336.782500", "100337.242500", "100337.702500", "100338.162500", "100338.622500", "100339.082500", "100339.542500", "100340.002500", "100340.462500", "100340.922500", "100341.382500", "100341.842500", "100342.302500", "100342.762500", "100343.222500", "100343.682500", "100344.142500", "100344.602500", "100345.062500", "100345.522500", "100345.982500", "100346.442500", "100346.902500", "100347.362500", "100347.822500", "100348.282500", "100348.742500", "100349.202500", "100349.662500", "100350.122500", "100350.582500", "100351.042500", "100351.502500", "100351.962500", "100352.422500", "100352.882500", "100353.342500", "100353.802500", "100354.262500", "100354.722500", "100355.182500", "100355.642500", "100356.102500", "100356.562500", "100357.022500", "100357.482500", "100357.942500", "100358.402500", "100358.862500", "100359.322500", "100359.782500", "100400.242500", "100400.702500", "100401.162500", "100401.622500", "100402.082500", "100402.542500", "100403.002500", "100403.462500", "100403.922500", "100404.382500", "100404.842500", "100405.302500", "100405.762500", "100406.222500", "100406.682500", "100407.142500", "100407.602500", "100408.062500", "100408.522500", "100408.982500", "100409.442500", "100409.902500", "100410.362500", "100410.822500", "100411.282500", "100411.742500", "100412.202500", "100412.662500", "100413.122500", "100413.582500", "100414.042500", "100414.502500", "100414.962500", "100415.422500", "100415.882500", "100416.342500", "100416.802500", "100417.262500", "100417.722500", "100418.182500", "100418.642500", "100419.102500", "100419.562500", "100420.022500", "100420.482500", "100420.942500", "100421.402500", "100421.862500", "100422.322500", "100422.782500", "100423.242500", "100423.702500", "100424.162500", "100424.622500", "100425.082500", "100425.542500", "100426.002500", "100426.462500", "100426.922500", "100427.382500", "100427.842500", "100428.302500", "100428.762500", "100429.222500", "100429.682500", "100430.142500", "100430.602500", "100431.062500", "100431.522500", "100431.982500", "100432.442500", "100432.902500", "100433.362500", "100433.822500", "100434.282500", "100434.742500", "100435.202500", "100435.662500", "100436.122500", "100436.582500", "100437.042500", "100437.502500", "100437.962500", "100438.422500", "100438.882500", "100439.342500", "100439.802500", "100440.262500", "100440.722500", "100441.182500", "100441.642500", "100442.102500", "100442.562500", "100443.022500", "100443.482500", "100443.942500", "100444.402500", "100444.862500", "100445.322500", "100445.782500", "100446.242500", "100446.702500", "100447.162500", "100447.622500", "100448.082500", "100448.542500", "100449.002500", "100449.462500", "100449.922500", "100450.382500", "100450.842500", "100451.302500", "100451.762500", "100452.222500", "100452.682500", "100453.142500", "100453.602500", "100454.062500", "100454.522500", "100454.982500", "100455.442500", "100455.902500", "100456.362500", "100456.822500", "100457.282500", "100457.742500", "100458.202500", "100458.662500", "100459.122500", "100459.582500", "100500.042500", "100500.502500", "100500.962500", "100501.422500", "100501.882500", "100502.342500", "100502.802500", "100503.262500", "100503.722500", "100504.182500", "100504.642500", "100505.102500", "100505.562500", "100506.022500", "100506.482500", "100506.942500", "100507.402500", "100507.862500", "100508.322500", "100508.782500", "100509.242500", "100509.702500", "100510.162500", "100510.622500", "100511.082500", "100511.542500", "100512.002500", "100512.462500", "100512.922500", "100513.382500", "100513.842500", "100514.302500", "100514.762500", "100515.222500", "100515.682500", "100516.142500", "100516.602500", "100517.062500", "100517.522500", "100517.982500", "100518.442500", "100518.902500", "100519.362500", "100519.822500", "100520.282500", "100520.742500", "100521.202500", "100521.662500", "100522.122500", "100522.582500", "100523.042500", "100523.502500", "100523.962500", "100524.422500", "100524.882500", "100525.342500", "100525.802500", "100526.262500", "100526.722500", "100527.182500", "100527.642500", "100528.102500", "100528.562500", "100529.022500", "100529.482500", "100529.942500", "100530.402500", "100530.862500", "100531.322500", "100531.782500", "100532.242500", "100532.702500", "100533.162500", "100533.622500", "100534.082500", "100534.542500", "100535.002500", "100535.462500", "100535.922500", "100536.382500", "100536.842500", "100537.302500", "100537.762500", "100538.222500", "100538.682500", "100539.142500", "100539.602500", "100540.062500", "100540.522500", "100540.982500", "100541.442500", "100541.902500", "100542.362500", "100542.822500", "100543.282500", "100543.742500", "100544.202500", "100544.662500", "100545.122500", "100545.582500", "100546.042500", "100546.502500", "100546.962500", "100547.422500", "100547.882500", "100548.342500", "100548.802500", "100549.262500", "100549.722500", "100550.182500", "100550.642500", "100551.102500", "100551.562500", "100552.022500", "100552.482500", "100552.942500", "100553.402500", "100553.862500", "100554.322500", "100554.782500", "100555.242500", "100555.702500", "100556.162500", "100556.622500", "100557.082500", "100557.542500", "100558.002500", "100558.462500", "100558.922500", "100559.382500", "100559.842500", "100600.302500", "100600.762500", "100601.222500", "100601.682500", "100602.142500", "100602.602500", "100603.062500", "100603.522500", "100603.982500", "100604.442500", "100604.902500", "100605.362500", "100605.822500", "100606.282500", "100606.742500", "100607.202500", "100607.662500", "100608.122500", "100608.582500", "100609.042500", "100609.502500", "100609.962500", "100610.422500", "100610.882500", "100611.342500", "100611.802500", "100612.262500", "100612.722500", "100613.182500", "100613.642500", "100614.102500", "100614.562500", "100615.022500", "100615.482500", "100615.942500", "100616.402500"],
