{
  "AcquisitionMatrixPE": 82,
  "AcquisitionNumber": 1,
  "AcquisitionTime": "15:06:27.887500",
  "BandwidthPerPixelPhaseEncode": 24.888,
  "BaseResolution": 82,
  "BodyPartExamined": "BRAIN",
  "ConsistencyInfo": "N4_VE11E_LATEST_20181129",
  "ConversionSoftware": "dcm2niix",
  "ConversionSoftwareVersion": "v1.0.20201102",
  "DerivedVendorReportedEchoSpacing": 0.00049,
  "DeviceSerialNumber": "66112",
  "DwellTime": 2e-06,
  "EchoTime": 0.0272,
  "EchoTrainLength": 82,
  "EffectiveEchoSpacing": 0.00049,
  "FlipAngle": 44,
  "ImageComments": "Unaliased MB8/PE3",
  "ImageOrientationPatientDICOM": [0.998641, -0.0187254, -0.0486261, 0.0338263, 0.942802, 0.331633],
  "ImageType": [
    "ORIGINAL",
    "PRIMARY",
    "M",
    "MB",
    "ND",
    "NORM",
    "MOSAIC"
],
  "ImagingFrequency": 123.252,
  "InPlanePhaseEncodingDirectionDICOM": "COL",
  "InstitutionAddress": "Maynard 3,Hanover,NH,US,03755",
  "InstitutionName": "Dartmouth College - PBS",
  "InstitutionalDepartmentName": "Department",
  "MRAcquisitionType": "2D",
  "MagneticFieldStrength": 3,
  "Manufacturer": "Siemens",
  "ManufacturersModelName": "Prisma",
  "Modality": "MR",
  "MultibandAccelerationFactor": 8,
  "PartialFourier": 1,
  "PatientPosition": "HFS",
  "PercentPhaseFOV": 100,
  "PercentSampling": 100,
  "PhaseEncodingDirection": "j-",
  "PhaseEncodingSteps": 82,
  "PhaseResolution": 1,
  "PixelBandwidth": 3050,
  "ProcedureStepDescription": "Wager_Wager^1076_spacetop",
  "ProtocolName": "func_run-02_task-faces_acq-ap-mb8",
  "PulseSequenceDetails": "%CustomerSeq%\\cmrr_mbep2d_bold",
  "ReceiveCoilActiveElements": "HEA;HEP",
  "ReceiveCoilName": "Head_32",
  "ReconMatrixPE": 82,
  "RepetitionTime": 0.46,
  "SAR": 0.101152,
  "ScanOptions": "FS",
  "ScanningSequence": "EP",
  "SequenceName": "epfid2d1_82",
  "SequenceVariant": "SK\\SS",
  "SeriesDescription": "func_run-02_task-faces_acq-ap-mb8",
  "SeriesNumber": 18,
  "ShimSetting": [4131, -7798, -7292, 659, -35, -289, 60, 126],
  "SliceThickness": 2.7,
  "SliceTiming": [0, 0.2525, 0.0625, 0.315, 0.1275, 0.3775, 0.19, 0, 0.2525, 0.0625, 0.315, 0.1275, 0.3775, 0.19, 0, 0.2525, 0.0625, 0.315, 0.1275, 0.3775, 0.19, 0, 0.2525, 0.0625, 0.315, 0.1275, 0.3775, 0.19, 0, 0.2525, 0.0625, 0.315, 0.1275, 0.3775, 0.19, 0, 0.2525, 0.0625, 0.315, 0.1275, 0.3775, 0.19, 0, 0.2525, 0.0625, 0.315, 0.1275, 0.3775, 0.19, 0, 0.2525, 0.0625, 0.315, 0.1275, 0.3775, 0.19],
  "SoftwareVersions": "syngo MR E11",
  "SpacingBetweenSlices": 2.7,
  "StationName": "AWP66112",
  "TaskName": "faces",
  "TotalReadoutTime": 0.03969,
  "TxRefAmp": 236.2,
  "WipMemBlock": "2871350c-d3b4-4f4a-9d46-fcf9a576889b||Sequence: R016 ve11e/master r/434b28f1; Aug  7 2019 18:53:46 by eja",
  "dcmmeta_affine": [
    [-2.6792821884155273, 0.09075354039669037, -0.10701389610767365, 110.86265563964844],
    [0.05023888126015663, 2.529468059539795, 0.898634672164917, -118.21314239501953],
    [-0.13046018779277802, -0.8897479772567749, 2.5438168048858643, -27.976985931396484],
    [0.0, 0.0, 0.0, 1.0]
],
  "dcmmeta_reorient_transform": [
    [0.0, -1.0, 0.0, 81.0],
    [1.0, 0.0, 0.0, 0.0],
    [0.0, 0.0, 1.0, 0.0],
    [0.0, 0.0, 0.0, 1.0]
],
  "dcmmeta_shape": [82, 82, 56, 914],
  "dcmmeta_slice_dim": 2,
  "dcmmeta_version": 0.6,
  "global": {
    "const": {
      "AccessionNumber": "A004205",
      "AcquisitionMatrix": [82, 0, 0, 82],
      "AngioFlag": "N",
      "BitsAllocated": 16,
      "BitsStored": 16,
      "BodyPartExamined": "BRAIN",
      "Columns": 656,
      "EchoNumbers": 1,
      "EchoTime": 27.2,
      "EchoTrainLength": 82,
      "FlipAngle": 44.0,
      "HighBit": 15,
      "ImageOrientationPatient": [0.99864150968858, -0.0187254003501, -0.0486260682006, 0.03382631744724, 0.94280173809505, 0.33163332596848],
      "ImagePositionPatient": [-913.21393719125, -798.21257006233, -317.96216425782],
      "ImageType": [
        "ORIGINAL",
        "PRIMARY",
        "M",
        "MB",
        "ND",
        "NORM",
        "MOSAIC"
],
      "ImagedNucleus": "1H",
      "ImagingFrequency": 123.252203,
      "InPlanePhaseEncodingDirection": "COL",
      "MRAcquisitionType": "2D",
      "MagneticFieldStrength": 3.0,
      "Manufacturer": "SIEMENS",
      "ManufacturerModelName": "Prisma",
      "Modality": "MR",
      "NumberOfAverages": 1.0,
      "NumberOfPhaseEncodingSteps": 82,
      "PercentPhaseFieldOfView": 100.0,
      "PercentSampling": 100.0,
      "PerformedProcedureStepStartTime": "135046.214000",
      "PhotometricInterpretation": "MONOCHROME2",
      "PixelBandwidth": 3050.0,
      "PixelRepresentation": 0,
      "PixelSpacing": [2.6829268932343, 2.6829268932343],
      "ProtocolName": "func_run-02_task-faces_acq-ap-mb8",
      "RepetitionTime": 460.0,
      "Rows": 656,
      "SAR": 0.10115220644727,
      "SamplesPerPixel": 1,
      "ScanOptions": "FS",
      "ScanningSequence": "EP",
      "SequenceName": "epfid2d1_82",
      "SequenceVariant": [
        "SK",
        "SS"
],
      "SeriesDescription": "func_run-02_task-faces_acq-ap-mb8",
      "SeriesNumber": 18,
      "SeriesTime": "150644.593000",
      "SliceLocation": -70.097258093371,
      "SliceThickness": 2.7000000476837,
      "SmallestImagePixelValue": 0,
      "SoftwareVersions": "syngo MR E11",
      "SpacingBetweenSlices": 2.700000079382,
      "SpecificCharacterSet": "ISO_IR 100",
      "StudyID": "1",
      "StudyTime": "135046.149000",
      "TransmitCoilName": "Body",
      "VariableFlipAngleFlag": "N",
      "WindowCenterWidthExplanation": "Algo1"
    },
    "slices": {}
  },
  "time": {
    "samples": {
      "AcquisitionNumber": [1, 2, 3, 4, 5, 6, 7, 8, 9, 10, 11, 12, 13, 14, 15, 16, 17, 18, 19, 20, 21, 22, 23, 24, 25, 26, 27, 28, 29, 30, 31, 32, 33, 34, 35, 36, 37, 38, 39, 40, 41, 42, 43, 44, 45, 46, 47, 48, 49, 50, 51, 52, 53, 54, 55, 56, 57, 58, 59, 60, 61, 62, 63, 64, 65, 66, 67, 68, 69, 70, 71, 72, 73, 74, 75, 76, 77, 78, 79, 80, 81, 82, 83, 84, 85, 86, 87, 88, 89, 90, 91, 92, 93, 94, 95, 96, 97, 98, 99, 100, 101, 102, 103, 104, 105, 106, 107, 108, 109, 110, 111, 112, 113, 114, 115, 116, 117, 118, 119, 120, 121, 122, 123, 124, 125, 126, 127, 128, 129, 130, 131, 132, 133, 134, 135, 136, 137, 138, 139, 140, 141, 142, 143, 144, 145, 146, 147, 148, 149, 150, 151, 152, 153, 154, 155, 156, 157, 158, 159, 160, 161, 162, 163, 164, 165, 166, 167, 168, 169, 170, 171, 172, 173, 174, 175, 176, 177, 178, 179, 180, 181, 182, 183, 184, 185, 186, 187, 188, 189, 190, 191, 192, 193, 194, 195, 196, 197, 198, 199, 200, 201, 202, 203, 204, 205, 206, 207, 208, 209, 210, 211, 212, 213, 214, 215, 216, 217, 218, 219, 220, 221, 222, 223, 224, 225, 226, 227, 228, 229, 230, 231, 232, 233, 234, 235, 236, 237, 238, 239, 240, 241, 242, 243, 244, 245, 246, 247, 248, 249, 250, 251, 252, 253, 254, 255, 256, 257, 258, 259, 260, 261, 262, 263, 264, 265, 266, 267, 268, 269, 270, 271, 272, 273, 274, 275, 276, 277, 278, 279, 280, 281, 282, 283, 284, 285, 286, 287, 288, 289, 290, 291, 292, 293, 294, 295, 296, 297, 298, 299, 300, 301, 302, 303, 304, 305, 306, 307, 308, 309, 310, 311, 312, 313, 314, 315, 316, 317, 318, 319, 320, 321, 322, 323, 324, 325, 326, 327, 328, 329, 330, 331, 332, 333, 334, 335, 336, 337, 338, 339, 340, 341, 342, 343, 344, 345, 346, 347, 348, 349, 350, 351, 352, 353, 354, 355, 356, 357, 358, 359, 360, 361, 362, 363, 364, 365, 366, 367, 368, 369, 370, 371, 372, 373, 374, 375, 376, 377, 378, 379, 380, 381, 382, 383, 384, 385, 386, 387, 388, 389, 390, 391, 392, 393, 394, 395, 396, 397, 398, 399, 400, 401, 402, 403, 404, 405, 406, 407, 408, 409, 410, 411, 412, 413, 414, 415, 416, 417, 418, 419, 420, 421, 422, 423, 424, 425, 426, 427, 428, 429, 430, 431, 432, 433, 434, 435, 436, 437, 438, 439, 440, 441, 442, 443, 444, 445, 446, 447, 448, 449, 450, 451, 452, 453, 454, 455, 456, 457, 458, 459, 460, 461, 462, 463, 464, 465, 466, 467, 468, 469, 470, 471, 472, 473, 474, 475, 476, 477, 478, 479, 480, 481, 482, 483, 484, 485, 486, 487, 488, 489, 490, 491, 492, 493, 494, 495, 496, 497, 498, 499, 500, 501, 502, 503, 504, 505, 506, 507, 508, 509, 510, 511, 512, 513, 514, 515, 516, 517, 518, 519, 520, 521, 522, 523, 524, 525, 526, 527, 528, 529, 530, 531, 532, 533, 534, 535, 536, 537, 538, 539, 540, 541, 542, 543, 544, 545, 546, 547, 548, 549, 550, 551, 552, 553, 554, 555, 556, 557, 558, 559, 560, 561, 562, 563, 564, 565, 566, 567, 568, 569, 570, 571, 572, 573, 574, 575, 576, 577, 578, 579, 580, 581, 582, 583, 584, 585, 586, 587, 588, 589, 590, 591, 592, 593, 594, 595, 596, 597, 598, 599, 600, 601, 602, 603, 604, 605, 606, 607, 608, 609, 610, 611, 612, 613, 614, 615, 616, 617, 618, 619, 620, 621, 622, 623, 624, 625, 626, 627, 628, 629, 630, 631, 632, 633, 634, 635, 636, 637, 638, 639, 640, 641, 642, 643, 644, 645, 646, 647, 648, 649, 650, 651, 652, 653, 654, 655, 656, 657, 658, 659, 660, 661, 662, 663, 664, 665, 666, 667, 668, 669, 670, 671, 672, 673, 674, 675, 676, 677, 678, 679, 680, 681, 682, 683, 684, 685, 686, 687, 688, 689, 690, 691, 692, 693, 694, 695, 696, 697, 698, 699, 700, 701, 702, 703, 704, 705, 706, 707, 708, 709, 710, 711, 712, 713, 714, 715, 716, 717, 718, 719, 720, 721, 722, 723, 724, 725, 726, 727, 728, 729, 730, 731, 732, 733, 734, 735, 736, 737, 738, 739, 740, 741, 742, 743, 744, 745, 746, 747, 748, 749, 750, 751, 752, 753, 754, 755, 756, 757, 758, 759, 760, 761, 762, 763, 764, 765, 766, 767, 768, 769, 770, 771, 772, 773, 774, 775, 776, 777, 778, 779, 780, 781, 782, 783, 784, 785, 786, 787, 788, 789, 790, 791, 792, 793, 794, 795, 796, 797, 798, 799, 800, 801, 802, 803, 804, 805, 806, 807, 808, 809, 810, 811, 812, 813, 814, 815, 816, 817, 818, 819, 820, 821, 822, 823, 824, 825, 826, 827, 828, 829, 830, 831, 832, 833, 834, 835, 836, 837, 838, 839, 840, 841, 842, 843, 844, 845, 846, 847, 848, 849, 850, 851, 852, 853, 854, 855, 856, 857, 858, 859, 860, 861, 862, 863, 864, 865, 866, 867, 868, 869, 870, 871, 872, 873, 874, 875, 876, 877, 878, 879, 880, 881, 882, 883, 884, 885, 886, 887, 888, 889, 890, 891, 892, 893, 894, 895, 896, 897, 898, 899, 900, 901, 902, 903, 904, 905, 906, 907, 908, 909, 910, 911, 912, 913, 914],
      "AcquisitionTime": ["150627.887500", "150628.347500", "150628.807500", "150629.267500", "150629.727500", "150630.187500", "150630.647500", "150631.107500", "150631.567500", "150632.027500", "150632.487500", "150632.947500", "150633.407500", "150633.867500", "150634.327500", "150634.787500", "150635.247500", "150635.707500", "150636.167500", "150636.627500", "150637.087500", "150637.547500", "150638.007500", "150638.467500", "150638.927500", "150639.387500", "150639.847500", "150640.307500", "150640.767500", "150641.227500", "150641.687500", "150642.147500", "150642.607500", "150643.067500", "150643.527500", "150643.987500", "150644.447500", "150644.907500", "150645.367500", "150645.827500", "150646.287500", "150646.747500", "150647.207500", "150647.667500", "150648.127500", "150648.587500", "150649.047500", "150649.507500", "150649.967500", "150650.427500", "150650.887500", "150651.347500", "150651.807500", "150652.267500", "150652.727500", "150653.187500", "150653.647500", "150654.107500", "150654.567500", "150655.027500", "150655.487500", "150655.947500", "150656.407500", "150656.867500", "150657.327500", "150657.787500", "150658.247500", "150658.707500", "150659.167500", "150659.627500", "150700.087500", "150700.547500", "150701.007500", "150701.467500", "150701.927500", "150702.387500", "150702.847500", "150703.307500", "150703.767500", "150704.227500", "150704.687500", "150705.147500", "150705.607500", "150706.067500", "150706.527500", "150706.987500", "150707.447500", "150707.907500", "150708.367500", "150708.827500", "150709.287500", "150709.747500", "150710.207500", "150710.667500", "150711.127500", "150711.587500", "150712.047500", "150712.507500", "150712.967500", "150713.427500", "150713.887500", "150714.347500", "150714.807500", "150715.267500", "150715.727500", "150716.187500", "150716.647500", "150717.107500", "150717.567500", "150718.027500", "150718.487500", "150718.947500", "150719.407500", "150719.867500", "150720.327500", "150720.787500", "150721.247500", "150721.707500", "150722.167500", "150722.627500", "150723.087500", "150723.547500", "150724.007500", "150724.467500", "150724.927500", "150725.387500", "150725.847500", "150726.307500", "150726.767500", "150727.227500", "150727.687500", "150728.147500", "150728.607500", "150729.067500", "150729.527500", "150729.987500", "150730.447500", "150730.907500", "150731.367500", "150731.827500", "150732.287500", "150732.747500", "150733.207500", "150733.667500", "150734.127500", "150734.587500", "150735.047500", "150735.507500", "150735.967500", "150736.427500", "150736.887500", "150737.347500", "150737.807500", "150738.267500", "150738.727500", "150739.187500", "150739.647500", "150740.107500", "150740.567500", "150741.027500", "150741.487500", "150741.947500", "150742.407500", "150742.867500", "150743.327500", "150743.787500", "150744.247500", "150744.707500", "150745.167500", "150745.627500", "150746.087500", "150746.547500", "150747.007500", "150747.467500", "150747.927500", "150748.387500", "150748.847500", "150749.307500", "150749.767500", "150750.227500", "150750.687500", "150751.147500", "150751.607500", "150752.067500", "150752.527500", "150752.987500", "150753.447500", "150753.907500", "150754.367500", "150754.827500", "150755.287500", "150755.747500", "150756.207500", "150756.667500", "150757.127500", "150757.587500", "150758.047500", "150758.507500", "150758.967500", "150759.427500", "150759.887500", "150800.347500", "150800.807500", "150801.267500", "150801.727500", "150802.187500", "150802.647500", "150803.107500", "150803.567500", "150804.027500", "150804.487500", "150804.947500", "150805.407500", "150805.867500", "150806.327500", "150806.787500", "150807.247500", "150807.707500", "150808.167500", "150808.627500", "150809.087500", "150809.547500", "150810.007500", "150810.467500", "150810.927500", "150811.387500", "150811.847500", "150812.307500", "150812.767500", "150813.227500", "150813.687500", "150814.147500", "150814.607500", "150815.067500", "150815.527500", "150815.987500", "150816.447500", "150816.907500", "150817.367500", "150817.827500", "150818.287500", "150818.747500", "150819.207500", "150819.667500", "150820.127500", "150820.587500", "150821.047500", "150821.507500", "150821.967500", "150822.427500", "150822.887500", "150823.347500", "150823.807500", "150824.267500", "150824.727500", "150825.187500", "150825.647500", "150826.107500", "150826.567500", "150827.027500", "150827.487500", "150827.947500", "150828.407500", "150828.867500", "150829.327500", "150829.787500", "150830.247500", "150830.707500", "150831.167500", "150831.627500", "150832.087500", "150832.547500", "150833.007500", "150833.467500", "150833.927500", "150834.387500", "150834.847500", "150835.307500", "150835.767500", "150836.227500", "150836.687500", "150837.147500", "150837.607500", "150838.067500", "150838.527500", "150838.987500", "150839.447500", "150839.907500", "150840.367500", "150840.827500", "150841.287500", "150841.747500", "150842.207500", "150842.667500", "150843.127500", "150843.587500", "150844.047500", "150844.507500", "150844.967500", "150845.427500", "150845.887500", "150846.347500", "150846.807500", "150847.267500", "150847.727500", "150848.187500", "150848.647500", "150849.107500", "150849.567500", "150850.027500", "150850.487500", "150850.947500", "150851.407500", "150851.867500", "150852.327500", "150852.787500", "150853.247500", "150853.707500", "150854.167500", "150854.627500", "150855.087500", "150855.547500", "150856.007500", "150856.467500", "150856.927500", "150857.387500", "150857.847500", "150858.307500", "150858.767500", "150859.227500", "150859.687500", "150900.147500", "150900.607500", "150901.067500", "150901.527500", "150901.987500", "150902.447500", "150902.907500", "150903.367500", "150903.827500", "150904.287500", "150904.747500", "150905.207500", "150905.667500", "150906.127500", "150906.587500", "150907.047500", "150907.507500", "150907.967500", "150908.427500", "150908.887500", "150909.347500", "150909.807500", "150910.267500", "150910.727500", "150911.187500", "150911.647500", "150912.107500", "150912.567500", "150913.027500", "150913.487500", "150913.947500", "150914.407500", "150914.867500", "150915.327500", "150915.787500", "150916.247500", "150916.707500", "150917.167500", "150917.627500", "150918.087500", "150918.547500", "150919.007500", "150919.467500", "150919.927500", "150920.387500", "150920.847500", "150921.307500", "150921.767500", "150922.227500", "150922.687500", "150923.147500", "150923.607500", "150924.067500", "150924.527500", "150924.987500", "150925.447500", "150925.907500", "150926.367500", "150926.827500", "150927.287500", "150927.747500", "150928.207500", "150928.667500", "150929.127500", "150929.587500", "150930.047500", "150930.507500", "150930.967500", "150931.427500", "150931.887500", "150932.347500", "150932.807500", "150933.267500", "150933.727500", "150934.187500", "150934.647500", "150935.107500", "150935.567500", "150936.027500", "150936.487500", "150936.947500", "150937.407500", "150937.867500", "150938.327500", "150938.787500", "150939.247500", "150939.707500", "150940.167500", "150940.627500", "150941.087500", "150941.547500", "150942.007500", "150942.467500", "150942.927500", "150943.387500", "150943.847500", "150944.307500", "150944.767500", "150945.227500", "150945.687500", "150946.147500", "150946.607500", "150947.067500", "150947.527500", "150947.987500", "150948.447500", "150948.907500", "150949.367500", "150949.827500", "150950.287500", "150950.747500", "150951.207500", "150951.667500", "150952.127500", "150952.587500", "150953.047500", "150953.507500", "150953.967500", "150954.427500", "150954.887500", "150955.347500", "150955.807500", "150956.267500", "150956.727500", "150957.187500", "150957.647500", "150958.107500", "150958.567500", "150959.027500", "150959.487500", "150959.947500", "151000.407500", "151000.867500", "151001.327500", "151001.787500", "151002.247500", "151002.707500", "151003.167500", "151003.627500", "151004.087500", "151004.547500", "151005.007500", "151005.467500", "151005.927500", "151006.387500", "151006.847500", "151007.307500", "151007.767500", "151008.227500", "151008.687500", "151009.147500", "151009.607500", "151010.067500", "151010.527500", "151010.987500", "151011.447500", "151011.907500", "151012.367500", "151012.827500", "151013.287500", "151013.747500", "151014.207500", "151014.667500", "151015.127500", "151015.587500", "151016.047500", "151016.507500", "151016.967500", "151017.427500", "151017.887500", "151018.347500", "151018.807500", "151019.267500", "151019.727500", "151020.187500", "151020.647500", "151021.107500", "151021.567500", "151022.027500", "151022.487500", "151022.947500", "151023.407500", "151023.867500", "151024.327500", "151024.787500", "151025.247500", "151025.707500", "151026.167500", "151026.627500", "151027.087500", "151027.547500", "151028.007500", "151028.467500", "151028.927500", "151029.387500", "151029.847500", "151030.307500", "151030.767500", "151031.227500", "151031.687500", "151032.147500", "151032.607500", "151033.067500", "151033.527500", "151033.987500", "151034.447500", "151034.907500", "151035.367500", "151035.827500", "151036.287500", "151036.747500", "151037.207500", "151037.667500", "151038.127500", "151038.587500", "151039.047500", "151039.507500", "151039.967500", "151040.427500", "151040.887500", "151041.347500", "151041.807500", "151042.267500", "151042.727500", "151043.187500", "151043.647500", "151044.107500", "151044.567500", "151045.027500", "151045.487500", "151045.947500", "151046.407500", "151046.867500", "151047.327500", "151047.787500", "151048.247500", "151048.707500", "151049.167500", "151049.627500", "151050.087500", "151050.547500", "151051.007500", "151051.467500", "151051.927500", "151052.387500", "151052.847500", "151053.307500", "151053.767500", "151054.227500", "151054.687500", "151055.147500", "151055.607500", "151056.067500", "151056.527500", "151056.987500", "151057.447500", "151057.907500", "151058.367500", "151058.827500", "151059.287500", "151059.747500", "151100.207500", "151100.667500", "151101.127500", "151101.587500", "151102.047500", "151102.507500", "151102.967500", "151103.427500", "151103.887500", "151104.347500", "151104.807500", "151105.267500", "151105.727500", "151106.187500", "151106.647500", "151107.107500", "151107.567500", "151108.027500", "151108.487500", "151108.947500", "151109.407500", "151109.867500", "151110.327500", "151110.787500", "151111.247500", "151111.707500", "151112.167500", "151112.627500", "151113.087500", "151113.547500", "151114.007500", "151114.467500", "151114.927500", "151115.387500", "151115.847500", "151116.307500", "151116.767500", "151117.227500", "151117.687500", "151118.147500", "151118.607500", "151119.067500", "151119.527500", "151119.987500", "151120.447500", "151120.907500", "151121.367500", "151121.827500", "151122.287500", "151122.747500", "151123.207500", "151123.667500", "151124.127500", "151124.587500", "151125.047500", "151125.507500", "151125.967500", "151126.427500", "151126.887500", "151127.347500", "151127.807500", "151128.267500", "151128.727500", "151129.187500", "151129.647500", "151130.107500", "151130.567500", "151131.027500", "151131.487500", "151131.947500", "151132.407500", "151132.867500", "151133.327500", "151133.787500", "151134.247500", "151134.707500", "151135.167500", "151135.627500", "151136.087500", "151136.547500", "151137.007500", "151137.467500", "151137.927500", "151138.387500", "151138.847500", "151139.307500", "151139.767500", "151140.227500", "151140.687500", "151141.147500", "151141.607500", "151142.067500", "151142.527500", "151142.987500", "151143.447500", "151143.907500", "151144.367500", "151144.827500", "151145.287500", "151145.747500", "151146.207500", "151146.667500", "151147.127500", "151147.587500", "151148.047500", "151148.507500", "151148.967500", "151149.427500", "151149.887500", "151150.347500", "151150.807500", "151151.267500", "151151.727500", "151152.187500", "151152.647500", "151153.107500", "151153.567500", "151154.027500", "151154.487500", "151154.947500", "151155.407500", "151155.867500", "151156.327500", "151156.787500", "151157.247500", "151157.707500", "151158.167500", "151158.627500", "151159.087500", "151159.547500", "151200.007500", "151200.467500", "151200.927500", "151201.387500", "151201.847500", "151202.307500", "151202.767500", "151203.227500", "151203.687500", "151204.147500", "151204.607500", "151205.067500", "151205.527500", "151205.987500", "151206.447500", "151206.907500", "151207.367500", "151207.827500", "151208.287500", "151208.747500", "151209.207500", "151209.667500", "151210.127500", "151210.587500", "151211.047500", "151211.507500", "151211.967500", "151212.427500", "151212.887500", "151213.347500", "151213.807500", "151214.267500", "151214.727500", "151215.187500", "151215.647500", "151216.107500", "151216.567500", "151217.027500", "151217.487500", "151217.947500", "151218.407500", "151218.867500", "151219.327500", "151219.787500", "151220.247500", "151220.707500", "151221.167500", "151221.627500", "151222.087500", "151222.547500", "151223.007500", "151223.467500", "151223.927500", "151224.387500", "151224.847500", "151225.307500", "151225.767500", "151226.227500", "151226.687500", "151227.147500", "151227.607500", "151228.067500", "151228.527500", "151228.987500", "151229.447500", "151229.907500", "151230.367500", "151230.827500", "151231.287500", "151231.747500", "151232.207500", "151232.667500", "151233.127500", "151233.587500", "151234.047500", "151234.507500", "151234.967500", "151235.427500", "151235.887500", "151236.347500", "151236.807500", "151237.267500", "151237.727500", "151238.187500", "151238.647500", "151239.107500", "151239.567500", "151240.027500", "151240.487500", "151240.947500", "151241.407500", "151241.867500", "151242.327500", "151242.787500", "151243.247500", "151243.707500", "151244.167500", "151244.627500", "151245.087500", "151245.547500", "151246.007500", "151246.467500", "151246.927500", "151247.387500", "151247.847500", "151248.307500", "151248.767500", "151249.227500", "151249.687500", "151250.147500", "151250.607500", "151251.067500", "151251.527500", "151251.987500", "151252.447500", "151252.907500", "151253.367500", "151253.827500", "151254.287500", "151254.747500", "151255.207500", "151255.667500", "151256.127500", "151256.587500", "151257.047500", "151257.507500", "151257.967500", "151258.427500", "151258.887500", "151259.347500", "151259.807500", "151300.267500", "151300.727500", "151301.187500", "151301.647500", "151302.107500", "151302.567500", "151303.027500", "151303.487500", "151303.947500", "151304.407500", "151304.867500", "151305.327500", "151305.787500", "151306.247500", "151306.707500", "151307.167500", "151307.627500", "151308.087500", "151308.547500", "151309.007500", "151309.467500", "151309.927500", "151310.387500", "151310.847500", "151311.307500", "151311.767500", "151312.227500", "151312.687500", "151313.147500", "151313.607500", "151314.067500", "151314.527500", "151314.987500", "151315.447500", "151315.907500", "151316.367500", "151316.827500", "151317.287500", "151317.747500", "151318.207500", "151318.667500", "151319.127500", "151319.587500", "151320.047500", "151320.507500", "151320.967500", "151321.427500", "151321.887500", "151322.347500", "151322.807500", "151323.267500", "151323.727500", "151324.187500", "151324.647500", "151325.107500", "151325.567500", "151326.027500", "151326.487500", "151326.947500", "151327.407500", "151327.867500"],
