{
  "AcquisitionMatrixPE": 82,
  "AcquisitionNumber": 1,
  "AcquisitionTime": "14:58:45.797500",
  "BandwidthPerPixelPhaseEncode": 24.888,
  "BaseResolution": 82,
  "BodyPartExamined": "BRAIN",
  "ConsistencyInfo": "N4_VE11E_LATEST_20181129",
  "ConversionSoftware": "dcm2niix",
  "ConversionSoftwareVersion": "v1.0.20201102",
  "DerivedVendorReportedEchoSpacing": 0.00049,
  "DeviceSerialNumber": "66112",
  "DwellTime": 2e-06,
  "EchoTime": 0.0272,
  "EchoTrainLength": 82,
  "EffectiveEchoSpacing": 0.00049,
  "FlipAngle": 44,
  "ImageComments": "Unaliased MB8/PE3",
  "ImageOrientationPatientDICOM": [0.998641, -0.0187254, -0.0486261, 0.0338263, 0.942802, 0.331633],
  "ImageType": [
    "ORIGINAL",
    "PRIMARY",
    "M",
    "MB",
    "ND",
    "NORM",
    "MOSAIC"
],
  "ImagingFrequency": 123.252,
  "InPlanePhaseEncodingDirectionDICOM": "COL",
  "InstitutionAddress": "Maynard 3,Hanover,NH,US,03755",
  "InstitutionName": "Dartmouth College - PBS",
  "InstitutionalDepartmentName": "Department",
  "MRAcquisitionType": "2D",
  "MagneticFieldStrength": 3,
  "Manufacturer": "Siemens",
  "ManufacturersModelName": "Prisma",
  "Modality": "MR",
  "MultibandAccelerationFactor": 8,
  "PartialFourier": 1,
  "PatientPosition": "HFS",
  "PercentPhaseFOV": 100,
  "PercentSampling": 100,
  "PhaseEncodingDirection": "j-",
  "PhaseEncodingSteps": 82,
  "PhaseResolution": 1,
  "PixelBandwidth": 3050,
  "ProcedureStepDescription": "Wager_Wager^1076_spacetop",
  "ProtocolName": "func_run-01_task-faces_acq-ap-mb8",
  "PulseSequenceDetails": "%CustomerSeq%\\cmrr_mbep2d_bold",
  "ReceiveCoilActiveElements": "HEA;HEP",
  "ReceiveCoilName": "Head_32",
  "ReconMatrixPE": 82,
  "RepetitionTime": 0.46,
  "SAR": 0.101152,
  "ScanOptions": "FS",
  "ScanningSequence": "EP",
  "SequenceName": "epfid2d1_82",
  "SequenceVariant": "SK\\SS",
  "SeriesDescription": "func_run-01_task-faces_acq-ap-mb8",
  "SeriesNumber": 16,
  "ShimSetting": [4131, -7798, -7292, 659, -35, -289, 60, 126],
  "SliceThickness": 2.7,
  "SliceTiming": [0, 0.25, 0.0625, 0.3125, 0.125, 0.375, 0.1875, 0, 0.25, 0.0625, 0.3125, 0.125, 0.375, 0.1875, 0, 0.25, 0.0625, 0.3125, 0.125, 0.375, 0.1875, 0, 0.25, 0.0625, 0.3125, 0.125, 0.375, 0.1875, 0, 0.25, 0.0625, 0.3125, 0.125, 0.375, 0.1875, 0, 0.25, 0.0625, 0.3125, 0.125, 0.375, 0.1875, 0, 0.25, 0.0625, 0.3125, 0.125, 0.375, 0.1875, 0, 0.25, 0.0625, 0.3125, 0.125, 0.375, 0.1875],
  "SoftwareVersions": "syngo MR E11",
  "SpacingBetweenSlices": 2.7,
  "StationName": "AWP66112",
  "TaskName": "faces",
  "TotalReadoutTime": 0.03969,
  "TxRefAmp": 236.2,
  "WipMemBlock": "3fd02bd7-19c9-4059-9e48-24be63b75b2d||Sequence: R016 ve11e/master r/434b28f1; Aug  7 2019 18:53:46 by eja",
  "dcmmeta_affine": [
    [-2.6792821884155273, 0.09075354039669037, -0.10701389610767365, 110.86265563964844],
    [0.05023888126015663, 2.529468059539795, 0.898634672164917, -118.21314239501953],
    [-0.13046018779277802, -0.8897479772567749, 2.5438168048858643, -27.976985931396484],
    [0.0, 0.0, 0.0, 1.0]
],
  "dcmmeta_reorient_transform": [
    [0.0, -1.0, 0.0, 81.0],
    [1.0, 0.0, 0.0, 0.0],
    [0.0, 0.0, 1.0, 0.0],
    [0.0, 0.0, 0.0, 1.0]
],
  "dcmmeta_shape": [82, 82, 56, 914],
  "dcmmeta_slice_dim": 2,
  "dcmmeta_version": 0.6,
  "global": {
    "const": {
      "AccessionNumber": "A004205",
      "AcquisitionMatrix": [82, 0, 0, 82],
      "AngioFlag": "N",
      "BitsAllocated": 16,
      "BitsStored": 16,
      "BodyPartExamined": "BRAIN",
      "Columns": 656,
      "EchoNumbers": 1,
      "EchoTime": 27.2,
      "EchoTrainLength": 82,
      "FlipAngle": 44.0,
      "HighBit": 15,
      "ImageOrientationPatient": [0.99864150968858, -0.0187254003501, -0.0486260682006, 0.03382631744724, 0.94280173809505, 0.33163332596848],
      "ImagePositionPatient": [-913.21393719125, -798.21257006233, -317.96216425782],
      "ImageType": [
        "ORIGINAL",
        "PRIMARY",
        "M",
        "MB",
        "ND",
        "NORM",
        "MOSAIC"
],
      "ImagedNucleus": "1H",
      "ImagingFrequency": 123.2522,
      "InPlanePhaseEncodingDirection": "COL",
      "MRAcquisitionType": "2D",
      "MagneticFieldStrength": 3.0,
      "Manufacturer": "SIEMENS",
      "ManufacturerModelName": "Prisma",
      "Modality": "MR",
      "NumberOfAverages": 1.0,
      "NumberOfPhaseEncodingSteps": 82,
      "PercentPhaseFieldOfView": 100.0,
      "PercentSampling": 100.0,
      "PerformedProcedureStepStartTime": "135046.214000",
      "PhotometricInterpretation": "MONOCHROME2",
      "PixelBandwidth": 3050.0,
      "PixelRepresentation": 0,
      "PixelSpacing": [2.6829268932343, 2.6829268932343],
      "ProtocolName": "func_run-01_task-faces_acq-ap-mb8",
      "RepetitionTime": 460.0,
      "Rows": 656,
      "SAR": 0.10115220644727,
      "SamplesPerPixel": 1,
      "ScanOptions": "FS",
      "ScanningSequence": "EP",
      "SequenceName": "epfid2d1_82",
      "SequenceVariant": [
        "SK",
        "SS"
],
      "SeriesDescription": "func_run-01_task-faces_acq-ap-mb8",
      "SeriesNumber": 16,
      "SeriesTime": "145904.491000",
      "SliceLocation": -70.097258093371,
      "SliceThickness": 2.7000000476837,
      "SmallestImagePixelValue": 0,
      "SoftwareVersions": "syngo MR E11",
      "SpacingBetweenSlices": 2.700000079382,
      "SpecificCharacterSet": "ISO_IR 100",
      "StudyID": "1",
      "StudyTime": "135046.149000",
      "TransmitCoilName": "Body",
      "VariableFlipAngleFlag": "N",
      "WindowCenterWidthExplanation": "Algo1"
    },
    "slices": {}
  },
  "time": {
    "samples": {
      "AcquisitionNumber": [1, 2, 3, 4, 5, 6, 7, 8, 9, 10, 11, 12, 13, 14, 15, 16, 17, 18, 19, 20, 21, 22, 23, 24, 25, 26, 27, 28, 29, 30, 31, 32, 33, 34, 35, 36, 37, 38, 39, 40, 41, 42, 43, 44, 45, 46, 47, 48, 49, 50, 51, 52, 53, 54, 55, 56, 57, 58, 59, 60, 61, 62, 63, 64, 65, 66, 67, 68, 69, 70, 71, 72, 73, 74, 75, 76, 77, 78, 79, 80, 81, 82, 83, 84, 85, 86, 87, 88, 89, 90, 91, 92, 93, 94, 95, 96, 97, 98, 99, 100, 101, 102, 103, 104, 105, 106, 107, 108, 109, 110, 111, 112, 113, 114, 115, 116, 117, 118, 119, 120, 121, 122, 123, 124, 125, 126, 127, 128, 129, 130, 131, 132, 133, 134, 135, 136, 137, 138, 139, 140, 141, 142, 143, 144, 145, 146, 147, 148, 149, 150, 151, 152, 153, 154, 155, 156, 157, 158, 159, 160, 161, 162, 163, 164, 165, 166, 167, 168, 169, 170, 171, 172, 173, 174, 175, 176, 177, 178, 179, 180, 181, 182, 183, 184, 185, 186, 187, 188, 189, 190, 191, 192, 193, 194, 195, 196, 197, 198, 199, 200, 201, 202, 203, 204, 205, 206, 207, 208, 209, 210, 211, 212, 213, 214, 215, 216, 217, 218, 219, 220, 221, 222, 223, 224, 225, 226, 227, 228, 229, 230, 231, 232, 233, 234, 235, 236, 237, 238, 239, 240, 241, 242, 243, 244, 245, 246, 247, 248, 249, 250, 251, 252, 253, 254, 255, 256, 257, 258, 259, 260, 261, 262, 263, 264, 265, 266, 267, 268, 269, 270, 271, 272, 273, 274, 275, 276, 277, 278, 279, 280, 281, 282, 283, 284, 285, 286, 287, 288, 289, 290, 291, 292, 293, 294, 295, 296, 297, 298, 299, 300, 301, 302, 303, 304, 305, 306, 307, 308, 309, 310, 311, 312, 313, 314, 315, 316, 317, 318, 319, 320, 321, 322, 323, 324, 325, 326, 327, 328, 329, 330, 331, 332, 333, 334, 335, 336, 337, 338, 339, 340, 341, 342, 343, 344, 345, 346, 347, 348, 349, 350, 351, 352, 353, 354, 355, 356, 357, 358, 359, 360, 361, 362, 363, 364, 365, 366, 367, 368, 369, 370, 371, 372, 373, 374, 375, 376, 377, 378, 379, 380, 381, 382, 383, 384, 385, 386, 387, 388, 389, 390, 391, 392, 393, 394, 395, 396, 397, 398, 399, 400, 401, 402, 403, 404, 405, 406, 407, 408, 409, 410, 411, 412, 413, 414, 415, 416, 417, 418, 419, 420, 421, 422, 423, 424, 425, 426, 427, 428, 429, 430, 431, 432, 433, 434, 435, 436, 437, 438, 439, 440, 441, 442, 443, 444, 445, 446, 447, 448, 449, 450, 451, 452, 453, 454, 455, 456, 457, 458, 459, 460, 461, 462, 463, 464, 465, 466, 467, 468, 469, 470, 471, 472, 473, 474, 475, 476, 477, 478, 479, 480, 481, 482, 483, 484, 485, 486, 487, 488, 489, 490, 491, 492, 493, 494, 495, 496, 497, 498, 499, 500, 501, 502, 503, 504, 505, 506, 507, 508, 509, 510, 511, 512, 513, 514, 515, 516, 517, 518, 519, 520, 521, 522, 523, 524, 525, 526, 527, 528, 529, 530, 531, 532, 533, 534, 535, 536, 537, 538, 539, 540, 541, 542, 543, 544, 545, 546, 547, 548, 549, 550, 551, 552, 553, 554, 555, 556, 557, 558, 559, 560, 561, 562, 563, 564, 565, 566, 567, 568, 569, 570, 571, 572, 573, 574, 575, 576, 577, 578, 579, 580, 581, 582, 583, 584, 585, 586, 587, 588, 589, 590, 591, 592, 593, 594, 595, 596, 597, 598, 599, 600, 601, 602, 603, 604, 605, 606, 607, 608, 609, 610, 611, 612, 613, 614, 615, 616, 617, 618, 619, 620, 621, 622, 623, 624, 625, 626, 627, 628, 629, 630, 631, 632, 633, 634, 635, 636, 637, 638, 639, 640, 641, 642, 643, 644, 645, 646, 647, 648, 649, 650, 651, 652, 653, 654, 655, 656, 657, 658, 659, 660, 661, 662, 663, 664, 665, 666, 667, 668, 669, 670, 671, 672, 673, 674, 675, 676, 677, 678, 679, 680, 681, 682, 683, 684, 685, 686, 687, 688, 689, 690, 691, 692, 693, 694, 695, 696, 697, 698, 699, 700, 701, 702, 703, 704, 705, 706, 707, 708, 709, 710, 711, 712, 713, 714, 715, 716, 717, 718, 719, 720, 721, 722, 723, 724, 725, 726, 727, 728, 729, 730, 731, 732, 733, 734, 735, 736, 737, 738, 739, 740, 741, 742, 743, 744, 745, 746, 747, 748, 749, 750, 751, 752, 753, 754, 755, 756, 757, 758, 759, 760, 761, 762, 763, 764, 765, 766, 767, 768, 769, 770, 771, 772, 773, 774, 775, 776, 777, 778, 779, 780, 781, 782, 783, 784, 785, 786, 787, 788, 789, 790, 791, 792, 793, 794, 795, 796, 797, 798, 799, 800, 801, 802, 803, 804, 805, 806, 807, 808, 809, 810, 811, 812, 813, 814, 815, 816, 817, 818, 819, 820, 821, 822, 823, 824, 825, 826, 827, 828, 829, 830, 831, 832, 833, 834, 835, 836, 837, 838, 839, 840, 841, 842, 843, 844, 845, 846, 847, 848, 849, 850, 851, 852, 853, 854, 855, 856, 857, 858, 859, 860, 861, 862, 863, 864, 865, 866, 867, 868, 869, 870, 871, 872, 873, 874, 875, 876, 877, 878, 879, 880, 881, 882, 883, 884, 885, 886, 887, 888, 889, 890, 891, 892, 893, 894, 895, 896, 897, 898, 899, 900, 901, 902, 903, 904, 905, 906, 907, 908, 909, 910, 911, 912, 913, 914],
      "AcquisitionTime": ["145845.797500", "145846.257500", "145846.717500", "145847.177500", "145847.637500", "145848.097500", "145848.557500", "145849.017500", "145849.477500", "145849.937500", "145850.397500", "145850.857500", "145851.317500", "145851.777500", "145852.237500", "145852.697500", "145853.157500", "145853.617500", "145854.077500", "145854.537500", "145854.997500", "145855.457500", "145855.917500", "145856.377500", "145856.837500", "145857.297500", "145857.757500", "145858.217500", "145858.677500", "145859.137500", "145859.597500", "145900.057500", "145900.517500", "145900.977500", "145901.437500", "145901.897500", "145902.357500", "145902.817500", "145903.277500", "145903.737500", "145904.197500", "145904.657500", "145905.117500", "145905.577500", "145906.037500", "145906.497500", "145906.957500", "145907.417500", "145907.877500", "145908.337500", "145908.797500", "145909.257500", "145909.717500", "145910.177500", "145910.637500", "145911.097500", "145911.557500", "145912.017500", "145912.477500", "145912.937500", "145913.397500", "145913.857500", "145914.317500", "145914.777500", "145915.237500", "145915.697500", "145916.157500", "145916.617500", "145917.077500", "145917.537500", "145917.997500", "145918.457500", "145918.917500", "145919.377500", "145919.837500", "145920.297500", "145920.757500", "145921.217500", "145921.677500", "145922.137500", "145922.597500", "145923.057500", "145923.517500", "145923.977500", "145924.437500", "145924.897500", "145925.357500", "145925.817500", "145926.277500", "145926.737500", "145927.197500", "145927.657500", "145928.117500", "145928.577500", "145929.037500", "145929.497500", "145929.957500", "145930.417500", "145930.877500", "145931.337500", "145931.797500", "145932.257500", "145932.717500", "145933.177500", "145933.637500", "145934.097500", "145934.557500", "145935.017500", "145935.477500", "145935.937500", "145936.397500", "145936.857500", "145937.317500", "145937.777500", "145938.237500", "145938.697500", "145939.157500", "145939.617500", "145940.077500", "145940.537500", "145940.997500", "145941.457500", "145941.917500", "145942.377500", "145942.837500", "145943.297500", "145943.757500", "145944.217500", "145944.677500", "145945.137500", "145945.597500", "145946.057500", "145946.517500", "145946.977500", "145947.437500", "145947.897500", "145948.357500", "145948.817500", "145949.277500", "145949.737500", "145950.197500", "145950.657500", "145951.117500", "145951.577500", "145952.037500", "145952.497500", "145952.957500", "145953.417500", "145953.877500", "145954.337500", "145954.797500", "145955.257500", "145955.717500", "145956.177500", "145956.637500", "145957.097500", "145957.557500", "145958.017500", "145958.477500", "145958.937500", "145959.397500", "145959.857500", "150000.317500", "150000.777500", "150001.237500", "150001.697500", "150002.157500", "150002.617500", "150003.077500", "150003.537500", "150003.997500", "150004.457500", "150004.917500", "150005.377500", "150005.837500", "150006.297500", "150006.757500", "150007.217500", "150007.677500", "150008.137500", "150008.597500", "150009.057500", "150009.517500", "150009.977500", "150010.437500", "150010.897500", "150011.357500", "150011.817500", "150012.277500", "150012.737500", "150013.197500", "150013.657500", "150014.117500", "150014.577500", "150015.037500", "150015.497500", "150015.957500", "150016.417500", "150016.877500", "150017.337500", "150017.797500", "150018.257500", "150018.717500", "150019.177500", "150019.637500", "150020.097500", "150020.557500", "150021.017500", "150021.477500", "150021.937500", "150022.397500", "150022.857500", "150023.317500", "150023.777500", "150024.237500", "150024.697500", "150025.157500", "150025.617500", "150026.077500", "150026.537500", "150026.997500", "150027.457500", "150027.917500", "150028.377500", "150028.837500", "150029.297500", "150029.757500", "150030.217500", "150030.677500", "150031.137500", "150031.597500", "150032.057500", "150032.517500", "150032.977500", "150033.437500", "150033.897500", "150034.357500", "150034.817500", "150035.277500", "150035.737500", "150036.197500", "150036.657500", "150037.117500", "150037.577500", "150038.037500", "150038.497500", "150038.957500", "150039.417500", "150039.877500", "150040.337500", "150040.797500", "150041.257500", "150041.717500", "150042.177500", "150042.637500", "150043.097500", "150043.557500", "150044.017500", "150044.477500", "150044.937500", "150045.397500", "150045.857500", "150046.317500", "150046.777500", "150047.237500", "150047.697500", "150048.157500", "150048.617500", "150049.077500", "150049.537500", "150049.997500", "150050.457500", "150050.917500", "150051.377500", "150051.837500", "150052.297500", "150052.757500", "150053.217500", "150053.677500", "150054.137500", "150054.597500", "150055.057500", "150055.517500", "150055.977500", "150056.437500", "150056.897500", "150057.357500", "150057.817500", "150058.277500", "150058.737500", "150059.197500", "150059.657500", "150100.117500", "150100.577500", "150101.037500", "150101.497500", "150101.957500", "150102.417500", "150102.877500", "150103.337500", "150103.797500", "150104.257500", "150104.717500", "150105.177500", "150105.637500", "150106.097500", "150106.557500", "150107.017500", "150107.477500", "150107.937500", "150108.397500", "150108.857500", "150109.317500", "150109.777500", "150110.237500", "150110.697500", "150111.157500", "150111.617500", "150112.077500", "150112.537500", "150112.997500", "150113.457500", "150113.917500", "150114.377500", "150114.837500", "150115.297500", "150115.757500", "150116.217500", "150116.677500", "150117.137500", "150117.597500", "150118.057500", "150118.517500", "150118.977500", "150119.437500", "150119.897500", "150120.357500", "150120.817500", "150121.277500", "150121.737500", "150122.197500", "150122.657500", "150123.117500", "150123.577500", "150124.037500", "150124.497500", "150124.957500", "150125.417500", "150125.877500", "150126.337500", "150126.797500", "150127.257500", "150127.717500", "150128.177500", "150128.637500", "150129.097500", "150129.557500", "150130.017500", "150130.477500", "150130.937500", "150131.397500", "150131.857500", "150132.317500", "150132.777500", "150133.237500", "150133.697500", "150134.157500", "150134.617500", "150135.077500", "150135.537500", "150135.997500", "150136.457500", "150136.917500", "150137.377500", "150137.837500", "150138.297500", "150138.757500", "150139.217500", "150139.677500", "150140.137500", "150140.597500", "150141.057500", "150141.517500", "150141.977500", "150142.437500", "150142.897500", "150143.357500", "150143.817500", "150144.277500", "150144.737500", "150145.197500", "150145.657500", "150146.117500", "150146.577500", "150147.037500", "150147.497500", "150147.957500", "150148.417500", "150148.877500", "150149.337500", "150149.797500", "150150.257500", "150150.717500", "150151.177500", "150151.637500", "150152.097500", "150152.557500", "150153.017500", "150153.477500", "150153.937500", "150154.397500", "150154.857500", "150155.317500", "150155.777500", "150156.237500", "150156.697500", "150157.157500", "150157.617500", "150158.077500", "150158.537500", "150158.997500", "150159.457500", "150159.917500", "150200.377500", "150200.837500", "150201.297500", "150201.757500", "150202.217500", "150202.677500", "150203.137500", "150203.597500", "150204.057500", "150204.517500", "150204.977500", "150205.437500", "150205.897500", "150206.357500", "150206.817500", "150207.277500", "150207.737500", "150208.197500", "150208.657500", "150209.117500", "150209.577500", "150210.037500", "150210.497500", "150210.957500", "150211.417500", "150211.877500", "150212.337500", "150212.797500", "150213.257500", "150213.717500", "150214.177500", "150214.637500", "150215.097500", "150215.557500", "150216.017500", "150216.477500", "150216.937500", "150217.397500", "150217.857500", "150218.317500", "150218.777500", "150219.237500", "150219.697500", "150220.157500", "150220.617500", "150221.077500", "150221.537500", "150221.997500", "150222.457500", "150222.917500", "150223.377500", "150223.837500", "150224.297500", "150224.757500", "150225.217500", "150225.677500", "150226.137500", "150226.597500", "150227.057500", "150227.517500", "150227.977500", "150228.437500", "150228.897500", "150229.357500", "150229.817500", "150230.277500", "150230.737500", "150231.197500", "150231.657500", "150232.117500", "150232.577500", "150233.037500", "150233.497500", "150233.957500", "150234.417500", "150234.877500", "150235.337500", "150235.797500", "150236.257500", "150236.717500", "150237.177500", "150237.637500", "150238.097500", "150238.557500", "150239.017500", "150239.477500", "150239.937500", "150240.397500", "150240.857500", "150241.317500", "150241.777500", "150242.237500", "150242.697500", "150243.157500", "150243.617500", "150244.077500", "150244.537500", "150244.997500", "150245.457500", "150245.917500", "150246.377500", "150246.837500", "150247.297500", "150247.757500", "150248.217500", "150248.677500", "150249.137500", "150249.597500", "150250.057500", "150250.517500", "150250.977500", "150251.437500", "150251.897500", "150252.357500", "150252.817500", "150253.277500", "150253.737500", "150254.197500", "150254.657500", "150255.117500", "150255.577500", "150256.037500", "150256.497500", "150256.957500", "150257.417500", "150257.877500", "150258.337500", "150258.797500", "150259.257500", "150259.717500", "150300.177500", "150300.637500", "150301.097500", "150301.557500", "150302.017500", "150302.477500", "150302.937500", "150303.397500", "150303.857500", "150304.317500", "150304.777500", "150305.237500", "150305.697500", "150306.157500", "150306.617500", "150307.077500", "150307.537500", "150307.997500", "150308.457500", "150308.917500", "150309.377500", "150309.837500", "150310.297500", "150310.757500", "150311.217500", "150311.677500", "150312.137500", "150312.597500", "150313.057500", "150313.517500", "150313.977500", "150314.437500", "150314.897500", "150315.357500", "150315.817500", "150316.277500", "150316.737500", "150317.197500", "150317.657500", "150318.117500", "150318.577500", "150319.037500", "150319.497500", "150319.957500", "150320.417500", "150320.877500", "150321.337500", "150321.797500", "150322.257500", "150322.717500", "150323.177500", "150323.637500", "150324.097500", "150324.557500", "150325.017500", "150325.477500", "150325.937500", "150326.397500", "150326.857500", "150327.317500", "150327.777500", "150328.237500", "150328.697500", "150329.157500", "150329.617500", "150330.077500", "150330.537500", "150330.997500", "150331.457500", "150331.917500", "150332.377500", "150332.837500", "150333.297500", "150333.757500", "150334.217500", "150334.677500", "150335.137500", "150335.597500", "150336.057500", "150336.517500", "150336.977500", "150337.437500", "150337.897500", "150338.357500", "150338.817500", "150339.277500", "150339.737500", "150340.197500", "150340.657500", "150341.117500", "150341.577500", "150342.037500", "150342.497500", "150342.957500", "150343.417500", "150343.877500", "150344.337500", "150344.797500", "150345.257500", "150345.717500", "150346.177500", "150346.637500", "150347.097500", "150347.557500", "150348.017500", "150348.477500", "150348.937500", "150349.397500", "150349.857500", "150350.317500", "150350.777500", "150351.237500", "150351.697500", "150352.157500", "150352.617500", "150353.077500", "150353.537500", "150353.997500", "150354.457500", "150354.917500", "150355.377500", "150355.837500", "150356.297500", "150356.757500", "150357.217500", "150357.677500", "150358.137500", "150358.597500", "150359.057500", "150359.517500", "150359.977500", "150400.437500", "150400.897500", "150401.357500", "150401.817500", "150402.277500", "150402.737500", "150403.197500", "150403.657500", "150404.117500", "150404.577500", "150405.037500", "150405.497500", "150405.957500", "150406.417500", "150406.877500", "150407.337500", "150407.797500", "150408.257500", "150408.717500", "150409.177500", "150409.637500", "150410.097500", "150410.557500", "150411.017500", "150411.477500", "150411.937500", "150412.397500", "150412.857500", "150413.317500", "150413.777500", "150414.237500", "150414.697500", "150415.157500", "150415.617500", "150416.077500", "150416.537500", "150416.997500", "150417.457500", "150417.917500", "150418.377500", "150418.837500", "150419.297500", "150419.757500", "150420.217500", "150420.677500", "150421.137500", "150421.597500", "150422.057500", "150422.517500", "150422.977500", "150423.437500", "150423.897500", "150424.357500", "150424.817500", "150425.277500", "150425.737500", "150426.197500", "150426.657500", "150427.117500", "150427.577500", "150428.037500", "150428.497500", "150428.957500", "150429.417500", "150429.877500", "150430.337500", "150430.797500", "150431.257500", "150431.717500", "150432.177500", "150432.637500", "150433.097500", "150433.557500", "150434.017500", "150434.477500", "150434.937500", "150435.397500", "150435.857500", "150436.317500", "150436.777500", "150437.237500", "150437.697500", "150438.157500", "150438.617500", "150439.077500", "150439.537500", "150439.997500", "150440.457500", "150440.917500", "150441.377500", "150441.837500", "150442.297500", "150442.757500", "150443.217500", "150443.677500", "150444.137500", "150444.597500", "150445.057500", "150445.517500", "150445.977500", "150446.437500", "150446.897500", "150447.357500", "150447.817500", "150448.277500", "150448.737500", "150449.197500", "150449.657500", "150450.117500", "150450.577500", "150451.037500", "150451.497500", "150451.957500", "150452.417500", "150452.877500", "150453.337500", "150453.797500", "150454.257500", "150454.717500", "150455.177500", "150455.637500", "150456.097500", "150456.557500", "150457.017500", "150457.477500", "150457.937500", "150458.397500", "150458.857500", "150459.317500", "150459.777500", "150500.237500", "150500.697500", "150501.157500", "150501.617500", "150502.077500", "150502.537500", "150502.997500", "150503.457500", "150503.917500", "150504.377500", "150504.837500", "150505.297500", "150505.757500", "150506.217500", "150506.677500", "150507.137500", "150507.597500", "150508.057500", "150508.517500", "150508.977500", "150509.437500", "150509.897500", "150510.357500", "150510.817500", "150511.277500", "150511.737500", "150512.197500", "150512.657500", "150513.117500", "150513.577500", "150514.037500", "150514.497500", "150514.957500", "150515.417500", "150515.877500", "150516.337500", "150516.797500", "150517.257500", "150517.717500", "150518.177500", "150518.637500", "150519.097500", "150519.557500", "150520.017500", "150520.477500", "150520.937500", "150521.397500", "150521.857500", "150522.317500", "150522.777500", "150523.237500", "150523.697500", "150524.157500", "150524.617500", "150525.077500", "150525.537500", "150525.997500", "150526.457500", "150526.917500", "150527.377500", "150527.837500", "150528.297500", "150528.757500", "150529.217500", "150529.677500", "150530.137500", "150530.597500", "150531.057500", "150531.517500", "150531.977500", "150532.437500", "150532.897500", "150533.357500", "150533.817500", "150534.277500", "150534.737500", "150535.197500", "150535.657500", "150536.117500", "150536.577500", "150537.037500", "150537.497500", "150537.957500", "150538.417500", "150538.877500", "150539.337500", "150539.797500", "150540.257500", "150540.717500", "150541.177500", "150541.637500", "150542.097500", "150542.557500", "150543.017500", "150543.477500", "150543.937500", "150544.397500", "150544.857500", "150545.317500", "150545.777500"],
