{
  "AcquisitionMatrixPE": 82,
  "AcquisitionNumber": 1,
  "AcquisitionTime": "14:20:6.152500",
  "BandwidthPerPixelPhaseEncode": 24.888,
  "BaseResolution": 82,
  "BodyPartExamined": "BRAIN",
  "ConsistencyInfo": "N4_VE11E_LATEST_20181129",
  "ConversionSoftware": "dcm2niix",
  "ConversionSoftwareVersion": "v1.0.20201102",
  "DerivedVendorReportedEchoSpacing": 0.00049,
  "DeviceSerialNumber": "66112",
  "DwellTime": 2e-06,
  "EchoTime": 0.0272,
  "EchoTrainLength": 82,
  "EffectiveEchoSpacing": 0.00049,
  "FlipAngle": 44,
  "ImageComments": "Unaliased MB8/PE3",
  "ImageOrientationPatientDICOM": [0.998641, -0.0187254, -0.0486261, 0.0338263, 0.942802, 0.331633],
  "ImageType": [
    "ORIGINAL",
    "PRIMARY",
    "M",
    "MB",
    "ND",
    "NORM",
    "MOSAIC"
],
  "ImagingFrequency": 123.252,
  "InPlanePhaseEncodingDirectionDICOM": "COL",
  "InstitutionAddress": "Maynard 3,Hanover,NH,US,03755",
  "InstitutionName": "Dartmouth College - PBS",
  "InstitutionalDepartmentName": "Department",
  "MRAcquisitionType": "2D",
  "MagneticFieldStrength": 3,
  "Manufacturer": "Siemens",
  "ManufacturersModelName": "Prisma",
  "Modality": "MR",
  "MultibandAccelerationFactor": 8,
  "PartialFourier": 1,
  "PatientPosition": "HFS",
  "PercentPhaseFOV": 100,
  "PercentSampling": 100,
  "PhaseEncodingDirection": "j-",
  "PhaseEncodingSteps": 82,
  "PhaseResolution": 1,
  "PixelBandwidth": 3050,
  "ProcedureStepDescription": "Wager_Wager^1076_spacetop",
  "ProtocolName": "func_run-01_task-narratives_acq-ap-mb8",
  "PulseSequenceDetails": "%CustomerSeq%\\cmrr_mbep2d_bold",
  "ReceiveCoilActiveElements": "HEA;HEP",
  "ReceiveCoilName": "Head_32",
  "ReconMatrixPE": 82,
  "RepetitionTime": 0.46,
  "SAR": 0.101185,
  "ScanOptions": "FS",
  "ScanningSequence": "EP",
  "SequenceName": "epfid2d1_82",
  "SequenceVariant": "SK\\SS",
  "SeriesDescription": "func_run-01_task-narratives_acq-ap-mb8",
  "SeriesNumber": 8,
  "ShimSetting": [4131, -7798, -7292, 659, -35, -289, 60, 126],
  "SliceThickness": 2.7,
  "SliceTiming": [0, 0.2525, 0.0625, 0.315, 0.125, 0.3775, 0.19, 0, 0.2525, 0.0625, 0.315, 0.125, 0.3775, 0.19, 0, 0.2525, 0.0625, 0.315, 0.125, 0.3775, 0.19, 0, 0.2525, 0.0625, 0.315, 0.125, 0.3775, 0.19, 0, 0.2525, 0.0625, 0.315, 0.125, 0.3775, 0.19, 0, 0.2525, 0.0625, 0.315, 0.125, 0.3775, 0.19, 0, 0.2525, 0.0625, 0.315, 0.125, 0.3775, 0.19, 0, 0.2525, 0.0625, 0.315, 0.125, 0.3775, 0.19],
  "SoftwareVersions": "syngo MR E11",
  "SpacingBetweenSlices": 2.7,
  "StationName": "AWP66112",
  "TaskName": "narratives",
  "TotalReadoutTime": 0.03969,
  "TxRefAmp": 236.2,
  "WipMemBlock": "dc7fb7c6-d690-4f4c-bee9-cdde6b2f0e5c||Sequence: R016 ve11e/master r/434b28f1; Aug  7 2019 18:53:46 by eja",
  "dcmmeta_affine": [
    [-2.6792821884155273, 0.09075354039669037, -0.10701389610767365, 110.86265563964844],
    [0.05023888126015663, 2.529468059539795, 0.898634672164917, -118.21314239501953],
    [-0.13046018779277802, -0.8897479772567749, 2.5438168048858643, -27.976985931396484],
    [0.0, 0.0, 0.0, 1.0]
],
  "dcmmeta_reorient_transform": [
    [0.0, -1.0, 0.0, 81.0],
    [1.0, 0.0, 0.0, 0.0],
    [0.0, 0.0, 1.0, 0.0],
    [0.0, 0.0, 0.0, 1.0]
],
  "dcmmeta_shape": [82, 82, 56, 967],
  "dcmmeta_slice_dim": 2,
  "dcmmeta_version": 0.6,
  "global": {
    "const": {
      "AccessionNumber": "A004205",
      "AcquisitionMatrix": [82, 0, 0, 82],
      "AngioFlag": "N",
      "BitsAllocated": 16,
      "BitsStored": 16,
      "BodyPartExamined": "BRAIN",
      "Columns": 656,
      "EchoNumbers": 1,
      "EchoTime": 27.2,
      "EchoTrainLength": 82,
      "FlipAngle": 44.0,
      "HighBit": 15,
      "ImageOrientationPatient": [0.99864150968858, -0.0187254003501, -0.0486260682006, 0.03382631744724, 0.94280173809505, 0.33163332596848],
      "ImagePositionPatient": [-913.21393719125, -798.21257006233, -317.96216425782],
      "ImageType": [
        "ORIGINAL",
        "PRIMARY",
        "M",
        "MB",
        "ND",
        "NORM",
        "MOSAIC"
],
      "ImagedNucleus": "1H",
      "ImagingFrequency": 123.252179,
      "InPlanePhaseEncodingDirection": "COL",
      "MRAcquisitionType": "2D",
      "MagneticFieldStrength": 3.0,
      "Manufacturer": "SIEMENS",
      "ManufacturerModelName": "Prisma",
      "Modality": "MR",
      "NumberOfAverages": 1.0,
      "NumberOfPhaseEncodingSteps": 82,
      "PercentPhaseFieldOfView": 100.0,
      "PercentSampling": 100.0,
      "PerformedProcedureStepStartTime": "135046.214000",
      "PhotometricInterpretation": "MONOCHROME2",
      "PixelBandwidth": 3050.0,
      "PixelRepresentation": 0,
      "PixelSpacing": [2.6829268932343, 2.6829268932343],
      "ProtocolName": "func_run-01_task-narratives_acq-ap-mb8",
      "RepetitionTime": 460.0,
      "Rows": 656,
      "SAR": 0.10118510018378,
      "SamplesPerPixel": 1,
      "ScanOptions": "FS",
      "ScanningSequence": "EP",
      "SequenceName": "epfid2d1_82",
      "SequenceVariant": [
        "SK",
        "SS"
],
      "SeriesDescription": "func_run-01_task-narratives_acq-ap-mb8",
      "SeriesNumber": 8,
      "SeriesTime": "142024.680000",
      "SliceLocation": -70.097258093371,
      "SliceThickness": 2.7000000476837,
      "SmallestImagePixelValue": 0,
      "SoftwareVersions": "syngo MR E11",
      "SpacingBetweenSlices": 2.700000079382,
      "SpecificCharacterSet": "ISO_IR 100",
      "StudyID": "1",
      "StudyTime": "135046.149000",
      "TransmitCoilName": "Body",
      "VariableFlipAngleFlag": "N",
      "WindowCenterWidthExplanation": "Algo1"
    },
    "slices": {}
  },
  "time": {
    "samples": {
      "AcquisitionNumber": [1, 2, 3, 4, 5, 6, 7, 8, 9, 10, 11, 12, 13, 14, 15, 16, 17, 18, 19, 20, 21, 22, 23, 24, 25, 26, 27, 28, 29, 30, 31, 32, 33, 34, 35, 36, 37, 38, 39, 40, 41, 42, 43, 44, 45, 46, 47, 48, 49, 50, 51, 52, 53, 54, 55, 56, 57, 58, 59, 60, 61, 62, 63, 64, 65, 66, 67, 68, 69, 70, 71, 72, 73, 74, 75, 76, 77, 78, 79, 80, 81, 82, 83, 84, 85, 86, 87, 88, 89, 90, 91, 92, 93, 94, 95, 96, 97, 98, 99, 100, 101, 102, 103, 104, 105, 106, 107, 108, 109, 110, 111, 112, 113, 114, 115, 116, 117, 118, 119, 120, 121, 122, 123, 124, 125, 126, 127, 128, 129, 130, 131, 132, 133, 134, 135, 136, 137, 138, 139, 140, 141, 142, 143, 144, 145, 146, 147, 148, 149, 150, 151, 152, 153, 154, 155, 156, 157, 158, 159, 160, 161, 162, 163, 164, 165, 166, 167, 168, 169, 170, 171, 172, 173, 174, 175, 176, 177, 178, 179, 180, 181, 182, 183, 184, 185, 186, 187, 188, 189, 190, 191, 192, 193, 194, 195, 196, 197, 198, 199, 200, 201, 202, 203, 204, 205, 206, 207, 208, 209, 210, 211, 212, 213, 214, 215, 216, 217, 218, 219, 220, 221, 222, 223, 224, 225, 226, 227, 228, 229, 230, 231, 232, 233, 234, 235, 236, 237, 238, 239, 240, 241, 242, 243, 244, 245, 246, 247, 248, 249, 250, 251, 252, 253, 254, 255, 256, 257, 258, 259, 260, 261, 262, 263, 264, 265, 266, 267, 268, 269, 270, 271, 272, 273, 274, 275, 276, 277, 278, 279, 280, 281, 282, 283, 284, 285, 286, 287, 288, 289, 290, 291, 292, 293, 294, 295, 296, 297, 298, 299, 300, 301, 302, 303, 304, 305, 306, 307, 308, 309, 310, 311, 312, 313, 314, 315, 316, 317, 318, 319, 320, 321, 322, 323, 324, 325, 326, 327, 328, 329, 330, 331, 332, 333, 334, 335, 336, 337, 338, 339, 340, 341, 342, 343, 344, 345, 346, 347, 348, 349, 350, 351, 352, 353, 354, 355, 356, 357, 358, 359, 360, 361, 362, 363, 364, 365, 366, 367, 368, 369, 370, 371, 372, 373, 374, 375, 376, 377, 378, 379, 380, 381, 382, 383, 384, 385, 386, 387, 388, 389, 390, 391, 392, 393, 394, 395, 396, 397, 398, 399, 400, 401, 402, 403, 404, 405, 406, 407, 408, 409, 410, 411, 412, 413, 414, 415, 416, 417, 418, 419, 420, 421, 422, 423, 424, 425, 426, 427, 428, 429, 430, 431, 432, 433, 434, 435, 436, 437, 438, 439, 440, 441, 442, 443, 444, 445, 446, 447, 448, 449, 450, 451, 452, 453, 454, 455, 456, 457, 458, 459, 460, 461, 462, 463, 464, 465, 466, 467, 468, 469, 470, 471, 472, 473, 474, 475, 476, 477, 478, 479, 480, 481, 482, 483, 484, 485, 486, 487, 488, 489, 490, 491, 492, 493, 494, 495, 496, 497, 498, 499, 500, 501, 502, 503, 504, 505, 506, 507, 508, 509, 510, 511, 512, 513, 514, 515, 516, 517, 518, 519, 520, 521, 522, 523, 524, 525, 526, 527, 528, 529, 530, 531, 532, 533, 534, 535, 536, 537, 538, 539, 540, 541, 542, 543, 544, 545, 546, 547, 548, 549, 550, 551, 552, 553, 554, 555, 556, 557, 558, 559, 560, 561, 562, 563, 564, 565, 566, 567, 568, 569, 570, 571, 572, 573, 574, 575, 576, 577, 578, 579, 580, 581, 582, 583, 584, 585, 586, 587, 588, 589, 590, 591, 592, 593, 594, 595, 596, 597, 598, 599, 600, 601, 602, 603, 604, 605, 606, 607, 608, 609, 610, 611, 612, 613, 614, 615, 616, 617, 618, 619, 620, 621, 622, 623, 624, 625, 626, 627, 628, 629, 630, 631, 632, 633, 634, 635, 636, 637, 638, 639, 640, 641, 642, 643, 644, 645, 646, 647, 648, 649, 650, 651, 652, 653, 654, 655, 656, 657, 658, 659, 660, 661, 662, 663, 664, 665, 666, 667, 668, 669, 670, 671, 672, 673, 674, 675, 676, 677, 678, 679, 680, 681, 682, 683, 684, 685, 686, 687, 688, 689, 690, 691, 692, 693, 694, 695, 696, 697, 698, 699, 700, 701, 702, 703, 704, 705, 706, 707, 708, 709, 710, 711, 712, 713, 714, 715, 716, 717, 718, 719, 720, 721, 722, 723, 724, 725, 726, 727, 728, 729, 730, 731, 732, 733, 734, 735, 736, 737, 738, 739, 740, 741, 742, 743, 744, 745, 746, 747, 748, 749, 750, 751, 752, 753, 754, 755, 756, 757, 758, 759, 760, 761, 762, 763, 764, 765, 766, 767, 768, 769, 770, 771, 772, 773, 774, 775, 776, 777, 778, 779, 780, 781, 782, 783, 784, 785, 786, 787, 788, 789, 790, 791, 792, 793, 794, 795, 796, 797, 798, 799, 800, 801, 802, 803, 804, 805, 806, 807, 808, 809, 810, 811, 812, 813, 814, 815, 816, 817, 818, 819, 820, 821, 822, 823, 824, 825, 826, 827, 828, 829, 830, 831, 832, 833, 834, 835, 836, 837, 838, 839, 840, 841, 842, 843, 844, 845, 846, 847, 848, 849, 850, 851, 852, 853, 854, 855, 856, 857, 858, 859, 860, 861, 862, 863, 864, 865, 866, 867, 868, 869, 870, 871, 872, 873, 874, 875, 876, 877, 878, 879, 880, 881, 882, 883, 884, 885, 886, 887, 888, 889, 890, 891, 892, 893, 894, 895, 896, 897, 898, 899, 900, 901, 902, 903, 904, 905, 906, 907, 908, 909, 910, 911, 912, 913, 914, 915, 916, 917, 918, 919, 920, 921, 922, 923, 924, 925, 926, 927, 928, 929, 930, 931, 932, 933, 934, 935, 936, 937, 938, 939, 940, 941, 942, 943, 944, 945, 946, 947, 948, 949, 950, 951, 952, 953, 954, 955, 956, 957, 958, 959, 960, 961, 962, 963, 964, 965, 966, 967],
      "AcquisitionTime": ["142006.152500", "142006.612500", "142007.072500", "142007.532500", "142007.992500", "142008.452500", "142008.912500", "142009.372500", "142009.832500", "142010.292500", "142010.752500", "142011.212500", "142011.672500", "142012.132500", "142012.592500", "142013.052500", "142013.512500", "142013.972500", "142014.432500", "142014.892500", "142015.352500", "142015.812500", "142016.272500", "142016.732500", "142017.192500", "142017.652500", "142018.112500", "142018.572500", "142019.032500", "142019.492500", "142019.952500", "142020.412500", "142020.872500", "142021.332500", "142021.792500", "142022.252500", "142022.712500", "142023.172500", "142023.632500", "142024.092500", "142024.552500", "142025.012500", "142025.472500", "142025.932500", "142026.392500", "142026.852500", "142027.312500", "142027.772500", "142028.232500", "142028.692500", "142029.152500", "142029.612500", "142030.072500", "142030.532500", "142030.992500", "142031.452500", "142031.912500", "142032.372500", "142032.832500", "142033.292500", "142033.752500", "142034.212500", "142034.672500", "142035.132500", "142035.592500", "142036.052500", "142036.512500", "142036.972500", "142037.432500", "142037.892500", "142038.352500", "142038.812500", "142039.272500", "142039.732500", "142040.192500", "142040.652500", "142041.112500", "142041.572500", "142042.032500", "142042.492500", "142042.952500", "142043.412500", "142043.872500", "142044.332500", "142044.792500", "142045.252500", "142045.712500", "142046.172500", "142046.632500", "142047.092500", "142047.552500", "142048.012500", "142048.472500", "142048.932500", "142049.392500", "142049.852500", "142050.312500", "142050.772500", "142051.232500", "142051.692500", "142052.152500", "142052.612500", "142053.072500", "142053.532500", "142053.992500", "142054.452500", "142054.912500", "142055.372500", "142055.832500", "142056.292500", "142056.752500", "142057.212500", "142057.672500", "142058.132500", "142058.592500", "142059.052500", "142059.512500", "142059.972500", "142100.432500", "142100.892500", "142101.352500", "142101.812500", "142102.272500", "142102.732500", "142103.192500", "142103.652500", "142104.112500", "142104.572500", "142105.032500", "142105.492500", "142105.952500", "142106.412500", "142106.872500", "142107.332500", "142107.792500", "142108.252500", "142108.712500", "142109.172500", "142109.632500", "142110.092500", "142110.552500", "142111.012500", "142111.472500", "142111.932500", "142112.392500", "142112.852500", "142113.312500", "142113.772500", "142114.232500", "142114.692500", "142115.152500", "142115.612500", "142116.072500", "142116.532500", "142116.992500", "142117.452500", "142117.912500", "142118.372500", "142118.832500", "142119.292500", "142119.752500", "142120.212500", "142120.672500", "142121.132500", "142121.592500", "142122.052500", "142122.512500", "142122.972500", "142123.432500", "142123.892500", "142124.352500", "142124.812500", "142125.272500", "142125.732500", "142126.192500", "142126.652500", "142127.112500", "142127.572500", "142128.032500", "142128.492500", "142128.952500", "142129.412500", "142129.872500", "142130.332500", "142130.792500", "142131.252500", "142131.712500", "142132.172500", "142132.632500", "142133.092500", "142133.552500", "142134.012500", "142134.472500", "142134.932500", "142135.392500", "142135.852500", "142136.312500", "142136.772500", "142137.232500", "142137.692500", "142138.152500", "142138.612500", "142139.072500", "142139.532500", "142139.992500", "142140.452500", "142140.912500", "142141.372500", "142141.832500", "142142.292500", "142142.752500", "142143.212500", "142143.672500", "142144.132500", "142144.592500", "142145.052500", "142145.512500", "142145.972500", "142146.432500", "142146.892500", "142147.352500", "142147.812500", "142148.272500", "142148.732500", "142149.192500", "142149.652500", "142150.112500", "142150.572500", "142151.032500", "142151.492500", "142151.952500", "142152.412500", "142152.872500", "142153.332500", "142153.792500", "142154.252500", "142154.712500", "142155.172500", "142155.632500", "142156.092500", "142156.552500", "142157.012500", "142157.472500", "142157.932500", "142158.392500", "142158.852500", "142159.312500", "142159.772500", "142200.232500", "142200.692500", "142201.152500", "142201.612500", "142202.072500", "142202.532500", "142202.992500", "142203.452500", "142203.912500", "142204.372500", "142204.832500", "142205.292500", "142205.752500", "142206.212500", "142206.672500", "142207.132500", "142207.592500", "142208.052500", "142208.512500", "142208.972500", "142209.432500", "142209.892500", "142210.352500", "142210.812500", "142211.272500", "142211.732500", "142212.192500", "142212.652500", "142213.112500", "142213.572500", "142214.032500", "142214.492500", "142214.952500", "142215.412500", "142215.872500", "142216.332500", "142216.792500", "142217.252500", "142217.712500", "142218.172500", "142218.632500", "142219.092500", "142219.552500", "142220.012500", "142220.472500", "142220.932500", "142221.392500", "142221.852500", "142222.312500", "142222.772500", "142223.232500", "142223.692500", "142224.152500", "142224.612500", "142225.072500", "142225.532500", "142225.992500", "142226.452500", "142226.912500", "142227.372500", "142227.832500", "142228.292500", "142228.752500", "142229.212500", "142229.672500", "142230.132500", "142230.592500", "142231.052500", "142231.512500", "142231.972500", "142232.432500", "142232.892500", "142233.352500", "142233.812500", "142234.272500", "142234.732500", "142235.192500", "142235.652500", "142236.112500", "142236.572500", "142237.032500", "142237.492500", "142237.952500", "142238.412500", "142238.872500", "142239.332500", "142239.792500", "142240.252500", "142240.712500", "142241.172500", "142241.632500", "142242.092500", "142242.552500", "142243.012500", "142243.472500", "142243.932500", "142244.392500", "142244.852500", "142245.312500", "142245.772500", "142246.232500", "142246.692500", "142247.152500", "142247.612500", "142248.072500", "142248.532500", "142248.992500", "142249.452500", "142249.912500", "142250.372500", "142250.832500", "142251.292500", "142251.752500", "142252.212500", "142252.672500", "142253.132500", "142253.592500", "142254.052500", "142254.512500", "142254.972500", "142255.432500", "142255.892500", "142256.352500", "142256.812500", "142257.272500", "142257.732500", "142258.192500", "142258.652500", "142259.112500", "142259.572500", "142300.032500", "142300.492500", "142300.952500", "142301.412500", "142301.872500", "142302.332500", "142302.792500", "142303.252500", "142303.712500", "142304.172500", "142304.632500", "142305.092500", "142305.552500", "142306.012500", "142306.472500", "142306.932500", "142307.392500", "142307.852500", "142308.312500", "142308.772500", "142309.232500", "142309.692500", "142310.152500", "142310.612500", "142311.072500", "142311.532500", "142311.992500", "142312.452500", "142312.912500", "142313.372500", "142313.832500", "142314.292500", "142314.752500", "142315.212500", "142315.672500", "142316.132500", "142316.592500", "142317.052500", "142317.512500", "142317.972500", "142318.432500", "142318.892500", "142319.352500", "142319.812500", "142320.272500", "142320.732500", "142321.192500", "142321.652500", "142322.112500", "142322.572500", "142323.032500", "142323.492500", "142323.952500", "142324.412500", "142324.872500", "142325.332500", "142325.792500", "142326.252500", "142326.712500", "142327.172500", "142327.632500", "142328.092500", "142328.552500", "142329.012500", "142329.472500", "142329.932500", "142330.392500", "142330.852500", "142331.312500", "142331.772500", "142332.232500", "142332.692500", "142333.152500", "142333.612500", "142334.072500", "142334.532500", "142334.992500", "142335.452500", "142335.912500", "142336.372500", "142336.832500", "142337.292500", "142337.752500", "142338.212500", "142338.672500", "142339.132500", "142339.592500", "142340.052500", "142340.512500", "142340.972500", "142341.432500", "142341.892500", "142342.352500", "142342.812500", "142343.272500", "142343.732500", "142344.192500", "142344.652500", "142345.112500", "142345.572500", "142346.032500", "142346.492500", "142346.952500", "142347.412500", "142347.872500", "142348.332500", "142348.792500", "142349.252500", "142349.712500", "142350.172500", "142350.632500", "142351.092500", "142351.552500", "142352.012500", "142352.472500", "142352.932500", "142353.392500", "142353.852500", "142354.312500", "142354.772500", "142355.232500", "142355.692500", "142356.152500", "142356.612500", "142357.072500", "142357.532500", "142357.992500", "142358.452500", "142358.912500", "142359.372500", "142359.832500", "142400.292500", "142400.752500", "142401.212500", "142401.672500", "142402.132500", "142402.592500", "142403.052500", "142403.512500", "142403.972500", "142404.432500", "142404.892500", "142405.352500", "142405.812500", "142406.272500", "142406.732500", "142407.192500", "142407.652500", "142408.112500", "142408.572500", "142409.032500", "142409.492500", "142409.952500", "142410.412500", "142410.872500", "142411.332500", "142411.792500", "142412.252500", "142412.712500", "142413.172500", "142413.632500", "142414.092500", "142414.552500", "142415.012500", "142415.472500", "142415.932500", "142416.392500", "142416.852500", "142417.312500", "142417.772500", "142418.232500", "142418.692500", "142419.152500", "142419.612500", "142420.072500", "142420.532500", "142420.992500", "142421.452500", "142421.912500", "142422.372500", "142422.832500", "142423.292500", "142423.752500", "142424.212500", "142424.672500", "142425.132500", "142425.592500", "142426.052500", "142426.512500", "142426.972500", "142427.432500", "142427.892500", "142428.352500", "142428.812500", "142429.272500", "142429.732500", "142430.192500", "142430.652500", "142431.112500", "142431.572500", "142432.032500", "142432.492500", "142432.952500", "142433.412500", "142433.872500", "142434.332500", "142434.792500", "142435.252500", "142435.712500", "142436.172500", "142436.632500", "142437.092500", "142437.552500", "142438.012500", "142438.472500", "142438.932500", "142439.392500", "142439.852500", "142440.312500", "142440.772500", "142441.232500", "142441.692500", "142442.152500", "142442.612500", "142443.072500", "142443.532500", "142443.992500", "142444.452500", "142444.912500", "142445.372500", "142445.832500", "142446.292500", "142446.752500", "142447.212500", "142447.672500", "142448.132500", "142448.592500", "142449.052500", "142449.512500", "142449.972500", "142450.432500", "142450.892500", "142451.352500", "142451.812500", "142452.272500", "142452.732500", "142453.192500", "142453.652500", "142454.112500", "142454.572500", "142455.032500", "142455.492500", "142455.952500", "142456.412500", "142456.872500", "142457.332500", "142457.792500", "142458.252500", "142458.712500", "142459.172500", "142459.632500", "142500.092500", "142500.552500", "142501.012500", "142501.472500", "142501.932500", "142502.392500", "142502.852500", "142503.312500", "142503.772500", "142504.232500", "142504.692500", "142505.152500", "142505.612500", "142506.072500", "142506.532500", "142506.992500", "142507.452500", "142507.912500", "142508.372500", "142508.832500", "142509.292500", "142509.752500", "142510.212500", "142510.672500", "142511.132500", "142511.592500", "142512.052500", "142512.512500", "142512.972500", "142513.432500", "142513.892500", "142514.352500", "142514.812500", "142515.272500", "142515.732500", "142516.192500", "142516.652500", "142517.112500", "142517.572500", "142518.032500", "142518.492500", "142518.952500", "142519.412500", "142519.872500", "142520.332500", "142520.792500", "142521.252500", "142521.712500", "142522.172500", "142522.632500", "142523.092500", "142523.552500", "142524.012500", "142524.472500", "142524.932500", "142525.392500", "142525.852500", "142526.312500", "142526.772500", "142527.232500", "142527.692500", "142528.152500", "142528.612500", "142529.072500", "142529.532500", "142529.992500", "142530.452500", "142530.912500", "142531.372500", "142531.832500", "142532.292500", "142532.752500", "142533.212500", "142533.672500", "142534.132500", "142534.592500", "142535.052500", "142535.512500", "142535.972500", "142536.432500", "142536.892500", "142537.352500", "142537.812500", "142538.272500", "142538.732500", "142539.192500", "142539.652500", "142540.112500", "142540.572500", "142541.032500", "142541.492500", "142541.952500", "142542.412500", "142542.872500", "142543.332500", "142543.792500", "142544.252500", "142544.712500", "142545.172500", "142545.632500", "142546.092500", "142546.552500", "142547.012500", "142547.472500", "142547.932500", "142548.392500", "142548.852500", "142549.312500", "142549.772500", "142550.232500", "142550.692500", "142551.152500", "142551.612500", "142552.072500", "142552.532500", "142552.992500", "142553.452500", "142553.912500", "142554.372500", "142554.832500", "142555.292500", "142555.752500", "142556.212500", "142556.672500", "142557.132500", "142557.592500", "142558.052500", "142558.512500", "142558.972500", "142559.432500", "142559.892500", "142600.352500", "142600.812500", "142601.272500", "142601.732500", "142602.192500", "142602.652500", "142603.112500", "142603.572500", "142604.032500", "142604.492500", "142604.952500", "142605.412500", "142605.872500", "142606.332500", "142606.792500", "142607.252500", "142607.712500", "142608.172500", "142608.632500", "142609.092500", "142609.552500", "142610.012500", "142610.472500", "142610.932500", "142611.392500", "142611.852500", "142612.312500", "142612.772500", "142613.232500", "142613.692500", "142614.152500", "142614.612500", "142615.072500", "142615.532500", "142615.992500", "142616.452500", "142616.912500", "142617.372500", "142617.832500", "142618.292500", "142618.752500", "142619.212500", "142619.672500", "142620.132500", "142620.592500", "142621.052500", "142621.512500", "142621.972500", "142622.432500", "142622.892500", "142623.352500", "142623.812500", "142624.272500", "142624.732500", "142625.192500", "142625.652500", "142626.112500", "142626.572500", "142627.032500", "142627.492500", "142627.952500", "142628.412500", "142628.872500", "142629.332500", "142629.792500", "142630.252500", "142630.712500", "142631.172500", "142631.632500", "142632.092500", "142632.552500", "142633.012500", "142633.472500", "142633.932500", "142634.392500", "142634.852500", "142635.312500", "142635.772500", "142636.232500", "142636.692500", "142637.152500", "142637.612500", "142638.072500", "142638.532500", "142638.992500", "142639.452500", "142639.912500", "142640.372500", "142640.832500", "142641.292500", "142641.752500", "142642.212500", "142642.672500", "142643.132500", "142643.592500", "142644.052500", "142644.512500", "142644.972500", "142645.432500", "142645.892500", "142646.352500", "142646.812500", "142647.272500", "142647.732500", "142648.192500", "142648.652500", "142649.112500", "142649.572500", "142650.032500", "142650.492500", "142650.952500", "142651.412500", "142651.872500", "142652.332500", "142652.792500", "142653.252500", "142653.712500", "142654.172500", "142654.632500", "142655.092500", "142655.552500", "142656.012500", "142656.472500", "142656.932500", "142657.392500", "142657.852500", "142658.312500", "142658.772500", "142659.232500", "142659.692500", "142700.152500", "142700.612500", "142701.072500", "142701.532500", "142701.992500", "142702.452500", "142702.912500", "142703.372500", "142703.832500", "142704.292500", "142704.752500", "142705.212500", "142705.672500", "142706.132500", "142706.592500", "142707.052500", "142707.512500", "142707.972500", "142708.432500", "142708.892500", "142709.352500", "142709.812500", "142710.272500", "142710.732500", "142711.192500", "142711.652500", "142712.112500", "142712.572500", "142713.032500", "142713.492500", "142713.952500", "142714.412500", "142714.872500", "142715.332500", "142715.792500", "142716.252500", "142716.712500", "142717.172500", "142717.632500", "142718.092500", "142718.552500", "142719.012500", "142719.472500", "142719.932500", "142720.392500", "142720.852500", "142721.312500", "142721.772500", "142722.232500", "142722.692500", "142723.152500", "142723.612500", "142724.072500", "142724.532500", "142724.992500", "142725.452500", "142725.912500", "142726.372500", "142726.832500", "142727.292500", "142727.752500", "142728.212500", "142728.672500", "142729.132500", "142729.592500", "142730.052500", "142730.512500"],
