{
  "AcquisitionMatrixPE": 82,
  "AcquisitionNumber": 1,
  "AcquisitionTime": "15:57:41.237500",
  "BandwidthPerPixelPhaseEncode": 24.888,
  "BaseResolution": 82,
  "BodyPartExamined": "BRAIN",
  "ConsistencyInfo": "N4_VE11E_LATEST_20181129",
  "ConversionSoftware": "dcm2niix",
  "ConversionSoftwareVersion": "v1.0.20201102",
  "DerivedVendorReportedEchoSpacing": 0.00049,
  "DeviceSerialNumber": "66112",
  "DwellTime": 2e-06,
  "EchoTime": 0.0272,
  "EchoTrainLength": 82,
  "EffectiveEchoSpacing": 0.00049,
  "FlipAngle": 44,
  "ImageComments": "Unaliased MB8/PE3",
  "ImageOrientationPatientDICOM": [0.998575, -0.0232548, -0.0480397, 0.0369651, 0.950599, 0.308213],
  "ImageType": [
    "ORIGINAL",
    "PRIMARY",
    "M",
    "MB",
    "ND",
    "NORM",
    "MOSAIC"
],
  "ImagingFrequency": 123.252,
  "InPlanePhaseEncodingDirectionDICOM": "COL",
  "InstitutionAddress": "Maynard 3,Hanover,NH,US,03755",
  "InstitutionName": "Dartmouth College - PBS",
  "InstitutionalDepartmentName": "Department",
  "MRAcquisitionType": "2D",
  "MagneticFieldStrength": 3,
  "Manufacturer": "Siemens",
  "ManufacturersModelName": "Prisma",
  "Modality": "MR",
  "MultibandAccelerationFactor": 8,
  "PartialFourier": 1,
  "PatientPosition": "HFS",
  "PercentPhaseFOV": 100,
  "PercentSampling": 100,
  "PhaseEncodingDirection": "j-",
  "PhaseEncodingSteps": 82,
  "PhaseResolution": 1,
  "PixelBandwidth": 3050,
  "ProcedureStepDescription": "Wager_Wager^1076_spacetop",
  "ProtocolName": "func_run-04_task-alignvideo_acq-ap-mb8",
  "PulseSequenceDetails": "%CustomerSeq%\\cmrr_mbep2d_bold",
  "ReceiveCoilActiveElements": "HEA;HEP",
  "ReceiveCoilName": "Head_32",
  "ReconMatrixPE": 82,
  "RepetitionTime": 0.46,
  "SAR": 0.101152,
  "ScanOptions": "FS",
  "ScanningSequence": "EP",
  "SequenceName": "epfid2d1_82",
  "SequenceVariant": "SK\\SS",
  "SeriesDescription": "func_run-04_task-alignvideo_acq-ap-mb8",
  "SeriesNumber": 34,
  "ShimSetting": [4131, -7796, -7290, 673, -40, -274, 58, 125],
  "SliceThickness": 2.7,
  "SliceTiming": [0, 0.2525, 0.0625, 0.315, 0.125, 0.3775, 0.1875, 0, 0.2525, 0.0625, 0.315, 0.125, 0.3775, 0.1875, 0, 0.2525, 0.0625, 0.315, 0.125, 0.3775, 0.1875, 0, 0.2525, 0.0625, 0.315, 0.125, 0.3775, 0.1875, 0, 0.2525, 0.0625, 0.315, 0.125, 0.3775, 0.1875, 0, 0.2525, 0.0625, 0.315, 0.125, 0.3775, 0.1875, 0, 0.2525, 0.0625, 0.315, 0.125, 0.3775, 0.1875, 0, 0.2525, 0.0625, 0.315, 0.125, 0.3775, 0.1875],
  "SoftwareVersions": "syngo MR E11",
  "SpacingBetweenSlices": 2.7,
  "StationName": "AWP66112",
  "TaskName": "alignvideo",
  "TotalReadoutTime": 0.03969,
  "TxRefAmp": 236.2,
  "WipMemBlock": "69d58c51-75aa-48de-8784-aef11e1ecf7e||Sequence: R016 ve11e/master r/434b28f1; Aug  7 2019 18:53:46 by eja",
  "dcmmeta_affine": [
    [-2.679102897644043, 0.09917473793029785, -0.10394741594791412, 110.68763732910156],
    [0.06239088997244835, 2.550387144088745, 0.8357842564582825, -118.33102416992188],
    [-0.12888698279857635, -0.8269135355949402, 2.565279722213745, -27.592941284179688],
    [0.0, 0.0, 0.0, 1.0]
],
  "dcmmeta_reorient_transform": [
    [0.0, -1.0, 0.0, 81.0],
    [1.0, 0.0, 0.0, 0.0],
    [0.0, 0.0, 1.0, 0.0],
    [0.0, 0.0, 0.0, 1.0]
],
  "dcmmeta_shape": [82, 82, 56, 914],
  "dcmmeta_slice_dim": 2,
  "dcmmeta_version": 0.6,
  "global": {
    "const": {
      "AccessionNumber": "A004205",
      "AcquisitionMatrix": [82, 0, 0, 82],
      "AngioFlag": "N",
      "BitsAllocated": 16,
      "BitsStored": 16,
      "BodyPartExamined": "BRAIN",
      "Columns": 656,
      "EchoNumbers": 1,
      "EchoTime": 27.2,
      "EchoTrainLength": 82,
      "FlipAngle": 44.0,
      "HighBit": 15,
      "ImageOrientationPatient": [0.99857468577174, -0.0232547854573, -0.0480396907694, 0.03696512757568, 0.9505988559537, 0.30821322879271],
      "ImagePositionPatient": [-916.08646837615, -802.30529035437, -294.90656871168],
      "ImageType": [
        "ORIGINAL",
        "PRIMARY",
        "M",
        "MB",
        "ND",
        "NORM",
        "MOSAIC"
],
      "ImagedNucleus": "1H",
      "ImagingFrequency": 123.252209,
      "InPlanePhaseEncodingDirection": "COL",
      "MRAcquisitionType": "2D",
      "MagneticFieldStrength": 3.0,
      "Manufacturer": "SIEMENS",
      "ManufacturerModelName": "Prisma",
      "Modality": "MR",
      "NumberOfAverages": 1.0,
      "NumberOfPhaseEncodingSteps": 82,
      "PercentPhaseFieldOfView": 100.0,
      "PercentSampling": 100.0,
      "PerformedProcedureStepStartTime": "135046.214000",
      "PhotometricInterpretation": "MONOCHROME2",
      "PixelBandwidth": 3050.0,
      "PixelRepresentation": 0,
      "PixelSpacing": [2.6829268932343, 2.6829268932343],
      "ProtocolName": "func_run-04_task-alignvideo_acq-ap-mb8",
      "RepetitionTime": 460.0,
      "Rows": 656,
      "SAR": 0.10115220644727,
      "SamplesPerPixel": 1,
      "ScanOptions": "FS",
      "ScanningSequence": "EP",
      "SequenceName": "epfid2d1_82",
      "SequenceVariant": [
        "SK",
        "SS"
],
      "SeriesDescription": "func_run-04_task-alignvideo_acq-ap-mb8",
      "SeriesNumber": 34,
      "SeriesTime": "155804.526000",
      "SliceLocation": -67.10685659574,
      "SliceThickness": 2.7000000476837,
      "SmallestImagePixelValue": 0,
      "SoftwareVersions": "syngo MR E11",
      "SpacingBetweenSlices": 2.7000000815685,
      "SpecificCharacterSet": "ISO_IR 100",
      "StudyID": "1",
      "StudyTime": "135046.149000",
      "TransmitCoilName": "Body",
      "VariableFlipAngleFlag": "N",
      "WindowCenterWidthExplanation": "Algo1"
    },
    "slices": {}
  },
  "time": {
    "samples": {
      "AcquisitionNumber": [1, 2, 3, 4, 5, 6, 7, 8, 9, 10, 11, 12, 13, 14, 15, 16, 17, 18, 19, 20, 21, 22, 23, 24, 25, 26, 27, 28, 29, 30, 31, 32, 33, 34, 35, 36, 37, 38, 39, 40, 41, 42, 43, 44, 45, 46, 47, 48, 49, 50, 51, 52, 53, 54, 55, 56, 57, 58, 59, 60, 61, 62, 63, 64, 65, 66, 67, 68, 69, 70, 71, 72, 73, 74, 75, 76, 77, 78, 79, 80, 81, 82, 83, 84, 85, 86, 87, 88, 89, 90, 91, 92, 93, 94, 95, 96, 97, 98, 99, 100, 101, 102, 103, 104, 105, 106, 107, 108, 109, 110, 111, 112, 113, 114, 115, 116, 117, 118, 119, 120, 121, 122, 123, 124, 125, 126, 127, 128, 129, 130, 131, 132, 133, 134, 135, 136, 137, 138, 139, 140, 141, 142, 143, 144, 145, 146, 147, 148, 149, 150, 151, 152, 153, 154, 155, 156, 157, 158, 159, 160, 161, 162, 163, 164, 165, 166, 167, 168, 169, 170, 171, 172, 173, 174, 175, 176, 177, 178, 179, 180, 181, 182, 183, 184, 185, 186, 187, 188, 189, 190, 191, 192, 193, 194, 195, 196, 197, 198, 199, 200, 201, 202, 203, 204, 205, 206, 207, 208, 209, 210, 211, 212, 213, 214, 215, 216, 217, 218, 219, 220, 221, 222, 223, 224, 225, 226, 227, 228, 229, 230, 231, 232, 233, 234, 235, 236, 237, 238, 239, 240, 241, 242, 243, 244, 245, 246, 247, 248, 249, 250, 251, 252, 253, 254, 255, 256, 257, 258, 259, 260, 261, 262, 263, 264, 265, 266, 267, 268, 269, 270, 271, 272, 273, 274, 275, 276, 277, 278, 279, 280, 281, 282, 283, 284, 285, 286, 287, 288, 289, 290, 291, 292, 293, 294, 295, 296, 297, 298, 299, 300, 301, 302, 303, 304, 305, 306, 307, 308, 309, 310, 311, 312, 313, 314, 315, 316, 317, 318, 319, 320, 321, 322, 323, 324, 325, 326, 327, 328, 329, 330, 331, 332, 333, 334, 335, 336, 337, 338, 339, 340, 341, 342, 343, 344, 345, 346, 347, 348, 349, 350, 351, 352, 353, 354, 355, 356, 357, 358, 359, 360, 361, 362, 363, 364, 365, 366, 367, 368, 369, 370, 371, 372, 373, 374, 375, 376, 377, 378, 379, 380, 381, 382, 383, 384, 385, 386, 387, 388, 389, 390, 391, 392, 393, 394, 395, 396, 397, 398, 399, 400, 401, 402, 403, 404, 405, 406, 407, 408, 409, 410, 411, 412, 413, 414, 415, 416, 417, 418, 419, 420, 421, 422, 423, 424, 425, 426, 427, 428, 429, 430, 431, 432, 433, 434, 435, 436, 437, 438, 439, 440, 441, 442, 443, 444, 445, 446, 447, 448, 449, 450, 451, 452, 453, 454, 455, 456, 457, 458, 459, 460, 461, 462, 463, 464, 465, 466, 467, 468, 469, 470, 471, 472, 473, 474, 475, 476, 477, 478, 479, 480, 481, 482, 483, 484, 485, 486, 487, 488, 489, 490, 491, 492, 493, 494, 495, 496, 497, 498, 499, 500, 501, 502, 503, 504, 505, 506, 507, 508, 509, 510, 511, 512, 513, 514, 515, 516, 517, 518, 519, 520, 521, 522, 523, 524, 525, 526, 527, 528, 529, 530, 531, 532, 533, 534, 535, 536, 537, 538, 539, 540, 541, 542, 543, 544, 545, 546, 547, 548, 549, 550, 551, 552, 553, 554, 555, 556, 557, 558, 559, 560, 561, 562, 563, 564, 565, 566, 567, 568, 569, 570, 571, 572, 573, 574, 575, 576, 577, 578, 579, 580, 581, 582, 583, 584, 585, 586, 587, 588, 589, 590, 591, 592, 593, 594, 595, 596, 597, 598, 599, 600, 601, 602, 603, 604, 605, 606, 607, 608, 609, 610, 611, 612, 613, 614, 615, 616, 617, 618, 619, 620, 621, 622, 623, 624, 625, 626, 627, 628, 629, 630, 631, 632, 633, 634, 635, 636, 637, 638, 639, 640, 641, 642, 643, 644, 645, 646, 647, 648, 649, 650, 651, 652, 653, 654, 655, 656, 657, 658, 659, 660, 661, 662, 663, 664, 665, 666, 667, 668, 669, 670, 671, 672, 673, 674, 675, 676, 677, 678, 679, 680, 681, 682, 683, 684, 685, 686, 687, 688, 689, 690, 691, 692, 693, 694, 695, 696, 697, 698, 699, 700, 701, 702, 703, 704, 705, 706, 707, 708, 709, 710, 711, 712, 713, 714, 715, 716, 717, 718, 719, 720, 721, 722, 723, 724, 725, 726, 727, 728, 729, 730, 731, 732, 733, 734, 735, 736, 737, 738, 739, 740, 741, 742, 743, 744, 745, 746, 747, 748, 749, 750, 751, 752, 753, 754, 755, 756, 757, 758, 759, 760, 761, 762, 763, 764, 765, 766, 767, 768, 769, 770, 771, 772, 773, 774, 775, 776, 777, 778, 779, 780, 781, 782, 783, 784, 785, 786, 787, 788, 789, 790, 791, 792, 793, 794, 795, 796, 797, 798, 799, 800, 801, 802, 803, 804, 805, 806, 807, 808, 809, 810, 811, 812, 813, 814, 815, 816, 817, 818, 819, 820, 821, 822, 823, 824, 825, 826, 827, 828, 829, 830, 831, 832, 833, 834, 835, 836, 837, 838, 839, 840, 841, 842, 843, 844, 845, 846, 847, 848, 849, 850, 851, 852, 853, 854, 855, 856, 857, 858, 859, 860, 861, 862, 863, 864, 865, 866, 867, 868, 869, 870, 871, 872, 873, 874, 875, 876, 877, 878, 879, 880, 881, 882, 883, 884, 885, 886, 887, 888, 889, 890, 891, 892, 893, 894, 895, 896, 897, 898, 899, 900, 901, 902, 903, 904, 905, 906, 907, 908, 909, 910, 911, 912, 913, 914],
      "AcquisitionTime": ["155741.237500", "155741.697500", "155742.157500", "155742.617500", "155743.077500", "155743.537500", "155743.997500", "155744.457500", "155744.917500", "155745.377500", "155745.837500", "155746.297500", "155746.757500", "155747.217500", "155747.677500", "155748.137500", "155748.597500", "155749.057500", "155749.517500", "155749.977500", "155750.437500", "155750.897500", "155751.357500", "155751.817500", "155752.277500", "155752.737500", "155753.197500", "155753.657500", "155754.117500", "155754.577500", "155755.037500", "155755.497500", "155755.957500", "155756.417500", "155756.877500", "155757.337500", "155757.797500", "155758.257500", "155758.717500", "155759.177500", "155759.637500", "155800.097500", "155800.557500", "155801.017500", "155801.477500", "155801.937500", "155802.397500", "155802.857500", "155803.317500", "155803.777500", "155804.237500", "155804.697500", "155805.157500", "155805.617500", "155806.077500", "155806.537500", "155806.997500", "155807.457500", "155807.917500", "155808.377500", "155808.837500", "155809.297500", "155809.757500", "155810.217500", "155810.677500", "155811.137500", "155811.597500", "155812.057500", "155812.517500", "155812.977500", "155813.437500", "155813.897500", "155814.357500", "155814.817500", "155815.277500", "155815.737500", "155816.197500", "155816.657500", "155817.117500", "155817.577500", "155818.037500", "155818.497500", "155818.957500", "155819.417500", "155819.877500", "155820.337500", "155820.797500", "155821.257500", "155821.717500", "155822.177500", "155822.637500", "155823.097500", "155823.557500", "155824.017500", "155824.477500", "155824.937500", "155825.397500", "155825.857500", "155826.317500", "155826.777500", "155827.237500", "155827.697500", "155828.157500", "155828.617500", "155829.077500", "155829.537500", "155829.997500", "155830.457500", "155830.917500", "155831.377500", "155831.837500", "155832.297500", "155832.757500", "155833.217500", "155833.677500", "155834.137500", "155834.597500", "155835.057500", "155835.517500", "155835.977500", "155836.437500", "155836.897500", "155837.357500", "155837.817500", "155838.277500", "155838.737500", "155839.197500", "155839.657500", "155840.117500", "155840.577500", "155841.037500", "155841.497500", "155841.957500", "155842.417500", "155842.877500", "155843.337500", "155843.797500", "155844.257500", "155844.717500", "155845.177500", "155845.637500", "155846.097500", "155846.557500", "155847.017500", "155847.477500", "155847.937500", "155848.397500", "155848.857500", "155849.317500", "155849.777500", "155850.237500", "155850.697500", "155851.157500", "155851.617500", "155852.077500", "155852.537500", "155852.997500", "155853.457500", "155853.917500", "155854.377500", "155854.837500", "155855.297500", "155855.757500", "155856.217500", "155856.677500", "155857.137500", "155857.597500", "155858.057500", "155858.517500", "155858.977500", "155859.437500", "155859.897500", "155900.357500", "155900.817500", "155901.277500", "155901.737500", "155902.197500", "155902.657500", "155903.117500", "155903.577500", "155904.037500", "155904.497500", "155904.957500", "155905.417500", "155905.877500", "155906.337500", "155906.797500", "155907.257500", "155907.717500", "155908.177500", "155908.637500", "155909.097500", "155909.557500", "155910.017500", "155910.477500", "155910.937500", "155911.397500", "155911.857500", "155912.317500", "155912.777500", "155913.237500", "155913.697500", "155914.157500", "155914.617500", "155915.077500", "155915.537500", "155915.997500", "155916.457500", "155916.917500", "155917.377500", "155917.837500", "155918.297500", "155918.757500", "155919.217500", "155919.677500", "155920.137500", "155920.597500", "155921.057500", "155921.517500", "155921.977500", "155922.437500", "155922.897500", "155923.357500", "155923.817500", "155924.277500", "155924.737500", "155925.197500", "155925.657500", "155926.117500", "155926.577500", "155927.037500", "155927.497500", "155927.957500", "155928.417500", "155928.877500", "155929.337500", "155929.797500", "155930.257500", "155930.717500", "155931.177500", "155931.637500", "155932.097500", "155932.557500", "155933.017500", "155933.477500", "155933.937500", "155934.397500", "155934.857500", "155935.317500", "155935.777500", "155936.237500", "155936.697500", "155937.157500", "155937.617500", "155938.077500", "155938.537500", "155938.997500", "155939.457500", "155939.917500", "155940.377500", "155940.837500", "155941.297500", "155941.757500", "155942.217500", "155942.677500", "155943.137500", "155943.597500", "155944.057500", "155944.517500", "155944.977500", "155945.437500", "155945.897500", "155946.357500", "155946.817500", "155947.277500", "155947.737500", "155948.197500", "155948.657500", "155949.117500", "155949.577500", "155950.037500", "155950.497500", "155950.957500", "155951.417500", "155951.877500", "155952.337500", "155952.797500", "155953.257500", "155953.717500", "155954.177500", "155954.637500", "155955.097500", "155955.557500", "155956.017500", "155956.477500", "155956.937500", "155957.397500", "155957.857500", "155958.317500", "155958.777500", "155959.237500", "155959.697500", "160000.157500", "160000.617500", "160001.077500", "160001.537500", "160001.997500", "160002.457500", "160002.917500", "160003.377500", "160003.837500", "160004.297500", "160004.757500", "160005.217500", "160005.677500", "160006.137500", "160006.597500", "160007.057500", "160007.517500", "160007.977500", "160008.437500", "160008.897500", "160009.357500", "160009.817500", "160010.277500", "160010.737500", "160011.197500", "160011.657500", "160012.117500", "160012.577500", "160013.037500", "160013.497500", "160013.957500", "160014.417500", "160014.877500", "160015.337500", "160015.797500", "160016.257500", "160016.717500", "160017.177500", "160017.637500", "160018.097500", "160018.557500", "160019.017500", "160019.477500", "160019.937500", "160020.397500", "160020.857500", "160021.317500", "160021.777500", "160022.237500", "160022.697500", "160023.157500", "160023.617500", "160024.077500", "160024.537500", "160024.997500", "160025.457500", "160025.917500", "160026.377500", "160026.837500", "160027.297500", "160027.757500", "160028.217500", "160028.677500", "160029.137500", "160029.597500", "160030.057500", "160030.517500", "160030.977500", "160031.437500", "160031.897500", "160032.357500", "160032.817500", "160033.277500", "160033.737500", "160034.197500", "160034.657500", "160035.117500", "160035.577500", "160036.037500", "160036.497500", "160036.957500", "160037.417500", "160037.877500", "160038.337500", "160038.797500", "160039.257500", "160039.717500", "160040.177500", "160040.637500", "160041.097500", "160041.557500", "160042.017500", "160042.477500", "160042.937500", "160043.397500", "160043.857500", "160044.317500", "160044.777500", "160045.237500", "160045.697500", "160046.157500", "160046.617500", "160047.077500", "160047.537500", "160047.997500", "160048.457500", "160048.917500", "160049.377500", "160049.837500", "160050.297500", "160050.757500", "160051.217500", "160051.677500", "160052.137500", "160052.597500", "160053.057500", "160053.517500", "160053.977500", "160054.437500", "160054.897500", "160055.357500", "160055.817500", "160056.277500", "160056.737500", "160057.197500", "160057.657500", "160058.117500", "160058.577500", "160059.037500", "160059.497500", "160059.957500", "160100.417500", "160100.877500", "160101.337500", "160101.797500", "160102.257500", "160102.717500", "160103.177500", "160103.637500", "160104.097500", "160104.557500", "160105.017500", "160105.477500", "160105.937500", "160106.397500", "160106.857500", "160107.317500", "160107.777500", "160108.237500", "160108.697500", "160109.157500", "160109.617500", "160110.077500", "160110.537500", "160110.997500", "160111.457500", "160111.917500", "160112.377500", "160112.837500", "160113.297500", "160113.757500", "160114.217500", "160114.677500", "160115.137500", "160115.597500", "160116.057500", "160116.517500", "160116.977500", "160117.437500", "160117.897500", "160118.357500", "160118.817500", "160119.277500", "160119.737500", "160120.197500", "160120.657500", "160121.117500", "160121.577500", "160122.037500", "160122.497500", "160122.957500", "160123.417500", "160123.877500", "160124.337500", "160124.797500", "160125.257500", "160125.717500", "160126.177500", "160126.637500", "160127.097500", "160127.557500", "160128.017500", "160128.477500", "160128.937500", "160129.397500", "160129.857500", "160130.317500", "160130.777500", "160131.237500", "160131.697500", "160132.157500", "160132.617500", "160133.077500", "160133.537500", "160133.997500", "160134.457500", "160134.917500", "160135.377500", "160135.837500", "160136.297500", "160136.757500", "160137.217500", "160137.677500", "160138.137500", "160138.597500", "160139.057500", "160139.517500", "160139.977500", "160140.437500", "160140.897500", "160141.357500", "160141.817500", "160142.277500", "160142.737500", "160143.197500", "160143.657500", "160144.117500", "160144.577500", "160145.037500", "160145.497500", "160145.957500", "160146.417500", "160146.877500", "160147.337500", "160147.797500", "160148.257500", "160148.717500", "160149.177500", "160149.637500", "160150.097500", "160150.557500", "160151.017500", "160151.477500", "160151.937500", "160152.397500", "160152.857500", "160153.317500", "160153.777500", "160154.237500", "160154.697500", "160155.157500", "160155.617500", "160156.077500", "160156.537500", "160156.997500", "160157.457500", "160157.917500", "160158.377500", "160158.837500", "160159.297500", "160159.757500", "160200.217500", "160200.677500", "160201.137500", "160201.597500", "160202.057500", "160202.517500", "160202.977500", "160203.437500", "160203.897500", "160204.357500", "160204.817500", "160205.277500", "160205.737500", "160206.197500", "160206.657500", "160207.117500", "160207.577500", "160208.037500", "160208.497500", "160208.957500", "160209.417500", "160209.877500", "160210.337500", "160210.797500", "160211.257500", "160211.717500", "160212.177500", "160212.637500", "160213.097500", "160213.557500", "160214.017500", "160214.477500", "160214.937500", "160215.397500", "160215.857500", "160216.317500", "160216.777500", "160217.237500", "160217.697500", "160218.157500", "160218.617500", "160219.077500", "160219.537500", "160219.997500", "160220.457500", "160220.917500", "160221.377500", "160221.837500", "160222.297500", "160222.757500", "160223.217500", "160223.677500", "160224.137500", "160224.597500", "160225.057500", "160225.517500", "160225.977500", "160226.437500", "160226.897500", "160227.357500", "160227.817500", "160228.277500", "160228.737500", "160229.197500", "160229.657500", "160230.117500", "160230.577500", "160231.037500", "160231.497500", "160231.957500", "160232.417500", "160232.877500", "160233.337500", "160233.797500", "160234.257500", "160234.717500", "160235.177500", "160235.637500", "160236.097500", "160236.557500", "160237.017500", "160237.477500", "160237.937500", "160238.397500", "160238.857500", "160239.317500", "160239.777500", "160240.237500", "160240.697500", "160241.157500", "160241.617500", "160242.077500", "160242.537500", "160242.997500", "160243.457500", "160243.917500", "160244.377500", "160244.837500", "160245.297500", "160245.757500", "160246.217500", "160246.677500", "160247.137500", "160247.597500", "160248.057500", "160248.517500", "160248.977500", "160249.437500", "160249.897500", "160250.357500", "160250.817500", "160251.277500", "160251.737500", "160252.197500", "160252.657500", "160253.117500", "160253.577500", "160254.037500", "160254.497500", "160254.957500", "160255.417500", "160255.877500", "160256.337500", "160256.797500", "160257.257500", "160257.717500", "160258.177500", "160258.637500", "160259.097500", "160259.557500", "160300.017500", "160300.477500", "160300.937500", "160301.397500", "160301.857500", "160302.317500", "160302.777500", "160303.237500", "160303.697500", "160304.157500", "160304.617500", "160305.077500", "160305.537500", "160305.997500", "160306.457500", "160306.917500", "160307.377500", "160307.837500", "160308.297500", "160308.757500", "160309.217500", "160309.677500", "160310.137500", "160310.597500", "160311.057500", "160311.517500", "160311.977500", "160312.437500", "160312.897500", "160313.357500", "160313.817500", "160314.277500", "160314.737500", "160315.197500", "160315.657500", "160316.117500", "160316.577500", "160317.037500", "160317.497500", "160317.957500", "160318.417500", "160318.877500", "160319.337500", "160319.797500", "160320.257500", "160320.717500", "160321.177500", "160321.637500", "160322.097500", "160322.557500", "160323.017500", "160323.477500", "160323.937500", "160324.397500", "160324.857500", "160325.317500", "160325.777500", "160326.237500", "160326.697500", "160327.157500", "160327.617500", "160328.077500", "160328.537500", "160328.997500", "160329.457500", "160329.917500", "160330.377500", "160330.837500", "160331.297500", "160331.757500", "160332.217500", "160332.677500", "160333.137500", "160333.597500", "160334.057500", "160334.517500", "160334.977500", "160335.437500", "160335.897500", "160336.357500", "160336.817500", "160337.277500", "160337.737500", "160338.197500", "160338.657500", "160339.117500", "160339.577500", "160340.037500", "160340.497500", "160340.957500", "160341.417500", "160341.877500", "160342.337500", "160342.797500", "160343.257500", "160343.717500", "160344.177500", "160344.637500", "160345.097500", "160345.557500", "160346.017500", "160346.477500", "160346.937500", "160347.397500", "160347.857500", "160348.317500", "160348.777500", "160349.237500", "160349.697500", "160350.157500", "160350.617500", "160351.077500", "160351.537500", "160351.997500", "160352.457500", "160352.917500", "160353.377500", "160353.837500", "160354.297500", "160354.757500", "160355.217500", "160355.677500", "160356.137500", "160356.597500", "160357.057500", "160357.517500", "160357.977500", "160358.437500", "160358.897500", "160359.357500", "160359.817500", "160400.277500", "160400.737500", "160401.197500", "160401.657500", "160402.117500", "160402.577500", "160403.037500", "160403.497500", "160403.957500", "160404.417500", "160404.877500", "160405.337500", "160405.797500", "160406.257500", "160406.717500", "160407.177500", "160407.637500", "160408.097500", "160408.557500", "160409.017500", "160409.477500", "160409.937500", "160410.397500", "160410.857500", "160411.317500", "160411.777500", "160412.237500", "160412.697500", "160413.157500", "160413.617500", "160414.077500", "160414.537500", "160414.997500", "160415.457500", "160415.917500", "160416.377500", "160416.837500", "160417.297500", "160417.757500", "160418.217500", "160418.677500", "160419.137500", "160419.597500", "160420.057500", "160420.517500", "160420.977500", "160421.437500", "160421.897500", "160422.357500", "160422.817500", "160423.277500", "160423.737500", "160424.197500", "160424.657500", "160425.117500", "160425.577500", "160426.037500", "160426.497500", "160426.957500", "160427.417500", "160427.877500", "160428.337500", "160428.797500", "160429.257500", "160429.717500", "160430.177500", "160430.637500", "160431.097500", "160431.557500", "160432.017500", "160432.477500", "160432.937500", "160433.397500", "160433.857500", "160434.317500", "160434.777500", "160435.237500", "160435.697500", "160436.157500", "160436.617500", "160437.077500", "160437.537500", "160437.997500", "160438.457500", "160438.917500", "160439.377500", "160439.837500", "160440.297500", "160440.757500", "160441.217500"],
