{
  "AcquisitionMatrixPE": 82,
  "AcquisitionNumber": 1,
  "AcquisitionTime": "15:26:45.062500",
  "BandwidthPerPixelPhaseEncode": 24.888,
  "BaseResolution": 82,
  "BodyPartExamined": "BRAIN",
  "ConsistencyInfo": "N4_VE11E_LATEST_20181129",
  "ConversionSoftware": "dcm2niix",
  "ConversionSoftwareVersion": "v1.0.20201102",
  "DerivedVendorReportedEchoSpacing": 0.00049,
  "DeviceSerialNumber": "66112",
  "DwellTime": 2e-06,
  "EchoTime": 0.0272,
  "EchoTrainLength": 82,
  "EffectiveEchoSpacing": 0.00049,
  "FlipAngle": 44,
  "ImageComments": "Unaliased MB8/PE3",
  "ImageOrientationPatientDICOM": [0.998575, -0.0232548, -0.0480397, 0.0369651, 0.950599, 0.308213],
  "ImageType": [
    "ORIGINAL",
    "PRIMARY",
    "M",
    "MB",
    "ND",
    "NORM",
    "MOSAIC"
],
  "ImagingFrequency": 123.252,
  "InPlanePhaseEncodingDirectionDICOM": "COL",
  "InstitutionAddress": "Maynard 3,Hanover,NH,US,03755",
  "InstitutionName": "Dartmouth College - PBS",
  "InstitutionalDepartmentName": "Department",
  "MRAcquisitionType": "2D",
  "MagneticFieldStrength": 3,
  "Manufacturer": "Siemens",
  "ManufacturersModelName": "Prisma",
  "Modality": "MR",
  "MultibandAccelerationFactor": 8,
  "PartialFourier": 1,
  "PatientPosition": "HFS",
  "PercentPhaseFOV": 100,
  "PercentSampling": 100,
  "PhaseEncodingDirection": "j-",
  "PhaseEncodingSteps": 82,
  "PhaseResolution": 1,
  "PixelBandwidth": 3050,
  "ProcedureStepDescription": "Wager_Wager^1076_spacetop",
  "ProtocolName": "func_run-01_task-alignvideo_acq-ap-mb8",
  "PulseSequenceDetails": "%CustomerSeq%\\cmrr_mbep2d_bold",
  "ReceiveCoilActiveElements": "HEA;HEP",
  "ReceiveCoilName": "Head_32",
  "ReconMatrixPE": 82,
  "RepetitionTime": 0.46,
  "SAR": 0.101099,
  "ScanOptions": "FS",
  "ScanningSequence": "EP",
  "SequenceName": "epfid2d1_82",
  "SequenceVariant": "SK\\SS",
  "SeriesDescription": "func_run-01_task-alignvideo_acq-ap-mb8",
  "SeriesNumber": 28,
  "ShimSetting": [4131, -7796, -7290, 673, -40, -274, 58, 125],
  "SliceThickness": 2.7,
  "SliceTiming": [0, 0.2525, 0.0625, 0.315, 0.1275, 0.3775, 0.19, 0, 0.2525, 0.0625, 0.315, 0.1275, 0.3775, 0.19, 0, 0.2525, 0.0625, 0.315, 0.1275, 0.3775, 0.19, 0, 0.2525, 0.0625, 0.315, 0.1275, 0.3775, 0.19, 0, 0.2525, 0.0625, 0.315, 0.1275, 0.3775, 0.19, 0, 0.2525, 0.0625, 0.315, 0.1275, 0.3775, 0.19, 0, 0.2525, 0.0625, 0.315, 0.1275, 0.3775, 0.19, 0, 0.2525, 0.0625, 0.315, 0.1275, 0.3775, 0.19],
  "SoftwareVersions": "syngo MR E11",
  "SpacingBetweenSlices": 2.7,
  "StationName": "AWP66112",
  "TaskName": "alignvideo",
  "TotalReadoutTime": 0.03969,
  "TxRefAmp": 236.2,
  "WipMemBlock": "65737e69-4407-415a-98ee-12b7d72406a5||Sequence: R016 ve11e/master r/434b28f1; Aug  7 2019 18:53:46 by eja",
  "dcmmeta_affine": [
    [-2.679102897644043, 0.09917473793029785, -0.10394741594791412, 110.68763732910156],
    [0.06239088997244835, 2.550387144088745, 0.8357842564582825, -118.33102416992188],
    [-0.12888698279857635, -0.8269135355949402, 2.565279722213745, -27.592941284179688],
    [0.0, 0.0, 0.0, 1.0]
],
  "dcmmeta_reorient_transform": [
    [0.0, -1.0, 0.0, 81.0],
    [1.0, 0.0, 0.0, 0.0],
    [0.0, 0.0, 1.0, 0.0],
    [0.0, 0.0, 0.0, 1.0]
],
  "dcmmeta_shape": [82, 82, 56, 839],
  "dcmmeta_slice_dim": 2,
  "dcmmeta_version": 0.6,
  "global": {
    "const": {
      "AccessionNumber": "A004205",
      "AcquisitionMatrix": [82, 0, 0, 82],
      "AngioFlag": "N",
      "BitsAllocated": 16,
      "BitsStored": 16,
      "BodyPartExamined": "BRAIN",
      "Columns": 656,
      "EchoNumbers": 1,
      "EchoTime": 27.2,
      "EchoTrainLength": 82,
      "FlipAngle": 44.0,
      "HighBit": 15,
      "ImageOrientationPatient": [0.99857468577174, -0.0232547854573, -0.0480396907694, 0.03696512757568, 0.9505988559537, 0.30821322879271],
      "ImagePositionPatient": [-916.08646837615, -802.30529035437, -294.90656871168],
      "ImageType": [
        "ORIGINAL",
        "PRIMARY",
        "M",
        "MB",
        "ND",
        "NORM",
        "MOSAIC"
],
      "ImagedNucleus": "1H",
      "ImagingFrequency": 123.252203,
      "InPlanePhaseEncodingDirection": "COL",
      "MRAcquisitionType": "2D",
      "MagneticFieldStrength": 3.0,
      "Manufacturer": "SIEMENS",
      "ManufacturerModelName": "Prisma",
      "Modality": "MR",
      "NumberOfAverages": 1.0,
      "NumberOfPhaseEncodingSteps": 82,
      "PercentPhaseFieldOfView": 100.0,
      "PercentSampling": 100.0,
      "PerformedProcedureStepStartTime": "135046.214000",
      "PhotometricInterpretation": "MONOCHROME2",
      "PixelBandwidth": 3050.0,
      "PixelRepresentation": 0,
      "PixelSpacing": [2.6829268932343, 2.6829268932343],
      "ProtocolName": "func_run-01_task-alignvideo_acq-ap-mb8",
      "RepetitionTime": 460.0,
      "Rows": 656,
      "SAR": 0.10109868656333,
      "SamplesPerPixel": 1,
      "ScanOptions": "FS",
      "ScanningSequence": "EP",
      "SequenceName": "epfid2d1_82",
      "SequenceVariant": [
        "SK",
        "SS"
],
      "SeriesDescription": "func_run-01_task-alignvideo_acq-ap-mb8",
      "SeriesNumber": 28,
      "SeriesTime": "152704.494000",
      "SliceLocation": -67.10685659574,
      "SliceThickness": 2.7000000476837,
      "SmallestImagePixelValue": 0,
      "SoftwareVersions": "syngo MR E11",
      "SpacingBetweenSlices": 2.7000000815685,
      "SpecificCharacterSet": "ISO_IR 100",
      "StudyID": "1",
      "StudyTime": "135046.149000",
      "TransmitCoilName": "Body",
      "VariableFlipAngleFlag": "N",
      "WindowCenterWidthExplanation": "Algo1"
    },
    "slices": {}
  },
  "time": {
    "samples": {
      "AcquisitionNumber": [1, 2, 3, 4, 5, 6, 7, 8, 9, 10, 11, 12, 13, 14, 15, 16, 17, 18, 19, 20, 21, 22, 23, 24, 25, 26, 27, 28, 29, 30, 31, 32, 33, 34, 35, 36, 37, 38, 39, 40, 41, 42, 43, 44, 45, 46, 47, 48, 49, 50, 51, 52, 53, 54, 55, 56, 57, 58, 59, 60, 61, 62, 63, 64, 65, 66, 67, 68, 69, 70, 71, 72, 73, 74, 75, 76, 77, 78, 79, 80, 81, 82, 83, 84, 85, 86, 87, 88, 89, 90, 91, 92, 93, 94, 95, 96, 97, 98, 99, 100, 101, 102, 103, 104, 105, 106, 107, 108, 109, 110, 111, 112, 113, 114, 115, 116, 117, 118, 119, 120, 121, 122, 123, 124, 125, 126, 127, 128, 129, 130, 131, 132, 133, 134, 135, 136, 137, 138, 139, 140, 141, 142, 143, 144, 145, 146, 147, 148, 149, 150, 151, 152, 153, 154, 155, 156, 157, 158, 159, 160, 161, 162, 163, 164, 165, 166, 167, 168, 169, 170, 171, 172, 173, 174, 175, 176, 177, 178, 179, 180, 181, 182, 183, 184, 185, 186, 187, 188, 189, 190, 191, 192, 193, 194, 195, 196, 197, 198, 199, 200, 201, 202, 203, 204, 205, 206, 207, 208, 209, 210, 211, 212, 213, 214, 215, 216, 217, 218, 219, 220, 221, 222, 223, 224, 225, 226, 227, 228, 229, 230, 231, 232, 233, 234, 235, 236, 237, 238, 239, 240, 241, 242, 243, 244, 245, 246, 247, 248, 249, 250, 251, 252, 253, 254, 255, 256, 257, 258, 259, 260, 261, 262, 263, 264, 265, 266, 267, 268, 269, 270, 271, 272, 273, 274, 275, 276, 277, 278, 279, 280, 281, 282, 283, 284, 285, 286, 287, 288, 289, 290, 291, 292, 293, 294, 295, 296, 297, 298, 299, 300, 301, 302, 303, 304, 305, 306, 307, 308, 309, 310, 311, 312, 313, 314, 315, 316, 317, 318, 319, 320, 321, 322, 323, 324, 325, 326, 327, 328, 329, 330, 331, 332, 333, 334, 335, 336, 337, 338, 339, 340, 341, 342, 343, 344, 345, 346, 347, 348, 349, 350, 351, 352, 353, 354, 355, 356, 357, 358, 359, 360, 361, 362, 363, 364, 365, 366, 367, 368, 369, 370, 371, 372, 373, 374, 375, 376, 377, 378, 379, 380, 381, 382, 383, 384, 385, 386, 387, 388, 389, 390, 391, 392, 393, 394, 395, 396, 397, 398, 399, 400, 401, 402, 403, 404, 405, 406, 407, 408, 409, 410, 411, 412, 413, 414, 415, 416, 417, 418, 419, 420, 421, 422, 423, 424, 425, 426, 427, 428, 429, 430, 431, 432, 433, 434, 435, 436, 437, 438, 439, 440, 441, 442, 443, 444, 445, 446, 447, 448, 449, 450, 451, 452, 453, 454, 455, 456, 457, 458, 459, 460, 461, 462, 463, 464, 465, 466, 467, 468, 469, 470, 471, 472, 473, 474, 475, 476, 477, 478, 479, 480, 481, 482, 483, 484, 485, 486, 487, 488, 489, 490, 491, 492, 493, 494, 495, 496, 497, 498, 499, 500, 501, 502, 503, 504, 505, 506, 507, 508, 509, 510, 511, 512, 513, 514, 515, 516, 517, 518, 519, 520, 521, 522, 523, 524, 525, 526, 527, 528, 529, 530, 531, 532, 533, 534, 535, 536, 537, 538, 539, 540, 541, 542, 543, 544, 545, 546, 547, 548, 549, 550, 551, 552, 553, 554, 555, 556, 557, 558, 559, 560, 561, 562, 563, 564, 565, 566, 567, 568, 569, 570, 571, 572, 573, 574, 575, 576, 577, 578, 579, 580, 581, 582, 583, 584, 585, 586, 587, 588, 589, 590, 591, 592, 593, 594, 595, 596, 597, 598, 599, 600, 601, 602, 603, 604, 605, 606, 607, 608, 609, 610, 611, 612, 613, 614, 615, 616, 617, 618, 619, 620, 621, 622, 623, 624, 625, 626, 627, 628, 629, 630, 631, 632, 633, 634, 635, 636, 637, 638, 639, 640, 641, 642, 643, 644, 645, 646, 647, 648, 649, 650, 651, 652, 653, 654, 655, 656, 657, 658, 659, 660, 661, 662, 663, 664, 665, 666, 667, 668, 669, 670, 671, 672, 673, 674, 675, 676, 677, 678, 679, 680, 681, 682, 683, 684, 685, 686, 687, 688, 689, 690, 691, 692, 693, 694, 695, 696, 697, 698, 699, 700, 701, 702, 703, 704, 705, 706, 707, 708, 709, 710, 711, 712, 713, 714, 715, 716, 717, 718, 719, 720, 721, 722, 723, 724, 725, 726, 727, 728, 729, 730, 731, 732, 733, 734, 735, 736, 737, 738, 739, 740, 741, 742, 743, 744, 745, 746, 747, 748, 749, 750, 751, 752, 753, 754, 755, 756, 757, 758, 759, 760, 761, 762, 763, 764, 765, 766, 767, 768, 769, 770, 771, 772, 773, 774, 775, 776, 777, 778, 779, 780, 781, 782, 783, 784, 785, 786, 787, 788, 789, 790, 791, 792, 793, 794, 795, 796, 797, 798, 799, 800, 801, 802, 803, 804, 805, 806, 807, 808, 809, 810, 811, 812, 813, 814, 815, 816, 817, 818, 819, 820, 821, 822, 823, 824, 825, 826, 827, 828, 829, 830, 831, 832, 833, 834, 835, 836, 837, 838, 839],
      "AcquisitionTime": ["152645.062500", "152645.522500", "152645.982500", "152646.442500", "152646.902500", "152647.362500", "152647.822500", "152648.282500", "152648.742500", "152649.202500", "152649.662500", "152650.122500", "152650.582500", "152651.042500", "152651.502500", "152651.962500", "152652.422500", "152652.882500", "152653.342500", "152653.802500", "152654.262500", "152654.722500", "152655.182500", "152655.642500", "152656.102500", "152656.562500", "152657.022500", "152657.482500", "152657.942500", "152658.402500", "152658.862500", "152659.322500", "152659.782500", "152700.242500", "152700.702500", "152701.162500", "152701.622500", "152702.082500", "152702.542500", "152703.002500", "152703.462500", "152703.922500", "152704.382500", "152704.842500", "152705.302500", "152705.762500", "152706.222500", "152706.682500", "152707.142500", "152707.602500", "152708.062500", "152708.522500", "152708.982500", "152709.442500", "152709.902500", "152710.362500", "152710.822500", "152711.282500", "152711.742500", "152712.202500", "152712.662500", "152713.122500", "152713.582500", "152714.042500", "152714.502500", "152714.962500", "152715.422500", "152715.882500", "152716.342500", "152716.802500", "152717.262500", "152717.722500", "152718.182500", "152718.642500", "152719.102500", "152719.562500", "152720.022500", "152720.482500", "152720.942500", "152721.402500", "152721.862500", "152722.322500", "152722.782500", "152723.242500", "152723.702500", "152724.162500", "152724.622500", "152725.082500", "152725.542500", "152726.002500", "152726.462500", "152726.922500", "152727.382500", "152727.842500", "152728.302500", "152728.762500", "152729.222500", "152729.682500", "152730.142500", "152730.602500", "152731.062500", "152731.522500", "152731.982500", "152732.442500", "152732.902500", "152733.362500", "152733.822500", "152734.282500", "152734.742500", "152735.202500", "152735.662500", "152736.122500", "152736.582500", "152737.042500", "152737.502500", "152737.962500", "152738.422500", "152738.882500", "152739.342500", "152739.802500", "152740.262500", "152740.722500", "152741.182500", "152741.642500", "152742.102500", "152742.562500", "152743.022500", "152743.482500", "152743.942500", "152744.402500", "152744.862500", "152745.322500", "152745.782500", "152746.242500", "152746.702500", "152747.162500", "152747.622500", "152748.082500", "152748.542500", "152749.002500", "152749.462500", "152749.922500", "152750.382500", "152750.842500", "152751.302500", "152751.762500", "152752.222500", "152752.682500", "152753.142500", "152753.602500", "152754.062500", "152754.522500", "152754.982500", "152755.442500", "152755.902500", "152756.362500", "152756.822500", "152757.282500", "152757.742500", "152758.202500", "152758.662500", "152759.122500", "152759.582500", "152800.042500", "152800.502500", "152800.962500", "152801.422500", "152801.882500", "152802.342500", "152802.802500", "152803.262500", "152803.722500", "152804.182500", "152804.642500", "152805.102500", "152805.562500", "152806.022500", "152806.482500", "152806.942500", "152807.402500", "152807.862500", "152808.322500", "152808.782500", "152809.242500", "152809.702500", "152810.162500", "152810.622500", "152811.082500", "152811.542500", "152812.002500", "152812.462500", "152812.922500", "152813.382500", "152813.842500", "152814.302500", "152814.762500", "152815.222500", "152815.682500", "152816.142500", "152816.602500", "152817.062500", "152817.522500", "152817.982500", "152818.442500", "152818.902500", "152819.362500", "152819.822500", "152820.282500", "152820.742500", "152821.202500", "152821.662500", "152822.122500", "152822.582500", "152823.042500", "152823.502500", "152823.962500", "152824.422500", "152824.882500", "152825.342500", "152825.802500", "152826.262500", "152826.722500", "152827.182500", "152827.642500", "152828.102500", "152828.562500", "152829.022500", "152829.482500", "152829.942500", "152830.402500", "152830.862500", "152831.322500", "152831.782500", "152832.242500", "152832.702500", "152833.162500", "152833.622500", "152834.082500", "152834.542500", "152835.002500", "152835.462500", "152835.922500", "152836.382500", "152836.842500", "152837.302500", "152837.762500", "152838.222500", "152838.682500", "152839.142500", "152839.602500", "152840.062500", "152840.522500", "152840.982500", "152841.442500", "152841.902500", "152842.362500", "152842.822500", "152843.282500", "152843.742500", "152844.202500", "152844.662500", "152845.122500", "152845.582500", "152846.042500", "152846.502500", "152846.962500", "152847.422500", "152847.882500", "152848.342500", "152848.802500", "152849.262500", "152849.722500", "152850.182500", "152850.642500", "152851.102500", "152851.562500", "152852.022500", "152852.482500", "152852.942500", "152853.402500", "152853.862500", "152854.322500", "152854.782500", "152855.242500", "152855.702500", "152856.162500", "152856.622500", "152857.082500", "152857.542500", "152858.002500", "152858.462500", "152858.922500", "152859.382500", "152859.842500", "152900.302500", "152900.762500", "152901.222500", "152901.682500", "152902.142500", "152902.602500", "152903.062500", "152903.522500", "152903.982500", "152904.442500", "152904.902500", "152905.362500", "152905.822500", "152906.282500", "152906.742500", "152907.202500", "152907.662500", "152908.122500", "152908.582500", "152909.042500", "152909.502500", "152909.962500", "152910.422500", "152910.882500", "152911.342500", "152911.802500", "152912.262500", "152912.722500", "152913.182500", "152913.642500", "152914.102500", "152914.562500", "152915.022500", "152915.482500", "152915.942500", "152916.402500", "152916.862500", "152917.322500", "152917.782500", "152918.242500", "152918.702500", "152919.162500", "152919.622500", "152920.082500", "152920.542500", "152921.002500", "152921.462500", "152921.922500", "152922.382500", "152922.842500", "152923.302500", "152923.762500", "152924.222500", "152924.682500", "152925.142500", "152925.602500", "152926.062500", "152926.522500", "152926.982500", "152927.442500", "152927.902500", "152928.362500", "152928.822500", "152929.282500", "152929.742500", "152930.202500", "152930.662500", "152931.122500", "152931.582500", "152932.042500", "152932.502500", "152932.962500", "152933.422500", "152933.882500", "152934.342500", "152934.802500", "152935.262500", "152935.722500", "152936.182500", "152936.642500", "152937.102500", "152937.562500", "152938.022500", "152938.482500", "152938.942500", "152939.402500", "152939.862500", "152940.322500", "152940.782500", "152941.242500", "152941.702500", "152942.162500", "152942.622500", "152943.082500", "152943.542500", "152944.002500", "152944.462500", "152944.922500", "152945.382500", "152945.842500", "152946.302500", "152946.762500", "152947.222500", "152947.682500", "152948.142500", "152948.602500", "152949.062500", "152949.522500", "152949.982500", "152950.442500", "152950.902500", "152951.362500", "152951.822500", "152952.282500", "152952.742500", "152953.202500", "152953.662500", "152954.122500", "152954.582500", "152955.042500", "152955.502500", "152955.962500", "152956.422500", "152956.882500", "152957.342500", "152957.802500", "152958.262500", "152958.722500", "152959.182500", "152959.642500", "153000.102500", "153000.562500", "153001.022500", "153001.482500", "153001.942500", "153002.402500", "153002.862500", "153003.322500", "153003.782500", "153004.242500", "153004.702500", "153005.162500", "153005.622500", "153006.082500", "153006.542500", "153007.002500", "153007.462500", "153007.922500", "153008.382500", "153008.842500", "153009.302500", "153009.762500", "153010.222500", "153010.682500", "153011.142500", "153011.602500", "153012.062500", "153012.522500", "153012.982500", "153013.442500", "153013.902500", "153014.362500", "153014.822500", "153015.282500", "153015.742500", "153016.202500", "153016.662500", "153017.122500", "153017.582500", "153018.042500", "153018.502500", "153018.962500", "153019.422500", "153019.882500", "153020.342500", "153020.802500", "153021.262500", "153021.722500", "153022.182500", "153022.642500", "153023.102500", "153023.562500", "153024.022500", "153024.482500", "153024.942500", "153025.402500", "153025.862500", "153026.322500", "153026.782500", "153027.242500", "153027.702500", "153028.162500", "153028.622500", "153029.082500", "153029.542500", "153030.002500", "153030.462500", "153030.922500", "153031.382500", "153031.842500", "153032.302500", "153032.762500", "153033.222500", "153033.682500", "153034.142500", "153034.602500", "153035.062500", "153035.522500", "153035.982500", "153036.442500", "153036.902500", "153037.362500", "153037.822500", "153038.282500", "153038.742500", "153039.202500", "153039.662500", "153040.122500", "153040.582500", "153041.042500", "153041.502500", "153041.962500", "153042.422500", "153042.882500", "153043.342500", "153043.802500", "153044.262500", "153044.722500", "153045.182500", "153045.642500", "153046.102500", "153046.562500", "153047.022500", "153047.482500", "153047.942500", "153048.402500", "153048.862500", "153049.322500", "153049.782500", "153050.242500", "153050.702500", "153051.162500", "153051.622500", "153052.082500", "153052.542500", "153053.002500", "153053.462500", "153053.922500", "153054.382500", "153054.842500", "153055.302500", "153055.762500", "153056.222500", "153056.682500", "153057.142500", "153057.602500", "153058.062500", "153058.522500", "153058.982500", "153059.442500", "153059.902500", "153100.362500", "153100.822500", "153101.282500", "153101.742500", "153102.202500", "153102.662500", "153103.122500", "153103.582500", "153104.042500", "153104.502500", "153104.962500", "153105.422500", "153105.882500", "153106.342500", "153106.802500", "153107.262500", "153107.722500", "153108.182500", "153108.642500", "153109.102500", "153109.562500", "153110.022500", "153110.482500", "153110.942500", "153111.402500", "153111.862500", "153112.322500", "153112.782500", "153113.242500", "153113.702500", "153114.162500", "153114.622500", "153115.082500", "153115.542500", "153116.002500", "153116.462500", "153116.922500", "153117.382500", "153117.842500", "153118.302500", "153118.762500", "153119.222500", "153119.682500", "153120.142500", "153120.602500", "153121.062500", "153121.522500", "153121.982500", "153122.442500", "153122.902500", "153123.362500", "153123.822500", "153124.282500", "153124.742500", "153125.202500", "153125.662500", "153126.122500", "153126.582500", "153127.042500", "153127.502500", "153127.962500", "153128.422500", "153128.882500", "153129.342500", "153129.802500", "153130.262500", "153130.722500", "153131.182500", "153131.642500", "153132.102500", "153132.562500", "153133.022500", "153133.482500", "153133.942500", "153134.402500", "153134.862500", "153135.322500", "153135.782500", "153136.242500", "153136.702500", "153137.162500", "153137.622500", "153138.082500", "153138.542500", "153139.002500", "153139.462500", "153139.922500", "153140.382500", "153140.842500", "153141.302500", "153141.762500", "153142.222500", "153142.682500", "153143.142500", "153143.602500", "153144.062500", "153144.522500", "153144.982500", "153145.442500", "153145.902500", "153146.362500", "153146.822500", "153147.282500", "153147.742500", "153148.202500", "153148.662500", "153149.122500", "153149.582500", "153150.042500", "153150.502500", "153150.962500", "153151.422500", "153151.882500", "153152.342500", "153152.802500", "153153.262500", "153153.722500", "153154.182500", "153154.642500", "153155.102500", "153155.562500", "153156.022500", "153156.482500", "153156.942500", "153157.402500", "153157.862500", "153158.322500", "153158.782500", "153159.242500", "153159.702500", "153200.162500", "153200.622500", "153201.082500", "153201.542500", "153202.002500", "153202.462500", "153202.922500", "153203.382500", "153203.842500", "153204.302500", "153204.762500", "153205.222500", "153205.682500", "153206.142500", "153206.602500", "153207.062500", "153207.522500", "153207.982500", "153208.442500", "153208.902500", "153209.362500", "153209.822500", "153210.282500", "153210.742500", "153211.202500", "153211.662500", "153212.122500", "153212.582500", "153213.042500", "153213.502500", "153213.962500", "153214.422500", "153214.882500", "153215.342500", "153215.802500", "153216.262500", "153216.722500", "153217.182500", "153217.642500", "153218.102500", "153218.562500", "153219.022500", "153219.482500", "153219.942500", "153220.402500", "153220.862500", "153221.322500", "153221.782500", "153222.242500", "153222.702500", "153223.162500", "153223.622500", "153224.082500", "153224.542500", "153225.002500", "153225.462500", "153225.922500", "153226.382500", "153226.842500", "153227.302500", "153227.762500", "153228.222500", "153228.682500", "153229.142500", "153229.602500", "153230.062500", "153230.522500", "153230.982500", "153231.442500", "153231.902500", "153232.362500", "153232.822500", "153233.282500", "153233.742500", "153234.202500", "153234.662500", "153235.122500", "153235.582500", "153236.042500", "153236.502500", "153236.962500", "153237.422500", "153237.882500", "153238.342500", "153238.802500", "153239.262500", "153239.722500", "153240.182500", "153240.642500", "153241.102500", "153241.562500", "153242.022500", "153242.482500", "153242.942500", "153243.402500", "153243.862500", "153244.322500", "153244.782500", "153245.242500", "153245.702500", "153246.162500", "153246.622500", "153247.082500", "153247.542500", "153248.002500", "153248.462500", "153248.922500", "153249.382500", "153249.842500", "153250.302500", "153250.762500", "153251.222500", "153251.682500", "153252.142500", "153252.602500", "153253.062500", "153253.522500", "153253.982500", "153254.442500", "153254.902500", "153255.362500", "153255.822500", "153256.282500", "153256.742500", "153257.202500", "153257.662500", "153258.122500", "153258.582500", "153259.042500", "153259.502500", "153259.962500", "153300.422500", "153300.882500", "153301.342500", "153301.802500", "153302.262500", "153302.722500", "153303.182500", "153303.642500", "153304.102500", "153304.562500", "153305.022500", "153305.482500", "153305.942500", "153306.402500", "153306.862500", "153307.322500", "153307.782500", "153308.242500", "153308.702500", "153309.162500", "153309.622500", "153310.082500", "153310.542500"],
