{
  "AcquisitionMatrixPE": 82,
  "AcquisitionNumber": 1,
  "AcquisitionTime": "14:27:56.727500",
  "BandwidthPerPixelPhaseEncode": 24.888,
  "BaseResolution": 82,
  "BodyPartExamined": "BRAIN",
  "ConsistencyInfo": "N4_VE11E_LATEST_20181129",
  "ConversionSoftware": "dcm2niix",
  "ConversionSoftwareVersion": "v1.0.20201102",
  "DerivedVendorReportedEchoSpacing": 0.00049,
  "DeviceSerialNumber": "66112",
  "DwellTime": 2e-06,
  "EchoTime": 0.0272,
  "EchoTrainLength": 82,
  "EffectiveEchoSpacing": 0.00049,
  "FlipAngle": 44,
  "ImageComments": "Unaliased MB8/PE3",
  "ImageOrientationPatientDICOM": [0.998641, -0.0187254, -0.0486261, 0.0338263, 0.942802, 0.331633],
  "ImageType": [
    "ORIGINAL",
    "PRIMARY",
    "M",
    "MB",
    "ND",
    "NORM",
    "MOSAIC"
],
  "ImagingFrequency": 123.252,
  "InPlanePhaseEncodingDirectionDICOM": "COL",
  "InstitutionAddress": "Maynard 3,Hanover,NH,US,03755",
  "InstitutionName": "Dartmouth College - PBS",
  "InstitutionalDepartmentName": "Department",
  "MRAcquisitionType": "2D",
  "MagneticFieldStrength": 3,
  "Manufacturer": "Siemens",
  "ManufacturersModelName": "Prisma",
  "Modality": "MR",
  "MultibandAccelerationFactor": 8,
  "PartialFourier": 1,
  "PatientPosition": "HFS",
  "PercentPhaseFOV": 100,
  "PercentSampling": 100,
  "PhaseEncodingDirection": "j-",
  "PhaseEncodingSteps": 82,
  "PhaseResolution": 1,
  "PixelBandwidth": 3050,
  "ProcedureStepDescription": "Wager_Wager^1076_spacetop",
  "ProtocolName": "func_run-02_task-narratives_acq-ap-mb8",
  "PulseSequenceDetails": "%CustomerSeq%\\cmrr_mbep2d_bold",
  "ReceiveCoilActiveElements": "HEA;HEP",
  "ReceiveCoilName": "Head_32",
  "ReconMatrixPE": 82,
  "RepetitionTime": 0.46,
  "SAR": 0.101253,
  "ScanOptions": "FS",
  "ScanningSequence": "EP",
  "SequenceName": "epfid2d1_82",
  "SequenceVariant": "SK\\SS",
  "SeriesDescription": "func_run-02_task-narratives_acq-ap-mb8",
  "SeriesNumber": 10,
  "ShimSetting": [4131, -7798, -7292, 659, -35, -289, 60, 126],
  "SliceThickness": 2.7,
  "SliceTiming": [0, 0.25, 0.0625, 0.3125, 0.125, 0.375, 0.1875, 0, 0.25, 0.0625, 0.3125, 0.125, 0.375, 0.1875, 0, 0.25, 0.0625, 0.3125, 0.125, 0.375, 0.1875, 0, 0.25, 0.0625, 0.3125, 0.125, 0.375, 0.1875, 0, 0.25, 0.0625, 0.3125, 0.125, 0.375, 0.1875, 0, 0.25, 0.0625, 0.3125, 0.125, 0.375, 0.1875, 0, 0.25, 0.0625, 0.3125, 0.125, 0.375, 0.1875, 0, 0.25, 0.0625, 0.3125, 0.125, 0.375, 0.1875],
  "SoftwareVersions": "syngo MR E11",
  "SpacingBetweenSlices": 2.7,
  "StationName": "AWP66112",
  "TaskName": "narratives",
  "TotalReadoutTime": 0.03969,
  "TxRefAmp": 236.2,
  "WipMemBlock": "50abf3e0-2215-47ca-b89c-5e385d1881b2||Sequence: R016 ve11e/master r/434b28f1; Aug  7 2019 18:53:46 by eja",
  "dcmmeta_affine": [
    [-2.6792821884155273, 0.09075354039669037, -0.10701389610767365, 110.86265563964844],
    [0.05023888126015663, 2.529468059539795, 0.898634672164917, -118.21314239501953],
    [-0.13046018779277802, -0.8897479772567749, 2.5438168048858643, -27.976985931396484],
    [0.0, 0.0, 0.0, 1.0]
],
  "dcmmeta_reorient_transform": [
    [0.0, -1.0, 0.0, 81.0],
    [1.0, 0.0, 0.0, 0.0],
    [0.0, 0.0, 1.0, 0.0],
    [0.0, 0.0, 0.0, 1.0]
],
  "dcmmeta_shape": [82, 82, 56, 1098],
  "dcmmeta_slice_dim": 2,
  "dcmmeta_version": 0.6,
  "global": {
    "const": {
      "AccessionNumber": "A004205",
      "AcquisitionMatrix": [82, 0, 0, 82],
      "AngioFlag": "N",
      "BitsAllocated": 16,
      "BitsStored": 16,
      "BodyPartExamined": "BRAIN",
      "Columns": 656,
      "EchoNumbers": 1,
      "EchoTime": 27.2,
      "EchoTrainLength": 82,
      "FlipAngle": 44.0,
      "HighBit": 15,
      "ImageOrientationPatient": [0.99864150968858, -0.0187254003501, -0.0486260682006, 0.03382631744724, 0.94280173809505, 0.33163332596848],
      "ImagePositionPatient": [-913.21393719125, -798.21257006233, -317.96216425782],
      "ImageType": [
        "ORIGINAL",
        "PRIMARY",
        "M",
        "MB",
        "ND",
        "NORM",
        "MOSAIC"
],
      "ImagedNucleus": "1H",
      "ImagingFrequency": 123.252187,
      "InPlanePhaseEncodingDirection": "COL",
      "MRAcquisitionType": "2D",
      "MagneticFieldStrength": 3.0,
      "Manufacturer": "SIEMENS",
      "ManufacturerModelName": "Prisma",
      "Modality": "MR",
      "NumberOfAverages": 1.0,
      "NumberOfPhaseEncodingSteps": 82,
      "PercentPhaseFieldOfView": 100.0,
      "PercentSampling": 100.0,
      "PerformedProcedureStepStartTime": "135046.214000",
      "PhotometricInterpretation": "MONOCHROME2",
      "PixelBandwidth": 3050.0,
      "PixelRepresentation": 0,
      "PixelSpacing": [2.6829268932343, 2.6829268932343],
      "ProtocolName": "func_run-02_task-narratives_acq-ap-mb8",
      "RepetitionTime": 460.0,
      "Rows": 656,
      "SAR": 0.1012529666373,
      "SamplesPerPixel": 1,
      "ScanOptions": "FS",
      "ScanningSequence": "EP",
      "SequenceName": "epfid2d1_82",
      "SequenceVariant": [
        "SK",
        "SS"
],
      "SeriesDescription": "func_run-02_task-narratives_acq-ap-mb8",
      "SeriesNumber": 10,
      "SeriesTime": "142824.491000",
      "SliceLocation": -70.097258093371,
      "SliceThickness": 2.7000000476837,
      "SmallestImagePixelValue": 0,
      "SoftwareVersions": "syngo MR E11",
      "SpacingBetweenSlices": 2.700000079382,
      "SpecificCharacterSet": "ISO_IR 100",
      "StudyID": "1",
      "StudyTime": "135046.149000",
      "TransmitCoilName": "Body",
      "VariableFlipAngleFlag": "N",
      "WindowCenterWidthExplanation": "Algo1"
    },
    "slices": {}
  },
  "time": {
    "samples": {
      "AcquisitionNumber": [1, 2, 3, 4, 5, 6, 7, 8, 9, 10, 11, 12, 13, 14, 15, 16, 17, 18, 19, 20, 21, 22, 23, 24, 25, 26, 27, 28, 29, 30, 31, 32, 33, 34, 35, 36, 37, 38, 39, 40, 41, 42, 43, 44, 45, 46, 47, 48, 49, 50, 51, 52, 53, 54, 55, 56, 57, 58, 59, 60, 61, 62, 63, 64, 65, 66, 67, 68, 69, 70, 71, 72, 73, 74, 75, 76, 77, 78, 79, 80, 81, 82, 83, 84, 85, 86, 87, 88, 89, 90, 91, 92, 93, 94, 95, 96, 97, 98, 99, 100, 101, 102, 103, 104, 105, 106, 107, 108, 109, 110, 111, 112, 113, 114, 115, 116, 117, 118, 119, 120, 121, 122, 123, 124, 125, 126, 127, 128, 129, 130, 131, 132, 133, 134, 135, 136, 137, 138, 139, 140, 141, 142, 143, 144, 145, 146, 147, 148, 149, 150, 151, 152, 153, 154, 155, 156, 157, 158, 159, 160, 161, 162, 163, 164, 165, 166, 167, 168, 169, 170, 171, 172, 173, 174, 175, 176, 177, 178, 179, 180, 181, 182, 183, 184, 185, 186, 187, 188, 189, 190, 191, 192, 193, 194, 195, 196, 197, 198, 199, 200, 201, 202, 203, 204, 205, 206, 207, 208, 209, 210, 211, 212, 213, 214, 215, 216, 217, 218, 219, 220, 221, 222, 223, 224, 225, 226, 227, 228, 229, 230, 231, 232, 233, 234, 235, 236, 237, 238, 239, 240, 241, 242, 243, 244, 245, 246, 247, 248, 249, 250, 251, 252, 253, 254, 255, 256, 257, 258, 259, 260, 261, 262, 263, 264, 265, 266, 267, 268, 269, 270, 271, 272, 273, 274, 275, 276, 277, 278, 279, 280, 281, 282, 283, 284, 285, 286, 287, 288, 289, 290, 291, 292, 293, 294, 295, 296, 297, 298, 299, 300, 301, 302, 303, 304, 305, 306, 307, 308, 309, 310, 311, 312, 313, 314, 315, 316, 317, 318, 319, 320, 321, 322, 323, 324, 325, 326, 327, 328, 329, 330, 331, 332, 333, 334, 335, 336, 337, 338, 339, 340, 341, 342, 343, 344, 345, 346, 347, 348, 349, 350, 351, 352, 353, 354, 355, 356, 357, 358, 359, 360, 361, 362, 363, 364, 365, 366, 367, 368, 369, 370, 371, 372, 373, 374, 375, 376, 377, 378, 379, 380, 381, 382, 383, 384, 385, 386, 387, 388, 389, 390, 391, 392, 393, 394, 395, 396, 397, 398, 399, 400, 401, 402, 403, 404, 405, 406, 407, 408, 409, 410, 411, 412, 413, 414, 415, 416, 417, 418, 419, 420, 421, 422, 423, 424, 425, 426, 427, 428, 429, 430, 431, 432, 433, 434, 435, 436, 437, 438, 439, 440, 441, 442, 443, 444, 445, 446, 447, 448, 449, 450, 451, 452, 453, 454, 455, 456, 457, 458, 459, 460, 461, 462, 463, 464, 465, 466, 467, 468, 469, 470, 471, 472, 473, 474, 475, 476, 477, 478, 479, 480, 481, 482, 483, 484, 485, 486, 487, 488, 489, 490, 491, 492, 493, 494, 495, 496, 497, 498, 499, 500, 501, 502, 503, 504, 505, 506, 507, 508, 509, 510, 511, 512, 513, 514, 515, 516, 517, 518, 519, 520, 521, 522, 523, 524, 525, 526, 527, 528, 529, 530, 531, 532, 533, 534, 535, 536, 537, 538, 539, 540, 541, 542, 543, 544, 545, 546, 547, 548, 549, 550, 551, 552, 553, 554, 555, 556, 557, 558, 559, 560, 561, 562, 563, 564, 565, 566, 567, 568, 569, 570, 571, 572, 573, 574, 575, 576, 577, 578, 579, 580, 581, 582, 583, 584, 585, 586, 587, 588, 589, 590, 591, 592, 593, 594, 595, 596, 597, 598, 599, 600, 601, 602, 603, 604, 605, 606, 607, 608, 609, 610, 611, 612, 613, 614, 615, 616, 617, 618, 619, 620, 621, 622, 623, 624, 625, 626, 627, 628, 629, 630, 631, 632, 633, 634, 635, 636, 637, 638, 639, 640, 641, 642, 643, 644, 645, 646, 647, 648, 649, 650, 651, 652, 653, 654, 655, 656, 657, 658, 659, 660, 661, 662, 663, 664, 665, 666, 667, 668, 669, 670, 671, 672, 673, 674, 675, 676, 677, 678, 679, 680, 681, 682, 683, 684, 685, 686, 687, 688, 689, 690, 691, 692, 693, 694, 695, 696, 697, 698, 699, 700, 701, 702, 703, 704, 705, 706, 707, 708, 709, 710, 711, 712, 713, 714, 715, 716, 717, 718, 719, 720, 721, 722, 723, 724, 725, 726, 727, 728, 729, 730, 731, 732, 733, 734, 735, 736, 737, 738, 739, 740, 741, 742, 743, 744, 745, 746, 747, 748, 749, 750, 751, 752, 753, 754, 755, 756, 757, 758, 759, 760, 761, 762, 763, 764, 765, 766, 767, 768, 769, 770, 771, 772, 773, 774, 775, 776, 777, 778, 779, 780, 781, 782, 783, 784, 785, 786, 787, 788, 789, 790, 791, 792, 793, 794, 795, 796, 797, 798, 799, 800, 801, 802, 803, 804, 805, 806, 807, 808, 809, 810, 811, 812, 813, 814, 815, 816, 817, 818, 819, 820, 821, 822, 823, 824, 825, 826, 827, 828, 829, 830, 831, 832, 833, 834, 835, 836, 837, 838, 839, 840, 841, 842, 843, 844, 845, 846, 847, 848, 849, 850, 851, 852, 853, 854, 855, 856, 857, 858, 859, 860, 861, 862, 863, 864, 865, 866, 867, 868, 869, 870, 871, 872, 873, 874, 875, 876, 877, 878, 879, 880, 881, 882, 883, 884, 885, 886, 887, 888, 889, 890, 891, 892, 893, 894, 895, 896, 897, 898, 899, 900, 901, 902, 903, 904, 905, 906, 907, 908, 909, 910, 911, 912, 913, 914, 915, 916, 917, 918, 919, 920, 921, 922, 923, 924, 925, 926, 927, 928, 929, 930, 931, 932, 933, 934, 935, 936, 937, 938, 939, 940, 941, 942, 943, 944, 945, 946, 947, 948, 949, 950, 951, 952, 953, 954, 955, 956, 957, 958, 959, 960, 961, 962, 963, 964, 965, 966, 967, 968, 969, 970, 971, 972, 973, 974, 975, 976, 977, 978, 979, 980, 981, 982, 983, 984, 985, 986, 987, 988, 989, 990, 991, 992, 993, 994, 995, 996, 997, 998, 999, 1000, 1001, 1002, 1003, 1004, 1005, 1006, 1007, 1008, 1009, 1010, 1011, 1012, 1013, 1014, 1015, 1016, 1017, 1018, 1019, 1020, 1021, 1022, 1023, 1024, 1025, 1026, 1027, 1028, 1029, 1030, 1031, 1032, 1033, 1034, 1035, 1036, 1037, 1038, 1039, 1040, 1041, 1042, 1043, 1044, 1045, 1046, 1047, 1048, 1049, 1050, 1051, 1052, 1053, 1054, 1055, 1056, 1057, 1058, 1059, 1060, 1061, 1062, 1063, 1064, 1065, 1066, 1067, 1068, 1069, 1070, 1071, 1072, 1073, 1074, 1075, 1076, 1077, 1078, 1079, 1080, 1081, 1082, 1083, 1084, 1085, 1086, 1087, 1088, 1089, 1090, 1091, 1092, 1093, 1094, 1095, 1096, 1097, 1098],
      "AcquisitionTime": ["142756.727500", "142757.187500", "142757.647500", "142758.107500", "142758.567500", "142759.027500", "142759.487500", "142759.947500", "142800.407500", "142800.867500", "142801.327500", "142801.787500", "142802.247500", "142802.707500", "142803.167500", "142803.627500", "142804.087500", "142804.547500", "142805.007500", "142805.467500", "142805.927500", "142806.387500", "142806.847500", "142807.307500", "142807.767500", "142808.227500", "142808.687500", "142809.147500", "142809.607500", "142810.067500", "142810.527500", "142810.987500", "142811.447500", "142811.907500", "142812.367500", "142812.827500", "142813.287500", "142813.747500", "142814.207500", "142814.667500", "142815.127500", "142815.587500", "142816.047500", "142816.507500", "142816.967500", "142817.427500", "142817.887500", "142818.347500", "142818.807500", "142819.267500", "142819.727500", "142820.187500", "142820.647500", "142821.107500", "142821.567500", "142822.027500", "142822.487500", "142822.947500", "142823.407500", "142823.867500", "142824.327500", "142824.787500", "142825.247500", "142825.707500", "142826.167500", "142826.627500", "142827.087500", "142827.547500", "142828.007500", "142828.467500", "142828.927500", "142829.387500", "142829.847500", "142830.307500", "142830.767500", "142831.227500", "142831.687500", "142832.147500", "142832.607500", "142833.067500", "142833.527500", "142833.987500", "142834.447500", "142834.907500", "142835.367500", "142835.827500", "142836.287500", "142836.747500", "142837.207500", "142837.667500", "142838.127500", "142838.587500", "142839.047500", "142839.507500", "142839.967500", "142840.427500", "142840.887500", "142841.347500", "142841.807500", "142842.267500", "142842.727500", "142843.187500", "142843.647500", "142844.107500", "142844.567500", "142845.027500", "142845.487500", "142845.947500", "142846.407500", "142846.867500", "142847.327500", "142847.787500", "142848.247500", "142848.707500", "142849.167500", "142849.627500", "142850.087500", "142850.547500", "142851.007500", "142851.467500", "142851.927500", "142852.387500", "142852.847500", "142853.307500", "142853.767500", "142854.227500", "142854.687500", "142855.147500", "142855.607500", "142856.067500", "142856.527500", "142856.987500", "142857.447500", "142857.907500", "142858.367500", "142858.827500", "142859.287500", "142859.747500", "142900.207500", "142900.667500", "142901.127500", "142901.587500", "142902.047500", "142902.507500", "142902.967500", "142903.427500", "142903.887500", "142904.347500", "142904.807500", "142905.267500", "142905.727500", "142906.187500", "142906.647500", "142907.107500", "142907.567500", "142908.027500", "142908.487500", "142908.947500", "142909.407500", "142909.867500", "142910.327500", "142910.787500", "142911.247500", "142911.707500", "142912.167500", "142912.627500", "142913.087500", "142913.547500", "142914.007500", "142914.467500", "142914.927500", "142915.387500", "142915.847500", "142916.307500", "142916.767500", "142917.227500", "142917.687500", "142918.147500", "142918.607500", "142919.067500", "142919.527500", "142919.987500", "142920.447500", "142920.907500", "142921.367500", "142921.827500", "142922.287500", "142922.747500", "142923.207500", "142923.667500", "142924.127500", "142924.587500", "142925.047500", "142925.507500", "142925.967500", "142926.427500", "142926.887500", "142927.347500", "142927.807500", "142928.267500", "142928.727500", "142929.187500", "142929.647500", "142930.107500", "142930.567500", "142931.027500", "142931.487500", "142931.947500", "142932.407500", "142932.867500", "142933.327500", "142933.787500", "142934.247500", "142934.707500", "142935.167500", "142935.627500", "142936.087500", "142936.547500", "142937.007500", "142937.467500", "142937.927500", "142938.387500", "142938.847500", "142939.307500", "142939.767500", "142940.227500", "142940.687500", "142941.147500", "142941.607500", "142942.067500", "142942.527500", "142942.987500", "142943.447500", "142943.907500", "142944.367500", "142944.827500", "142945.287500", "142945.747500", "142946.207500", "142946.667500", "142947.127500", "142947.587500", "142948.047500", "142948.507500", "142948.967500", "142949.427500", "142949.887500", "142950.347500", "142950.807500", "142951.267500", "142951.727500", "142952.187500", "142952.647500", "142953.107500", "142953.567500", "142954.027500", "142954.487500", "142954.947500", "142955.407500", "142955.867500", "142956.327500", "142956.787500", "142957.247500", "142957.707500", "142958.167500", "142958.627500", "142959.087500", "142959.547500", "143000.007500", "143000.467500", "143000.927500", "143001.387500", "143001.847500", "143002.307500", "143002.767500", "143003.227500", "143003.687500", "143004.147500", "143004.607500", "143005.067500", "143005.527500", "143005.987500", "143006.447500", "143006.907500", "143007.367500", "143007.827500", "143008.287500", "143008.747500", "143009.207500", "143009.667500", "143010.127500", "143010.587500", "143011.047500", "143011.507500", "143011.967500", "143012.427500", "143012.887500", "143013.347500", "143013.807500", "143014.267500", "143014.727500", "143015.187500", "143015.647500", "143016.107500", "143016.567500", "143017.027500", "143017.487500", "143017.947500", "143018.407500", "143018.867500", "143019.327500", "143019.787500", "143020.247500", "143020.707500", "143021.167500", "143021.627500", "143022.087500", "143022.547500", "143023.007500", "143023.467500", "143023.927500", "143024.387500", "143024.847500", "143025.307500", "143025.767500", "143026.227500", "143026.687500", "143027.147500", "143027.607500", "143028.067500", "143028.527500", "143028.987500", "143029.447500", "143029.907500", "143030.367500", "143030.827500", "143031.287500", "143031.747500", "143032.207500", "143032.667500", "143033.127500", "143033.587500", "143034.047500", "143034.507500", "143034.967500", "143035.427500", "143035.887500", "143036.347500", "143036.807500", "143037.267500", "143037.727500", "143038.187500", "143038.647500", "143039.107500", "143039.567500", "143040.027500", "143040.487500", "143040.947500", "143041.407500", "143041.867500", "143042.327500", "143042.787500", "143043.247500", "143043.707500", "143044.167500", "143044.627500", "143045.087500", "143045.547500", "143046.007500", "143046.467500", "143046.927500", "143047.387500", "143047.847500", "143048.307500", "143048.767500", "143049.227500", "143049.687500", "143050.147500", "143050.607500", "143051.067500", "143051.527500", "143051.987500", "143052.447500", "143052.907500", "143053.367500", "143053.827500", "143054.287500", "143054.747500", "143055.207500", "143055.667500", "143056.127500", "143056.587500", "143057.047500", "143057.507500", "143057.967500", "143058.427500", "143058.887500", "143059.347500", "143059.807500", "143100.267500", "143100.727500", "143101.187500", "143101.647500", "143102.107500", "143102.567500", "143103.027500", "143103.487500", "143103.947500", "143104.407500", "143104.867500", "143105.327500", "143105.787500", "143106.247500", "143106.707500", "143107.167500", "143107.627500", "143108.087500", "143108.547500", "143109.007500", "143109.467500", "143109.927500", "143110.387500", "143110.847500", "143111.307500", "143111.767500", "143112.227500", "143112.687500", "143113.147500", "143113.607500", "143114.067500", "143114.527500", "143114.987500", "143115.447500", "143115.907500", "143116.367500", "143116.827500", "143117.287500", "143117.747500", "143118.207500", "143118.667500", "143119.127500", "143119.587500", "143120.047500", "143120.507500", "143120.967500", "143121.427500", "143121.887500", "143122.347500", "143122.807500", "143123.267500", "143123.727500", "143124.187500", "143124.647500", "143125.107500", "143125.567500", "143126.027500", "143126.487500", "143126.947500", "143127.407500", "143127.867500", "143128.327500", "143128.787500", "143129.247500", "143129.707500", "143130.167500", "143130.627500", "143131.087500", "143131.547500", "143132.007500", "143132.467500", "143132.927500", "143133.387500", "143133.847500", "143134.307500", "143134.767500", "143135.227500", "143135.687500", "143136.147500", "143136.607500", "143137.067500", "143137.527500", "143137.987500", "143138.447500", "143138.907500", "143139.367500", "143139.827500", "143140.287500", "143140.747500", "143141.207500", "143141.667500", "143142.127500", "143142.587500", "143143.047500", "143143.507500", "143143.967500", "143144.427500", "143144.887500", "143145.347500", "143145.807500", "143146.267500", "143146.727500", "143147.187500", "143147.647500", "143148.107500", "143148.567500", "143149.027500", "143149.487500", "143149.947500", "143150.407500", "143150.867500", "143151.327500", "143151.787500", "143152.247500", "143152.707500", "143153.167500", "143153.627500", "143154.087500", "143154.547500", "143155.007500", "143155.467500", "143155.927500", "143156.387500", "143156.847500", "143157.307500", "143157.767500", "143158.227500", "143158.687500", "143159.147500", "143159.607500", "143200.067500", "143200.527500", "143200.987500", "143201.447500", "143201.907500", "143202.367500", "143202.827500", "143203.287500", "143203.747500", "143204.207500", "143204.667500", "143205.127500", "143205.587500", "143206.047500", "143206.507500", "143206.967500", "143207.427500", "143207.887500", "143208.347500", "143208.807500", "143209.267500", "143209.727500", "143210.187500", "143210.647500", "143211.107500", "143211.567500", "143212.027500", "143212.487500", "143212.947500", "143213.407500", "143213.867500", "143214.327500", "143214.787500", "143215.247500", "143215.707500", "143216.167500", "143216.627500", "143217.087500", "143217.547500", "143218.007500", "143218.467500", "143218.927500", "143219.387500", "143219.847500", "143220.307500", "143220.767500", "143221.227500", "143221.687500", "143222.147500", "143222.607500", "143223.067500", "143223.527500", "143223.987500", "143224.447500", "143224.907500", "143225.367500", "143225.827500", "143226.287500", "143226.747500", "143227.207500", "143227.667500", "143228.127500", "143228.587500", "143229.047500", "143229.507500", "143229.967500", "143230.427500", "143230.887500", "143231.347500", "143231.807500", "143232.267500", "143232.727500", "143233.187500", "143233.647500", "143234.107500", "143234.567500", "143235.027500", "143235.487500", "143235.947500", "143236.407500", "143236.867500", "143237.327500", "143237.787500", "143238.247500", "143238.707500", "143239.167500", "143239.627500", "143240.087500", "143240.547500", "143241.007500", "143241.467500", "143241.927500", "143242.387500", "143242.847500", "143243.307500", "143243.767500", "143244.227500", "143244.687500", "143245.147500", "143245.607500", "143246.067500", "143246.527500", "143246.987500", "143247.447500", "143247.907500", "143248.367500", "143248.827500", "143249.287500", "143249.747500", "143250.207500", "143250.667500", "143251.127500", "143251.587500", "143252.047500", "143252.507500", "143252.967500", "143253.427500", "143253.887500", "143254.347500", "143254.807500", "143255.267500", "143255.727500", "143256.187500", "143256.647500", "143257.107500", "143257.567500", "143258.027500", "143258.487500", "143258.947500", "143259.407500", "143259.867500", "143300.327500", "143300.787500", "143301.247500", "143301.707500", "143302.167500", "143302.627500", "143303.087500", "143303.547500", "143304.007500", "143304.467500", "143304.927500", "143305.387500", "143305.847500", "143306.307500", "143306.767500", "143307.227500", "143307.687500", "143308.147500", "143308.607500", "143309.067500", "143309.527500", "143309.987500", "143310.447500", "143310.907500", "143311.367500", "143311.827500", "143312.287500", "143312.747500", "143313.207500", "143313.667500", "143314.127500", "143314.587500", "143315.047500", "143315.507500", "143315.967500", "143316.427500", "143316.887500", "143317.347500", "143317.807500", "143318.267500", "143318.727500", "143319.187500", "143319.647500", "143320.107500", "143320.567500", "143321.027500", "143321.487500", "143321.947500", "143322.407500", "143322.867500", "143323.327500", "143323.787500", "143324.247500", "143324.707500", "143325.167500", "143325.627500", "143326.087500", "143326.547500", "143327.007500", "143327.467500", "143327.927500", "143328.387500", "143328.847500", "143329.307500", "143329.767500", "143330.227500", "143330.687500", "143331.147500", "143331.607500", "143332.067500", "143332.527500", "143332.987500", "143333.447500", "143333.907500", "143334.367500", "143334.827500", "143335.287500", "143335.747500", "143336.207500", "143336.667500", "143337.127500", "143337.587500", "143338.047500", "143338.507500", "143338.967500", "143339.427500", "143339.887500", "143340.347500", "143340.807500", "143341.267500", "143341.727500", "143342.187500", "143342.647500", "143343.107500", "143343.567500", "143344.027500", "143344.487500", "143344.947500", "143345.407500", "143345.867500", "143346.327500", "143346.787500", "143347.247500", "143347.707500", "143348.167500", "143348.627500", "143349.087500", "143349.547500", "143350.007500", "143350.467500", "143350.927500", "143351.387500", "143351.847500", "143352.307500", "143352.767500", "143353.227500", "143353.687500", "143354.147500", "143354.607500", "143355.067500", "143355.527500", "143355.987500", "143356.447500", "143356.907500", "143357.367500", "143357.827500", "143358.287500", "143358.747500", "143359.207500", "143359.667500", "143400.127500", "143400.587500", "143401.047500", "143401.507500", "143401.967500", "143402.427500", "143402.887500", "143403.347500", "143403.807500", "143404.267500", "143404.727500", "143405.187500", "143405.647500", "143406.107500", "143406.567500", "143407.027500", "143407.487500", "143407.947500", "143408.407500", "143408.867500", "143409.327500", "143409.787500", "143410.247500", "143410.707500", "143411.167500", "143411.627500", "143412.087500", "143412.547500", "143413.007500", "143413.467500", "143413.927500", "143414.387500", "143414.847500", "143415.307500", "143415.767500", "143416.227500", "143416.687500", "143417.147500", "143417.607500", "143418.067500", "143418.527500", "143418.987500", "143419.447500", "143419.907500", "143420.367500", "143420.827500", "143421.287500", "143421.747500", "143422.207500", "143422.667500", "143423.127500", "143423.587500", "143424.047500", "143424.507500", "143424.967500", "143425.427500", "143425.887500", "143426.347500", "143426.807500", "143427.267500", "143427.727500", "143428.187500", "143428.647500", "143429.107500", "143429.567500", "143430.027500", "143430.487500", "143430.947500", "143431.407500", "143431.867500", "143432.327500", "143432.787500", "143433.247500", "143433.707500", "143434.167500", "143434.627500", "143435.087500", "143435.547500", "143436.007500", "143436.467500", "143436.927500", "143437.387500", "143437.847500", "143438.307500", "143438.767500", "143439.227500", "143439.687500", "143440.147500", "143440.607500", "143441.067500", "143441.527500", "143441.987500", "143442.447500", "143442.907500", "143443.367500", "143443.827500", "143444.287500", "143444.747500", "143445.207500", "143445.667500", "143446.127500", "143446.587500", "143447.047500", "143447.507500", "143447.967500", "143448.427500", "143448.887500", "143449.347500", "143449.807500", "143450.267500", "143450.727500", "143451.187500", "143451.647500", "143452.107500", "143452.567500", "143453.027500", "143453.487500", "143453.947500", "143454.407500", "143454.867500", "143455.327500", "143455.787500", "143456.247500", "143456.707500", "143457.167500", "143457.627500", "143458.087500", "143458.547500", "143459.007500", "143459.467500", "143459.927500", "143500.387500", "143500.847500", "143501.307500", "143501.767500", "143502.227500", "143502.687500", "143503.147500", "143503.607500", "143504.067500", "143504.527500", "143504.987500", "143505.447500", "143505.907500", "143506.367500", "143506.827500", "143507.287500", "143507.747500", "143508.207500", "143508.667500", "143509.127500", "143509.587500", "143510.047500", "143510.507500", "143510.967500", "143511.427500", "143511.887500", "143512.347500", "143512.807500", "143513.267500", "143513.727500", "143514.187500", "143514.647500", "143515.107500", "143515.567500", "143516.027500", "143516.487500", "143516.947500", "143517.407500", "143517.867500", "143518.327500", "143518.787500", "143519.247500", "143519.707500", "143520.167500", "143520.627500", "143521.087500", "143521.547500", "143522.007500", "143522.467500", "143522.927500", "143523.387500", "143523.847500", "143524.307500", "143524.767500", "143525.227500", "143525.687500", "143526.147500", "143526.607500", "143527.067500", "143527.527500", "143527.987500", "143528.447500", "143528.907500", "143529.367500", "143529.827500", "143530.287500", "143530.747500", "143531.207500", "143531.667500", "143532.127500", "143532.587500", "143533.047500", "143533.507500", "143533.967500", "143534.427500", "143534.887500", "143535.347500", "143535.807500", "143536.267500", "143536.727500", "143537.187500", "143537.647500", "143538.107500", "143538.567500", "143539.027500", "143539.487500", "143539.947500", "143540.407500", "143540.867500", "143541.327500", "143541.787500", "143542.247500", "143542.707500", "143543.167500", "143543.627500", "143544.087500", "143544.547500", "143545.007500", "143545.467500", "143545.927500", "143546.387500", "143546.847500", "143547.307500", "143547.767500", "143548.227500", "143548.687500", "143549.147500", "143549.607500", "143550.067500", "143550.527500", "143550.987500", "143551.447500", "143551.907500", "143552.367500", "143552.827500", "143553.287500", "143553.747500", "143554.207500", "143554.667500", "143555.127500", "143555.587500", "143556.047500", "143556.507500", "143556.967500", "143557.427500", "143557.887500", "143558.347500", "143558.807500", "143559.267500", "143559.727500", "143600.187500", "143600.647500", "143601.107500", "143601.567500", "143602.027500", "143602.487500", "143602.947500", "143603.407500", "143603.867500", "143604.327500", "143604.787500", "143605.247500", "143605.707500", "143606.167500", "143606.627500", "143607.087500", "143607.547500", "143608.007500", "143608.467500", "143608.927500", "143609.387500", "143609.847500", "143610.307500", "143610.767500", "143611.227500", "143611.687500", "143612.147500", "143612.607500", "143613.067500", "143613.527500", "143613.987500", "143614.447500", "143614.907500", "143615.367500", "143615.827500", "143616.287500", "143616.747500", "143617.207500", "143617.667500", "143618.127500", "143618.587500", "143619.047500", "143619.507500", "143619.967500", "143620.427500", "143620.887500", "143621.347500"],
