{
  "AcquisitionMatrixPE": 82,
  "AcquisitionNumber": 1,
  "AcquisitionTime": "20:19:25.615000",
  "BandwidthPerPixelPhaseEncode": 24.888,
  "BaseResolution": 82,
  "BodyPartExamined": "BRAIN",
  "ConsistencyInfo": "N4_VE11E_LATEST_20181129",
  "ConversionSoftware": "dcm2niix",
  "ConversionSoftwareVersion": "v1.0.20201102",
  "DerivedVendorReportedEchoSpacing": 0.00049,
  "DeviceSerialNumber": "66112",
  "DwellTime": 2e-06,
  "EchoTime": 0.0272,
  "EchoTrainLength": 82,
  "EffectiveEchoSpacing": 0.00049,
  "FlipAngle": 44,
  "ImageComments": "Unaliased MB8/PE3",
  "ImageOrientationPatientDICOM": [0.998787, 0.0370888, 0.0323768, -0.0322607, 0.989814, -0.138664],
  "ImageType": [
    "ORIGINAL",
    "PRIMARY",
    "M",
    "MB",
    "ND",
    "NORM",
    "MOSAIC"
],
  "ImagingFrequency": 123.259,
  "InPlanePhaseEncodingDirectionDICOM": "COL",
  "InstitutionAddress": "Maynard 3,Hanover,NH,US,03755",
  "InstitutionName": "Dartmouth College - PBS",
  "InstitutionalDepartmentName": "Department",
  "MRAcquisitionType": "2D",
  "MagneticFieldStrength": 3,
  "Manufacturer": "Siemens",
  "ManufacturersModelName": "Prisma",
  "Modality": "MR",
  "MultibandAccelerationFactor": 8,
  "PartialFourier": 1,
  "PatientPosition": "HFS",
  "PercentPhaseFOV": 100,
  "PercentSampling": 100,
  "PhaseEncodingDirection": "j-",
  "PhaseEncodingSteps": 82,
  "PhaseResolution": 1,
  "PixelBandwidth": 3050,
  "ProcedureStepDescription": "Wager_Wager^1076_spacetop",
  "ProtocolName": "func_run-03_task-faces_acq-ap-mb8",
  "PulseSequenceDetails": "%CustomerSeq%\\cmrr_mbep2d_bold",
  "ReceiveCoilActiveElements": "HEA;HEP",
  "ReceiveCoilName": "Head_32",
  "ReconMatrixPE": 82,
  "RepetitionTime": 0.46,
  "SAR": 0.136488,
  "ScanOptions": "FS",
  "ScanningSequence": "EP",
  "SequenceName": "epfid2d1_82",
  "SequenceVariant": "SK\\SS",
  "SeriesDescription": "func_run-03_task-faces_acq-ap-mb8",
  "SeriesNumber": 20,
  "ShimSetting": [4238, -7767, -7218, 39, -158, -51, -123, 44],
  "SliceThickness": 2.7,
  "SliceTiming": [0, 0.25, 0.0625, 0.3125, 0.125, 0.3775, 0.1875, 0, 0.25, 0.0625, 0.3125, 0.125, 0.3775, 0.1875, 0, 0.25, 0.0625, 0.3125, 0.125, 0.3775, 0.1875, 0, 0.25, 0.0625, 0.3125, 0.125, 0.3775, 0.1875, 0, 0.25, 0.0625, 0.3125, 0.125, 0.3775, 0.1875, 0, 0.25, 0.0625, 0.3125, 0.125, 0.3775, 0.1875, 0, 0.25, 0.0625, 0.3125, 0.125, 0.3775, 0.1875, 0, 0.25, 0.0625, 0.3125, 0.125, 0.3775, 0.1875],
  "SoftwareVersions": "syngo MR E11",
  "SpacingBetweenSlices": 2.7,
  "StationName": "AWP66112",
  "TaskName": "faces",
  "TotalReadoutTime": 0.03969,
  "TxRefAmp": 322.566,
  "WipMemBlock": "767c9249-fbb0-4cdf-803c-e79fa4dde7a7||Sequence: R016 ve11e/master r/434b28f1; Aug  7 2019 18:53:46 by eja",
  "dcmmeta_affine": [
    [-2.679673433303833, -0.08655299246311188, 0.1004127711057663, 113.66648864746094],
    [-0.09950666129589081, 2.6555981636047363, -0.3711199462413788, -72.20682525634766],
    [0.08686459809541702, 0.3720266819000244, 2.6724870204925537, -88.46077728271484],
    [0.0, 0.0, 0.0, 1.0]
],
  "dcmmeta_reorient_transform": [
    [0.0, -1.0, 0.0, 81.0],
    [1.0, 0.0, 0.0, 0.0],
    [0.0, 0.0, 1.0, 0.0],
    [0.0, 0.0, 0.0, 1.0]
],
  "dcmmeta_shape": [82, 82, 56, 914],
  "dcmmeta_slice_dim": 2,
  "dcmmeta_version": 0.6,
  "global": {
    "const": {
      "AccessionNumber": "A004337",
      "AcquisitionMatrix": [82, 0, 0, 82],
      "AngioFlag": "N",
      "BitsAllocated": 16,
      "BitsStored": 16,
      "BodyPartExamined": "BRAIN",
      "Columns": 656,
      "EchoNumbers": 1,
      "EchoTime": 27.2,
      "EchoTrainLength": 82,
      "FlipAngle": 44.0,
      "HighBit": 15,
      "ImageOrientationPatient": [0.99878734477069, 0.03708884482475, 0.03237680520812, -0.0322606595128, 0.98981382642256, -0.1386644830897],
      "ImagePositionPatient": [-850.88126545271, -933.61170058153, 23.514893995282],
      "ImageType": [
        "ORIGINAL",
        "PRIMARY",
        "M",
        "MB",
        "ND",
        "NORM",
        "MOSAIC"
],
      "ImagedNucleus": "1H",
      "ImagingFrequency": 123.259115,
      "InPlanePhaseEncodingDirection": "COL",
      "MRAcquisitionType": "2D",
      "MagneticFieldStrength": 3.0,
      "Manufacturer": "SIEMENS",
      "ManufacturerModelName": "Prisma",
      "Modality": "MR",
      "NumberOfAverages": 1.0,
      "NumberOfPhaseEncodingSteps": 82,
      "PercentPhaseFieldOfView": 100.0,
      "PercentSampling": 100.0,
      "PerformedProcedureStepStartTime": "190654.488000",
      "PhotometricInterpretation": "MONOCHROME2",
      "PixelBandwidth": 3050.0,
      "PixelRepresentation": 0,
      "PixelSpacing": [2.6829268932343, 2.6829268932343],
      "ProtocolName": "func_run-03_task-faces_acq-ap-mb8",
      "RepetitionTime": 460.0,
      "Rows": 656,
      "SAR": 0.13648755598278,
      "SamplesPerPixel": 1,
      "ScanOptions": "FS",
      "ScanningSequence": "EP",
      "SequenceName": "epfid2d1_82",
      "SequenceVariant": [
        "SK",
        "SS"
],
      "SeriesDescription": "func_run-03_task-faces_acq-ap-mb8",
      "SeriesNumber": 20,
      "SeriesTime": "201948.588000",
      "SliceLocation": -73.407160373833,
      "SliceThickness": 2.7000000476837,
      "SmallestImagePixelValue": 0,
      "SoftwareVersions": "syngo MR E11",
      "SpacingBetweenSlices": 2.6999999243999,
      "SpecificCharacterSet": "ISO_IR 100",
      "StudyID": "2",
      "StudyTime": "190654.443000",
      "TransmitCoilName": "Body",
      "VariableFlipAngleFlag": "N",
      "WindowCenterWidthExplanation": "Algo1"
    },
    "slices": {}
  },
  "time": {
    "samples": {
      "AcquisitionNumber": [1, 2, 3, 4, 5, 6, 7, 8, 9, 10, 11, 12, 13, 14, 15, 16, 17, 18, 19, 20, 21, 22, 23, 24, 25, 26, 27, 28, 29, 30, 31, 32, 33, 34, 35, 36, 37, 38, 39, 40, 41, 42, 43, 44, 45, 46, 47, 48, 49, 50, 51, 52, 53, 54, 55, 56, 57, 58, 59, 60, 61, 62, 63, 64, 65, 66, 67, 68, 69, 70, 71, 72, 73, 74, 75, 76, 77, 78, 79, 80, 81, 82, 83, 84, 85, 86, 87, 88, 89, 90, 91, 92, 93, 94, 95, 96, 97, 98, 99, 100, 101, 102, 103, 104, 105, 106, 107, 108, 109, 110, 111, 112, 113, 114, 115, 116, 117, 118, 119, 120, 121, 122, 123, 124, 125, 126, 127, 128, 129, 130, 131, 132, 133, 134, 135, 136, 137, 138, 139, 140, 141, 142, 143, 144, 145, 146, 147, 148, 149, 150, 151, 152, 153, 154, 155, 156, 157, 158, 159, 160, 161, 162, 163, 164, 165, 166, 167, 168, 169, 170, 171, 172, 173, 174, 175, 176, 177, 178, 179, 180, 181, 182, 183, 184, 185, 186, 187, 188, 189, 190, 191, 192, 193, 194, 195, 196, 197, 198, 199, 200, 201, 202, 203, 204, 205, 206, 207, 208, 209, 210, 211, 212, 213, 214, 215, 216, 217, 218, 219, 220, 221, 222, 223, 224, 225, 226, 227, 228, 229, 230, 231, 232, 233, 234, 235, 236, 237, 238, 239, 240, 241, 242, 243, 244, 245, 246, 247, 248, 249, 250, 251, 252, 253, 254, 255, 256, 257, 258, 259, 260, 261, 262, 263, 264, 265, 266, 267, 268, 269, 270, 271, 272, 273, 274, 275, 276, 277, 278, 279, 280, 281, 282, 283, 284, 285, 286, 287, 288, 289, 290, 291, 292, 293, 294, 295, 296, 297, 298, 299, 300, 301, 302, 303, 304, 305, 306, 307, 308, 309, 310, 311, 312, 313, 314, 315, 316, 317, 318, 319, 320, 321, 322, 323, 324, 325, 326, 327, 328, 329, 330, 331, 332, 333, 334, 335, 336, 337, 338, 339, 340, 341, 342, 343, 344, 345, 346, 347, 348, 349, 350, 351, 352, 353, 354, 355, 356, 357, 358, 359, 360, 361, 362, 363, 364, 365, 366, 367, 368, 369, 370, 371, 372, 373, 374, 375, 376, 377, 378, 379, 380, 381, 382, 383, 384, 385, 386, 387, 388, 389, 390, 391, 392, 393, 394, 395, 396, 397, 398, 399, 400, 401, 402, 403, 404, 405, 406, 407, 408, 409, 410, 411, 412, 413, 414, 415, 416, 417, 418, 419, 420, 421, 422, 423, 424, 425, 426, 427, 428, 429, 430, 431, 432, 433, 434, 435, 436, 437, 438, 439, 440, 441, 442, 443, 444, 445, 446, 447, 448, 449, 450, 451, 452, 453, 454, 455, 456, 457, 458, 459, 460, 461, 462, 463, 464, 465, 466, 467, 468, 469, 470, 471, 472, 473, 474, 475, 476, 477, 478, 479, 480, 481, 482, 483, 484, 485, 486, 487, 488, 489, 490, 491, 492, 493, 494, 495, 496, 497, 498, 499, 500, 501, 502, 503, 504, 505, 506, 507, 508, 509, 510, 511, 512, 513, 514, 515, 516, 517, 518, 519, 520, 521, 522, 523, 524, 525, 526, 527, 528, 529, 530, 531, 532, 533, 534, 535, 536, 537, 538, 539, 540, 541, 542, 543, 544, 545, 546, 547, 548, 549, 550, 551, 552, 553, 554, 555, 556, 557, 558, 559, 560, 561, 562, 563, 564, 565, 566, 567, 568, 569, 570, 571, 572, 573, 574, 575, 576, 577, 578, 579, 580, 581, 582, 583, 584, 585, 586, 587, 588, 589, 590, 591, 592, 593, 594, 595, 596, 597, 598, 599, 600, 601, 602, 603, 604, 605, 606, 607, 608, 609, 610, 611, 612, 613, 614, 615, 616, 617, 618, 619, 620, 621, 622, 623, 624, 625, 626, 627, 628, 629, 630, 631, 632, 633, 634, 635, 636, 637, 638, 639, 640, 641, 642, 643, 644, 645, 646, 647, 648, 649, 650, 651, 652, 653, 654, 655, 656, 657, 658, 659, 660, 661, 662, 663, 664, 665, 666, 667, 668, 669, 670, 671, 672, 673, 674, 675, 676, 677, 678, 679, 680, 681, 682, 683, 684, 685, 686, 687, 688, 689, 690, 691, 692, 693, 694, 695, 696, 697, 698, 699, 700, 701, 702, 703, 704, 705, 706, 707, 708, 709, 710, 711, 712, 713, 714, 715, 716, 717, 718, 719, 720, 721, 722, 723, 724, 725, 726, 727, 728, 729, 730, 731, 732, 733, 734, 735, 736, 737, 738, 739, 740, 741, 742, 743, 744, 745, 746, 747, 748, 749, 750, 751, 752, 753, 754, 755, 756, 757, 758, 759, 760, 761, 762, 763, 764, 765, 766, 767, 768, 769, 770, 771, 772, 773, 774, 775, 776, 777, 778, 779, 780, 781, 782, 783, 784, 785, 786, 787, 788, 789, 790, 791, 792, 793, 794, 795, 796, 797, 798, 799, 800, 801, 802, 803, 804, 805, 806, 807, 808, 809, 810, 811, 812, 813, 814, 815, 816, 817, 818, 819, 820, 821, 822, 823, 824, 825, 826, 827, 828, 829, 830, 831, 832, 833, 834, 835, 836, 837, 838, 839, 840, 841, 842, 843, 844, 845, 846, 847, 848, 849, 850, 851, 852, 853, 854, 855, 856, 857, 858, 859, 860, 861, 862, 863, 864, 865, 866, 867, 868, 869, 870, 871, 872, 873, 874, 875, 876, 877, 878, 879, 880, 881, 882, 883, 884, 885, 886, 887, 888, 889, 890, 891, 892, 893, 894, 895, 896, 897, 898, 899, 900, 901, 902, 903, 904, 905, 906, 907, 908, 909, 910, 911, 912, 913, 914],
      "AcquisitionTime": ["201925.615000", "201926.075000", "201926.535000", "201926.995000", "201927.455000", "201927.915000", "201928.375000", "201928.835000", "201929.295000", "201929.755000", "201930.215000", "201930.675000", "201931.135000", "201931.595000", "201932.055000", "201932.515000", "201932.975000", "201933.435000", "201933.895000", "201934.355000", "201934.815000", "201935.275000", "201935.735000", "201936.195000", "201936.655000", "201937.115000", "201937.575000", "201938.035000", "201938.495000", "201938.955000", "201939.415000", "201939.875000", "201940.335000", "201940.795000", "201941.255000", "201941.715000", "201942.175000", "201942.635000", "201943.095000", "201943.555000", "201944.015000", "201944.475000", "201944.935000", "201945.395000", "201945.855000", "201946.315000", "201946.775000", "201947.235000", "201947.695000", "201948.155000", "201948.615000", "201949.075000", "201949.535000", "201949.995000", "201950.455000", "201950.915000", "201951.375000", "201951.835000", "201952.295000", "201952.755000", "201953.215000", "201953.675000", "201954.135000", "201954.595000", "201955.055000", "201955.515000", "201955.975000", "201956.435000", "201956.895000", "201957.355000", "201957.815000", "201958.275000", "201958.735000", "201959.195000", "201959.655000", "202000.115000", "202000.575000", "202001.035000", "202001.495000", "202001.955000", "202002.415000", "202002.875000", "202003.335000", "202003.795000", "202004.255000", "202004.715000", "202005.175000", "202005.635000", "202006.095000", "202006.555000", "202007.015000", "202007.475000", "202007.935000", "202008.395000", "202008.855000", "202009.315000", "202009.775000", "202010.235000", "202010.695000", "202011.155000", "202011.615000", "202012.075000", "202012.535000", "202012.995000", "202013.455000", "202013.915000", "202014.375000", "202014.835000", "202015.295000", "202015.755000", "202016.215000", "202016.675000", "202017.135000", "202017.595000", "202018.055000", "202018.515000", "202018.975000", "202019.435000", "202019.895000", "202020.355000", "202020.815000", "202021.275000", "202021.735000", "202022.195000", "202022.655000", "202023.115000", "202023.575000", "202024.035000", "202024.495000", "202024.955000", "202025.415000", "202025.875000", "202026.335000", "202026.795000", "202027.255000", "202027.715000", "202028.175000", "202028.635000", "202029.095000", "202029.555000", "202030.015000", "202030.475000", "202030.935000", "202031.395000", "202031.855000", "202032.315000", "202032.775000", "202033.235000", "202033.695000", "202034.155000", "202034.615000", "202035.075000", "202035.535000", "202035.995000", "202036.455000", "202036.915000", "202037.375000", "202037.835000", "202038.295000", "202038.755000", "202039.215000", "202039.675000", "202040.135000", "202040.595000", "202041.055000", "202041.515000", "202041.975000", "202042.435000", "202042.895000", "202043.355000", "202043.815000", "202044.275000", "202044.735000", "202045.195000", "202045.655000", "202046.115000", "202046.575000", "202047.035000", "202047.495000", "202047.955000", "202048.415000", "202048.875000", "202049.335000", "202049.795000", "202050.255000", "202050.715000", "202051.175000", "202051.635000", "202052.095000", "202052.555000", "202053.015000", "202053.475000", "202053.935000", "202054.395000", "202054.855000", "202055.315000", "202055.775000", "202056.235000", "202056.695000", "202057.155000", "202057.615000", "202058.075000", "202058.535000", "202058.995000", "202059.455000", "202059.915000", "202100.375000", "202100.835000", "202101.295000", "202101.755000", "202102.215000", "202102.675000", "202103.135000", "202103.595000", "202104.055000", "202104.515000", "202104.975000", "202105.435000", "202105.895000", "202106.355000", "202106.815000", "202107.275000", "202107.735000", "202108.195000", "202108.655000", "202109.115000", "202109.575000", "202110.035000", "202110.495000", "202110.955000", "202111.415000", "202111.875000", "202112.335000", "202112.795000", "202113.255000", "202113.715000", "202114.175000", "202114.635000", "202115.095000", "202115.555000", "202116.015000", "202116.475000", "202116.935000", "202117.395000", "202117.855000", "202118.315000", "202118.775000", "202119.235000", "202119.695000", "202120.155000", "202120.615000", "202121.075000", "202121.535000", "202121.995000", "202122.455000", "202122.915000", "202123.375000", "202123.835000", "202124.295000", "202124.755000", "202125.215000", "202125.675000", "202126.135000", "202126.595000", "202127.055000", "202127.515000", "202127.975000", "202128.435000", "202128.895000", "202129.355000", "202129.815000", "202130.275000", "202130.735000", "202131.195000", "202131.655000", "202132.115000", "202132.575000", "202133.035000", "202133.495000", "202133.955000", "202134.415000", "202134.875000", "202135.335000", "202135.795000", "202136.255000", "202136.715000", "202137.175000", "202137.635000", "202138.095000", "202138.555000", "202139.015000", "202139.475000", "202139.935000", "202140.395000", "202140.855000", "202141.315000", "202141.775000", "202142.235000", "202142.695000", "202143.155000", "202143.615000", "202144.075000", "202144.535000", "202144.995000", "202145.455000", "202145.915000", "202146.375000", "202146.835000", "202147.295000", "202147.755000", "202148.215000", "202148.675000", "202149.135000", "202149.595000", "202150.055000", "202150.515000", "202150.975000", "202151.435000", "202151.895000", "202152.355000", "202152.815000", "202153.275000", "202153.735000", "202154.195000", "202154.655000", "202155.115000", "202155.575000", "202156.035000", "202156.495000", "202156.955000", "202157.415000", "202157.875000", "202158.335000", "202158.795000", "202159.255000", "202159.715000", "202200.175000", "202200.635000", "202201.095000", "202201.555000", "202202.015000", "202202.475000", "202202.935000", "202203.395000", "202203.855000", "202204.315000", "202204.775000", "202205.235000", "202205.695000", "202206.155000", "202206.615000", "202207.075000", "202207.535000", "202207.995000", "202208.455000", "202208.915000", "202209.375000", "202209.835000", "202210.295000", "202210.755000", "202211.215000", "202211.675000", "202212.135000", "202212.595000", "202213.055000", "202213.515000", "202213.975000", "202214.435000", "202214.895000", "202215.355000", "202215.815000", "202216.275000", "202216.735000", "202217.195000", "202217.655000", "202218.115000", "202218.575000", "202219.035000", "202219.495000", "202219.955000", "202220.415000", "202220.875000", "202221.335000", "202221.795000", "202222.255000", "202222.715000", "202223.175000", "202223.635000", "202224.095000", "202224.555000", "202225.015000", "202225.475000", "202225.935000", "202226.395000", "202226.855000", "202227.315000", "202227.775000", "202228.235000", "202228.695000", "202229.155000", "202229.615000", "202230.075000", "202230.535000", "202230.995000", "202231.455000", "202231.915000", "202232.375000", "202232.835000", "202233.295000", "202233.755000", "202234.215000", "202234.675000", "202235.135000", "202235.595000", "202236.055000", "202236.515000", "202236.975000", "202237.435000", "202237.895000", "202238.355000", "202238.815000", "202239.275000", "202239.735000", "202240.195000", "202240.655000", "202241.115000", "202241.575000", "202242.035000", "202242.495000", "202242.955000", "202243.415000", "202243.875000", "202244.335000", "202244.795000", "202245.255000", "202245.715000", "202246.175000", "202246.635000", "202247.095000", "202247.555000", "202248.015000", "202248.475000", "202248.935000", "202249.395000", "202249.855000", "202250.315000", "202250.775000", "202251.235000", "202251.695000", "202252.155000", "202252.615000", "202253.075000", "202253.535000", "202253.995000", "202254.455000", "202254.915000", "202255.375000", "202255.835000", "202256.295000", "202256.755000", "202257.215000", "202257.675000", "202258.135000", "202258.595000", "202259.055000", "202259.515000", "202259.975000", "202300.435000", "202300.895000", "202301.355000", "202301.815000", "202302.275000", "202302.735000", "202303.195000", "202303.655000", "202304.115000", "202304.575000", "202305.035000", "202305.495000", "202305.955000", "202306.415000", "202306.875000", "202307.335000", "202307.795000", "202308.255000", "202308.715000", "202309.175000", "202309.635000", "202310.095000", "202310.555000", "202311.015000", "202311.475000", "202311.935000", "202312.395000", "202312.855000", "202313.315000", "202313.775000", "202314.235000", "202314.695000", "202315.155000", "202315.615000", "202316.075000", "202316.535000", "202316.995000", "202317.455000", "202317.915000", "202318.375000", "202318.835000", "202319.295000", "202319.755000", "202320.215000", "202320.675000", "202321.135000", "202321.595000", "202322.055000", "202322.515000", "202322.975000", "202323.435000", "202323.895000", "202324.355000", "202324.815000", "202325.275000", "202325.735000", "202326.195000", "202326.655000", "202327.115000", "202327.575000", "202328.035000", "202328.495000", "202328.955000", "202329.415000", "202329.875000", "202330.335000", "202330.795000", "202331.255000", "202331.715000", "202332.175000", "202332.635000", "202333.095000", "202333.555000", "202334.015000", "202334.475000", "202334.935000", "202335.395000", "202335.855000", "202336.315000", "202336.775000", "202337.235000", "202337.695000", "202338.155000", "202338.615000", "202339.075000", "202339.535000", "202339.995000", "202340.455000", "202340.915000", "202341.375000", "202341.835000", "202342.295000", "202342.755000", "202343.215000", "202343.675000", "202344.135000", "202344.595000", "202345.055000", "202345.515000", "202345.975000", "202346.435000", "202346.895000", "202347.355000", "202347.815000", "202348.275000", "202348.735000", "202349.195000", "202349.655000", "202350.115000", "202350.575000", "202351.035000", "202351.495000", "202351.955000", "202352.415000", "202352.875000", "202353.335000", "202353.795000", "202354.255000", "202354.715000", "202355.175000", "202355.635000", "202356.095000", "202356.555000", "202357.015000", "202357.475000", "202357.935000", "202358.395000", "202358.855000", "202359.315000", "202359.775000", "202400.235000", "202400.695000", "202401.155000", "202401.615000", "202402.075000", "202402.535000", "202402.995000", "202403.455000", "202403.915000", "202404.375000", "202404.835000", "202405.295000", "202405.755000", "202406.215000", "202406.675000", "202407.135000", "202407.595000", "202408.055000", "202408.515000", "202408.975000", "202409.435000", "202409.895000", "202410.355000", "202410.815000", "202411.275000", "202411.735000", "202412.195000", "202412.655000", "202413.115000", "202413.575000", "202414.035000", "202414.495000", "202414.955000", "202415.415000", "202415.875000", "202416.335000", "202416.795000", "202417.255000", "202417.715000", "202418.175000", "202418.635000", "202419.095000", "202419.555000", "202420.015000", "202420.475000", "202420.935000", "202421.395000", "202421.855000", "202422.315000", "202422.775000", "202423.235000", "202423.695000", "202424.155000", "202424.615000", "202425.075000", "202425.535000", "202425.995000", "202426.455000", "202426.915000", "202427.375000", "202427.835000", "202428.295000", "202428.755000", "202429.215000", "202429.675000", "202430.135000", "202430.595000", "202431.055000", "202431.515000", "202431.975000", "202432.435000", "202432.895000", "202433.355000", "202433.815000", "202434.275000", "202434.735000", "202435.195000", "202435.655000", "202436.115000", "202436.575000", "202437.035000", "202437.495000", "202437.955000", "202438.415000", "202438.875000", "202439.335000", "202439.795000", "202440.255000", "202440.715000", "202441.175000", "202441.635000", "202442.095000", "202442.555000", "202443.015000", "202443.475000", "202443.935000", "202444.395000", "202444.855000", "202445.315000", "202445.775000", "202446.235000", "202446.695000", "202447.155000", "202447.615000", "202448.075000", "202448.535000", "202448.995000", "202449.455000", "202449.915000", "202450.375000", "202450.835000", "202451.295000", "202451.755000", "202452.215000", "202452.675000", "202453.135000", "202453.595000", "202454.055000", "202454.515000", "202454.975000", "202455.435000", "202455.895000", "202456.355000", "202456.815000", "202457.275000", "202457.735000", "202458.195000", "202458.655000", "202459.115000", "202459.575000", "202500.035000", "202500.495000", "202500.955000", "202501.415000", "202501.875000", "202502.335000", "202502.795000", "202503.255000", "202503.715000", "202504.175000", "202504.635000", "202505.095000", "202505.555000", "202506.015000", "202506.475000", "202506.935000", "202507.395000", "202507.855000", "202508.315000", "202508.775000", "202509.235000", "202509.695000", "202510.155000", "202510.615000", "202511.075000", "202511.535000", "202511.995000", "202512.455000", "202512.915000", "202513.375000", "202513.835000", "202514.295000", "202514.755000", "202515.215000", "202515.675000", "202516.135000", "202516.595000", "202517.055000", "202517.515000", "202517.975000", "202518.435000", "202518.895000", "202519.355000", "202519.815000", "202520.275000", "202520.735000", "202521.195000", "202521.655000", "202522.115000", "202522.575000", "202523.035000", "202523.495000", "202523.955000", "202524.415000", "202524.875000", "202525.335000", "202525.795000", "202526.255000", "202526.715000", "202527.175000", "202527.635000", "202528.095000", "202528.555000", "202529.015000", "202529.475000", "202529.935000", "202530.395000", "202530.855000", "202531.315000", "202531.775000", "202532.235000", "202532.695000", "202533.155000", "202533.615000", "202534.075000", "202534.535000", "202534.995000", "202535.455000", "202535.915000", "202536.375000", "202536.835000", "202537.295000", "202537.755000", "202538.215000", "202538.675000", "202539.135000", "202539.595000", "202540.055000", "202540.515000", "202540.975000", "202541.435000", "202541.895000", "202542.355000", "202542.815000", "202543.275000", "202543.735000", "202544.195000", "202544.655000", "202545.115000", "202545.575000", "202546.035000", "202546.495000", "202546.955000", "202547.415000", "202547.875000", "202548.335000", "202548.795000", "202549.255000", "202549.715000", "202550.175000", "202550.635000", "202551.095000", "202551.555000", "202552.015000", "202552.475000", "202552.935000", "202553.395000", "202553.855000", "202554.315000", "202554.775000", "202555.235000", "202555.695000", "202556.155000", "202556.615000", "202557.075000", "202557.535000", "202557.995000", "202558.455000", "202558.915000", "202559.375000", "202559.835000", "202600.295000", "202600.755000", "202601.215000", "202601.675000", "202602.135000", "202602.595000", "202603.055000", "202603.515000", "202603.975000", "202604.435000", "202604.895000", "202605.355000", "202605.815000", "202606.275000", "202606.735000", "202607.195000", "202607.655000", "202608.115000", "202608.575000", "202609.035000", "202609.495000", "202609.955000", "202610.415000", "202610.875000", "202611.335000", "202611.795000", "202612.255000", "202612.715000", "202613.175000", "202613.635000", "202614.095000", "202614.555000", "202615.015000", "202615.475000", "202615.935000", "202616.395000", "202616.855000", "202617.315000", "202617.775000", "202618.235000", "202618.695000", "202619.155000", "202619.615000", "202620.075000", "202620.535000", "202620.995000", "202621.455000", "202621.915000", "202622.375000", "202622.835000", "202623.295000", "202623.755000", "202624.215000", "202624.675000", "202625.135000", "202625.595000"],
