{
  "AcquisitionMatrixPE": 82,
  "AcquisitionNumber": 1,
  "AcquisitionTime": "20:35:54.670000",
  "BandwidthPerPixelPhaseEncode": 24.888,
  "BaseResolution": 82,
  "BodyPartExamined": "BRAIN",
  "ConsistencyInfo": "N4_VE11E_LATEST_20181129",
  "ConversionSoftware": "dcm2niix",
  "ConversionSoftwareVersion": "v1.0.20201102",
  "DerivedVendorReportedEchoSpacing": 0.00049,
  "DeviceSerialNumber": "66112",
  "DwellTime": 2e-06,
  "EchoTime": 0.0272,
  "EchoTrainLength": 82,
  "EffectiveEchoSpacing": 0.00049,
  "FlipAngle": 44,
  "ImageComments": "Unaliased MB8/PE3",
  "ImageOrientationPatientDICOM": [1, 0, 0, 0, 1, 0],
  "ImageType": [
    "ORIGINAL",
    "PRIMARY",
    "M",
    "MB",
    "ND",
    "NORM",
    "MOSAIC"
],
  "ImagingFrequency": 123.259,
  "InPlanePhaseEncodingDirectionDICOM": "COL",
  "InstitutionAddress": "Maynard 3,Hanover,NH,US,03755",
  "InstitutionName": "Dartmouth College - PBS",
  "InstitutionalDepartmentName": "Department",
  "MRAcquisitionType": "2D",
  "MagneticFieldStrength": 3,
  "Manufacturer": "Siemens",
  "ManufacturersModelName": "Prisma",
  "Modality": "MR",
  "MultibandAccelerationFactor": 8,
  "PartialFourier": 1,
  "PatientPosition": "HFS",
  "PercentPhaseFOV": 100,
  "PercentSampling": 100,
  "PhaseEncodingDirection": "j-",
  "PhaseEncodingSteps": 82,
  "PhaseResolution": 1,
  "PixelBandwidth": 3050,
  "ProcedureStepDescription": "Wager_Wager^1076_spacetop",
  "ProtocolName": "func_run-01_task-alignvideo_acq-ap-mb8",
  "PulseSequenceDetails": "%CustomerSeq%\\cmrr_mbep2d_bold",
  "ReceiveCoilActiveElements": "HEA;HEP",
  "ReceiveCoilName": "Head_32",
  "ReconMatrixPE": 82,
  "RepetitionTime": 0.46,
  "SAR": 0.12993,
  "ScanOptions": "FS",
  "ScanningSequence": "EP",
  "SequenceName": "epfid2d1_82",
  "SequenceVariant": "SK\\SS",
  "SeriesDescription": "func_run-01_task-alignvideo_acq-ap-mb8",
  "SeriesNumber": 28,
  "ShimSetting": [4235, -7768, -7220, 17, -128, 14, -92, 68],
  "SliceThickness": 2.7,
  "SliceTiming": [0, 0.25, 0.0625, 0.3125, 0.125, 0.375, 0.1875, 0, 0.25, 0.0625, 0.3125, 0.125, 0.375, 0.1875, 0, 0.25, 0.0625, 0.3125, 0.125, 0.375, 0.1875, 0, 0.25, 0.0625, 0.3125, 0.125, 0.375, 0.1875, 0, 0.25, 0.0625, 0.3125, 0.125, 0.375, 0.1875, 0, 0.25, 0.0625, 0.3125, 0.125, 0.375, 0.1875, 0, 0.25, 0.0625, 0.3125, 0.125, 0.375, 0.1875, 0, 0.25, 0.0625, 0.3125, 0.125, 0.375, 0.1875],
  "SoftwareVersions": "syngo MR E11",
  "SpacingBetweenSlices": 2.7,
  "StationName": "AWP66112",
  "TaskName": "alignvideo",
  "TotalReadoutTime": 0.03969,
  "TxRefAmp": 318.987,
  "WipMemBlock": "b6002b40-a7ab-4d25-8820-953053baf509||Sequence: R016 ve11e/master r/434b28f1; Aug  7 2019 18:53:46 by eja",
  "dcmmeta_affine": [
    [-2.682926893234253, 0.0, 0.0, 110.0],
    [0.0, 2.682926893234253, 0.0, -107.31707763671875],
    [0.0, 0.0, 2.700000047683716, -74.25],
    [0.0, 0.0, 0.0, 1.0]
],
  "dcmmeta_reorient_transform": [
    [0.0, -1.0, 0.0, 81.0],
    [1.0, 0.0, 0.0, 0.0],
    [0.0, 0.0, 1.0, 0.0],
    [0.0, 0.0, 0.0, 1.0]
],
  "dcmmeta_shape": [82, 82, 56, 839],
  "dcmmeta_slice_dim": 2,
  "dcmmeta_version": 0.6,
  "global": {
    "const": {
      "AccessionNumber": "A004337",
      "AcquisitionMatrix": [82, 0, 0, 82],
      "AngioFlag": "N",
      "BitsAllocated": 16,
      "BitsStored": 16,
      "BodyPartExamined": "BRAIN",
      "Columns": 656,
      "EchoNumbers": 1,
      "EchoTime": 27.2,
      "EchoTrainLength": 82,
      "FlipAngle": 44.0,
      "HighBit": 15,
      "ImageOrientationPatient": [1.0, 0.0, 0.0, 0.0, 1.0, 0.0],
      "ImagePositionPatient": [-880.00002098083, -880.00002098083, -74.25],
      "ImageType": [
        "ORIGINAL",
        "PRIMARY",
        "M",
        "MB",
        "ND",
        "NORM",
        "MOSAIC"
],
      "ImagedNucleus": "1H",
      "ImagingFrequency": 123.259128,
      "InPlanePhaseEncodingDirection": "COL",
      "MRAcquisitionType": "2D",
      "MagneticFieldStrength": 3.0,
      "Manufacturer": "SIEMENS",
      "ManufacturerModelName": "Prisma",
      "Modality": "MR",
      "NumberOfAverages": 1.0,
      "NumberOfPhaseEncodingSteps": 82,
      "PercentPhaseFieldOfView": 100.0,
      "PercentSampling": 100.0,
      "PerformedProcedureStepStartTime": "190654.488000",
      "PhotometricInterpretation": "MONOCHROME2",
      "PixelBandwidth": 3050.0,
      "PixelRepresentation": 0,
      "PixelSpacing": [2.6829268932343, 2.6829268932343],
      "ProtocolName": "func_run-01_task-alignvideo_acq-ap-mb8",
      "RepetitionTime": 460.0,
      "Rows": 656,
      "SAR": 0.1299301738358,
      "SamplesPerPixel": 1,
      "ScanOptions": "FS",
      "ScanningSequence": "EP",
      "SequenceName": "epfid2d1_82",
      "SequenceVariant": [
        "SK",
        "SS"
],
      "SeriesDescription": "func_run-01_task-alignvideo_acq-ap-mb8",
      "SeriesNumber": 28,
      "SeriesTime": "203608.674000",
      "SliceLocation": -74.25,
      "SliceThickness": 2.7000000476837,
      "SmallestImagePixelValue": 0,
      "SoftwareVersions": "syngo MR E11",
      "SpacingBetweenSlices": 2.7,
      "SpecificCharacterSet": "ISO_IR 100",
      "StudyID": "2",
      "StudyTime": "190654.443000",
      "TransmitCoilName": "Body",
      "VariableFlipAngleFlag": "N",
      "WindowCenterWidthExplanation": "Algo1"
    },
    "slices": {}
  },
  "time": {
    "samples": {
      "AcquisitionNumber": [1, 2, 3, 4, 5, 6, 7, 8, 9, 10, 11, 12, 13, 14, 15, 16, 17, 18, 19, 20, 21, 22, 23, 24, 25, 26, 27, 28, 29, 30, 31, 32, 33, 34, 35, 36, 37, 38, 39, 40, 41, 42, 43, 44, 45, 46, 47, 48, 49, 50, 51, 52, 53, 54, 55, 56, 57, 58, 59, 60, 61, 62, 63, 64, 65, 66, 67, 68, 69, 70, 71, 72, 73, 74, 75, 76, 77, 78, 79, 80, 81, 82, 83, 84, 85, 86, 87, 88, 89, 90, 91, 92, 93, 94, 95, 96, 97, 98, 99, 100, 101, 102, 103, 104, 105, 106, 107, 108, 109, 110, 111, 112, 113, 114, 115, 116, 117, 118, 119, 120, 121, 122, 123, 124, 125, 126, 127, 128, 129, 130, 131, 132, 133, 134, 135, 136, 137, 138, 139, 140, 141, 142, 143, 144, 145, 146, 147, 148, 149, 150, 151, 152, 153, 154, 155, 156, 157, 158, 159, 160, 161, 162, 163, 164, 165, 166, 167, 168, 169, 170, 171, 172, 173, 174, 175, 176, 177, 178, 179, 180, 181, 182, 183, 184, 185, 186, 187, 188, 189, 190, 191, 192, 193, 194, 195, 196, 197, 198, 199, 200, 201, 202, 203, 204, 205, 206, 207, 208, 209, 210, 211, 212, 213, 214, 215, 216, 217, 218, 219, 220, 221, 222, 223, 224, 225, 226, 227, 228, 229, 230, 231, 232, 233, 234, 235, 236, 237, 238, 239, 240, 241, 242, 243, 244, 245, 246, 247, 248, 249, 250, 251, 252, 253, 254, 255, 256, 257, 258, 259, 260, 261, 262, 263, 264, 265, 266, 267, 268, 269, 270, 271, 272, 273, 274, 275, 276, 277, 278, 279, 280, 281, 282, 283, 284, 285, 286, 287, 288, 289, 290, 291, 292, 293, 294, 295, 296, 297, 298, 299, 300, 301, 302, 303, 304, 305, 306, 307, 308, 309, 310, 311, 312, 313, 314, 315, 316, 317, 318, 319, 320, 321, 322, 323, 324, 325, 326, 327, 328, 329, 330, 331, 332, 333, 334, 335, 336, 337, 338, 339, 340, 341, 342, 343, 344, 345, 346, 347, 348, 349, 350, 351, 352, 353, 354, 355, 356, 357, 358, 359, 360, 361, 362, 363, 364, 365, 366, 367, 368, 369, 370, 371, 372, 373, 374, 375, 376, 377, 378, 379, 380, 381, 382, 383, 384, 385, 386, 387, 388, 389, 390, 391, 392, 393, 394, 395, 396, 397, 398, 399, 400, 401, 402, 403, 404, 405, 406, 407, 408, 409, 410, 411, 412, 413, 414, 415, 416, 417, 418, 419, 420, 421, 422, 423, 424, 425, 426, 427, 428, 429, 430, 431, 432, 433, 434, 435, 436, 437, 438, 439, 440, 441, 442, 443, 444, 445, 446, 447, 448, 449, 450, 451, 452, 453, 454, 455, 456, 457, 458, 459, 460, 461, 462, 463, 464, 465, 466, 467, 468, 469, 470, 471, 472, 473, 474, 475, 476, 477, 478, 479, 480, 481, 482, 483, 484, 485, 486, 487, 488, 489, 490, 491, 492, 493, 494, 495, 496, 497, 498, 499, 500, 501, 502, 503, 504, 505, 506, 507, 508, 509, 510, 511, 512, 513, 514, 515, 516, 517, 518, 519, 520, 521, 522, 523, 524, 525, 526, 527, 528, 529, 530, 531, 532, 533, 534, 535, 536, 537, 538, 539, 540, 541, 542, 543, 544, 545, 546, 547, 548, 549, 550, 551, 552, 553, 554, 555, 556, 557, 558, 559, 560, 561, 562, 563, 564, 565, 566, 567, 568, 569, 570, 571, 572, 573, 574, 575, 576, 577, 578, 579, 580, 581, 582, 583, 584, 585, 586, 587, 588, 589, 590, 591, 592, 593, 594, 595, 596, 597, 598, 599, 600, 601, 602, 603, 604, 605, 606, 607, 608, 609, 610, 611, 612, 613, 614, 615, 616, 617, 618, 619, 620, 621, 622, 623, 624, 625, 626, 627, 628, 629, 630, 631, 632, 633, 634, 635, 636, 637, 638, 639, 640, 641, 642, 643, 644, 645, 646, 647, 648, 649, 650, 651, 652, 653, 654, 655, 656, 657, 658, 659, 660, 661, 662, 663, 664, 665, 666, 667, 668, 669, 670, 671, 672, 673, 674, 675, 676, 677, 678, 679, 680, 681, 682, 683, 684, 685, 686, 687, 688, 689, 690, 691, 692, 693, 694, 695, 696, 697, 698, 699, 700, 701, 702, 703, 704, 705, 706, 707, 708, 709, 710, 711, 712, 713, 714, 715, 716, 717, 718, 719, 720, 721, 722, 723, 724, 725, 726, 727, 728, 729, 730, 731, 732, 733, 734, 735, 736, 737, 738, 739, 740, 741, 742, 743, 744, 745, 746, 747, 748, 749, 750, 751, 752, 753, 754, 755, 756, 757, 758, 759, 760, 761, 762, 763, 764, 765, 766, 767, 768, 769, 770, 771, 772, 773, 774, 775, 776, 777, 778, 779, 780, 781, 782, 783, 784, 785, 786, 787, 788, 789, 790, 791, 792, 793, 794, 795, 796, 797, 798, 799, 800, 801, 802, 803, 804, 805, 806, 807, 808, 809, 810, 811, 812, 813, 814, 815, 816, 817, 818, 819, 820, 821, 822, 823, 824, 825, 826, 827, 828, 829, 830, 831, 832, 833, 834, 835, 836, 837, 838, 839],
      "AcquisitionTime": ["203554.670000", "203555.130000", "203555.590000", "203556.050000", "203556.510000", "203556.970000", "203557.430000", "203557.890000", "203558.350000", "203558.810000", "203559.270000", "203559.730000", "203600.190000", "203600.650000", "203601.110000", "203601.570000", "203602.030000", "203602.490000", "203602.950000", "203603.410000", "203603.870000", "203604.330000", "203604.790000", "203605.250000", "203605.710000", "203606.170000", "203606.630000", "203607.090000", "203607.550000", "203608.010000", "203608.470000", "203608.930000", "203609.390000", "203609.850000", "203610.310000", "203610.770000", "203611.230000", "203611.690000", "203612.150000", "203612.610000", "203613.070000", "203613.530000", "203613.990000", "203614.450000", "203614.910000", "203615.370000", "203615.830000", "203616.290000", "203616.750000", "203617.210000", "203617.670000", "203618.130000", "203618.590000", "203619.050000", "203619.510000", "203619.970000", "203620.430000", "203620.890000", "203621.350000", "203621.810000", "203622.270000", "203622.730000", "203623.190000", "203623.650000", "203624.110000", "203624.570000", "203625.030000", "203625.490000", "203625.950000", "203626.410000", "203626.870000", "203627.330000", "203627.790000", "203628.250000", "203628.710000", "203629.170000", "203629.630000", "203630.090000", "203630.550000", "203631.010000", "203631.470000", "203631.930000", "203632.390000", "203632.850000", "203633.310000", "203633.770000", "203634.230000", "203634.690000", "203635.150000", "203635.610000", "203636.070000", "203636.530000", "203636.990000", "203637.450000", "203637.910000", "203638.370000", "203638.830000", "203639.290000", "203639.750000", "203640.210000", "203640.670000", "203641.130000", "203641.590000", "203642.050000", "203642.510000", "203642.970000", "203643.430000", "203643.890000", "203644.350000", "203644.810000", "203645.270000", "203645.730000", "203646.190000", "203646.650000", "203647.110000", "203647.570000", "203648.030000", "203648.490000", "203648.950000", "203649.410000", "203649.870000", "203650.330000", "203650.790000", "203651.250000", "203651.710000", "203652.170000", "203652.630000", "203653.090000", "203653.550000", "203654.010000", "203654.470000", "203654.930000", "203655.390000", "203655.850000", "203656.310000", "203656.770000", "203657.230000", "203657.690000", "203658.150000", "203658.610000", "203659.070000", "203659.530000", "203659.990000", "203700.450000", "203700.910000", "203701.370000", "203701.830000", "203702.290000", "203702.750000", "203703.210000", "203703.670000", "203704.130000", "203704.590000", "203705.050000", "203705.510000", "203705.970000", "203706.430000", "203706.890000", "203707.350000", "203707.810000", "203708.270000", "203708.730000", "203709.190000", "203709.650000", "203710.110000", "203710.570000", "203711.030000", "203711.490000", "203711.950000", "203712.410000", "203712.870000", "203713.330000", "203713.790000", "203714.250000", "203714.710000", "203715.170000", "203715.630000", "203716.090000", "203716.550000", "203717.010000", "203717.470000", "203717.930000", "203718.390000", "203718.850000", "203719.310000", "203719.770000", "203720.230000", "203720.690000", "203721.150000", "203721.610000", "203722.070000", "203722.530000", "203722.990000", "203723.450000", "203723.910000", "203724.370000", "203724.830000", "203725.290000", "203725.750000", "203726.210000", "203726.670000", "203727.130000", "203727.590000", "203728.050000", "203728.510000", "203728.970000", "203729.430000", "203729.890000", "203730.350000", "203730.810000", "203731.270000", "203731.730000", "203732.190000", "203732.650000", "203733.110000", "203733.570000", "203734.030000", "203734.490000", "203734.950000", "203735.410000", "203735.870000", "203736.330000", "203736.790000", "203737.250000", "203737.710000", "203738.170000", "203738.630000", "203739.090000", "203739.550000", "203740.010000", "203740.470000", "203740.930000", "203741.390000", "203741.850000", "203742.310000", "203742.770000", "203743.230000", "203743.690000", "203744.150000", "203744.610000", "203745.070000", "203745.530000", "203745.990000", "203746.450000", "203746.910000", "203747.370000", "203747.830000", "203748.290000", "203748.750000", "203749.210000", "203749.670000", "203750.130000", "203750.590000", "203751.050000", "203751.510000", "203751.970000", "203752.430000", "203752.890000", "203753.350000", "203753.810000", "203754.270000", "203754.730000", "203755.190000", "203755.650000", "203756.110000", "203756.570000", "203757.030000", "203757.490000", "203757.950000", "203758.410000", "203758.870000", "203759.330000", "203759.790000", "203800.250000", "203800.710000", "203801.170000", "203801.630000", "203802.090000", "203802.550000", "203803.010000", "203803.470000", "203803.930000", "203804.390000", "203804.850000", "203805.310000", "203805.770000", "203806.230000", "203806.690000", "203807.150000", "203807.610000", "203808.070000", "203808.530000", "203808.990000", "203809.450000", "203809.910000", "203810.370000", "203810.830000", "203811.290000", "203811.750000", "203812.210000", "203812.670000", "203813.130000", "203813.590000", "203814.050000", "203814.510000", "203814.970000", "203815.430000", "203815.890000", "203816.350000", "203816.810000", "203817.270000", "203817.730000", "203818.190000", "203818.650000", "203819.110000", "203819.570000", "203820.030000", "203820.490000", "203820.950000", "203821.410000", "203821.870000", "203822.330000", "203822.790000", "203823.250000", "203823.710000", "203824.170000", "203824.630000", "203825.090000", "203825.550000", "203826.010000", "203826.470000", "203826.930000", "203827.390000", "203827.850000", "203828.310000", "203828.770000", "203829.230000", "203829.690000", "203830.150000", "203830.610000", "203831.070000", "203831.530000", "203831.990000", "203832.450000", "203832.910000", "203833.370000", "203833.830000", "203834.290000", "203834.750000", "203835.210000", "203835.670000", "203836.130000", "203836.590000", "203837.050000", "203837.510000", "203837.970000", "203838.430000", "203838.890000", "203839.350000", "203839.810000", "203840.270000", "203840.730000", "203841.190000", "203841.650000", "203842.110000", "203842.570000", "203843.030000", "203843.490000", "203843.950000", "203844.410000", "203844.870000", "203845.330000", "203845.790000", "203846.250000", "203846.710000", "203847.170000", "203847.630000", "203848.090000", "203848.550000", "203849.010000", "203849.470000", "203849.930000", "203850.390000", "203850.850000", "203851.310000", "203851.770000", "203852.230000", "203852.690000", "203853.150000", "203853.610000", "203854.070000", "203854.530000", "203854.990000", "203855.450000", "203855.910000", "203856.370000", "203856.830000", "203857.290000", "203857.750000", "203858.210000", "203858.670000", "203859.130000", "203859.590000", "203900.050000", "203900.510000", "203900.970000", "203901.430000", "203901.890000", "203902.350000", "203902.810000", "203903.270000", "203903.730000", "203904.190000", "203904.650000", "203905.110000", "203905.570000", "203906.030000", "203906.490000", "203906.950000", "203907.410000", "203907.870000", "203908.330000", "203908.790000", "203909.250000", "203909.710000", "203910.170000", "203910.630000", "203911.090000", "203911.550000", "203912.010000", "203912.470000", "203912.930000", "203913.390000", "203913.850000", "203914.310000", "203914.770000", "203915.230000", "203915.690000", "203916.150000", "203916.610000", "203917.070000", "203917.530000", "203917.990000", "203918.450000", "203918.910000", "203919.370000", "203919.830000", "203920.290000", "203920.750000", "203921.210000", "203921.670000", "203922.130000", "203922.590000", "203923.050000", "203923.510000", "203923.970000", "203924.430000", "203924.890000", "203925.350000", "203925.810000", "203926.270000", "203926.730000", "203927.190000", "203927.650000", "203928.110000", "203928.570000", "203929.030000", "203929.490000", "203929.950000", "203930.410000", "203930.870000", "203931.330000", "203931.790000", "203932.250000", "203932.710000", "203933.170000", "203933.630000", "203934.090000", "203934.550000", "203935.010000", "203935.470000", "203935.930000", "203936.390000", "203936.850000", "203937.310000", "203937.770000", "203938.230000", "203938.690000", "203939.150000", "203939.610000", "203940.070000", "203940.530000", "203940.990000", "203941.450000", "203941.910000", "203942.370000", "203942.830000", "203943.290000", "203943.750000", "203944.210000", "203944.670000", "203945.130000", "203945.590000", "203946.050000", "203946.510000", "203946.970000", "203947.430000", "203947.890000", "203948.350000", "203948.810000", "203949.270000", "203949.730000", "203950.190000", "203950.650000", "203951.110000", "203951.570000", "203952.030000", "203952.490000", "203952.950000", "203953.410000", "203953.870000", "203954.330000", "203954.790000", "203955.250000", "203955.710000", "203956.170000", "203956.630000", "203957.090000", "203957.550000", "203958.010000", "203958.470000", "203958.930000", "203959.390000", "203959.850000", "204000.310000", "204000.770000", "204001.230000", "204001.690000", "204002.150000", "204002.610000", "204003.070000", "204003.530000", "204003.990000", "204004.450000", "204004.910000", "204005.370000", "204005.830000", "204006.290000", "204006.750000", "204007.210000", "204007.670000", "204008.130000", "204008.590000", "204009.050000", "204009.510000", "204009.970000", "204010.430000", "204010.890000", "204011.350000", "204011.810000", "204012.270000", "204012.730000", "204013.190000", "204013.650000", "204014.110000", "204014.570000", "204015.030000", "204015.490000", "204015.950000", "204016.410000", "204016.870000", "204017.330000", "204017.790000", "204018.250000", "204018.710000", "204019.170000", "204019.630000", "204020.090000", "204020.550000", "204021.010000", "204021.470000", "204021.930000", "204022.390000", "204022.850000", "204023.310000", "204023.770000", "204024.230000", "204024.690000", "204025.150000", "204025.610000", "204026.070000", "204026.530000", "204026.990000", "204027.450000", "204027.910000", "204028.370000", "204028.830000", "204029.290000", "204029.750000", "204030.210000", "204030.670000", "204031.130000", "204031.590000", "204032.050000", "204032.510000", "204032.970000", "204033.430000", "204033.890000", "204034.350000", "204034.810000", "204035.270000", "204035.730000", "204036.190000", "204036.650000", "204037.110000", "204037.570000", "204038.030000", "204038.490000", "204038.950000", "204039.410000", "204039.870000", "204040.330000", "204040.790000", "204041.250000", "204041.710000", "204042.170000", "204042.630000", "204043.090000", "204043.550000", "204044.010000", "204044.470000", "204044.930000", "204045.390000", "204045.850000", "204046.310000", "204046.770000", "204047.230000", "204047.690000", "204048.150000", "204048.610000", "204049.070000", "204049.530000", "204049.990000", "204050.450000", "204050.910000", "204051.370000", "204051.830000", "204052.290000", "204052.750000", "204053.210000", "204053.670000", "204054.130000", "204054.590000", "204055.050000", "204055.510000", "204055.970000", "204056.430000", "204056.890000", "204057.350000", "204057.810000", "204058.270000", "204058.730000", "204059.190000", "204059.650000", "204100.110000", "204100.570000", "204101.030000", "204101.490000", "204101.950000", "204102.410000", "204102.870000", "204103.330000", "204103.790000", "204104.250000", "204104.710000", "204105.170000", "204105.630000", "204106.090000", "204106.550000", "204107.010000", "204107.470000", "204107.930000", "204108.390000", "204108.850000", "204109.310000", "204109.770000", "204110.230000", "204110.690000", "204111.150000", "204111.610000", "204112.070000", "204112.530000", "204112.990000", "204113.450000", "204113.910000", "204114.370000", "204114.830000", "204115.290000", "204115.750000", "204116.210000", "204116.670000", "204117.130000", "204117.590000", "204118.050000", "204118.510000", "204118.970000", "204119.430000", "204119.890000", "204120.350000", "204120.810000", "204121.270000", "204121.730000", "204122.190000", "204122.650000", "204123.110000", "204123.570000", "204124.030000", "204124.490000", "204124.950000", "204125.410000", "204125.870000", "204126.330000", "204126.790000", "204127.250000", "204127.710000", "204128.170000", "204128.630000", "204129.090000", "204129.550000", "204130.010000", "204130.470000", "204130.930000", "204131.390000", "204131.850000", "204132.310000", "204132.770000", "204133.230000", "204133.690000", "204134.150000", "204134.610000", "204135.070000", "204135.530000", "204135.990000", "204136.450000", "204136.910000", "204137.370000", "204137.830000", "204138.290000", "204138.750000", "204139.210000", "204139.670000", "204140.130000", "204140.590000", "204141.050000", "204141.510000", "204141.970000", "204142.430000", "204142.890000", "204143.350000", "204143.810000", "204144.270000", "204144.730000", "204145.190000", "204145.650000", "204146.110000", "204146.570000", "204147.030000", "204147.490000", "204147.950000", "204148.410000", "204148.870000", "204149.330000", "204149.790000", "204150.250000", "204150.710000", "204151.170000", "204151.630000", "204152.090000", "204152.550000", "204153.010000", "204153.470000", "204153.930000", "204154.390000", "204154.850000", "204155.310000", "204155.770000", "204156.230000", "204156.690000", "204157.150000", "204157.610000", "204158.070000", "204158.530000", "204158.990000", "204159.450000", "204159.910000", "204200.370000", "204200.830000", "204201.290000", "204201.750000", "204202.210000", "204202.670000", "204203.130000", "204203.590000", "204204.050000", "204204.510000", "204204.970000", "204205.430000", "204205.890000", "204206.350000", "204206.810000", "204207.270000", "204207.730000", "204208.190000", "204208.650000", "204209.110000", "204209.570000", "204210.030000", "204210.490000", "204210.950000", "204211.410000", "204211.870000", "204212.330000", "204212.790000", "204213.250000", "204213.710000", "204214.170000", "204214.630000", "204215.090000", "204215.550000", "204216.010000", "204216.470000", "204216.930000", "204217.390000", "204217.850000", "204218.310000", "204218.770000", "204219.230000", "204219.690000", "204220.150000"],
