{
  "AcquisitionMatrixPE": 82,
  "AcquisitionNumber": 1,
  "AcquisitionTime": "10:45:47.687500",
  "BandwidthPerPixelPhaseEncode": 24.888,
  "BaseResolution": 82,
  "BodyPartExamined": "BRAIN",
  "ConsistencyInfo": "N4_VE11E_LATEST_20181129",
  "ConversionSoftware": "dcm2niix",
  "ConversionSoftwareVersion": "v1.0.20201102",
  "DerivedVendorReportedEchoSpacing": 0.00049,
  "DeviceSerialNumber": "66112",
  "DwellTime": 2e-06,
  "EchoTime": 0.0272,
  "EchoTrainLength": 82,
  "EffectiveEchoSpacing": 0.00049,
  "FlipAngle": 44,
  "ImageComments": "Unaliased MB8/PE3",
  "ImageOrientationPatientDICOM": [0.997101, -0.00636226, -0.0758181, 0.00435068, 0.999635, -0.0266673],
  "ImageType": [
    "ORIGINAL",
    "PRIMARY",
    "M",
    "MB",
    "ND",
    "NORM",
    "MOSAIC"
],
  "ImagingFrequency": 123.252,
  "InPlanePhaseEncodingDirectionDICOM": "COL",
  "InstitutionAddress": "Maynard 3,Hanover,NH,US,03755",
  "InstitutionName": "Dartmouth College - PBS",
  "InstitutionalDepartmentName": "Department",
  "MRAcquisitionType": "2D",
  "MagneticFieldStrength": 3,
  "Manufacturer": "Siemens",
  "ManufacturersModelName": "Prisma",
  "Modality": "MR",
  "MultibandAccelerationFactor": 8,
  "PartialFourier": 1,
  "PatientPosition": "HFS",
  "PercentPhaseFOV": 100,
  "PercentSampling": 100,
  "PhaseEncodingDirection": "j-",
  "PhaseEncodingSteps": 82,
  "PhaseResolution": 1,
  "PixelBandwidth": 3050,
  "ProcedureStepDescription": "Wager_Wager^1076_spacetop",
  "ProtocolName": "func_run-01_task-narratives_acq-ap-mb8",
  "PulseSequenceDetails": "%CustomerSeq%\\cmrr_mbep2d_bold",
  "ReceiveCoilActiveElements": "HEA;HEP",
  "ReceiveCoilName": "Head_32",
  "ReconMatrixPE": 82,
  "RepetitionTime": 0.46,
  "SAR": 0.0852796,
  "ScanOptions": "FS",
  "ScanningSequence": "EP",
  "SequenceName": "epfid2d1_82",
  "SequenceVariant": "SK\\SS",
  "SeriesDescription": "func_run-01_task-narratives_acq-ap-mb8",
  "SeriesNumber": 8,
  "ShimSetting": [4133, -7721, -7266, 545, -60, -39, -100, 81],
  "SliceThickness": 2.7,
  "SliceTiming": [0, 0.25, 0.0625, 0.3125, 0.125, 0.375, 0.1875, 0, 0.25, 0.0625, 0.3125, 0.125, 0.375, 0.1875, 0, 0.25, 0.0625, 0.3125, 0.125, 0.375, 0.1875, 0, 0.25, 0.0625, 0.3125, 0.125, 0.375, 0.1875, 0, 0.25, 0.0625, 0.3125, 0.125, 0.375, 0.1875, 0, 0.25, 0.0625, 0.3125, 0.125, 0.375, 0.1875, 0, 0.25, 0.0625, 0.3125, 0.125, 0.375, 0.1875, 0, 0.25, 0.0625, 0.3125, 0.125, 0.375, 0.1875],
  "SoftwareVersions": "syngo MR E11",
  "SpacingBetweenSlices": 2.7,
  "StationName": "AWP66112",
  "TaskName": "narratives",
  "TotalReadoutTime": 0.03969,
  "TxRefAmp": 250.339,
  "WipMemBlock": "2a1a19b5-e51d-408f-8cd3-19834695ffc3||Sequence: R016 ve11e/master r/434b28f1; Aug  7 2019 18:53:46 by eja",
  "dcmmeta_affine": [
    [-2.675150156021118, 0.011672562919557095, -0.205092191696167, 113.85657501220703],
    [0.017069470137357712, 2.6819472312927246, -0.07090232521295547, -87.59136199951172],
    [-0.20341439545154572, 0.07154636085033417, 2.69126558303833, -66.59545135498047],
    [0.0, 0.0, 0.0, 1.0]
],
  "dcmmeta_reorient_transform": [
    [0.0, -1.0, 0.0, 81.0],
    [1.0, 0.0, 0.0, 0.0],
    [0.0, 0.0, 1.0, 0.0],
    [0.0, 0.0, 0.0, 1.0]
],
  "dcmmeta_shape": [82, 82, 56, 967],
  "dcmmeta_slice_dim": 2,
  "dcmmeta_version": 0.6,
  "global": {
    "const": {
      "AccessionNumber": "A003913",
      "AcquisitionMatrix": [82, 0, 0, 82],
      "AngioFlag": "N",
      "BitsAllocated": 16,
      "BitsStored": 16,
      "BodyPartExamined": "BRAIN",
      "Columns": 656,
      "EchoNumbers": 1,
      "EchoTime": 27.2,
      "EchoTrainLength": 82,
      "FlipAngle": 44.0,
      "HighBit": 15,
      "ImageOrientationPatient": [0.99710136852154, -0.0063622565611, -0.0758180887646, 0.00435068253195, 0.9996348972283, -0.0266672796675],
      "ImagePositionPatient": [-885.9201465713, -894.46632768351, 18.113540860282],
      "ImageType": [
        "ORIGINAL",
        "PRIMARY",
        "M",
        "MB",
        "ND",
        "NORM",
        "MOSAIC"
],
      "ImagedNucleus": "1H",
      "ImagingFrequency": 123.252215,
      "InPlanePhaseEncodingDirection": "COL",
      "MRAcquisitionType": "2D",
      "MagneticFieldStrength": 3.0,
      "Manufacturer": "SIEMENS",
      "ManufacturerModelName": "Prisma",
      "Modality": "MR",
      "NumberOfAverages": 1.0,
      "NumberOfPhaseEncodingSteps": 82,
      "PercentPhaseFieldOfView": 100.0,
      "PercentSampling": 100.0,
      "PerformedProcedureStepStartTime": "103521.133000",
      "PhotometricInterpretation": "MONOCHROME2",
      "PixelBandwidth": 3050.0,
      "PixelRepresentation": 0,
      "PixelSpacing": [2.6829268932343, 2.6829268932343],
      "ProtocolName": "func_run-01_task-narratives_acq-ap-mb8",
      "RepetitionTime": 460.0,
      "Rows": 656,
      "SAR": 0.08527961741896,
      "SamplesPerPixel": 1,
      "ScanOptions": "FS",
      "ScanningSequence": "EP",
      "SequenceName": "epfid2d1_82",
      "SequenceVariant": [
        "SK",
        "SS"
],
      "SeriesDescription": "func_run-01_task-narratives_acq-ap-mb8",
      "SeriesNumber": 8,
      "SeriesTime": "104613.671000",
      "SliceLocation": -72.72840764928,
      "SliceThickness": 2.7000000476837,
      "SmallestImagePixelValue": 0,
      "SoftwareVersions": "syngo MR E11",
      "SpacingBetweenSlices": 2.7000000795612,
      "SpecificCharacterSet": "ISO_IR 100",
      "StudyID": "2",
      "StudyTime": "103520.972000",
      "TransmitCoilName": "Body",
      "VariableFlipAngleFlag": "N",
      "WindowCenterWidthExplanation": "Algo1"
    },
    "slices": {}
  },
  "time": {
    "samples": {
      "AcquisitionNumber": [1, 2, 3, 4, 5, 6, 7, 8, 9, 10, 11, 12, 13, 14, 15, 16, 17, 18, 19, 20, 21, 22, 23, 24, 25, 26, 27, 28, 29, 30, 31, 32, 33, 34, 35, 36, 37, 38, 39, 40, 41, 42, 43, 44, 45, 46, 47, 48, 49, 50, 51, 52, 53, 54, 55, 56, 57, 58, 59, 60, 61, 62, 63, 64, 65, 66, 67, 68, 69, 70, 71, 72, 73, 74, 75, 76, 77, 78, 79, 80, 81, 82, 83, 84, 85, 86, 87, 88, 89, 90, 91, 92, 93, 94, 95, 96, 97, 98, 99, 100, 101, 102, 103, 104, 105, 106, 107, 108, 109, 110, 111, 112, 113, 114, 115, 116, 117, 118, 119, 120, 121, 122, 123, 124, 125, 126, 127, 128, 129, 130, 131, 132, 133, 134, 135, 136, 137, 138, 139, 140, 141, 142, 143, 144, 145, 146, 147, 148, 149, 150, 151, 152, 153, 154, 155, 156, 157, 158, 159, 160, 161, 162, 163, 164, 165, 166, 167, 168, 169, 170, 171, 172, 173, 174, 175, 176, 177, 178, 179, 180, 181, 182, 183, 184, 185, 186, 187, 188, 189, 190, 191, 192, 193, 194, 195, 196, 197, 198, 199, 200, 201, 202, 203, 204, 205, 206, 207, 208, 209, 210, 211, 212, 213, 214, 215, 216, 217, 218, 219, 220, 221, 222, 223, 224, 225, 226, 227, 228, 229, 230, 231, 232, 233, 234, 235, 236, 237, 238, 239, 240, 241, 242, 243, 244, 245, 246, 247, 248, 249, 250, 251, 252, 253, 254, 255, 256, 257, 258, 259, 260, 261, 262, 263, 264, 265, 266, 267, 268, 269, 270, 271, 272, 273, 274, 275, 276, 277, 278, 279, 280, 281, 282, 283, 284, 285, 286, 287, 288, 289, 290, 291, 292, 293, 294, 295, 296, 297, 298, 299, 300, 301, 302, 303, 304, 305, 306, 307, 308, 309, 310, 311, 312, 313, 314, 315, 316, 317, 318, 319, 320, 321, 322, 323, 324, 325, 326, 327, 328, 329, 330, 331, 332, 333, 334, 335, 336, 337, 338, 339, 340, 341, 342, 343, 344, 345, 346, 347, 348, 349, 350, 351, 352, 353, 354, 355, 356, 357, 358, 359, 360, 361, 362, 363, 364, 365, 366, 367, 368, 369, 370, 371, 372, 373, 374, 375, 376, 377, 378, 379, 380, 381, 382, 383, 384, 385, 386, 387, 388, 389, 390, 391, 392, 393, 394, 395, 396, 397, 398, 399, 400, 401, 402, 403, 404, 405, 406, 407, 408, 409, 410, 411, 412, 413, 414, 415, 416, 417, 418, 419, 420, 421, 422, 423, 424, 425, 426, 427, 428, 429, 430, 431, 432, 433, 434, 435, 436, 437, 438, 439, 440, 441, 442, 443, 444, 445, 446, 447, 448, 449, 450, 451, 452, 453, 454, 455, 456, 457, 458, 459, 460, 461, 462, 463, 464, 465, 466, 467, 468, 469, 470, 471, 472, 473, 474, 475, 476, 477, 478, 479, 480, 481, 482, 483, 484, 485, 486, 487, 488, 489, 490, 491, 492, 493, 494, 495, 496, 497, 498, 499, 500, 501, 502, 503, 504, 505, 506, 507, 508, 509, 510, 511, 512, 513, 514, 515, 516, 517, 518, 519, 520, 521, 522, 523, 524, 525, 526, 527, 528, 529, 530, 531, 532, 533, 534, 535, 536, 537, 538, 539, 540, 541, 542, 543, 544, 545, 546, 547, 548, 549, 550, 551, 552, 553, 554, 555, 556, 557, 558, 559, 560, 561, 562, 563, 564, 565, 566, 567, 568, 569, 570, 571, 572, 573, 574, 575, 576, 577, 578, 579, 580, 581, 582, 583, 584, 585, 586, 587, 588, 589, 590, 591, 592, 593, 594, 595, 596, 597, 598, 599, 600, 601, 602, 603, 604, 605, 606, 607, 608, 609, 610, 611, 612, 613, 614, 615, 616, 617, 618, 619, 620, 621, 622, 623, 624, 625, 626, 627, 628, 629, 630, 631, 632, 633, 634, 635, 636, 637, 638, 639, 640, 641, 642, 643, 644, 645, 646, 647, 648, 649, 650, 651, 652, 653, 654, 655, 656, 657, 658, 659, 660, 661, 662, 663, 664, 665, 666, 667, 668, 669, 670, 671, 672, 673, 674, 675, 676, 677, 678, 679, 680, 681, 682, 683, 684, 685, 686, 687, 688, 689, 690, 691, 692, 693, 694, 695, 696, 697, 698, 699, 700, 701, 702, 703, 704, 705, 706, 707, 708, 709, 710, 711, 712, 713, 714, 715, 716, 717, 718, 719, 720, 721, 722, 723, 724, 725, 726, 727, 728, 729, 730, 731, 732, 733, 734, 735, 736, 737, 738, 739, 740, 741, 742, 743, 744, 745, 746, 747, 748, 749, 750, 751, 752, 753, 754, 755, 756, 757, 758, 759, 760, 761, 762, 763, 764, 765, 766, 767, 768, 769, 770, 771, 772, 773, 774, 775, 776, 777, 778, 779, 780, 781, 782, 783, 784, 785, 786, 787, 788, 789, 790, 791, 792, 793, 794, 795, 796, 797, 798, 799, 800, 801, 802, 803, 804, 805, 806, 807, 808, 809, 810, 811, 812, 813, 814, 815, 816, 817, 818, 819, 820, 821, 822, 823, 824, 825, 826, 827, 828, 829, 830, 831, 832, 833, 834, 835, 836, 837, 838, 839, 840, 841, 842, 843, 844, 845, 846, 847, 848, 849, 850, 851, 852, 853, 854, 855, 856, 857, 858, 859, 860, 861, 862, 863, 864, 865, 866, 867, 868, 869, 870, 871, 872, 873, 874, 875, 876, 877, 878, 879, 880, 881, 882, 883, 884, 885, 886, 887, 888, 889, 890, 891, 892, 893, 894, 895, 896, 897, 898, 899, 900, 901, 902, 903, 904, 905, 906, 907, 908, 909, 910, 911, 912, 913, 914, 915, 916, 917, 918, 919, 920, 921, 922, 923, 924, 925, 926, 927, 928, 929, 930, 931, 932, 933, 934, 935, 936, 937, 938, 939, 940, 941, 942, 943, 944, 945, 946, 947, 948, 949, 950, 951, 952, 953, 954, 955, 956, 957, 958, 959, 960, 961, 962, 963, 964, 965, 966, 967],
      "AcquisitionTime": ["104547.687500", "104548.147500", "104548.607500", "104549.067500", "104549.527500", "104549.987500", "104550.447500", "104550.907500", "104551.367500", "104551.827500", "104552.287500", "104552.747500", "104553.207500", "104553.667500", "104554.127500", "104554.587500", "104555.047500", "104555.507500", "104555.967500", "104556.427500", "104556.887500", "104557.347500", "104557.807500", "104558.267500", "104558.727500", "104559.187500", "104559.647500", "104600.107500", "104600.567500", "104601.027500", "104601.487500", "104601.947500", "104602.407500", "104602.867500", "104603.327500", "104603.787500", "104604.247500", "104604.707500", "104605.167500", "104605.627500", "104606.087500", "104606.547500", "104607.007500", "104607.467500", "104607.927500", "104608.387500", "104608.847500", "104609.307500", "104609.767500", "104610.227500", "104610.687500", "104611.147500", "104611.607500", "104612.067500", "104612.527500", "104612.987500", "104613.447500", "104613.907500", "104614.367500", "104614.827500", "104615.287500", "104615.747500", "104616.207500", "104616.667500", "104617.127500", "104617.587500", "104618.047500", "104618.507500", "104618.967500", "104619.427500", "104619.887500", "104620.347500", "104620.807500", "104621.267500", "104621.727500", "104622.187500", "104622.647500", "104623.107500", "104623.567500", "104624.027500", "104624.487500", "104624.947500", "104625.407500", "104625.867500", "104626.327500", "104626.787500", "104627.247500", "104627.707500", "104628.167500", "104628.627500", "104629.087500", "104629.547500", "104630.007500", "104630.467500", "104630.927500", "104631.387500", "104631.847500", "104632.307500", "104632.767500", "104633.227500", "104633.687500", "104634.147500", "104634.607500", "104635.067500", "104635.527500", "104635.987500", "104636.447500", "104636.907500", "104637.367500", "104637.827500", "104638.287500", "104638.747500", "104639.207500", "104639.667500", "104640.127500", "104640.587500", "104641.047500", "104641.507500", "104641.967500", "104642.427500", "104642.887500", "104643.347500", "104643.807500", "104644.267500", "104644.727500", "104645.187500", "104645.647500", "104646.107500", "104646.567500", "104647.027500", "104647.487500", "104647.947500", "104648.407500", "104648.867500", "104649.327500", "104649.787500", "104650.247500", "104650.707500", "104651.167500", "104651.627500", "104652.087500", "104652.547500", "104653.007500", "104653.467500", "104653.927500", "104654.387500", "104654.847500", "104655.307500", "104655.767500", "104656.227500", "104656.687500", "104657.147500", "104657.607500", "104658.067500", "104658.527500", "104658.987500", "104659.447500", "104659.907500", "104700.367500", "104700.827500", "104701.287500", "104701.747500", "104702.207500", "104702.667500", "104703.127500", "104703.587500", "104704.047500", "104704.507500", "104704.967500", "104705.427500", "104705.887500", "104706.347500", "104706.807500", "104707.267500", "104707.727500", "104708.187500", "104708.647500", "104709.107500", "104709.567500", "104710.027500", "104710.487500", "104710.947500", "104711.407500", "104711.867500", "104712.327500", "104712.787500", "104713.247500", "104713.707500", "104714.167500", "104714.627500", "104715.087500", "104715.547500", "104716.007500", "104716.467500", "104716.927500", "104717.387500", "104717.847500", "104718.307500", "104718.767500", "104719.227500", "104719.687500", "104720.147500", "104720.607500", "104721.067500", "104721.527500", "104721.987500", "104722.447500", "104722.907500", "104723.367500", "104723.827500", "104724.287500", "104724.747500", "104725.207500", "104725.667500", "104726.127500", "104726.587500", "104727.047500", "104727.507500", "104727.967500", "104728.427500", "104728.887500", "104729.347500", "104729.807500", "104730.267500", "104730.727500", "104731.187500", "104731.647500", "104732.107500", "104732.567500", "104733.027500", "104733.487500", "104733.947500", "104734.407500", "104734.867500", "104735.327500", "104735.787500", "104736.247500", "104736.707500", "104737.167500", "104737.627500", "104738.087500", "104738.547500", "104739.007500", "104739.467500", "104739.927500", "104740.387500", "104740.847500", "104741.307500", "104741.767500", "104742.227500", "104742.687500", "104743.147500", "104743.607500", "104744.067500", "104744.527500", "104744.987500", "104745.447500", "104745.907500", "104746.367500", "104746.827500", "104747.287500", "104747.747500", "104748.207500", "104748.667500", "104749.127500", "104749.587500", "104750.047500", "104750.507500", "104750.967500", "104751.427500", "104751.887500", "104752.347500", "104752.807500", "104753.267500", "104753.727500", "104754.187500", "104754.647500", "104755.107500", "104755.567500", "104756.027500", "104756.487500", "104756.947500", "104757.407500", "104757.867500", "104758.327500", "104758.787500", "104759.247500", "104759.707500", "104800.167500", "104800.627500", "104801.087500", "104801.547500", "104802.007500", "104802.467500", "104802.927500", "104803.387500", "104803.847500", "104804.307500", "104804.767500", "104805.227500", "104805.687500", "104806.147500", "104806.607500", "104807.067500", "104807.527500", "104807.987500", "104808.447500", "104808.907500", "104809.367500", "104809.827500", "104810.287500", "104810.747500", "104811.207500", "104811.667500", "104812.127500", "104812.587500", "104813.047500", "104813.507500", "104813.967500", "104814.427500", "104814.887500", "104815.347500", "104815.807500", "104816.267500", "104816.727500", "104817.187500", "104817.647500", "104818.107500", "104818.567500", "104819.027500", "104819.487500", "104819.947500", "104820.407500", "104820.867500", "104821.327500", "104821.787500", "104822.247500", "104822.707500", "104823.167500", "104823.627500", "104824.087500", "104824.547500", "104825.007500", "104825.467500", "104825.927500", "104826.387500", "104826.847500", "104827.307500", "104827.767500", "104828.227500", "104828.687500", "104829.147500", "104829.607500", "104830.067500", "104830.527500", "104830.987500", "104831.447500", "104831.907500", "104832.367500", "104832.827500", "104833.287500", "104833.747500", "104834.207500", "104834.667500", "104835.127500", "104835.587500", "104836.047500", "104836.507500", "104836.967500", "104837.427500", "104837.887500", "104838.347500", "104838.807500", "104839.267500", "104839.727500", "104840.187500", "104840.647500", "104841.107500", "104841.567500", "104842.027500", "104842.487500", "104842.947500", "104843.407500", "104843.867500", "104844.327500", "104844.787500", "104845.247500", "104845.707500", "104846.167500", "104846.627500", "104847.087500", "104847.547500", "104848.007500", "104848.467500", "104848.927500", "104849.387500", "104849.847500", "104850.307500", "104850.767500", "104851.227500", "104851.687500", "104852.147500", "104852.607500", "104853.067500", "104853.527500", "104853.987500", "104854.447500", "104854.907500", "104855.367500", "104855.827500", "104856.287500", "104856.747500", "104857.207500", "104857.667500", "104858.127500", "104858.587500", "104859.047500", "104859.507500", "104859.967500", "104900.427500", "104900.887500", "104901.347500", "104901.807500", "104902.267500", "104902.727500", "104903.187500", "104903.647500", "104904.107500", "104904.567500", "104905.027500", "104905.487500", "104905.947500", "104906.407500", "104906.867500", "104907.327500", "104907.787500", "104908.247500", "104908.707500", "104909.167500", "104909.627500", "104910.087500", "104910.547500", "104911.007500", "104911.467500", "104911.927500", "104912.387500", "104912.847500", "104913.307500", "104913.767500", "104914.227500", "104914.687500", "104915.147500", "104915.607500", "104916.067500", "104916.527500", "104916.987500", "104917.447500", "104917.907500", "104918.367500", "104918.827500", "104919.287500", "104919.747500", "104920.207500", "104920.667500", "104921.127500", "104921.587500", "104922.047500", "104922.507500", "104922.967500", "104923.427500", "104923.887500", "104924.347500", "104924.807500", "104925.267500", "104925.727500", "104926.187500", "104926.647500", "104927.107500", "104927.567500", "104928.027500", "104928.487500", "104928.947500", "104929.407500", "104929.867500", "104930.327500", "104930.787500", "104931.247500", "104931.707500", "104932.167500", "104932.627500", "104933.087500", "104933.547500", "104934.007500", "104934.467500", "104934.927500", "104935.387500", "104935.847500", "104936.307500", "104936.767500", "104937.227500", "104937.687500", "104938.147500", "104938.607500", "104939.067500", "104939.527500", "104939.987500", "104940.447500", "104940.907500", "104941.367500", "104941.827500", "104942.287500", "104942.747500", "104943.207500", "104943.667500", "104944.127500", "104944.587500", "104945.047500", "104945.507500", "104945.967500", "104946.427500", "104946.887500", "104947.347500", "104947.807500", "104948.267500", "104948.727500", "104949.187500", "104949.647500", "104950.107500", "104950.567500", "104951.027500", "104951.487500", "104951.947500", "104952.407500", "104952.867500", "104953.327500", "104953.787500", "104954.247500", "104954.707500", "104955.167500", "104955.627500", "104956.087500", "104956.547500", "104957.007500", "104957.467500", "104957.927500", "104958.387500", "104958.847500", "104959.307500", "104959.767500", "105000.227500", "105000.687500", "105001.147500", "105001.607500", "105002.067500", "105002.527500", "105002.987500", "105003.447500", "105003.907500", "105004.367500", "105004.827500", "105005.287500", "105005.747500", "105006.207500", "105006.667500", "105007.127500", "105007.587500", "105008.047500", "105008.507500", "105008.967500", "105009.427500", "105009.887500", "105010.347500", "105010.807500", "105011.267500", "105011.727500", "105012.187500", "105012.647500", "105013.107500", "105013.567500", "105014.027500", "105014.487500", "105014.947500", "105015.407500", "105015.867500", "105016.327500", "105016.787500", "105017.247500", "105017.707500", "105018.167500", "105018.627500", "105019.087500", "105019.547500", "105020.007500", "105020.467500", "105020.927500", "105021.387500", "105021.847500", "105022.307500", "105022.767500", "105023.227500", "105023.687500", "105024.147500", "105024.607500", "105025.067500", "105025.527500", "105025.987500", "105026.447500", "105026.907500", "105027.367500", "105027.827500", "105028.287500", "105028.747500", "105029.207500", "105029.667500", "105030.127500", "105030.587500", "105031.047500", "105031.507500", "105031.967500", "105032.427500", "105032.887500", "105033.347500", "105033.807500", "105034.267500", "105034.727500", "105035.187500", "105035.647500", "105036.107500", "105036.567500", "105037.027500", "105037.487500", "105037.947500", "105038.407500", "105038.867500", "105039.327500", "105039.787500", "105040.247500", "105040.707500", "105041.167500", "105041.627500", "105042.087500", "105042.547500", "105043.007500", "105043.467500", "105043.927500", "105044.387500", "105044.847500", "105045.307500", "105045.767500", "105046.227500", "105046.687500", "105047.147500", "105047.607500", "105048.067500", "105048.527500", "105048.987500", "105049.447500", "105049.907500", "105050.367500", "105050.827500", "105051.287500", "105051.747500", "105052.207500", "105052.667500", "105053.127500", "105053.587500", "105054.047500", "105054.507500", "105054.967500", "105055.427500", "105055.887500", "105056.347500", "105056.807500", "105057.267500", "105057.727500", "105058.187500", "105058.647500", "105059.107500", "105059.567500", "105100.027500", "105100.487500", "105100.947500", "105101.407500", "105101.867500", "105102.327500", "105102.787500", "105103.247500", "105103.707500", "105104.167500", "105104.627500", "105105.087500", "105105.547500", "105106.007500", "105106.467500", "105106.927500", "105107.387500", "105107.847500", "105108.307500", "105108.767500", "105109.227500", "105109.687500", "105110.147500", "105110.607500", "105111.067500", "105111.527500", "105111.987500", "105112.447500", "105112.907500", "105113.367500", "105113.827500", "105114.287500", "105114.747500", "105115.207500", "105115.667500", "105116.127500", "105116.587500", "105117.047500", "105117.507500", "105117.967500", "105118.427500", "105118.887500", "105119.347500", "105119.807500", "105120.267500", "105120.727500", "105121.187500", "105121.647500", "105122.107500", "105122.567500", "105123.027500", "105123.487500", "105123.947500", "105124.407500", "105124.867500", "105125.327500", "105125.787500", "105126.247500", "105126.707500", "105127.167500", "105127.627500", "105128.087500", "105128.547500", "105129.007500", "105129.467500", "105129.927500", "105130.387500", "105130.847500", "105131.307500", "105131.767500", "105132.227500", "105132.687500", "105133.147500", "105133.607500", "105134.067500", "105134.527500", "105134.987500", "105135.447500", "105135.907500", "105136.367500", "105136.827500", "105137.287500", "105137.747500", "105138.207500", "105138.667500", "105139.127500", "105139.587500", "105140.047500", "105140.507500", "105140.967500", "105141.427500", "105141.887500", "105142.347500", "105142.807500", "105143.267500", "105143.727500", "105144.187500", "105144.647500", "105145.107500", "105145.567500", "105146.027500", "105146.487500", "105146.947500", "105147.407500", "105147.867500", "105148.327500", "105148.787500", "105149.247500", "105149.707500", "105150.167500", "105150.627500", "105151.087500", "105151.547500", "105152.007500", "105152.467500", "105152.927500", "105153.387500", "105153.847500", "105154.307500", "105154.767500", "105155.227500", "105155.687500", "105156.147500", "105156.607500", "105157.067500", "105157.527500", "105157.987500", "105158.447500", "105158.907500", "105159.367500", "105159.827500", "105200.287500", "105200.747500", "105201.207500", "105201.667500", "105202.127500", "105202.587500", "105203.047500", "105203.507500", "105203.967500", "105204.427500", "105204.887500", "105205.347500", "105205.807500", "105206.267500", "105206.727500", "105207.187500", "105207.647500", "105208.107500", "105208.567500", "105209.027500", "105209.487500", "105209.947500", "105210.407500", "105210.867500", "105211.327500", "105211.787500", "105212.247500", "105212.707500", "105213.167500", "105213.627500", "105214.087500", "105214.547500", "105215.007500", "105215.467500", "105215.927500", "105216.387500", "105216.847500", "105217.307500", "105217.767500", "105218.227500", "105218.687500", "105219.147500", "105219.607500", "105220.067500", "105220.527500", "105220.987500", "105221.447500", "105221.907500", "105222.367500", "105222.827500", "105223.287500", "105223.747500", "105224.207500", "105224.667500", "105225.127500", "105225.587500", "105226.047500", "105226.507500", "105226.967500", "105227.427500", "105227.887500", "105228.347500", "105228.807500", "105229.267500", "105229.727500", "105230.187500", "105230.647500", "105231.107500", "105231.567500", "105232.027500", "105232.487500", "105232.947500", "105233.407500", "105233.867500", "105234.327500", "105234.787500", "105235.247500", "105235.707500", "105236.167500", "105236.627500", "105237.087500", "105237.547500", "105238.007500", "105238.467500", "105238.927500", "105239.387500", "105239.847500", "105240.307500", "105240.767500", "105241.227500", "105241.687500", "105242.147500", "105242.607500", "105243.067500", "105243.527500", "105243.987500", "105244.447500", "105244.907500", "105245.367500", "105245.827500", "105246.287500", "105246.747500", "105247.207500", "105247.667500", "105248.127500", "105248.587500", "105249.047500", "105249.507500", "105249.967500", "105250.427500", "105250.887500", "105251.347500", "105251.807500", "105252.267500", "105252.727500", "105253.187500", "105253.647500", "105254.107500", "105254.567500", "105255.027500", "105255.487500", "105255.947500", "105256.407500", "105256.867500", "105257.327500", "105257.787500", "105258.247500", "105258.707500", "105259.167500", "105259.627500", "105300.087500", "105300.547500", "105301.007500", "105301.467500", "105301.927500", "105302.387500", "105302.847500", "105303.307500", "105303.767500", "105304.227500", "105304.687500", "105305.147500", "105305.607500", "105306.067500", "105306.527500", "105306.987500", "105307.447500", "105307.907500", "105308.367500", "105308.827500", "105309.287500", "105309.747500", "105310.207500", "105310.667500", "105311.127500", "105311.587500", "105312.047500"],
