{
  "AcquisitionMatrixPE": 82,
  "AcquisitionNumber": 1,
  "AcquisitionTime": "11:44:39.445000",
  "BandwidthPerPixelPhaseEncode": 24.888,
  "BaseResolution": 82,
  "BodyPartExamined": "BRAIN",
  "ConsistencyInfo": "N4_VE11E_LATEST_20181129",
  "ConversionSoftware": "dcm2niix",
  "ConversionSoftwareVersion": "v1.0.20201102",
  "DerivedVendorReportedEchoSpacing": 0.00049,
  "DeviceSerialNumber": "66112",
  "DwellTime": 2e-06,
  "EchoTime": 0.0272,
  "EchoTrainLength": 82,
  "EffectiveEchoSpacing": 0.00049,
  "FlipAngle": 44,
  "ImageComments": "Unaliased MB8/PE3",
  "ImageOrientationPatientDICOM": [0.997101, -0.00636226, -0.0758181, 0.00435068, 0.999635, -0.0266673],
  "ImageType": [
    "ORIGINAL",
    "PRIMARY",
    "M",
    "MB",
    "ND",
    "NORM",
    "MOSAIC"
],
  "ImagingFrequency": 123.252,
  "InPlanePhaseEncodingDirectionDICOM": "COL",
  "InstitutionAddress": "Maynard 3,Hanover,NH,US,03755",
  "InstitutionName": "Dartmouth College - PBS",
  "InstitutionalDepartmentName": "Department",
  "MRAcquisitionType": "2D",
  "MagneticFieldStrength": 3,
  "Manufacturer": "Siemens",
  "ManufacturersModelName": "Prisma",
  "Modality": "MR",
  "MultibandAccelerationFactor": 8,
  "PartialFourier": 1,
  "PatientPosition": "HFS",
  "PercentPhaseFOV": 100,
  "PercentSampling": 100,
  "PhaseEncodingDirection": "j-",
  "PhaseEncodingSteps": 82,
  "PhaseResolution": 1,
  "PixelBandwidth": 3050,
  "ProcedureStepDescription": "Wager_Wager^1076_spacetop",
  "ProtocolName": "func_run-03_task-faces_acq-ap-mb8",
  "PulseSequenceDetails": "%CustomerSeq%\\cmrr_mbep2d_bold",
  "ReceiveCoilActiveElements": "HEA;HEP",
  "ReceiveCoilName": "Head_32",
  "ReconMatrixPE": 82,
  "RepetitionTime": 0.46,
  "SAR": 0.0852519,
  "ScanOptions": "FS",
  "ScanningSequence": "EP",
  "SequenceName": "epfid2d1_82",
  "SequenceVariant": "SK\\SS",
  "SeriesDescription": "func_run-03_task-faces_acq-ap-mb8",
  "SeriesNumber": 20,
  "ShimSetting": [4133, -7721, -7266, 545, -60, -39, -100, 81],
  "SliceThickness": 2.7,
  "SliceTiming": [0, 0.2525, 0.065, 0.315, 0.1275, 0.3775, 0.19, 0, 0.2525, 0.065, 0.315, 0.1275, 0.3775, 0.19, 0, 0.2525, 0.065, 0.315, 0.1275, 0.3775, 0.19, 0, 0.2525, 0.065, 0.315, 0.1275, 0.3775, 0.19, 0, 0.2525, 0.065, 0.315, 0.1275, 0.3775, 0.19, 0, 0.2525, 0.065, 0.315, 0.1275, 0.3775, 0.19, 0, 0.2525, 0.065, 0.315, 0.1275, 0.3775, 0.19, 0, 0.2525, 0.065, 0.315, 0.1275, 0.3775, 0.19],
  "SoftwareVersions": "syngo MR E11",
  "SpacingBetweenSlices": 2.7,
  "StationName": "AWP66112",
  "TaskName": "faces",
  "TotalReadoutTime": 0.03969,
  "TxRefAmp": 250.339,
  "WipMemBlock": "506e48cc-a705-43e7-b294-cf5804f1e4ea||Sequence: R016 ve11e/master r/434b28f1; Aug  7 2019 18:53:46 by eja",
  "dcmmeta_affine": [
    [-2.675150156021118, 0.011672562919557095, -0.205092191696167, 113.85657501220703],
    [0.017069470137357712, 2.6819472312927246, -0.07090232521295547, -87.59136199951172],
    [-0.20341439545154572, 0.07154636085033417, 2.69126558303833, -66.59545135498047],
    [0.0, 0.0, 0.0, 1.0]
],
  "dcmmeta_reorient_transform": [
    [0.0, -1.0, 0.0, 81.0],
    [1.0, 0.0, 0.0, 0.0],
    [0.0, 0.0, 1.0, 0.0],
    [0.0, 0.0, 0.0, 1.0]
],
  "dcmmeta_shape": [82, 82, 56, 914],
  "dcmmeta_slice_dim": 2,
  "dcmmeta_version": 0.6,
  "global": {
    "const": {
      "AccessionNumber": "A003913",
      "AcquisitionMatrix": [82, 0, 0, 82],
      "AngioFlag": "N",
      "BitsAllocated": 16,
      "BitsStored": 16,
      "BodyPartExamined": "BRAIN",
      "Columns": 656,
      "EchoNumbers": 1,
      "EchoTime": 27.2,
      "EchoTrainLength": 82,
      "FlipAngle": 44.0,
      "HighBit": 15,
      "ImageOrientationPatient": [0.99710136852154, -0.0063622565611, -0.0758180887646, 0.00435068253195, 0.9996348972283, -0.0266672796675],
      "ImagePositionPatient": [-885.9201465713, -894.46632768351, 18.113540860282],
      "ImageType": [
        "ORIGINAL",
        "PRIMARY",
        "M",
        "MB",
        "ND",
        "NORM",
        "MOSAIC"
],
      "ImagedNucleus": "1H",
      "ImagingFrequency": 123.252229,
      "InPlanePhaseEncodingDirection": "COL",
      "MRAcquisitionType": "2D",
      "MagneticFieldStrength": 3.0,
      "Manufacturer": "SIEMENS",
      "ManufacturerModelName": "Prisma",
      "Modality": "MR",
      "NumberOfAverages": 1.0,
      "NumberOfPhaseEncodingSteps": 82,
      "PercentPhaseFieldOfView": 100.0,
      "PercentSampling": 100.0,
      "PerformedProcedureStepStartTime": "103521.133000",
      "PhotometricInterpretation": "MONOCHROME2",
      "PixelBandwidth": 3050.0,
      "PixelRepresentation": 0,
      "PixelSpacing": [2.6829268932343, 2.6829268932343],
      "ProtocolName": "func_run-03_task-faces_acq-ap-mb8",
      "RepetitionTime": 460.0,
      "Rows": 656,
      "SAR": 0.08525188969655,
      "SamplesPerPixel": 1,
      "ScanOptions": "FS",
      "ScanningSequence": "EP",
      "SequenceName": "epfid2d1_82",
      "SequenceVariant": [
        "SK",
        "SS"
],
      "SeriesDescription": "func_run-03_task-faces_acq-ap-mb8",
      "SeriesNumber": 20,
      "SeriesTime": "114453.663000",
      "SliceLocation": -72.72840764928,
      "SliceThickness": 2.7000000476837,
      "SmallestImagePixelValue": 0,
      "SoftwareVersions": "syngo MR E11",
      "SpacingBetweenSlices": 2.7000000795612,
      "SpecificCharacterSet": "ISO_IR 100",
      "StudyID": "2",
      "StudyTime": "103520.972000",
      "TransmitCoilName": "Body",
      "VariableFlipAngleFlag": "N",
      "WindowCenterWidthExplanation": "Algo1"
    },
    "slices": {}
  },
  "time": {
    "samples": {
      "AcquisitionNumber": [1, 2, 3, 4, 5, 6, 7, 8, 9, 10, 11, 12, 13, 14, 15, 16, 17, 18, 19, 20, 21, 22, 23, 24, 25, 26, 27, 28, 29, 30, 31, 32, 33, 34, 35, 36, 37, 38, 39, 40, 41, 42, 43, 44, 45, 46, 47, 48, 49, 50, 51, 52, 53, 54, 55, 56, 57, 58, 59, 60, 61, 62, 63, 64, 65, 66, 67, 68, 69, 70, 71, 72, 73, 74, 75, 76, 77, 78, 79, 80, 81, 82, 83, 84, 85, 86, 87, 88, 89, 90, 91, 92, 93, 94, 95, 96, 97, 98, 99, 100, 101, 102, 103, 104, 105, 106, 107, 108, 109, 110, 111, 112, 113, 114, 115, 116, 117, 118, 119, 120, 121, 122, 123, 124, 125, 126, 127, 128, 129, 130, 131, 132, 133, 134, 135, 136, 137, 138, 139, 140, 141, 142, 143, 144, 145, 146, 147, 148, 149, 150, 151, 152, 153, 154, 155, 156, 157, 158, 159, 160, 161, 162, 163, 164, 165, 166, 167, 168, 169, 170, 171, 172, 173, 174, 175, 176, 177, 178, 179, 180, 181, 182, 183, 184, 185, 186, 187, 188, 189, 190, 191, 192, 193, 194, 195, 196, 197, 198, 199, 200, 201, 202, 203, 204, 205, 206, 207, 208, 209, 210, 211, 212, 213, 214, 215, 216, 217, 218, 219, 220, 221, 222, 223, 224, 225, 226, 227, 228, 229, 230, 231, 232, 233, 234, 235, 236, 237, 238, 239, 240, 241, 242, 243, 244, 245, 246, 247, 248, 249, 250, 251, 252, 253, 254, 255, 256, 257, 258, 259, 260, 261, 262, 263, 264, 265, 266, 267, 268, 269, 270, 271, 272, 273, 274, 275, 276, 277, 278, 279, 280, 281, 282, 283, 284, 285, 286, 287, 288, 289, 290, 291, 292, 293, 294, 295, 296, 297, 298, 299, 300, 301, 302, 303, 304, 305, 306, 307, 308, 309, 310, 311, 312, 313, 314, 315, 316, 317, 318, 319, 320, 321, 322, 323, 324, 325, 326, 327, 328, 329, 330, 331, 332, 333, 334, 335, 336, 337, 338, 339, 340, 341, 342, 343, 344, 345, 346, 347, 348, 349, 350, 351, 352, 353, 354, 355, 356, 357, 358, 359, 360, 361, 362, 363, 364, 365, 366, 367, 368, 369, 370, 371, 372, 373, 374, 375, 376, 377, 378, 379, 380, 381, 382, 383, 384, 385, 386, 387, 388, 389, 390, 391, 392, 393, 394, 395, 396, 397, 398, 399, 400, 401, 402, 403, 404, 405, 406, 407, 408, 409, 410, 411, 412, 413, 414, 415, 416, 417, 418, 419, 420, 421, 422, 423, 424, 425, 426, 427, 428, 429, 430, 431, 432, 433, 434, 435, 436, 437, 438, 439, 440, 441, 442, 443, 444, 445, 446, 447, 448, 449, 450, 451, 452, 453, 454, 455, 456, 457, 458, 459, 460, 461, 462, 463, 464, 465, 466, 467, 468, 469, 470, 471, 472, 473, 474, 475, 476, 477, 478, 479, 480, 481, 482, 483, 484, 485, 486, 487, 488, 489, 490, 491, 492, 493, 494, 495, 496, 497, 498, 499, 500, 501, 502, 503, 504, 505, 506, 507, 508, 509, 510, 511, 512, 513, 514, 515, 516, 517, 518, 519, 520, 521, 522, 523, 524, 525, 526, 527, 528, 529, 530, 531, 532, 533, 534, 535, 536, 537, 538, 539, 540, 541, 542, 543, 544, 545, 546, 547, 548, 549, 550, 551, 552, 553, 554, 555, 556, 557, 558, 559, 560, 561, 562, 563, 564, 565, 566, 567, 568, 569, 570, 571, 572, 573, 574, 575, 576, 577, 578, 579, 580, 581, 582, 583, 584, 585, 586, 587, 588, 589, 590, 591, 592, 593, 594, 595, 596, 597, 598, 599, 600, 601, 602, 603, 604, 605, 606, 607, 608, 609, 610, 611, 612, 613, 614, 615, 616, 617, 618, 619, 620, 621, 622, 623, 624, 625, 626, 627, 628, 629, 630, 631, 632, 633, 634, 635, 636, 637, 638, 639, 640, 641, 642, 643, 644, 645, 646, 647, 648, 649, 650, 651, 652, 653, 654, 655, 656, 657, 658, 659, 660, 661, 662, 663, 664, 665, 666, 667, 668, 669, 670, 671, 672, 673, 674, 675, 676, 677, 678, 679, 680, 681, 682, 683, 684, 685, 686, 687, 688, 689, 690, 691, 692, 693, 694, 695, 696, 697, 698, 699, 700, 701, 702, 703, 704, 705, 706, 707, 708, 709, 710, 711, 712, 713, 714, 715, 716, 717, 718, 719, 720, 721, 722, 723, 724, 725, 726, 727, 728, 729, 730, 731, 732, 733, 734, 735, 736, 737, 738, 739, 740, 741, 742, 743, 744, 745, 746, 747, 748, 749, 750, 751, 752, 753, 754, 755, 756, 757, 758, 759, 760, 761, 762, 763, 764, 765, 766, 767, 768, 769, 770, 771, 772, 773, 774, 775, 776, 777, 778, 779, 780, 781, 782, 783, 784, 785, 786, 787, 788, 789, 790, 791, 792, 793, 794, 795, 796, 797, 798, 799, 800, 801, 802, 803, 804, 805, 806, 807, 808, 809, 810, 811, 812, 813, 814, 815, 816, 817, 818, 819, 820, 821, 822, 823, 824, 825, 826, 827, 828, 829, 830, 831, 832, 833, 834, 835, 836, 837, 838, 839, 840, 841, 842, 843, 844, 845, 846, 847, 848, 849, 850, 851, 852, 853, 854, 855, 856, 857, 858, 859, 860, 861, 862, 863, 864, 865, 866, 867, 868, 869, 870, 871, 872, 873, 874, 875, 876, 877, 878, 879, 880, 881, 882, 883, 884, 885, 886, 887, 888, 889, 890, 891, 892, 893, 894, 895, 896, 897, 898, 899, 900, 901, 902, 903, 904, 905, 906, 907, 908, 909, 910, 911, 912, 913, 914],
      "AcquisitionTime": ["114439.445000", "114439.905000", "114440.365000", "114440.825000", "114441.285000", "114441.745000", "114442.205000", "114442.665000", "114443.125000", "114443.585000", "114444.045000", "114444.505000", "114444.965000", "114445.425000", "114445.885000", "114446.345000", "114446.805000", "114447.265000", "114447.725000", "114448.185000", "114448.645000", "114449.105000", "114449.565000", "114450.025000", "114450.485000", "114450.945000", "114451.405000", "114451.865000", "114452.325000", "114452.785000", "114453.245000", "114453.705000", "114454.165000", "114454.625000", "114455.085000", "114455.545000", "114456.005000", "114456.465000", "114456.925000", "114457.385000", "114457.845000", "114458.305000", "114458.765000", "114459.225000", "114459.685000", "114500.145000", "114500.605000", "114501.065000", "114501.525000", "114501.985000", "114502.445000", "114502.905000", "114503.365000", "114503.825000", "114504.285000", "114504.745000", "114505.205000", "114505.665000", "114506.125000", "114506.585000", "114507.045000", "114507.505000", "114507.965000", "114508.425000", "114508.885000", "114509.345000", "114509.805000", "114510.265000", "114510.725000", "114511.185000", "114511.645000", "114512.105000", "114512.565000", "114513.025000", "114513.485000", "114513.945000", "114514.405000", "114514.865000", "114515.325000", "114515.785000", "114516.245000", "114516.705000", "114517.165000", "114517.625000", "114518.085000", "114518.545000", "114519.005000", "114519.465000", "114519.925000", "114520.385000", "114520.845000", "114521.305000", "114521.765000", "114522.225000", "114522.685000", "114523.145000", "114523.605000", "114524.065000", "114524.525000", "114524.985000", "114525.445000", "114525.905000", "114526.365000", "114526.825000", "114527.285000", "114527.745000", "114528.205000", "114528.665000", "114529.125000", "114529.585000", "114530.045000", "114530.505000", "114530.965000", "114531.425000", "114531.885000", "114532.345000", "114532.805000", "114533.265000", "114533.725000", "114534.185000", "114534.645000", "114535.105000", "114535.565000", "114536.025000", "114536.485000", "114536.945000", "114537.405000", "114537.865000", "114538.325000", "114538.785000", "114539.245000", "114539.705000", "114540.165000", "114540.625000", "114541.085000", "114541.545000", "114542.005000", "114542.465000", "114542.925000", "114543.385000", "114543.845000", "114544.305000", "114544.765000", "114545.225000", "114545.685000", "114546.145000", "114546.605000", "114547.065000", "114547.525000", "114547.985000", "114548.445000", "114548.905000", "114549.365000", "114549.825000", "114550.285000", "114550.745000", "114551.205000", "114551.665000", "114552.125000", "114552.585000", "114553.045000", "114553.505000", "114553.965000", "114554.425000", "114554.885000", "114555.345000", "114555.805000", "114556.265000", "114556.725000", "114557.185000", "114557.645000", "114558.105000", "114558.565000", "114559.025000", "114559.485000", "114559.945000", "114600.405000", "114600.865000", "114601.325000", "114601.785000", "114602.245000", "114602.705000", "114603.165000", "114603.625000", "114604.085000", "114604.545000", "114605.005000", "114605.465000", "114605.925000", "114606.385000", "114606.845000", "114607.305000", "114607.765000", "114608.225000", "114608.685000", "114609.145000", "114609.605000", "114610.065000", "114610.525000", "114610.985000", "114611.445000", "114611.905000", "114612.365000", "114612.825000", "114613.285000", "114613.745000", "114614.205000", "114614.665000", "114615.125000", "114615.585000", "114616.045000", "114616.505000", "114616.965000", "114617.425000", "114617.885000", "114618.345000", "114618.805000", "114619.265000", "114619.725000", "114620.185000", "114620.645000", "114621.105000", "114621.565000", "114622.025000", "114622.485000", "114622.945000", "114623.405000", "114623.865000", "114624.325000", "114624.785000", "114625.245000", "114625.705000", "114626.165000", "114626.625000", "114627.085000", "114627.545000", "114628.005000", "114628.465000", "114628.925000", "114629.385000", "114629.845000", "114630.305000", "114630.765000", "114631.225000", "114631.685000", "114632.145000", "114632.605000", "114633.065000", "114633.525000", "114633.985000", "114634.445000", "114634.905000", "114635.365000", "114635.825000", "114636.285000", "114636.745000", "114637.205000", "114637.665000", "114638.125000", "114638.585000", "114639.045000", "114639.505000", "114639.965000", "114640.425000", "114640.885000", "114641.345000", "114641.805000", "114642.265000", "114642.725000", "114643.185000", "114643.645000", "114644.105000", "114644.565000", "114645.025000", "114645.485000", "114645.945000", "114646.405000", "114646.865000", "114647.325000", "114647.785000", "114648.245000", "114648.705000", "114649.165000", "114649.625000", "114650.085000", "114650.545000", "114651.005000", "114651.465000", "114651.925000", "114652.385000", "114652.845000", "114653.305000", "114653.765000", "114654.225000", "114654.685000", "114655.145000", "114655.605000", "114656.065000", "114656.525000", "114656.985000", "114657.445000", "114657.905000", "114658.365000", "114658.825000", "114659.285000", "114659.745000", "114700.205000", "114700.665000", "114701.125000", "114701.585000", "114702.045000", "114702.505000", "114702.965000", "114703.425000", "114703.885000", "114704.345000", "114704.805000", "114705.265000", "114705.725000", "114706.185000", "114706.645000", "114707.105000", "114707.565000", "114708.025000", "114708.485000", "114708.945000", "114709.405000", "114709.865000", "114710.325000", "114710.785000", "114711.245000", "114711.705000", "114712.165000", "114712.625000", "114713.085000", "114713.545000", "114714.005000", "114714.465000", "114714.925000", "114715.385000", "114715.845000", "114716.305000", "114716.765000", "114717.225000", "114717.685000", "114718.145000", "114718.605000", "114719.065000", "114719.525000", "114719.985000", "114720.445000", "114720.905000", "114721.365000", "114721.825000", "114722.285000", "114722.745000", "114723.205000", "114723.665000", "114724.125000", "114724.585000", "114725.045000", "114725.505000", "114725.965000", "114726.425000", "114726.885000", "114727.345000", "114727.805000", "114728.265000", "114728.725000", "114729.185000", "114729.645000", "114730.105000", "114730.565000", "114731.025000", "114731.485000", "114731.945000", "114732.405000", "114732.865000", "114733.325000", "114733.785000", "114734.245000", "114734.705000", "114735.165000", "114735.625000", "114736.085000", "114736.545000", "114737.005000", "114737.465000", "114737.925000", "114738.385000", "114738.845000", "114739.305000", "114739.765000", "114740.225000", "114740.685000", "114741.145000", "114741.605000", "114742.065000", "114742.525000", "114742.985000", "114743.445000", "114743.905000", "114744.365000", "114744.825000", "114745.285000", "114745.745000", "114746.205000", "114746.665000", "114747.125000", "114747.585000", "114748.045000", "114748.505000", "114748.965000", "114749.425000", "114749.885000", "114750.345000", "114750.805000", "114751.265000", "114751.725000", "114752.185000", "114752.645000", "114753.105000", "114753.565000", "114754.025000", "114754.485000", "114754.945000", "114755.405000", "114755.865000", "114756.325000", "114756.785000", "114757.245000", "114757.705000", "114758.165000", "114758.625000", "114759.085000", "114759.545000", "114800.005000", "114800.465000", "114800.925000", "114801.385000", "114801.845000", "114802.305000", "114802.765000", "114803.225000", "114803.685000", "114804.145000", "114804.605000", "114805.065000", "114805.525000", "114805.985000", "114806.445000", "114806.905000", "114807.365000", "114807.825000", "114808.285000", "114808.745000", "114809.205000", "114809.665000", "114810.125000", "114810.585000", "114811.045000", "114811.505000", "114811.965000", "114812.425000", "114812.885000", "114813.345000", "114813.805000", "114814.265000", "114814.725000", "114815.185000", "114815.645000", "114816.105000", "114816.565000", "114817.025000", "114817.485000", "114817.945000", "114818.405000", "114818.865000", "114819.325000", "114819.785000", "114820.245000", "114820.705000", "114821.165000", "114821.625000", "114822.085000", "114822.545000", "114823.005000", "114823.465000", "114823.925000", "114824.385000", "114824.845000", "114825.305000", "114825.765000", "114826.225000", "114826.685000", "114827.145000", "114827.605000", "114828.065000", "114828.525000", "114828.985000", "114829.445000", "114829.905000", "114830.365000", "114830.825000", "114831.285000", "114831.745000", "114832.205000", "114832.665000", "114833.125000", "114833.585000", "114834.045000", "114834.505000", "114834.965000", "114835.425000", "114835.885000", "114836.345000", "114836.805000", "114837.265000", "114837.725000", "114838.185000", "114838.645000", "114839.105000", "114839.565000", "114840.025000", "114840.485000", "114840.945000", "114841.405000", "114841.865000", "114842.325000", "114842.785000", "114843.245000", "114843.705000", "114844.165000", "114844.625000", "114845.085000", "114845.545000", "114846.005000", "114846.465000", "114846.925000", "114847.385000", "114847.845000", "114848.305000", "114848.765000", "114849.225000", "114849.685000", "114850.145000", "114850.605000", "114851.065000", "114851.525000", "114851.985000", "114852.445000", "114852.905000", "114853.365000", "114853.825000", "114854.285000", "114854.745000", "114855.205000", "114855.665000", "114856.125000", "114856.585000", "114857.045000", "114857.505000", "114857.965000", "114858.425000", "114858.885000", "114859.345000", "114859.805000", "114900.265000", "114900.725000", "114901.185000", "114901.645000", "114902.105000", "114902.565000", "114903.025000", "114903.485000", "114903.945000", "114904.405000", "114904.865000", "114905.325000", "114905.785000", "114906.245000", "114906.705000", "114907.165000", "114907.625000", "114908.085000", "114908.545000", "114909.005000", "114909.465000", "114909.925000", "114910.385000", "114910.845000", "114911.305000", "114911.765000", "114912.225000", "114912.685000", "114913.145000", "114913.605000", "114914.065000", "114914.525000", "114914.985000", "114915.445000", "114915.905000", "114916.365000", "114916.825000", "114917.285000", "114917.745000", "114918.205000", "114918.665000", "114919.125000", "114919.585000", "114920.045000", "114920.505000", "114920.965000", "114921.425000", "114921.885000", "114922.345000", "114922.805000", "114923.265000", "114923.725000", "114924.185000", "114924.645000", "114925.105000", "114925.565000", "114926.025000", "114926.485000", "114926.945000", "114927.405000", "114927.865000", "114928.325000", "114928.785000", "114929.245000", "114929.705000", "114930.165000", "114930.625000", "114931.085000", "114931.545000", "114932.005000", "114932.465000", "114932.925000", "114933.385000", "114933.845000", "114934.305000", "114934.765000", "114935.225000", "114935.685000", "114936.145000", "114936.605000", "114937.065000", "114937.525000", "114937.985000", "114938.445000", "114938.905000", "114939.365000", "114939.825000", "114940.285000", "114940.745000", "114941.205000", "114941.665000", "114942.125000", "114942.585000", "114943.045000", "114943.505000", "114943.965000", "114944.425000", "114944.885000", "114945.345000", "114945.805000", "114946.265000", "114946.725000", "114947.185000", "114947.645000", "114948.105000", "114948.565000", "114949.025000", "114949.485000", "114949.945000", "114950.405000", "114950.865000", "114951.325000", "114951.785000", "114952.245000", "114952.705000", "114953.165000", "114953.625000", "114954.085000", "114954.545000", "114955.005000", "114955.465000", "114955.925000", "114956.385000", "114956.845000", "114957.305000", "114957.765000", "114958.225000", "114958.685000", "114959.145000", "114959.605000", "115000.065000", "115000.525000", "115000.985000", "115001.445000", "115001.905000", "115002.365000", "115002.825000", "115003.285000", "115003.745000", "115004.205000", "115004.665000", "115005.125000", "115005.585000", "115006.045000", "115006.505000", "115006.965000", "115007.425000", "115007.885000", "115008.345000", "115008.805000", "115009.265000", "115009.725000", "115010.185000", "115010.645000", "115011.105000", "115011.565000", "115012.025000", "115012.485000", "115012.945000", "115013.405000", "115013.865000", "115014.325000", "115014.785000", "115015.245000", "115015.705000", "115016.165000", "115016.625000", "115017.085000", "115017.545000", "115018.005000", "115018.465000", "115018.925000", "115019.385000", "115019.845000", "115020.305000", "115020.765000", "115021.225000", "115021.685000", "115022.145000", "115022.605000", "115023.065000", "115023.525000", "115023.985000", "115024.445000", "115024.905000", "115025.365000", "115025.825000", "115026.285000", "115026.745000", "115027.205000", "115027.665000", "115028.125000", "115028.585000", "115029.045000", "115029.505000", "115029.965000", "115030.425000", "115030.885000", "115031.345000", "115031.805000", "115032.265000", "115032.725000", "115033.185000", "115033.645000", "115034.105000", "115034.565000", "115035.025000", "115035.485000", "115035.945000", "115036.405000", "115036.865000", "115037.325000", "115037.785000", "115038.245000", "115038.705000", "115039.165000", "115039.625000", "115040.085000", "115040.545000", "115041.005000", "115041.465000", "115041.925000", "115042.385000", "115042.845000", "115043.305000", "115043.765000", "115044.225000", "115044.685000", "115045.145000", "115045.605000", "115046.065000", "115046.525000", "115046.985000", "115047.445000", "115047.905000", "115048.365000", "115048.825000", "115049.285000", "115049.745000", "115050.205000", "115050.665000", "115051.125000", "115051.585000", "115052.045000", "115052.505000", "115052.965000", "115053.425000", "115053.885000", "115054.345000", "115054.805000", "115055.265000", "115055.725000", "115056.185000", "115056.645000", "115057.105000", "115057.565000", "115058.025000", "115058.485000", "115058.945000", "115059.405000", "115059.865000", "115100.325000", "115100.785000", "115101.245000", "115101.705000", "115102.165000", "115102.625000", "115103.085000", "115103.545000", "115104.005000", "115104.465000", "115104.925000", "115105.385000", "115105.845000", "115106.305000", "115106.765000", "115107.225000", "115107.685000", "115108.145000", "115108.605000", "115109.065000", "115109.525000", "115109.985000", "115110.445000", "115110.905000", "115111.365000", "115111.825000", "115112.285000", "115112.745000", "115113.205000", "115113.665000", "115114.125000", "115114.585000", "115115.045000", "115115.505000", "115115.965000", "115116.425000", "115116.885000", "115117.345000", "115117.805000", "115118.265000", "115118.725000", "115119.185000", "115119.645000", "115120.105000", "115120.565000", "115121.025000", "115121.485000", "115121.945000", "115122.405000", "115122.865000", "115123.325000", "115123.785000", "115124.245000", "115124.705000", "115125.165000", "115125.625000", "115126.085000", "115126.545000", "115127.005000", "115127.465000", "115127.925000", "115128.385000", "115128.845000", "115129.305000", "115129.765000", "115130.225000", "115130.685000", "115131.145000", "115131.605000", "115132.065000", "115132.525000", "115132.985000", "115133.445000", "115133.905000", "115134.365000", "115134.825000", "115135.285000", "115135.745000", "115136.205000", "115136.665000", "115137.125000", "115137.585000", "115138.045000", "115138.505000", "115138.965000", "115139.425000"],
