{
  "AcquisitionMatrixPE": 82,
  "AcquisitionNumber": 1,
  "AcquisitionTime": "12:25:10.940000",
  "BandwidthPerPixelPhaseEncode": 24.888,
  "BaseResolution": 82,
  "BodyPartExamined": "BRAIN",
  "ConsistencyInfo": "N4_VE11E_LATEST_20181129",
  "ConversionSoftware": "dcm2niix",
  "ConversionSoftwareVersion": "v1.0.20201102",
  "DerivedVendorReportedEchoSpacing": 0.00049,
  "DeviceSerialNumber": "66112",
  "DwellTime": 2e-06,
  "EchoTime": 0.0272,
  "EchoTrainLength": 82,
  "EffectiveEchoSpacing": 0.00049,
  "FlipAngle": 44,
  "ImageComments": "Unaliased MB8/PE3",
  "ImageOrientationPatientDICOM": [0.995513, -0.00191195, -0.0946104, -0.00399621, 0.998055, -0.0622184],
  "ImageType": [
    "ORIGINAL",
    "PRIMARY",
    "M",
    "MB",
    "ND",
    "NORM",
    "MOSAIC"
],
  "ImagingFrequency": 123.252,
  "InPlanePhaseEncodingDirectionDICOM": "COL",
  "InstitutionAddress": "Maynard 3,Hanover,NH,US,03755",
  "InstitutionName": "Dartmouth College - PBS",
  "InstitutionalDepartmentName": "Department",
  "MRAcquisitionType": "2D",
  "MagneticFieldStrength": 3,
  "Manufacturer": "Siemens",
  "ManufacturersModelName": "Prisma",
  "Modality": "MR",
  "MultibandAccelerationFactor": 8,
  "PartialFourier": 1,
  "PatientPosition": "HFS",
  "PercentPhaseFOV": 100,
  "PercentSampling": 100,
  "PhaseEncodingDirection": "j-",
  "PhaseEncodingSteps": 82,
  "PhaseResolution": 1,
  "PixelBandwidth": 3050,
  "ProcedureStepDescription": "Wager_Wager^1076_spacetop",
  "ProtocolName": "func_run-04_task-alignvideo_acq-ap-mb8",
  "PulseSequenceDetails": "%CustomerSeq%\\cmrr_mbep2d_bold",
  "ReceiveCoilActiveElements": "HEA;HEP",
  "ReceiveCoilName": "Head_32",
  "ReconMatrixPE": 82,
  "RepetitionTime": 0.46,
  "SAR": 0.0852519,
  "ScanOptions": "FS",
  "ScanningSequence": "EP",
  "SequenceName": "epfid2d1_82",
  "SequenceVariant": "SK\\SS",
  "SeriesDescription": "func_run-04_task-alignvideo_acq-ap-mb8",
  "SeriesNumber": 34,
  "ShimSetting": [4132, -7721, -7264, 552, -63, -37, -99, 79],
  "SliceThickness": 2.7,
  "SliceTiming": [0, 0.25, 0.0625, 0.3125, 0.125, 0.375, 0.1875, 0, 0.25, 0.0625, 0.3125, 0.125, 0.375, 0.1875, 0, 0.25, 0.0625, 0.3125, 0.125, 0.375, 0.1875, 0, 0.25, 0.0625, 0.3125, 0.125, 0.375, 0.1875, 0, 0.25, 0.0625, 0.3125, 0.125, 0.375, 0.1875, 0, 0.25, 0.0625, 0.3125, 0.125, 0.375, 0.1875, 0, 0.25, 0.0625, 0.3125, 0.125, 0.375, 0.1875, 0, 0.25, 0.0625, 0.3125, 0.125, 0.375, 0.1875],
  "SoftwareVersions": "syngo MR E11",
  "SpacingBetweenSlices": 2.7,
  "StationName": "AWP66112",
  "TaskName": "alignvideo",
  "TotalReadoutTime": 0.03969,
  "TxRefAmp": 250.339,
  "WipMemBlock": "c56969a0-bc4a-48e2-b400-4e178013e93e||Sequence: R016 ve11e/master r/434b28f1; Aug  7 2019 18:53:46 by eja",
  "dcmmeta_affine": [
    [-2.6708874702453613, -0.010721537284553051, -0.25527238845825195, 115.69024658203125],
    [0.005129625089466572, 2.6777074337005615, -0.16825661063194275, -85.06424713134766],
    [-0.2538328468799591, 0.16692738234996796, 2.682634115219116, -66.99829864501953],
    [0.0, 0.0, 0.0, 1.0]
],
  "dcmmeta_reorient_transform": [
    [0.0, -1.0, 0.0, 81.0],
    [1.0, 0.0, 0.0, 0.0],
    [0.0, 0.0, 1.0, 0.0],
    [0.0, 0.0, 0.0, 1.0]
],
  "dcmmeta_shape": [82, 82, 56, 914],
  "dcmmeta_slice_dim": 2,
  "dcmmeta_version": 0.6,
  "global": {
    "const": {
      "AccessionNumber": "A003913",
      "AcquisitionMatrix": [82, 0, 0, 82],
      "AngioFlag": "N",
      "BitsAllocated": 16,
      "BitsStored": 16,
      "BodyPartExamined": "BRAIN",
      "Columns": 656,
      "EchoNumbers": 1,
      "EchoTime": 27.2,
      "EchoTrainLength": 82,
      "FlipAngle": 44.0,
      "HighBit": 15,
      "ImageOrientationPatient": [0.99551253704573, -0.0019119511959, -0.0946104276885, -0.0039962091364, 0.99805455914328, -0.0622183838254],
      "ImagePositionPatient": [-878.28939233856, -898.85987799993, 67.281009644336],
      "ImageType": [
        "ORIGINAL",
        "PRIMARY",
        "M",
        "MB",
        "ND",
        "NORM",
        "MOSAIC"
],
      "ImagedNucleus": "1H",
      "ImagingFrequency": 123.252227,
      "InPlanePhaseEncodingDirection": "COL",
      "MRAcquisitionType": "2D",
      "MagneticFieldStrength": 3.0,
      "Manufacturer": "SIEMENS",
      "ManufacturerModelName": "Prisma",
      "Modality": "MR",
      "NumberOfAverages": 1.0,
      "NumberOfPhaseEncodingSteps": 82,
      "PercentPhaseFieldOfView": 100.0,
      "PercentSampling": 100.0,
      "PerformedProcedureStepStartTime": "103521.133000",
      "PhotometricInterpretation": "MONOCHROME2",
      "PixelBandwidth": 3050.0,
      "PixelRepresentation": 0,
      "PixelSpacing": [2.6829268932343, 2.6829268932343],
      "ProtocolName": "func_run-04_task-alignvideo_acq-ap-mb8",
      "RepetitionTime": 460.0,
      "Rows": 656,
      "SAR": 0.08525188969655,
      "SamplesPerPixel": 1,
      "ScanOptions": "FS",
      "ScanningSequence": "EP",
      "SequenceName": "epfid2d1_82",
      "SequenceVariant": [
        "SK",
        "SS"
],
      "SeriesDescription": "func_run-04_task-alignvideo_acq-ap-mb8",
      "SeriesNumber": 34,
      "SeriesTime": "122533.764000",
      "SliceLocation": -72.204375783636,
      "SliceThickness": 2.7000000476837,
      "SmallestImagePixelValue": 0,
      "SoftwareVersions": "syngo MR E11",
      "SpacingBetweenSlices": 2.7000000094904,
      "SpecificCharacterSet": "ISO_IR 100",
      "StudyID": "2",
      "StudyTime": "103520.972000",
      "TransmitCoilName": "Body",
      "VariableFlipAngleFlag": "N",
      "WindowCenterWidthExplanation": "Algo1"
    },
    "slices": {}
  },
  "time": {
    "samples": {
      "AcquisitionNumber": [1, 2, 3, 4, 5, 6, 7, 8, 9, 10, 11, 12, 13, 14, 15, 16, 17, 18, 19, 20, 21, 22, 23, 24, 25, 26, 27, 28, 29, 30, 31, 32, 33, 34, 35, 36, 37, 38, 39, 40, 41, 42, 43, 44, 45, 46, 47, 48, 49, 50, 51, 52, 53, 54, 55, 56, 57, 58, 59, 60, 61, 62, 63, 64, 65, 66, 67, 68, 69, 70, 71, 72, 73, 74, 75, 76, 77, 78, 79, 80, 81, 82, 83, 84, 85, 86, 87, 88, 89, 90, 91, 92, 93, 94, 95, 96, 97, 98, 99, 100, 101, 102, 103, 104, 105, 106, 107, 108, 109, 110, 111, 112, 113, 114, 115, 116, 117, 118, 119, 120, 121, 122, 123, 124, 125, 126, 127, 128, 129, 130, 131, 132, 133, 134, 135, 136, 137, 138, 139, 140, 141, 142, 143, 144, 145, 146, 147, 148, 149, 150, 151, 152, 153, 154, 155, 156, 157, 158, 159, 160, 161, 162, 163, 164, 165, 166, 167, 168, 169, 170, 171, 172, 173, 174, 175, 176, 177, 178, 179, 180, 181, 182, 183, 184, 185, 186, 187, 188, 189, 190, 191, 192, 193, 194, 195, 196, 197, 198, 199, 200, 201, 202, 203, 204, 205, 206, 207, 208, 209, 210, 211, 212, 213, 214, 215, 216, 217, 218, 219, 220, 221, 222, 223, 224, 225, 226, 227, 228, 229, 230, 231, 232, 233, 234, 235, 236, 237, 238, 239, 240, 241, 242, 243, 244, 245, 246, 247, 248, 249, 250, 251, 252, 253, 254, 255, 256, 257, 258, 259, 260, 261, 262, 263, 264, 265, 266, 267, 268, 269, 270, 271, 272, 273, 274, 275, 276, 277, 278, 279, 280, 281, 282, 283, 284, 285, 286, 287, 288, 289, 290, 291, 292, 293, 294, 295, 296, 297, 298, 299, 300, 301, 302, 303, 304, 305, 306, 307, 308, 309, 310, 311, 312, 313, 314, 315, 316, 317, 318, 319, 320, 321, 322, 323, 324, 325, 326, 327, 328, 329, 330, 331, 332, 333, 334, 335, 336, 337, 338, 339, 340, 341, 342, 343, 344, 345, 346, 347, 348, 349, 350, 351, 352, 353, 354, 355, 356, 357, 358, 359, 360, 361, 362, 363, 364, 365, 366, 367, 368, 369, 370, 371, 372, 373, 374, 375, 376, 377, 378, 379, 380, 381, 382, 383, 384, 385, 386, 387, 388, 389, 390, 391, 392, 393, 394, 395, 396, 397, 398, 399, 400, 401, 402, 403, 404, 405, 406, 407, 408, 409, 410, 411, 412, 413, 414, 415, 416, 417, 418, 419, 420, 421, 422, 423, 424, 425, 426, 427, 428, 429, 430, 431, 432, 433, 434, 435, 436, 437, 438, 439, 440, 441, 442, 443, 444, 445, 446, 447, 448, 449, 450, 451, 452, 453, 454, 455, 456, 457, 458, 459, 460, 461, 462, 463, 464, 465, 466, 467, 468, 469, 470, 471, 472, 473, 474, 475, 476, 477, 478, 479, 480, 481, 482, 483, 484, 485, 486, 487, 488, 489, 490, 491, 492, 493, 494, 495, 496, 497, 498, 499, 500, 501, 502, 503, 504, 505, 506, 507, 508, 509, 510, 511, 512, 513, 514, 515, 516, 517, 518, 519, 520, 521, 522, 523, 524, 525, 526, 527, 528, 529, 530, 531, 532, 533, 534, 535, 536, 537, 538, 539, 540, 541, 542, 543, 544, 545, 546, 547, 548, 549, 550, 551, 552, 553, 554, 555, 556, 557, 558, 559, 560, 561, 562, 563, 564, 565, 566, 567, 568, 569, 570, 571, 572, 573, 574, 575, 576, 577, 578, 579, 580, 581, 582, 583, 584, 585, 586, 587, 588, 589, 590, 591, 592, 593, 594, 595, 596, 597, 598, 599, 600, 601, 602, 603, 604, 605, 606, 607, 608, 609, 610, 611, 612, 613, 614, 615, 616, 617, 618, 619, 620, 621, 622, 623, 624, 625, 626, 627, 628, 629, 630, 631, 632, 633, 634, 635, 636, 637, 638, 639, 640, 641, 642, 643, 644, 645, 646, 647, 648, 649, 650, 651, 652, 653, 654, 655, 656, 657, 658, 659, 660, 661, 662, 663, 664, 665, 666, 667, 668, 669, 670, 671, 672, 673, 674, 675, 676, 677, 678, 679, 680, 681, 682, 683, 684, 685, 686, 687, 688, 689, 690, 691, 692, 693, 694, 695, 696, 697, 698, 699, 700, 701, 702, 703, 704, 705, 706, 707, 708, 709, 710, 711, 712, 713, 714, 715, 716, 717, 718, 719, 720, 721, 722, 723, 724, 725, 726, 727, 728, 729, 730, 731, 732, 733, 734, 735, 736, 737, 738, 739, 740, 741, 742, 743, 744, 745, 746, 747, 748, 749, 750, 751, 752, 753, 754, 755, 756, 757, 758, 759, 760, 761, 762, 763, 764, 765, 766, 767, 768, 769, 770, 771, 772, 773, 774, 775, 776, 777, 778, 779, 780, 781, 782, 783, 784, 785, 786, 787, 788, 789, 790, 791, 792, 793, 794, 795, 796, 797, 798, 799, 800, 801, 802, 803, 804, 805, 806, 807, 808, 809, 810, 811, 812, 813, 814, 815, 816, 817, 818, 819, 820, 821, 822, 823, 824, 825, 826, 827, 828, 829, 830, 831, 832, 833, 834, 835, 836, 837, 838, 839, 840, 841, 842, 843, 844, 845, 846, 847, 848, 849, 850, 851, 852, 853, 854, 855, 856, 857, 858, 859, 860, 861, 862, 863, 864, 865, 866, 867, 868, 869, 870, 871, 872, 873, 874, 875, 876, 877, 878, 879, 880, 881, 882, 883, 884, 885, 886, 887, 888, 889, 890, 891, 892, 893, 894, 895, 896, 897, 898, 899, 900, 901, 902, 903, 904, 905, 906, 907, 908, 909, 910, 911, 912, 913, 914],
      "AcquisitionTime": ["122510.940000", "122511.400000", "122511.860000", "122512.320000", "122512.780000", "122513.240000", "122513.700000", "122514.160000", "122514.620000", "122515.080000", "122515.540000", "122516.000000", "122516.460000", "122516.920000", "122517.380000", "122517.840000", "122518.300000", "122518.760000", "122519.220000", "122519.680000", "122520.140000", "122520.600000", "122521.060000", "122521.520000", "122521.980000", "122522.440000", "122522.900000", "122523.360000", "122523.820000", "122524.280000", "122524.740000", "122525.200000", "122525.660000", "122526.120000", "122526.580000", "122527.040000", "122527.500000", "122527.960000", "122528.420000", "122528.880000", "122529.340000", "122529.800000", "122530.260000", "122530.720000", "122531.180000", "122531.640000", "122532.100000", "122532.560000", "122533.020000", "122533.480000", "122533.940000", "122534.400000", "122534.860000", "122535.320000", "122535.780000", "122536.240000", "122536.700000", "122537.160000", "122537.620000", "122538.080000", "122538.540000", "122539.000000", "122539.460000", "122539.920000", "122540.380000", "122540.840000", "122541.300000", "122541.760000", "122542.220000", "122542.680000", "122543.140000", "122543.600000", "122544.060000", "122544.520000", "122544.980000", "122545.440000", "122545.900000", "122546.360000", "122546.820000", "122547.280000", "122547.740000", "122548.200000", "122548.660000", "122549.120000", "122549.580000", "122550.040000", "122550.500000", "122550.960000", "122551.420000", "122551.880000", "122552.340000", "122552.800000", "122553.260000", "122553.720000", "122554.180000", "122554.640000", "122555.100000", "122555.560000", "122556.020000", "122556.480000", "122556.940000", "122557.400000", "122557.860000", "122558.320000", "122558.780000", "122559.240000", "122559.700000", "122600.160000", "122600.620000", "122601.080000", "122601.540000", "122602.000000", "122602.460000", "122602.920000", "122603.380000", "122603.840000", "122604.300000", "122604.760000", "122605.220000", "122605.680000", "122606.140000", "122606.600000", "122607.060000", "122607.520000", "122607.980000", "122608.440000", "122608.900000", "122609.360000", "122609.820000", "122610.280000", "122610.740000", "122611.200000", "122611.660000", "122612.120000", "122612.580000", "122613.040000", "122613.500000", "122613.960000", "122614.420000", "122614.880000", "122615.340000", "122615.800000", "122616.260000", "122616.720000", "122617.180000", "122617.640000", "122618.100000", "122618.560000", "122619.020000", "122619.480000", "122619.940000", "122620.400000", "122620.860000", "122621.320000", "122621.780000", "122622.240000", "122622.700000", "122623.160000", "122623.620000", "122624.080000", "122624.540000", "122625.000000", "122625.460000", "122625.920000", "122626.380000", "122626.840000", "122627.300000", "122627.760000", "122628.220000", "122628.680000", "122629.140000", "122629.600000", "122630.060000", "122630.520000", "122630.980000", "122631.440000", "122631.900000", "122632.360000", "122632.820000", "122633.280000", "122633.740000", "122634.200000", "122634.660000", "122635.120000", "122635.580000", "122636.040000", "122636.500000", "122636.960000", "122637.420000", "122637.880000", "122638.340000", "122638.800000", "122639.260000", "122639.720000", "122640.180000", "122640.640000", "122641.100000", "122641.560000", "122642.020000", "122642.480000", "122642.940000", "122643.400000", "122643.860000", "122644.320000", "122644.780000", "122645.240000", "122645.700000", "122646.160000", "122646.620000", "122647.080000", "122647.540000", "122648.000000", "122648.460000", "122648.920000", "122649.380000", "122649.840000", "122650.300000", "122650.760000", "122651.220000", "122651.680000", "122652.140000", "122652.600000", "122653.060000", "122653.520000", "122653.980000", "122654.440000", "122654.900000", "122655.360000", "122655.820000", "122656.280000", "122656.740000", "122657.200000", "122657.660000", "122658.120000", "122658.580000", "122659.040000", "122659.500000", "122659.960000", "122700.420000", "122700.880000", "122701.340000", "122701.800000", "122702.260000", "122702.720000", "122703.180000", "122703.640000", "122704.100000", "122704.560000", "122705.020000", "122705.480000", "122705.940000", "122706.400000", "122706.860000", "122707.320000", "122707.780000", "122708.240000", "122708.700000", "122709.160000", "122709.620000", "122710.080000", "122710.540000", "122711.000000", "122711.460000", "122711.920000", "122712.380000", "122712.840000", "122713.300000", "122713.760000", "122714.220000", "122714.680000", "122715.140000", "122715.600000", "122716.060000", "122716.520000", "122716.980000", "122717.440000", "122717.900000", "122718.360000", "122718.820000", "122719.280000", "122719.740000", "122720.200000", "122720.660000", "122721.120000", "122721.580000", "122722.040000", "122722.500000", "122722.960000", "122723.420000", "122723.880000", "122724.340000", "122724.800000", "122725.260000", "122725.720000", "122726.180000", "122726.640000", "122727.100000", "122727.560000", "122728.020000", "122728.480000", "122728.940000", "122729.400000", "122729.860000", "122730.320000", "122730.780000", "122731.240000", "122731.700000", "122732.160000", "122732.620000", "122733.080000", "122733.540000", "122734.000000", "122734.460000", "122734.920000", "122735.380000", "122735.840000", "122736.300000", "122736.760000", "122737.220000", "122737.680000", "122738.140000", "122738.600000", "122739.060000", "122739.520000", "122739.980000", "122740.440000", "122740.900000", "122741.360000", "122741.820000", "122742.280000", "122742.740000", "122743.200000", "122743.660000", "122744.120000", "122744.580000", "122745.040000", "122745.500000", "122745.960000", "122746.420000", "122746.880000", "122747.340000", "122747.800000", "122748.260000", "122748.720000", "122749.180000", "122749.640000", "122750.100000", "122750.560000", "122751.020000", "122751.480000", "122751.940000", "122752.400000", "122752.860000", "122753.320000", "122753.780000", "122754.240000", "122754.700000", "122755.160000", "122755.620000", "122756.080000", "122756.540000", "122757.000000", "122757.460000", "122757.920000", "122758.380000", "122758.840000", "122759.300000", "122759.760000", "122800.220000", "122800.680000", "122801.140000", "122801.600000", "122802.060000", "122802.520000", "122802.980000", "122803.440000", "122803.900000", "122804.360000", "122804.820000", "122805.280000", "122805.740000", "122806.200000", "122806.660000", "122807.120000", "122807.580000", "122808.040000", "122808.500000", "122808.960000", "122809.420000", "122809.880000", "122810.340000", "122810.800000", "122811.260000", "122811.720000", "122812.180000", "122812.640000", "122813.100000", "122813.560000", "122814.020000", "122814.480000", "122814.940000", "122815.400000", "122815.860000", "122816.320000", "122816.780000", "122817.240000", "122817.700000", "122818.160000", "122818.620000", "122819.080000", "122819.540000", "122820.000000", "122820.460000", "122820.920000", "122821.380000", "122821.840000", "122822.300000", "122822.760000", "122823.220000", "122823.680000", "122824.140000", "122824.600000", "122825.060000", "122825.520000", "122825.980000", "122826.440000", "122826.900000", "122827.360000", "122827.820000", "122828.280000", "122828.740000", "122829.200000", "122829.660000", "122830.120000", "122830.580000", "122831.040000", "122831.500000", "122831.960000", "122832.420000", "122832.880000", "122833.340000", "122833.800000", "122834.260000", "122834.720000", "122835.180000", "122835.640000", "122836.100000", "122836.560000", "122837.020000", "122837.480000", "122837.940000", "122838.400000", "122838.860000", "122839.320000", "122839.780000", "122840.240000", "122840.700000", "122841.160000", "122841.620000", "122842.080000", "122842.540000", "122843.000000", "122843.460000", "122843.920000", "122844.380000", "122844.840000", "122845.300000", "122845.760000", "122846.220000", "122846.680000", "122847.140000", "122847.600000", "122848.060000", "122848.520000", "122848.980000", "122849.440000", "122849.900000", "122850.360000", "122850.820000", "122851.280000", "122851.740000", "122852.200000", "122852.660000", "122853.120000", "122853.580000", "122854.040000", "122854.500000", "122854.960000", "122855.420000", "122855.880000", "122856.340000", "122856.800000", "122857.260000", "122857.720000", "122858.180000", "122858.640000", "122859.100000", "122859.560000", "122900.020000", "122900.480000", "122900.940000", "122901.400000", "122901.860000", "122902.320000", "122902.780000", "122903.240000", "122903.700000", "122904.160000", "122904.620000", "122905.080000", "122905.540000", "122906.000000", "122906.460000", "122906.920000", "122907.380000", "122907.840000", "122908.300000", "122908.760000", "122909.220000", "122909.680000", "122910.140000", "122910.600000", "122911.060000", "122911.520000", "122911.980000", "122912.440000", "122912.900000", "122913.360000", "122913.820000", "122914.280000", "122914.740000", "122915.200000", "122915.660000", "122916.120000", "122916.580000", "122917.040000", "122917.500000", "122917.960000", "122918.420000", "122918.880000", "122919.340000", "122919.800000", "122920.260000", "122920.720000", "122921.180000", "122921.640000", "122922.100000", "122922.560000", "122923.020000", "122923.480000", "122923.940000", "122924.400000", "122924.860000", "122925.320000", "122925.780000", "122926.240000", "122926.700000", "122927.160000", "122927.620000", "122928.080000", "122928.540000", "122929.000000", "122929.460000", "122929.920000", "122930.380000", "122930.840000", "122931.300000", "122931.760000", "122932.220000", "122932.680000", "122933.140000", "122933.600000", "122934.060000", "122934.520000", "122934.980000", "122935.440000", "122935.900000", "122936.360000", "122936.820000", "122937.280000", "122937.740000", "122938.200000", "122938.660000", "122939.120000", "122939.580000", "122940.040000", "122940.500000", "122940.960000", "122941.420000", "122941.880000", "122942.340000", "122942.800000", "122943.260000", "122943.720000", "122944.180000", "122944.640000", "122945.100000", "122945.560000", "122946.020000", "122946.480000", "122946.940000", "122947.400000", "122947.860000", "122948.320000", "122948.780000", "122949.240000", "122949.700000", "122950.160000", "122950.620000", "122951.080000", "122951.540000", "122952.000000", "122952.460000", "122952.920000", "122953.380000", "122953.840000", "122954.300000", "122954.760000", "122955.220000", "122955.680000", "122956.140000", "122956.600000", "122957.060000", "122957.520000", "122957.980000", "122958.440000", "122958.900000", "122959.360000", "122959.820000", "123000.280000", "123000.740000", "123001.200000", "123001.660000", "123002.120000", "123002.580000", "123003.040000", "123003.500000", "123003.960000", "123004.420000", "123004.880000", "123005.340000", "123005.800000", "123006.260000", "123006.720000", "123007.180000", "123007.640000", "123008.100000", "123008.560000", "123009.020000", "123009.480000", "123009.940000", "123010.400000", "123010.860000", "123011.320000", "123011.780000", "123012.240000", "123012.700000", "123013.160000", "123013.620000", "123014.080000", "123014.540000", "123015.000000", "123015.460000", "123015.920000", "123016.380000", "123016.840000", "123017.300000", "123017.760000", "123018.220000", "123018.680000", "123019.140000", "123019.600000", "123020.060000", "123020.520000", "123020.980000", "123021.440000", "123021.900000", "123022.360000", "123022.820000", "123023.280000", "123023.740000", "123024.200000", "123024.660000", "123025.120000", "123025.580000", "123026.040000", "123026.500000", "123026.960000", "123027.420000", "123027.880000", "123028.340000", "123028.800000", "123029.260000", "123029.720000", "123030.180000", "123030.640000", "123031.100000", "123031.560000", "123032.020000", "123032.480000", "123032.940000", "123033.400000", "123033.860000", "123034.320000", "123034.780000", "123035.240000", "123035.700000", "123036.160000", "123036.620000", "123037.080000", "123037.540000", "123038.000000", "123038.460000", "123038.920000", "123039.380000", "123039.840000", "123040.300000", "123040.760000", "123041.220000", "123041.680000", "123042.140000", "123042.600000", "123043.060000", "123043.520000", "123043.980000", "123044.440000", "123044.900000", "123045.360000", "123045.820000", "123046.280000", "123046.740000", "123047.200000", "123047.660000", "123048.120000", "123048.580000", "123049.040000", "123049.500000", "123049.960000", "123050.420000", "123050.880000", "123051.340000", "123051.800000", "123052.260000", "123052.720000", "123053.180000", "123053.640000", "123054.100000", "123054.560000", "123055.020000", "123055.480000", "123055.940000", "123056.400000", "123056.860000", "123057.320000", "123057.780000", "123058.240000", "123058.700000", "123059.160000", "123059.620000", "123100.080000", "123100.540000", "123101.000000", "123101.460000", "123101.920000", "123102.380000", "123102.840000", "123103.300000", "123103.760000", "123104.220000", "123104.680000", "123105.140000", "123105.600000", "123106.060000", "123106.520000", "123106.980000", "123107.440000", "123107.900000", "123108.360000", "123108.820000", "123109.280000", "123109.740000", "123110.200000", "123110.660000", "123111.120000", "123111.580000", "123112.040000", "123112.500000", "123112.960000", "123113.420000", "123113.880000", "123114.340000", "123114.800000", "123115.260000", "123115.720000", "123116.180000", "123116.640000", "123117.100000", "123117.560000", "123118.020000", "123118.480000", "123118.940000", "123119.400000", "123119.860000", "123120.320000", "123120.780000", "123121.240000", "123121.700000", "123122.160000", "123122.620000", "123123.080000", "123123.540000", "123124.000000", "123124.460000", "123124.920000", "123125.380000", "123125.840000", "123126.300000", "123126.760000", "123127.220000", "123127.680000", "123128.140000", "123128.600000", "123129.060000", "123129.520000", "123129.980000", "123130.440000", "123130.900000", "123131.360000", "123131.820000", "123132.280000", "123132.740000", "123133.200000", "123133.660000", "123134.120000", "123134.580000", "123135.040000", "123135.500000", "123135.960000", "123136.420000", "123136.880000", "123137.340000", "123137.800000", "123138.260000", "123138.720000", "123139.180000", "123139.640000", "123140.100000", "123140.560000", "123141.020000", "123141.480000", "123141.940000", "123142.400000", "123142.860000", "123143.320000", "123143.780000", "123144.240000", "123144.700000", "123145.160000", "123145.620000", "123146.080000", "123146.540000", "123147.000000", "123147.460000", "123147.920000", "123148.380000", "123148.840000", "123149.300000", "123149.760000", "123150.220000", "123150.680000", "123151.140000", "123151.600000", "123152.060000", "123152.520000", "123152.980000", "123153.440000", "123153.900000", "123154.360000", "123154.820000", "123155.280000", "123155.740000", "123156.200000", "123156.660000", "123157.120000", "123157.580000", "123158.040000", "123158.500000", "123158.960000", "123159.420000", "123159.880000", "123200.340000", "123200.800000", "123201.260000", "123201.720000", "123202.180000", "123202.640000", "123203.100000", "123203.560000", "123204.020000", "123204.480000", "123204.940000", "123205.400000", "123205.860000", "123206.320000", "123206.780000", "123207.240000", "123207.700000", "123208.160000", "123208.620000", "123209.080000", "123209.540000", "123210.000000", "123210.460000", "123210.920000"],
