{
  "AcquisitionMatrixPE": 82,
  "AcquisitionNumber": 1,
  "AcquisitionTime": "11:54:34.855000",
  "BandwidthPerPixelPhaseEncode": 24.888,
  "BaseResolution": 82,
  "BodyPartExamined": "BRAIN",
  "ConsistencyInfo": "N4_VE11E_LATEST_20181129",
  "ConversionSoftware": "dcm2niix",
  "ConversionSoftwareVersion": "v1.0.20201102",
  "DerivedVendorReportedEchoSpacing": 0.00049,
  "DeviceSerialNumber": "66112",
  "DwellTime": 2e-06,
  "EchoTime": 0.0272,
  "EchoTrainLength": 82,
  "EffectiveEchoSpacing": 0.00049,
  "FlipAngle": 44,
  "ImageComments": "Unaliased MB8/PE3",
  "ImageOrientationPatientDICOM": [0.995513, -0.00191195, -0.0946104, -0.00399621, 0.998055, -0.0622184],
  "ImageType": [
    "ORIGINAL",
    "PRIMARY",
    "M",
    "MB",
    "ND",
    "NORM",
    "MOSAIC"
],
  "ImagingFrequency": 123.252,
  "InPlanePhaseEncodingDirectionDICOM": "COL",
  "InstitutionAddress": "Maynard 3,Hanover,NH,US,03755",
  "InstitutionName": "Dartmouth College - PBS",
  "InstitutionalDepartmentName": "Department",
  "MRAcquisitionType": "2D",
  "MagneticFieldStrength": 3,
  "Manufacturer": "Siemens",
  "ManufacturersModelName": "Prisma",
  "Modality": "MR",
  "MultibandAccelerationFactor": 8,
  "PartialFourier": 1,
  "PatientPosition": "HFS",
  "PercentPhaseFOV": 100,
  "PercentSampling": 100,
  "PhaseEncodingDirection": "j-",
  "PhaseEncodingSteps": 82,
  "PhaseResolution": 1,
  "PixelBandwidth": 3050,
  "ProcedureStepDescription": "Wager_Wager^1076_spacetop",
  "ProtocolName": "func_run-01_task-alignvideo_acq-ap-mb8",
  "PulseSequenceDetails": "%CustomerSeq%\\cmrr_mbep2d_bold",
  "ReceiveCoilActiveElements": "HEA;HEP",
  "ReceiveCoilName": "Head_32",
  "ReconMatrixPE": 82,
  "RepetitionTime": 0.46,
  "SAR": 0.0852068,
  "ScanOptions": "FS",
  "ScanningSequence": "EP",
  "SequenceName": "epfid2d1_82",
  "SequenceVariant": "SK\\SS",
  "SeriesDescription": "func_run-01_task-alignvideo_acq-ap-mb8",
  "SeriesNumber": 28,
  "ShimSetting": [4132, -7721, -7264, 552, -63, -37, -99, 79],
  "SliceThickness": 2.7,
  "SliceTiming": [0, 0.25, 0.0625, 0.3125, 0.125, 0.3775, 0.1875, 0, 0.25, 0.0625, 0.3125, 0.125, 0.3775, 0.1875, 0, 0.25, 0.0625, 0.3125, 0.125, 0.3775, 0.1875, 0, 0.25, 0.0625, 0.3125, 0.125, 0.3775, 0.1875, 0, 0.25, 0.0625, 0.3125, 0.125, 0.3775, 0.1875, 0, 0.25, 0.0625, 0.3125, 0.125, 0.3775, 0.1875, 0, 0.25, 0.0625, 0.3125, 0.125, 0.3775, 0.1875, 0, 0.25, 0.0625, 0.3125, 0.125, 0.3775, 0.1875],
  "SoftwareVersions": "syngo MR E11",
  "SpacingBetweenSlices": 2.7,
  "StationName": "AWP66112",
  "TaskName": "alignvideo",
  "TotalReadoutTime": 0.03969,
  "TxRefAmp": 250.339,
  "WipMemBlock": "73e546b2-213a-4e19-b249-b09d23a7c8d2||Sequence: R016 ve11e/master r/434b28f1; Aug  7 2019 18:53:46 by eja",
  "dcmmeta_affine": [
    [-2.6708874702453613, -0.010721537284553051, -0.25527238845825195, 115.69024658203125],
    [0.005129625089466572, 2.6777074337005615, -0.16825661063194275, -85.06424713134766],
    [-0.2538328468799591, 0.16692738234996796, 2.682634115219116, -66.99829864501953],
    [0.0, 0.0, 0.0, 1.0]
],
  "dcmmeta_reorient_transform": [
    [0.0, -1.0, 0.0, 81.0],
    [1.0, 0.0, 0.0, 0.0],
    [0.0, 0.0, 1.0, 0.0],
    [0.0, 0.0, 0.0, 1.0]
],
  "dcmmeta_shape": [82, 82, 56, 839],
  "dcmmeta_slice_dim": 2,
  "dcmmeta_version": 0.6,
  "global": {
    "const": {
      "AccessionNumber": "A003913",
      "AcquisitionMatrix": [82, 0, 0, 82],
      "AngioFlag": "N",
      "BitsAllocated": 16,
      "BitsStored": 16,
      "BodyPartExamined": "BRAIN",
      "Columns": 656,
      "EchoNumbers": 1,
      "EchoTime": 27.2,
      "EchoTrainLength": 82,
      "FlipAngle": 44.0,
      "HighBit": 15,
      "ImageOrientationPatient": [0.99551253704573, -0.0019119511959, -0.0946104276885, -0.0039962091364, 0.99805455914328, -0.0622183838254],
      "ImagePositionPatient": [-878.28939233856, -898.85987799993, 67.281009644336],
      "ImageType": [
        "ORIGINAL",
        "PRIMARY",
        "M",
        "MB",
        "ND",
        "NORM",
        "MOSAIC"
],
      "ImagedNucleus": "1H",
      "ImagingFrequency": 123.252218,
      "InPlanePhaseEncodingDirection": "COL",
      "MRAcquisitionType": "2D",
      "MagneticFieldStrength": 3.0,
      "Manufacturer": "SIEMENS",
      "ManufacturerModelName": "Prisma",
      "Modality": "MR",
      "NumberOfAverages": 1.0,
      "NumberOfPhaseEncodingSteps": 82,
      "PercentPhaseFieldOfView": 100.0,
      "PercentSampling": 100.0,
      "PerformedProcedureStepStartTime": "103521.133000",
      "PhotometricInterpretation": "MONOCHROME2",
      "PixelBandwidth": 3050.0,
      "PixelRepresentation": 0,
      "PixelSpacing": [2.6829268932343, 2.6829268932343],
      "ProtocolName": "func_run-01_task-alignvideo_acq-ap-mb8",
      "RepetitionTime": 460.0,
      "Rows": 656,
      "SAR": 0.0852067827631,
      "SamplesPerPixel": 1,
      "ScanOptions": "FS",
      "ScanningSequence": "EP",
      "SequenceName": "epfid2d1_82",
      "SequenceVariant": [
        "SK",
        "SS"
],
      "SeriesDescription": "func_run-01_task-alignvideo_acq-ap-mb8",
      "SeriesNumber": 28,
      "SeriesTime": "115453.744000",
      "SliceLocation": -72.204375783636,
      "SliceThickness": 2.7000000476837,
      "SmallestImagePixelValue": 0,
      "SoftwareVersions": "syngo MR E11",
      "SpacingBetweenSlices": 2.7000000094904,
      "SpecificCharacterSet": "ISO_IR 100",
      "StudyID": "2",
      "StudyTime": "103520.972000",
      "TransmitCoilName": "Body",
      "VariableFlipAngleFlag": "N",
      "WindowCenterWidthExplanation": "Algo1"
    },
    "slices": {}
  },
  "time": {
    "samples": {
      "AcquisitionNumber": [1, 2, 3, 4, 5, 6, 7, 8, 9, 10, 11, 12, 13, 14, 15, 16, 17, 18, 19, 20, 21, 22, 23, 24, 25, 26, 27, 28, 29, 30, 31, 32, 33, 34, 35, 36, 37, 38, 39, 40, 41, 42, 43, 44, 45, 46, 47, 48, 49, 50, 51, 52, 53, 54, 55, 56, 57, 58, 59, 60, 61, 62, 63, 64, 65, 66, 67, 68, 69, 70, 71, 72, 73, 74, 75, 76, 77, 78, 79, 80, 81, 82, 83, 84, 85, 86, 87, 88, 89, 90, 91, 92, 93, 94, 95, 96, 97, 98, 99, 100, 101, 102, 103, 104, 105, 106, 107, 108, 109, 110, 111, 112, 113, 114, 115, 116, 117, 118, 119, 120, 121, 122, 123, 124, 125, 126, 127, 128, 129, 130, 131, 132, 133, 134, 135, 136, 137, 138, 139, 140, 141, 142, 143, 144, 145, 146, 147, 148, 149, 150, 151, 152, 153, 154, 155, 156, 157, 158, 159, 160, 161, 162, 163, 164, 165, 166, 167, 168, 169, 170, 171, 172, 173, 174, 175, 176, 177, 178, 179, 180, 181, 182, 183, 184, 185, 186, 187, 188, 189, 190, 191, 192, 193, 194, 195, 196, 197, 198, 199, 200, 201, 202, 203, 204, 205, 206, 207, 208, 209, 210, 211, 212, 213, 214, 215, 216, 217, 218, 219, 220, 221, 222, 223, 224, 225, 226, 227, 228, 229, 230, 231, 232, 233, 234, 235, 236, 237, 238, 239, 240, 241, 242, 243, 244, 245, 246, 247, 248, 249, 250, 251, 252, 253, 254, 255, 256, 257, 258, 259, 260, 261, 262, 263, 264, 265, 266, 267, 268, 269, 270, 271, 272, 273, 274, 275, 276, 277, 278, 279, 280, 281, 282, 283, 284, 285, 286, 287, 288, 289, 290, 291, 292, 293, 294, 295, 296, 297, 298, 299, 300, 301, 302, 303, 304, 305, 306, 307, 308, 309, 310, 311, 312, 313, 314, 315, 316, 317, 318, 319, 320, 321, 322, 323, 324, 325, 326, 327, 328, 329, 330, 331, 332, 333, 334, 335, 336, 337, 338, 339, 340, 341, 342, 343, 344, 345, 346, 347, 348, 349, 350, 351, 352, 353, 354, 355, 356, 357, 358, 359, 360, 361, 362, 363, 364, 365, 366, 367, 368, 369, 370, 371, 372, 373, 374, 375, 376, 377, 378, 379, 380, 381, 382, 383, 384, 385, 386, 387, 388, 389, 390, 391, 392, 393, 394, 395, 396, 397, 398, 399, 400, 401, 402, 403, 404, 405, 406, 407, 408, 409, 410, 411, 412, 413, 414, 415, 416, 417, 418, 419, 420, 421, 422, 423, 424, 425, 426, 427, 428, 429, 430, 431, 432, 433, 434, 435, 436, 437, 438, 439, 440, 441, 442, 443, 444, 445, 446, 447, 448, 449, 450, 451, 452, 453, 454, 455, 456, 457, 458, 459, 460, 461, 462, 463, 464, 465, 466, 467, 468, 469, 470, 471, 472, 473, 474, 475, 476, 477, 478, 479, 480, 481, 482, 483, 484, 485, 486, 487, 488, 489, 490, 491, 492, 493, 494, 495, 496, 497, 498, 499, 500, 501, 502, 503, 504, 505, 506, 507, 508, 509, 510, 511, 512, 513, 514, 515, 516, 517, 518, 519, 520, 521, 522, 523, 524, 525, 526, 527, 528, 529, 530, 531, 532, 533, 534, 535, 536, 537, 538, 539, 540, 541, 542, 543, 544, 545, 546, 547, 548, 549, 550, 551, 552, 553, 554, 555, 556, 557, 558, 559, 560, 561, 562, 563, 564, 565, 566, 567, 568, 569, 570, 571, 572, 573, 574, 575, 576, 577, 578, 579, 580, 581, 582, 583, 584, 585, 586, 587, 588, 589, 590, 591, 592, 593, 594, 595, 596, 597, 598, 599, 600, 601, 602, 603, 604, 605, 606, 607, 608, 609, 610, 611, 612, 613, 614, 615, 616, 617, 618, 619, 620, 621, 622, 623, 624, 625, 626, 627, 628, 629, 630, 631, 632, 633, 634, 635, 636, 637, 638, 639, 640, 641, 642, 643, 644, 645, 646, 647, 648, 649, 650, 651, 652, 653, 654, 655, 656, 657, 658, 659, 660, 661, 662, 663, 664, 665, 666, 667, 668, 669, 670, 671, 672, 673, 674, 675, 676, 677, 678, 679, 680, 681, 682, 683, 684, 685, 686, 687, 688, 689, 690, 691, 692, 693, 694, 695, 696, 697, 698, 699, 700, 701, 702, 703, 704, 705, 706, 707, 708, 709, 710, 711, 712, 713, 714, 715, 716, 717, 718, 719, 720, 721, 722, 723, 724, 725, 726, 727, 728, 729, 730, 731, 732, 733, 734, 735, 736, 737, 738, 739, 740, 741, 742, 743, 744, 745, 746, 747, 748, 749, 750, 751, 752, 753, 754, 755, 756, 757, 758, 759, 760, 761, 762, 763, 764, 765, 766, 767, 768, 769, 770, 771, 772, 773, 774, 775, 776, 777, 778, 779, 780, 781, 782, 783, 784, 785, 786, 787, 788, 789, 790, 791, 792, 793, 794, 795, 796, 797, 798, 799, 800, 801, 802, 803, 804, 805, 806, 807, 808, 809, 810, 811, 812, 813, 814, 815, 816, 817, 818, 819, 820, 821, 822, 823, 824, 825, 826, 827, 828, 829, 830, 831, 832, 833, 834, 835, 836, 837, 838, 839],
      "AcquisitionTime": ["115434.855000", "115435.315000", "115435.775000", "115436.235000", "115436.695000", "115437.155000", "115437.615000", "115438.075000", "115438.535000", "115438.995000", "115439.455000", "115439.915000", "115440.375000", "115440.835000", "115441.295000", "115441.755000", "115442.215000", "115442.675000", "115443.135000", "115443.595000", "115444.055000", "115444.515000", "115444.975000", "115445.435000", "115445.895000", "115446.355000", "115446.815000", "115447.275000", "115447.735000", "115448.195000", "115448.655000", "115449.115000", "115449.575000", "115450.035000", "115450.495000", "115450.955000", "115451.415000", "115451.875000", "115452.335000", "115452.795000", "115453.255000", "115453.715000", "115454.175000", "115454.635000", "115455.095000", "115455.555000", "115456.015000", "115456.475000", "115456.935000", "115457.395000", "115457.855000", "115458.315000", "115458.775000", "115459.235000", "115459.695000", "115500.155000", "115500.615000", "115501.075000", "115501.535000", "115501.995000", "115502.455000", "115502.915000", "115503.375000", "115503.835000", "115504.295000", "115504.755000", "115505.215000", "115505.675000", "115506.135000", "115506.595000", "115507.055000", "115507.515000", "115507.975000", "115508.435000", "115508.895000", "115509.355000", "115509.815000", "115510.275000", "115510.735000", "115511.195000", "115511.655000", "115512.115000", "115512.575000", "115513.035000", "115513.495000", "115513.955000", "115514.415000", "115514.875000", "115515.335000", "115515.795000", "115516.255000", "115516.715000", "115517.175000", "115517.635000", "115518.095000", "115518.555000", "115519.015000", "115519.475000", "115519.935000", "115520.395000", "115520.855000", "115521.315000", "115521.775000", "115522.235000", "115522.695000", "115523.155000", "115523.615000", "115524.075000", "115524.535000", "115524.995000", "115525.455000", "115525.915000", "115526.375000", "115526.835000", "115527.295000", "115527.755000", "115528.215000", "115528.675000", "115529.135000", "115529.595000", "115530.055000", "115530.515000", "115530.975000", "115531.435000", "115531.895000", "115532.355000", "115532.815000", "115533.275000", "115533.735000", "115534.195000", "115534.655000", "115535.115000", "115535.575000", "115536.035000", "115536.495000", "115536.955000", "115537.415000", "115537.875000", "115538.335000", "115538.795000", "115539.255000", "115539.715000", "115540.175000", "115540.635000", "115541.095000", "115541.555000", "115542.015000", "115542.475000", "115542.935000", "115543.395000", "115543.855000", "115544.315000", "115544.775000", "115545.235000", "115545.695000", "115546.155000", "115546.615000", "115547.075000", "115547.535000", "115547.995000", "115548.455000", "115548.915000", "115549.375000", "115549.835000", "115550.295000", "115550.755000", "115551.215000", "115551.675000", "115552.135000", "115552.595000", "115553.055000", "115553.515000", "115553.975000", "115554.435000", "115554.895000", "115555.355000", "115555.815000", "115556.275000", "115556.735000", "115557.195000", "115557.655000", "115558.115000", "115558.575000", "115559.035000", "115559.495000", "115559.955000", "115600.415000", "115600.875000", "115601.335000", "115601.795000", "115602.255000", "115602.715000", "115603.175000", "115603.635000", "115604.095000", "115604.555000", "115605.015000", "115605.475000", "115605.935000", "115606.395000", "115606.855000", "115607.315000", "115607.775000", "115608.235000", "115608.695000", "115609.155000", "115609.615000", "115610.075000", "115610.535000", "115610.995000", "115611.455000", "115611.915000", "115612.375000", "115612.835000", "115613.295000", "115613.755000", "115614.215000", "115614.675000", "115615.135000", "115615.595000", "115616.055000", "115616.515000", "115616.975000", "115617.435000", "115617.895000", "115618.355000", "115618.815000", "115619.275000", "115619.735000", "115620.195000", "115620.655000", "115621.115000", "115621.575000", "115622.035000", "115622.495000", "115622.955000", "115623.415000", "115623.875000", "115624.335000", "115624.795000", "115625.255000", "115625.715000", "115626.175000", "115626.635000", "115627.095000", "115627.555000", "115628.015000", "115628.475000", "115628.935000", "115629.395000", "115629.855000", "115630.315000", "115630.775000", "115631.235000", "115631.695000", "115632.155000", "115632.615000", "115633.075000", "115633.535000", "115633.995000", "115634.455000", "115634.915000", "115635.375000", "115635.835000", "115636.295000", "115636.755000", "115637.215000", "115637.675000", "115638.135000", "115638.595000", "115639.055000", "115639.515000", "115639.975000", "115640.435000", "115640.895000", "115641.355000", "115641.815000", "115642.275000", "115642.735000", "115643.195000", "115643.655000", "115644.115000", "115644.575000", "115645.035000", "115645.495000", "115645.955000", "115646.415000", "115646.875000", "115647.335000", "115647.795000", "115648.255000", "115648.715000", "115649.175000", "115649.635000", "115650.095000", "115650.555000", "115651.015000", "115651.475000", "115651.935000", "115652.395000", "115652.855000", "115653.315000", "115653.775000", "115654.235000", "115654.695000", "115655.155000", "115655.615000", "115656.075000", "115656.535000", "115656.995000", "115657.455000", "115657.915000", "115658.375000", "115658.835000", "115659.295000", "115659.755000", "115700.215000", "115700.675000", "115701.135000", "115701.595000", "115702.055000", "115702.515000", "115702.975000", "115703.435000", "115703.895000", "115704.355000", "115704.815000", "115705.275000", "115705.735000", "115706.195000", "115706.655000", "115707.115000", "115707.575000", "115708.035000", "115708.495000", "115708.955000", "115709.415000", "115709.875000", "115710.335000", "115710.795000", "115711.255000", "115711.715000", "115712.175000", "115712.635000", "115713.095000", "115713.555000", "115714.015000", "115714.475000", "115714.935000", "115715.395000", "115715.855000", "115716.315000", "115716.775000", "115717.235000", "115717.695000", "115718.155000", "115718.615000", "115719.075000", "115719.535000", "115719.995000", "115720.455000", "115720.915000", "115721.375000", "115721.835000", "115722.295000", "115722.755000", "115723.215000", "115723.675000", "115724.135000", "115724.595000", "115725.055000", "115725.515000", "115725.975000", "115726.435000", "115726.895000", "115727.355000", "115727.815000", "115728.275000", "115728.735000", "115729.195000", "115729.655000", "115730.115000", "115730.575000", "115731.035000", "115731.495000", "115731.955000", "115732.415000", "115732.875000", "115733.335000", "115733.795000", "115734.255000", "115734.715000", "115735.175000", "115735.635000", "115736.095000", "115736.555000", "115737.015000", "115737.475000", "115737.935000", "115738.395000", "115738.855000", "115739.315000", "115739.775000", "115740.235000", "115740.695000", "115741.155000", "115741.615000", "115742.075000", "115742.535000", "115742.995000", "115743.455000", "115743.915000", "115744.375000", "115744.835000", "115745.295000", "115745.755000", "115746.215000", "115746.675000", "115747.135000", "115747.595000", "115748.055000", "115748.515000", "115748.975000", "115749.435000", "115749.895000", "115750.355000", "115750.815000", "115751.275000", "115751.735000", "115752.195000", "115752.655000", "115753.115000", "115753.575000", "115754.035000", "115754.495000", "115754.955000", "115755.415000", "115755.875000", "115756.335000", "115756.795000", "115757.255000", "115757.715000", "115758.175000", "115758.635000", "115759.095000", "115759.555000", "115800.015000", "115800.475000", "115800.935000", "115801.395000", "115801.855000", "115802.315000", "115802.775000", "115803.235000", "115803.695000", "115804.155000", "115804.615000", "115805.075000", "115805.535000", "115805.995000", "115806.455000", "115806.915000", "115807.375000", "115807.835000", "115808.295000", "115808.755000", "115809.215000", "115809.675000", "115810.135000", "115810.595000", "115811.055000", "115811.515000", "115811.975000", "115812.435000", "115812.895000", "115813.355000", "115813.815000", "115814.275000", "115814.735000", "115815.195000", "115815.655000", "115816.115000", "115816.575000", "115817.035000", "115817.495000", "115817.955000", "115818.415000", "115818.875000", "115819.335000", "115819.795000", "115820.255000", "115820.715000", "115821.175000", "115821.635000", "115822.095000", "115822.555000", "115823.015000", "115823.475000", "115823.935000", "115824.395000", "115824.855000", "115825.315000", "115825.775000", "115826.235000", "115826.695000", "115827.155000", "115827.615000", "115828.075000", "115828.535000", "115828.995000", "115829.455000", "115829.915000", "115830.375000", "115830.835000", "115831.295000", "115831.755000", "115832.215000", "115832.675000", "115833.135000", "115833.595000", "115834.055000", "115834.515000", "115834.975000", "115835.435000", "115835.895000", "115836.355000", "115836.815000", "115837.275000", "115837.735000", "115838.195000", "115838.655000", "115839.115000", "115839.575000", "115840.035000", "115840.495000", "115840.955000", "115841.415000", "115841.875000", "115842.335000", "115842.795000", "115843.255000", "115843.715000", "115844.175000", "115844.635000", "115845.095000", "115845.555000", "115846.015000", "115846.475000", "115846.935000", "115847.395000", "115847.855000", "115848.315000", "115848.775000", "115849.235000", "115849.695000", "115850.155000", "115850.615000", "115851.075000", "115851.535000", "115851.995000", "115852.455000", "115852.915000", "115853.375000", "115853.835000", "115854.295000", "115854.755000", "115855.215000", "115855.675000", "115856.135000", "115856.595000", "115857.055000", "115857.515000", "115857.975000", "115858.435000", "115858.895000", "115859.355000", "115859.815000", "115900.275000", "115900.735000", "115901.195000", "115901.655000", "115902.115000", "115902.575000", "115903.035000", "115903.495000", "115903.955000", "115904.415000", "115904.875000", "115905.335000", "115905.795000", "115906.255000", "115906.715000", "115907.175000", "115907.635000", "115908.095000", "115908.555000", "115909.015000", "115909.475000", "115909.935000", "115910.395000", "115910.855000", "115911.315000", "115911.775000", "115912.235000", "115912.695000", "115913.155000", "115913.615000", "115914.075000", "115914.535000", "115914.995000", "115915.455000", "115915.915000", "115916.375000", "115916.835000", "115917.295000", "115917.755000", "115918.215000", "115918.675000", "115919.135000", "115919.595000", "115920.055000", "115920.515000", "115920.975000", "115921.435000", "115921.895000", "115922.355000", "115922.815000", "115923.275000", "115923.735000", "115924.195000", "115924.655000", "115925.115000", "115925.575000", "115926.035000", "115926.495000", "115926.955000", "115927.415000", "115927.875000", "115928.335000", "115928.795000", "115929.255000", "115929.715000", "115930.175000", "115930.635000", "115931.095000", "115931.555000", "115932.015000", "115932.475000", "115932.935000", "115933.395000", "115933.855000", "115934.315000", "115934.775000", "115935.235000", "115935.695000", "115936.155000", "115936.615000", "115937.075000", "115937.535000", "115937.995000", "115938.455000", "115938.915000", "115939.375000", "115939.835000", "115940.295000", "115940.755000", "115941.215000", "115941.675000", "115942.135000", "115942.595000", "115943.055000", "115943.515000", "115943.975000", "115944.435000", "115944.895000", "115945.355000", "115945.815000", "115946.275000", "115946.735000", "115947.195000", "115947.655000", "115948.115000", "115948.575000", "115949.035000", "115949.495000", "115949.955000", "115950.415000", "115950.875000", "115951.335000", "115951.795000", "115952.255000", "115952.715000", "115953.175000", "115953.635000", "115954.095000", "115954.555000", "115955.015000", "115955.475000", "115955.935000", "115956.395000", "115956.855000", "115957.315000", "115957.775000", "115958.235000", "115958.695000", "115959.155000", "115959.615000", "120000.075000", "120000.535000", "120000.995000", "120001.455000", "120001.915000", "120002.375000", "120002.835000", "120003.295000", "120003.755000", "120004.215000", "120004.675000", "120005.135000", "120005.595000", "120006.055000", "120006.515000", "120006.975000", "120007.435000", "120007.895000", "120008.355000", "120008.815000", "120009.275000", "120009.735000", "120010.195000", "120010.655000", "120011.115000", "120011.575000", "120012.035000", "120012.495000", "120012.955000", "120013.415000", "120013.875000", "120014.335000", "120014.795000", "120015.255000", "120015.715000", "120016.175000", "120016.635000", "120017.095000", "120017.555000", "120018.015000", "120018.475000", "120018.935000", "120019.395000", "120019.855000", "120020.315000", "120020.775000", "120021.235000", "120021.695000", "120022.155000", "120022.615000", "120023.075000", "120023.535000", "120023.995000", "120024.455000", "120024.915000", "120025.375000", "120025.835000", "120026.295000", "120026.755000", "120027.215000", "120027.675000", "120028.135000", "120028.595000", "120029.055000", "120029.515000", "120029.975000", "120030.435000", "120030.895000", "120031.355000", "120031.815000", "120032.275000", "120032.735000", "120033.195000", "120033.655000", "120034.115000", "120034.575000", "120035.035000", "120035.495000", "120035.955000", "120036.415000", "120036.875000", "120037.335000", "120037.795000", "120038.255000", "120038.715000", "120039.175000", "120039.635000", "120040.095000", "120040.555000", "120041.015000", "120041.475000", "120041.935000", "120042.395000", "120042.855000", "120043.315000", "120043.775000", "120044.235000", "120044.695000", "120045.155000", "120045.615000", "120046.075000", "120046.535000", "120046.995000", "120047.455000", "120047.915000", "120048.375000", "120048.835000", "120049.295000", "120049.755000", "120050.215000", "120050.675000", "120051.135000", "120051.595000", "120052.055000", "120052.515000", "120052.975000", "120053.435000", "120053.895000", "120054.355000", "120054.815000", "120055.275000", "120055.735000", "120056.195000", "120056.655000", "120057.115000", "120057.575000", "120058.035000", "120058.495000", "120058.955000", "120059.415000", "120059.875000", "120100.335000"],
