{
  "AcquisitionMatrixPE": 140,
  "AcquisitionNumber": 1,
  "AcquisitionTime": "14:49:28.112500",
  "BandwidthPerPixelPhaseEncode": 10.352,
  "BaseResolution": 140,
  "BodyPartExamined": "BRAIN",
  "ConsistencyInfo": "N4_VE11C_LATEST_20160120",
  "ConversionSoftware": "dcm2niix",
  "ConversionSoftwareVersion": "v1.0.20201102",
  "DerivedVendorReportedEchoSpacing": 0.000689998,
  "DeviceSerialNumber": "66112",
  "DiffusionScheme": "Monopolar",
  "DwellTime": 2.1e-06,
  "EchoTime": 0.0884,
  "EchoTrainLength": 105,
  "EffectiveEchoSpacing": 0.000689998,
  "FlipAngle": 90,
  "ImageComments": "Unaliased MB3/PE3 SENSE1",
  "ImageOrientationPatientDICOM": [0.99926, 0.00915177, -0.0373681, -0.00383684, 0.990159, 0.139897],
  "ImageType": [
    "ORIGINAL",
    "PRIMARY",
    "DIFFUSION",
    "NONE",
    "MB",
    "ND",
    "MOSAIC"
],
  "ImagingFrequency": 123.252,
  "InPlanePhaseEncodingDirectionDICOM": "COL",
  "InstitutionAddress": "Maynard 3,Hanover,NH,US,03755",
  "InstitutionName": "Dartmouth College - PBS",
  "InstitutionalDepartmentName": "Department",
  "MRAcquisitionType": "2D",
  "MagneticFieldStrength": 3,
  "Manufacturer": "Siemens",
  "ManufacturersModelName": "Prisma",
  "Modality": "MR",
  "MultibandAccelerationFactor": 3,
  "PartialFourier": 0.75,
  "PatientPosition": "HFS",
  "PercentPhaseFOV": 100,
  "PercentSampling": 100,
  "PhaseEncodingDirection": "j-",
  "PhaseEncodingSteps": 105,
  "PhaseResolution": 1,
  "PixelBandwidth": 1700,
  "ProcedureStepDescription": "Wager_Wager^1076_spacetop",
  "ProtocolName": "dwi_acq-96dir-6b0-mb",
  "PulseSequenceDetails": "%CustomerSeq%\\cmrr_mbep2d_diff",
  "ReceiveCoilActiveElements": "HEA;HEP",
  "ReceiveCoilName": "Head_32",
  "ReconMatrixPE": 140,
  "RepetitionTime": 4.11,
  "SAR": 0.251135,
  "ScanOptions": "PFP\\FS",
  "ScanningSequence": "EP",
  "SequenceName": "ep_b5#1",
  "SequenceVariant": "SK\\SS",
  "SeriesDescription": "dwi_acq-96dir-6b0-mb",
  "SeriesNumber": 8,
  "ShimSetting": [4125, -7767, -7248, 494, -104, -287, -61, 102],
  "SliceThickness": 1.7,
  "SliceTiming": [0, 2.1225, 0.1525, 2.2725, 0.305, 2.425, 0.455, 2.575, 0.6075, 2.7275, 0.7575, 2.88, 0.91, 3.03, 1.0625, 3.1825, 1.2125, 3.3325, 1.365, 3.485, 1.515, 3.6375, 1.6675, 3.7875, 1.8175, 3.94, 1.97, 0, 2.1225, 0.1525, 2.2725, 0.305, 2.425, 0.455, 2.575, 0.6075, 2.7275, 0.7575, 2.88, 0.91, 3.03, 1.0625, 3.1825, 1.2125, 3.3325, 1.365, 3.485, 1.515, 3.6375, 1.6675, 3.7875, 1.8175, 3.94, 1.97, 0, 2.1225, 0.1525, 2.2725, 0.305, 2.425, 0.455, 2.575, 0.6075, 2.7275, 0.7575, 2.88, 0.91, 3.03, 1.0625, 3.1825, 1.2125, 3.3325, 1.365, 3.485, 1.515, 3.6375, 1.6675, 3.7875, 1.8175, 3.94, 1.97],
  "SoftwareVersions": "syngo MR E11",
  "SpacingBetweenSlices": 1.7,
  "StationName": "AWP66112",
  "TotalReadoutTime": 0.0959097,
  "TxRefAmp": 245.036,
  "WipMemBlock": "1c683cc5-4352-422d-b3b0-c087e7cf11a2||Sequence: R016 ve11c/master r/e634e98; Dec 19 2017 11:11:25 by eja",
  "dcmmeta_affine": [
    [-1.7130166292190552, -0.006577447988092899, -0.06507708132266998, 126.18819427490234],
    [-0.015688741579651833, 1.697414755821228, 0.2374056875705719, -91.99365234375],
    [-0.06405957043170929, -0.23982402682304382, 1.6820831298828125, -41.018043518066406],
    [0.0, 0.0, 0.0, 1.0]
],
  "dcmmeta_reorient_transform": [
    [0.0, -1.0, 0.0, 139.0],
    [1.0, 0.0, 0.0, 0.0],
    [0.0, 0.0, 1.0, 0.0],
    [0.0, 0.0, 0.0, 1.0]
],
  "dcmmeta_shape": [140, 140, 81, 103],
  "dcmmeta_slice_dim": 2,
  "dcmmeta_version": 0.6,
  "global": {
    "const": {
      "AccessionNumber": "A003803",
      "AcquisitionMatrix": [140, 0, 0, 140],
      "AngioFlag": "N",
      "BitsAllocated": 16,
      "BitsStored": 16,
      "BodyPartExamined": "BRAIN",
      "Columns": 1260,
      "EchoNumbers": 1,
      "EchoTime": 88.4,
      "EchoTrainLength": 105,
      "FlipAngle": 90.0,
      "HighBit": 15,
      "ImageOrientationPatient": [0.99925966167686, 0.00915176623676, -0.0373680842456, -0.0038368446497, 0.99015857898881, 0.13989734478539],
      "ImagePositionPatient": [-1080.8798466192, -1103.2849382037, -172.78167419928],
      "ImageType": [
        "ORIGINAL",
        "PRIMARY",
        "DIFFUSION",
        "NONE",
        "MB",
        "ND",
        "MOSAIC"
],
      "ImagedNucleus": "1H",
      "ImagingFrequency": 123.252194,
      "InPlanePhaseEncodingDirection": "COL",
      "MRAcquisitionType": "2D",
      "MagneticFieldStrength": 3.0,
      "Manufacturer": "SIEMENS",
      "ManufacturerModelName": "Prisma",
      "Modality": "MR",
      "NumberOfAverages": 1.0,
      "NumberOfPhaseEncodingSteps": 105,
      "PercentPhaseFieldOfView": 100.0,
      "PercentSampling": 100.0,
      "PerformedProcedureStepStartTime": "142936.029000",
      "PhotometricInterpretation": "MONOCHROME2",
      "PixelBandwidth": 1700.0,
      "PixelRepresentation": 0,
      "PixelSpacing": [1.7142857313156, 1.7142857313156],
      "ProtocolName": "dwi_acq-96dir-6b0-mb",
      "RepetitionTime": 4110.0,
      "Rows": 1260,
      "SAR": 0.25113512680393,
      "SamplesPerPixel": 1,
      "ScanOptions": [
        "PFP",
        "FS"
],
      "ScanningSequence": "EP",
      "SequenceVariant": [
        "SK",
        "SS"
],
      "SeriesDescription": "dwi_acq-96dir-6b0-mb",
      "SeriesNumber": 8,
      "SeriesTime": "145015.053000",
      "SliceLocation": -58.26325446877,
      "SliceThickness": 1.7000000476837,
      "SmallestImagePixelValue": 0,
      "SoftwareVersions": "syngo MR E11",
      "SpacingBetweenSlices": 1.7000000413792,
      "SpecificCharacterSet": "ISO_IR 100",
      "StudyID": "1",
      "StudyTime": "142935.975000",
      "TransmitCoilName": "Body",
      "VariableFlipAngleFlag": "N",
      "WindowCenterWidthExplanation": "Algo1",
      "dBdt": 0.0},
    "slices": {}
  },
  "time": {
    "samples": {
      "AcquisitionNumber": [1, 2, 3, 4, 5, 6, 7, 8, 9, 10, 11, 12, 13, 14, 15, 16, 17, 18, 19, 20, 21, 22, 23, 24, 25, 26, 27, 28, 29, 30, 31, 32, 33, 34, 35, 36, 37, 38, 39, 40, 41, 42, 43, 44, 45, 46, 47, 48, 49, 50, 51, 52, 53, 54, 55, 56, 57, 58, 59, 60, 61, 62, 63, 64, 65, 66, 67, 68, 69, 70, 71, 72, 73, 74, 75, 76, 77, 78, 79, 80, 81, 82, 83, 84, 85, 86, 87, 88, 89, 90, 91, 92, 93, 94, 95, 96, 97, 98, 99, 100, 101, 102, 103],
      "AcquisitionTime": ["144928.112500", "144932.222500", "144936.332500", "144940.442500", "144944.552500", "144948.662500", "144952.772500", "144956.882500", "145000.992500", "145005.102500", "145009.212500", "145013.322500", "145017.432500", "145021.542500", "145025.652500", "145029.762500", "145033.872500", "145037.982500", "145042.092500", "145046.202500", "145050.312500", "145054.422500", "145058.532500", "145102.642500", "145106.752500", "145110.862500", "145114.972500", "145119.082500", "145123.192500", "145127.302500", "145131.412500", "145135.522500", "145139.632500", "145143.742500", "145147.852500", "145151.962500", "145156.072500", "145200.182500", "145204.292500", "145208.402500", "145212.512500", "145216.622500", "145220.732500", "145224.842500", "145228.952500", "145233.062500", "145237.172500", "145241.282500", "145245.392500", "145249.502500", "145253.612500", "145257.722500", "145301.832500", "145305.942500", "145310.052500", "145314.162500", "145318.272500", "145322.382500", "145326.492500", "145330.602500", "145334.712500", "145338.822500", "145342.932500", "145347.042500", "145351.152500", "145355.262500", "145359.372500", "145403.482500", "145407.592500", "145411.702500", "145415.812500", "145419.922500", "145424.032500", "145428.142500", "145432.252500", "145436.362500", "145440.472500", "145444.582500", "145448.692500", "145452.802500", "145456.912500", "145501.022500", "145505.132500", "145509.242500", "145513.352500", "145517.462500", "145521.572500", "145525.682500", "145529.792500", "145533.902500", "145538.012500", "145542.122500", "145546.232500", "145550.342500", "145554.452500", "145558.562500", "145602.672500", "145606.782500", "145610.892500", "145615.002500", "145619.112500", "145623.222500", "145627.332500"],
      "ContentTime": ["145015.057000", "145015.061000", "145015.077000", "145015.080000", "145015.084000", "145015.087000", "145015.090000", "145015.094000", "145015.100000", "145015.103000", "145015.107000", "145155.052000", "145155.056000", "145155.059000", "145155.063000", "145155.066000", "145155.078000", "145155.081000", "145155.084000", "145155.088000", "145155.091000", "145155.094000", "145155.101000", "145155.104000", "145155.108000", "145155.111000", "145155.114000", "145155.118000", "145155.121000", "145155.124000", "145155.128000", "145155.150000", "145155.154000", "145155.157000", "145155.160000", "145315.052000", "145315.056000", "145315.059000", "145315.062000", "145315.066000", "145315.069000", "145315.072000", "145315.076000", "145315.079000", "145315.082000", "145315.086000", "145315.089000", "145315.092000", "145315.096000", "145315.099000", "145315.102000", "145315.106000", "145315.109000", "145315.112000", "145315.116000", "145455.052000", "145455.056000", "145455.059000", "145455.063000", "145455.071000", "145455.074000", "145455.078000", "145455.081000", "145455.084000", "145455.088000", "145455.091000", "145455.094000", "145455.098000", "145455.101000", "145455.104000", "145455.107000", "145455.111000", "145455.114000", "145455.117000", "145455.121000", "145455.124000", "145455.127000", "145455.131000", "145455.134000", "145631.845000", "145631.849000", "145631.852000", "145631.856000", "145631.859000", "145631.863000", "145631.866000", "145631.870000", "145631.874000", "145631.877000", "145631.880000", "145631.884000", "145631.887000", "145631.891000", "145631.894000", "145631.898000", "145631.901000", "145631.904000", "145631.908000", "145631.911000", "145631.914000", "145631.918000", "145631.921000", "145631.924000"],
      "InstanceCreationTime": ["145015.057000", "145015.061000", "145015.077000", "145015.080000", "145015.084000", "145015.087000", "145015.090000", "145015.094000", "145015.100000", "145015.103000", "145015.107000", "145155.052000", "145155.056000", "145155.059000", "145155.063000", "145155.066000", "145155.078000", "145155.081000", "145155.084000", "145155.088000", "145155.091000", "145155.094000", "145155.101000", "145155.104000", "145155.108000", "145155.111000", "145155.114000", "145155.118000", "145155.121000", "145155.124000", "145155.128000", "145155.150000", "145155.154000", "145155.157000", "145155.160000", "145315.052000", "145315.056000", "145315.059000", "145315.062000", "145315.066000", "145315.069000", "145315.072000", "145315.076000", "145315.079000", "145315.082000", "145315.086000", "145315.089000", "145315.092000", "145315.096000", "145315.099000", "145315.102000", "145315.106000", "145315.109000", "145315.112000", "145315.116000", "145455.052000", "145455.056000", "145455.059000", "145455.063000", "145455.071000", "145455.074000", "145455.078000", "145455.081000", "145455.084000", "145455.088000", "145455.091000", "145455.094000", "145455.098000", "145455.101000", "145455.104000", "145455.107000", "145455.111000", "145455.114000", "145455.117000", "145455.121000", "145455.124000", "145455.127000", "145455.131000", "145455.134000", "145631.845000", "145631.849000", "145631.852000", "145631.856000", "145631.859000", "145631.863000", "145631.866000", "145631.870000", "145631.874000", "145631.877000", "145631.880000", "145631.884000", "145631.887000", "145631.891000", "145631.894000", "145631.898000", "145631.901000", "145631.904000", "145631.908000", "145631.911000", "145631.914000", "145631.918000", "145631.921000", "145631.924000"],
      "InstanceNumber": [1, 2, 3, 4, 5, 6, 7, 8, 9, 10, 11, 12, 13, 14, 15, 16, 17, 18, 19, 20, 21, 22, 23, 24, 25, 26, 27, 28, 29, 30, 31, 32, 33, 34, 35, 36, 37, 38, 39, 40, 41, 42, 43, 44, 45, 46, 47, 48, 49, 50, 51, 52, 53, 54, 55, 56, 57, 58, 59, 60, 61, 62, 63, 64, 65, 66, 67, 68, 69, 70, 71, 72, 73, 74, 75, 76, 77, 78, 79, 80, 81, 82, 83, 84, 85, 86, 87, 88, 89, 90, 91, 92, 93, 94, 95, 96, 97, 98, 99, 100, 101, 102, 103],
      "LargestImagePixelValue": [65535, 65535, 58307, 58200, 58576, 58038, 55260, 56385, 65535, 40585, 40703, 40632, 40697, 39762, 39178, 39761, 38405, 40300, 40228, 40982, 38108, 38047, 42819, 37824, 65535, 19417, 22290, 20578, 19209, 20556, 22237, 19861, 22681, 19269, 20417, 25104, 20256, 21575, 20671, 20588, 65535, 11854, 12001, 15479, 13428, 10588, 11073, 11123, 11361, 11377, 12306, 13053, 13574, 15663, 14678, 11953, 13873, 12115, 13752, 14133, 10766, 15601, 10956, 11475, 10836, 11346, 11992, 10811, 11818, 11516, 12450, 11205, 12771, 65535, 12527, 11215, 11636, 11748, 12101, 13213, 10992, 14460, 10780, 11479, 10313, 12339, 12309, 12858, 12149, 12287, 10934, 11713, 14366, 10902, 14462, 15303, 11158, 11046, 11777, 11510, 13206, 12996, 65535],
      "SequenceName": [
 "ep_b5#1",
 "ep_b5#1",
 "ep_b500#2",
 "ep_b500#3",
 "ep_b500#4",
 "ep_b505#5",
 "ep_b495#6",
 "ep_b500#7",
 "ep_b5#8",
 "ep_b1000#9",
 "ep_b1005#10",
 "ep_b995#11",
 "ep_b1005#12",
 "ep_b995#13",
 "ep_b995#14",
 "ep_b1005#15",
 "ep_b1000#16",
 "ep_b1000#17",
 "ep_b995#18",
 "ep_b1000#19",
 "ep_b995#20",
 "ep_b1000#21",
 "ep_b1005#22",
 "ep_b1005#23",
 "ep_b5#24",
 "ep_b2000#25",
 "ep_b1995#26",
 "ep_b1995#27",
 "ep_b1995#28",
 "ep_b2005#29",
 "ep_b2010#30",
 "ep_b2005#31",
 "ep_b2005#32",
 "ep_b1995#33",
 "ep_b1990#34",
 "ep_b1995#35",
 "ep_b2005#36",
 "ep_b2000#37",
 "ep_b2010#38",
 "ep_b2000#39",
 "ep_b5#40",
 "ep_b3000#41",
 "ep_b3005#42",
 "ep_b3010#43",
 "ep_b3010#44",
 "ep_b3000#45",
 "ep_b3000#46",
 "ep_b2990#47",
 "ep_b3005#48",
 "ep_b3000#49",
 "ep_b2990#50",
 "ep_b2990#51",
 "ep_b2995#52",
 "ep_b2995#53",
 "ep_b3010#54",
 "ep_b3000#55",
 "ep_b2995#56",
 "ep_b3000#57",
 "ep_b2990#58",
 "ep_b2990#59",
 "ep_b3000#60",
 "ep_b2990#61",
 "ep_b2990#62",
 "ep_b2995#63",
 "ep_b3005#64",
 "ep_b3010#65",
 "ep_b3000#66",
 "ep_b3005#67",
 "ep_b3010#68",
 "ep_b3005#69",
 "ep_b3005#70",
 "ep_b3005#71",
 "ep_b2990#72",
 "ep_b5#73",
 "ep_b3010#74",
 "ep_b3000#75",
 "ep_b3005#76",
 "ep_b3005#77",
 "ep_b2995#78",
 "ep_b3005#79",
 "ep_b2995#80",
 "ep_b3010#81",
 "ep_b3010#82",
 "ep_b3005#83",
 "ep_b3000#84",
 "ep_b3005#85",
 "ep_b3010#86",
 "ep_b3010#87",
 "ep_b2990#88",
 "ep_b3010#89",
 "ep_b2995#90",
 "ep_b2995#91",
 "ep_b2990#92",
 "ep_b2995#93",
 "ep_b3005#94",
 "ep_b3005#95",
 "ep_b2995#96",
 "ep_b3000#97",
 "ep_b2990#98",
 "ep_b3000#99",
 "ep_b2995#100",
 "ep_b2995#101",
 "ep_b5#102"
],
      "WindowCenter": [10323.0, 10317.0, 7278.0, 7252.0, 7253.0, 7198.0, 7314.0, 7297.0, 10320.0, 5552.0, 5468.0, 5502.0, 5467.0, 5470.0, 5520.0, 5461.0, 5515.0, 5449.0, 5563.0, 5483.0, 5549.0, 5461.0, 5513.0, 5475.0, 10331.0, 3566.0, 3547.0, 3490.0, 3560.0, 3529.0, 3518.0, 3524.0, 3471.0, 3535.0, 3618.0, 3628.0, 3501.0, 3477.0, 3549.0, 3468.0, 10320.0, 2528.0, 2415.0, 2581.0, 2530.0, 2456.0, 2466.0, 2528.0, 2420.0, 2503.0, 2449.0, 2518.0, 2564.0, 2615.0, 2574.0, 2483.0, 2567.0, 2416.0, 2588.0, 2558.0, 2427.0, 2580.0, 2533.0, 2501.0, 2445.0, 2505.0, 2464.0, 2440.0, 2512.0, 2499.0, 2526.0, 2504.0, 2574.0, 10329.0, 2507.0, 2423.0, 2425.0, 2481.0, 2421.0, 2470.0, 2446.0, 2495.0, 2486.0, 2487.0, 2466.0, 2528.0, 2417.0, 2461.0, 2524.0, 2480.0, 2522.0, 2405.0, 2497.0, 2501.0, 2526.0, 2585.0, 2514.0, 2422.0, 2539.0, 2450.0, 2537.0, 2579.0, 10339.0],
      "WindowWidth": [23079.0, 23063.0, 15411.0, 15359.0, 15353.0, 15286.0, 15495.0, 15453.0, 23071.0, 11915.0, 11791.0, 11845.0, 11783.0, 11809.0, 11885.0, 11764.0, 11856.0, 11751.0, 11939.0, 11781.0, 11930.0, 11759.0, 11864.0, 11771.0, 23104.0, 8075.0, 8027.0, 7933.0, 8060.0, 8009.0, 7985.0, 7992.0, 7897.0, 8008.0, 8172.0, 8182.0, 7953.0, 7884.0, 8026.0, 7876.0, 23062.0, 6067.0, 5811.0, 6131.0, 6033.0, 5918.0, 5930.0, 6060.0, 5828.0, 6025.0, 5879.0, 6009.0, 6130.0, 6219.0, 6135.0, 5974.0, 6143.0, 5811.0, 6153.0, 6085.0, 5854.0, 6122.0, 6085.0, 6020.0, 5907.0, 6030.0, 5920.0, 5881.0, 6028.0, 6005.0, 6060.0, 6031.0, 6126.0, 23088.0, 6000.0, 5842.0, 5849.0, 5962.0, 5826.0, 5918.0, 5905.0, 5953.0, 5983.0, 5990.0, 5959.0, 6072.0, 5814.0, 5905.0, 6046.0, 5947.0, 6075.0, 5791.0, 5962.0, 6014.0, 6027.0, 6155.0, 6044.0, 5831.0, 6073.0, 5891.0, 6073.0, 6163.0, 23108.0]
    },
    "slices": {}
  }
}