{
  "AcquisitionMatrixPE": 82,
  "AcquisitionNumber": 1,
  "AcquisitionTime": "19:14:10.245000",
  "BandwidthPerPixelPhaseEncode": 24.888,
  "BaseResolution": 82,
  "BodyPartExamined": "BRAIN",
  "ConsistencyInfo": "N4_VE11E_LATEST_20181129",
  "ConversionSoftware": "dcm2niix",
  "ConversionSoftwareVersion": "v1.0.20201102",
  "DerivedVendorReportedEchoSpacing": 0.00049,
  "DeviceSerialNumber": "66112",
  "DwellTime": 2e-06,
  "EchoTime": 0.0272,
  "EchoTrainLength": 82,
  "EffectiveEchoSpacing": 0.00049,
  "FlipAngle": 44,
  "ImageComments": "Unaliased MB8/PE3",
  "ImageOrientationPatientDICOM": [0.999933, -0.00669565, 0.00948847, 0.00663189, 0.999955, 0.00673531],
  "ImageType": [
    "ORIGINAL",
    "PRIMARY",
    "M",
    "MB",
    "ND",
    "NORM",
    "MOSAIC"
],
  "ImagingFrequency": 123.252,
  "InPlanePhaseEncodingDirectionDICOM": "COL",
  "InstitutionAddress": "Maynard 3,Hanover,NH,US,03755",
  "InstitutionName": "Dartmouth College - PBS",
  "InstitutionalDepartmentName": "Department",
  "MRAcquisitionType": "2D",
  "MagneticFieldStrength": 3,
  "Manufacturer": "Siemens",
  "ManufacturersModelName": "Prisma",
  "Modality": "MR",
  "MultibandAccelerationFactor": 8,
  "PartialFourier": 1,
  "PatientPosition": "HFS",
  "PercentPhaseFOV": 100,
  "PercentSampling": 100,
  "PhaseEncodingDirection": "j-",
  "PhaseEncodingSteps": 82,
  "PhaseResolution": 1,
  "PixelBandwidth": 3050,
  "ProcedureStepDescription": "Wager_Wager^1076_spacetop",
  "ProtocolName": "func_run-05_task-social_acq-ap-mb8",
  "PulseSequenceDetails": "%CustomerSeq%\\cmrr_mbep2d_bold",
  "ReceiveCoilActiveElements": "HEA;HEP",
  "ReceiveCoilName": "Head_32",
  "ReconMatrixPE": 82,
  "RepetitionTime": 0.46,
  "SAR": 0.0732536,
  "ScanOptions": "FS",
  "ScanningSequence": "EP",
  "SequenceName": "epfid2d1_82",
  "SequenceVariant": "SK\\SS",
  "SeriesDescription": "func_run-05_task-social_acq-ap-mb8",
  "SeriesNumber": 14,
  "ShimSetting": [4143, -7737, -7289, 602, -72, -130, 42, 71],
  "SliceThickness": 2.7,
  "SliceTiming": [0, 0.25, 0.0625, 0.3125, 0.125, 0.3775, 0.1875, 0, 0.25, 0.0625, 0.3125, 0.125, 0.3775, 0.1875, 0, 0.25, 0.0625, 0.3125, 0.125, 0.3775, 0.1875, 0, 0.25, 0.0625, 0.3125, 0.125, 0.3775, 0.1875, 0, 0.25, 0.0625, 0.3125, 0.125, 0.3775, 0.1875, 0, 0.25, 0.0625, 0.3125, 0.125, 0.3775, 0.1875, 0, 0.25, 0.0625, 0.3125, 0.125, 0.3775, 0.1875, 0, 0.25, 0.0625, 0.3125, 0.125, 0.3775, 0.1875],
  "SoftwareVersions": "syngo MR E11",
  "SpacingBetweenSlices": 2.7,
  "StationName": "AWP66112",
  "TaskName": "social",
  "TotalReadoutTime": 0.03969,
  "TxRefAmp": 229.838,
  "WipMemBlock": "69a4ffb2-d68a-4ab3-bad8-29377fe91955||Sequence: R016 ve11e/master r/434b28f1; Aug  7 2019 18:53:46 by eja",
  "dcmmeta_affine": [
    [-2.682745933532715, 0.01779288239777088, 0.025739498436450958, 111.46240234375],
    [0.017963945865631104, 2.682806968688965, 0.01801420748233795, -90.53257751464844],
    [0.025456883013248444, -0.018070342019200325, 2.699817419052124, -72.25346374511719],
    [0.0, 0.0, 0.0, 1.0]
],
  "dcmmeta_reorient_transform": [
    [0.0, -1.0, 0.0, 81.0],
    [1.0, 0.0, 0.0, 0.0],
    [0.0, 0.0, 1.0, 0.0],
    [0.0, 0.0, 0.0, 1.0]
],
  "dcmmeta_shape": [82, 82, 56, 872],
  "dcmmeta_slice_dim": 2,
  "dcmmeta_version": 0.6,
  "global": {
    "const": {
      "AccessionNumber": "A004012",
      "AcquisitionMatrix": [82, 0, 0, 82],
      "AngioFlag": "N",
      "BitsAllocated": 16,
      "BitsStored": 16,
      "BodyPartExamined": "BRAIN",
      "Columns": 656,
      "EchoNumbers": 1,
      "EchoTime": 27.2,
      "EchoTrainLength": 82,
      "FlipAngle": 44.0,
      "HighBit": 15,
      "ImageOrientationPatient": [0.99993256627566, -0.0066956523441, 0.00948847411657, 0.00663189262619, 0.99995532580633, 0.00673530932801],
      "ImagePositionPatient": [-887.95827900408, -891.58475930103, -86.209478294569],
      "ImageType": [
        "ORIGINAL",
        "PRIMARY",
        "M",
        "MB",
        "ND",
        "NORM",
        "MOSAIC"
],
      "ImagedNucleus": "1H",
      "ImagingFrequency": 123.252211,
      "InPlanePhaseEncodingDirection": "COL",
      "MRAcquisitionType": "2D",
      "MagneticFieldStrength": 3.0,
      "Manufacturer": "SIEMENS",
      "ManufacturerModelName": "Prisma",
      "Modality": "MR",
      "NumberOfAverages": 1.0,
      "NumberOfPhaseEncodingSteps": 82,
      "PercentPhaseFieldOfView": 100.0,
      "PercentSampling": 100.0,
      "PerformedProcedureStepStartTime": "181501.135000",
      "PhotometricInterpretation": "MONOCHROME2",
      "PixelBandwidth": 3050.0,
      "PixelRepresentation": 0,
      "PixelSpacing": [2.6829268932343, 2.6829268932343],
      "ProtocolName": "func_run-05_task-social_acq-ap-mb8",
      "RepetitionTime": 460.0,
      "Rows": 656,
      "SAR": 0.07325364947189,
      "SamplesPerPixel": 1,
      "ScanOptions": "FS",
      "ScanningSequence": "EP",
      "SequenceName": "epfid2d1_82",
      "SequenceVariant": [
        "SK",
        "SS"
],
      "SeriesDescription": "func_run-05_task-social_acq-ap-mb8",
      "SeriesNumber": 14,
      "SeriesTime": "191432.619000",
      "SliceLocation": -71.790014791341,
      "SliceThickness": 2.7000000476837,
      "SmallestImagePixelValue": 0,
      "SoftwareVersions": "syngo MR E11",
      "SpacingBetweenSlices": 2.7000001009002,
      "SpecificCharacterSet": "ISO_IR 100",
      "StudyID": "3",
      "StudyTime": "181501.087000",
      "TransmitCoilName": "Body",
      "VariableFlipAngleFlag": "N",
      "WindowCenterWidthExplanation": "Algo1"
    },
    "slices": {}
  },
  "time": {
    "samples": {
      "AcquisitionNumber": [1, 2, 3, 4, 5, 6, 7, 8, 9, 10, 11, 12, 13, 14, 15, 16, 17, 18, 19, 20, 21, 22, 23, 24, 25, 26, 27, 28, 29, 30, 31, 32, 33, 34, 35, 36, 37, 38, 39, 40, 41, 42, 43, 44, 45, 46, 47, 48, 49, 50, 51, 52, 53, 54, 55, 56, 57, 58, 59, 60, 61, 62, 63, 64, 65, 66, 67, 68, 69, 70, 71, 72, 73, 74, 75, 76, 77, 78, 79, 80, 81, 82, 83, 84, 85, 86, 87, 88, 89, 90, 91, 92, 93, 94, 95, 96, 97, 98, 99, 100, 101, 102, 103, 104, 105, 106, 107, 108, 109, 110, 111, 112, 113, 114, 115, 116, 117, 118, 119, 120, 121, 122, 123, 124, 125, 126, 127, 128, 129, 130, 131, 132, 133, 134, 135, 136, 137, 138, 139, 140, 141, 142, 143, 144, 145, 146, 147, 148, 149, 150, 151, 152, 153, 154, 155, 156, 157, 158, 159, 160, 161, 162, 163, 164, 165, 166, 167, 168, 169, 170, 171, 172, 173, 174, 175, 176, 177, 178, 179, 180, 181, 182, 183, 184, 185, 186, 187, 188, 189, 190, 191, 192, 193, 194, 195, 196, 197, 198, 199, 200, 201, 202, 203, 204, 205, 206, 207, 208, 209, 210, 211, 212, 213, 214, 215, 216, 217, 218, 219, 220, 221, 222, 223, 224, 225, 226, 227, 228, 229, 230, 231, 232, 233, 234, 235, 236, 237, 238, 239, 240, 241, 242, 243, 244, 245, 246, 247, 248, 249, 250, 251, 252, 253, 254, 255, 256, 257, 258, 259, 260, 261, 262, 263, 264, 265, 266, 267, 268, 269, 270, 271, 272, 273, 274, 275, 276, 277, 278, 279, 280, 281, 282, 283, 284, 285, 286, 287, 288, 289, 290, 291, 292, 293, 294, 295, 296, 297, 298, 299, 300, 301, 302, 303, 304, 305, 306, 307, 308, 309, 310, 311, 312, 313, 314, 315, 316, 317, 318, 319, 320, 321, 322, 323, 324, 325, 326, 327, 328, 329, 330, 331, 332, 333, 334, 335, 336, 337, 338, 339, 340, 341, 342, 343, 344, 345, 346, 347, 348, 349, 350, 351, 352, 353, 354, 355, 356, 357, 358, 359, 360, 361, 362, 363, 364, 365, 366, 367, 368, 369, 370, 371, 372, 373, 374, 375, 376, 377, 378, 379, 380, 381, 382, 383, 384, 385, 386, 387, 388, 389, 390, 391, 392, 393, 394, 395, 396, 397, 398, 399, 400, 401, 402, 403, 404, 405, 406, 407, 408, 409, 410, 411, 412, 413, 414, 415, 416, 417, 418, 419, 420, 421, 422, 423, 424, 425, 426, 427, 428, 429, 430, 431, 432, 433, 434, 435, 436, 437, 438, 439, 440, 441, 442, 443, 444, 445, 446, 447, 448, 449, 450, 451, 452, 453, 454, 455, 456, 457, 458, 459, 460, 461, 462, 463, 464, 465, 466, 467, 468, 469, 470, 471, 472, 473, 474, 475, 476, 477, 478, 479, 480, 481, 482, 483, 484, 485, 486, 487, 488, 489, 490, 491, 492, 493, 494, 495, 496, 497, 498, 499, 500, 501, 502, 503, 504, 505, 506, 507, 508, 509, 510, 511, 512, 513, 514, 515, 516, 517, 518, 519, 520, 521, 522, 523, 524, 525, 526, 527, 528, 529, 530, 531, 532, 533, 534, 535, 536, 537, 538, 539, 540, 541, 542, 543, 544, 545, 546, 547, 548, 549, 550, 551, 552, 553, 554, 555, 556, 557, 558, 559, 560, 561, 562, 563, 564, 565, 566, 567, 568, 569, 570, 571, 572, 573, 574, 575, 576, 577, 578, 579, 580, 581, 582, 583, 584, 585, 586, 587, 588, 589, 590, 591, 592, 593, 594, 595, 596, 597, 598, 599, 600, 601, 602, 603, 604, 605, 606, 607, 608, 609, 610, 611, 612, 613, 614, 615, 616, 617, 618, 619, 620, 621, 622, 623, 624, 625, 626, 627, 628, 629, 630, 631, 632, 633, 634, 635, 636, 637, 638, 639, 640, 641, 642, 643, 644, 645, 646, 647, 648, 649, 650, 651, 652, 653, 654, 655, 656, 657, 658, 659, 660, 661, 662, 663, 664, 665, 666, 667, 668, 669, 670, 671, 672, 673, 674, 675, 676, 677, 678, 679, 680, 681, 682, 683, 684, 685, 686, 687, 688, 689, 690, 691, 692, 693, 694, 695, 696, 697, 698, 699, 700, 701, 702, 703, 704, 705, 706, 707, 708, 709, 710, 711, 712, 713, 714, 715, 716, 717, 718, 719, 720, 721, 722, 723, 724, 725, 726, 727, 728, 729, 730, 731, 732, 733, 734, 735, 736, 737, 738, 739, 740, 741, 742, 743, 744, 745, 746, 747, 748, 749, 750, 751, 752, 753, 754, 755, 756, 757, 758, 759, 760, 761, 762, 763, 764, 765, 766, 767, 768, 769, 770, 771, 772, 773, 774, 775, 776, 777, 778, 779, 780, 781, 782, 783, 784, 785, 786, 787, 788, 789, 790, 791, 792, 793, 794, 795, 796, 797, 798, 799, 800, 801, 802, 803, 804, 805, 806, 807, 808, 809, 810, 811, 812, 813, 814, 815, 816, 817, 818, 819, 820, 821, 822, 823, 824, 825, 826, 827, 828, 829, 830, 831, 832, 833, 834, 835, 836, 837, 838, 839, 840, 841, 842, 843, 844, 845, 846, 847, 848, 849, 850, 851, 852, 853, 854, 855, 856, 857, 858, 859, 860, 861, 862, 863, 864, 865, 866, 867, 868, 869, 870, 871, 872],
      "AcquisitionTime": ["191410.245000", "191410.705000", "191411.165000", "191411.625000", "191412.085000", "191412.545000", "191413.005000", "191413.465000", "191413.925000", "191414.385000", "191414.845000", "191415.305000", "191415.765000", "191416.225000", "191416.685000", "191417.145000", "191417.605000", "191418.065000", "191418.525000", "191418.985000", "191419.445000", "191419.905000", "191420.365000", "191420.825000", "191421.285000", "191421.745000", "191422.205000", "191422.665000", "191423.125000", "191423.585000", "191424.045000", "191424.505000", "191424.965000", "191425.425000", "191425.885000", "191426.345000", "191426.805000", "191427.265000", "191427.725000", "191428.185000", "191428.645000", "191429.105000", "191429.565000", "191430.025000", "191430.485000", "191430.945000", "191431.405000", "191431.865000", "191432.325000", "191432.785000", "191433.245000", "191433.705000", "191434.165000", "191434.625000", "191435.085000", "191435.545000", "191436.005000", "191436.465000", "191436.925000", "191437.385000", "191437.845000", "191438.305000", "191438.765000", "191439.225000", "191439.685000", "191440.145000", "191440.605000", "191441.065000", "191441.525000", "191441.985000", "191442.445000", "191442.905000", "191443.365000", "191443.825000", "191444.285000", "191444.745000", "191445.205000", "191445.665000", "191446.125000", "191446.585000", "191447.045000", "191447.505000", "191447.965000", "191448.425000", "191448.885000", "191449.345000", "191449.805000", "191450.265000", "191450.725000", "191451.185000", "191451.645000", "191452.105000", "191452.565000", "191453.025000", "191453.485000", "191453.945000", "191454.405000", "191454.865000", "191455.325000", "191455.785000", "191456.245000", "191456.705000", "191457.165000", "191457.625000", "191458.085000", "191458.545000", "191459.005000", "191459.465000", "191459.925000", "191500.385000", "191500.845000", "191501.305000", "191501.765000", "191502.225000", "191502.685000", "191503.145000", "191503.605000", "191504.065000", "191504.525000", "191504.985000", "191505.445000", "191505.905000", "191506.365000", "191506.825000", "191507.285000", "191507.745000", "191508.205000", "191508.665000", "191509.125000", "191509.585000", "191510.045000", "191510.505000", "191510.965000", "191511.425000", "191511.885000", "191512.345000", "191512.805000", "191513.265000", "191513.725000", "191514.185000", "191514.645000", "191515.105000", "191515.565000", "191516.025000", "191516.485000", "191516.945000", "191517.405000", "191517.865000", "191518.325000", "191518.785000", "191519.245000", "191519.705000", "191520.165000", "191520.625000", "191521.085000", "191521.545000", "191522.005000", "191522.465000", "191522.925000", "191523.385000", "191523.845000", "191524.305000", "191524.765000", "191525.225000", "191525.685000", "191526.145000", "191526.605000", "191527.065000", "191527.525000", "191527.985000", "191528.445000", "191528.905000", "191529.365000", "191529.825000", "191530.285000", "191530.745000", "191531.205000", "191531.665000", "191532.125000", "191532.585000", "191533.045000", "191533.505000", "191533.965000", "191534.425000", "191534.885000", "191535.345000", "191535.805000", "191536.265000", "191536.725000", "191537.185000", "191537.645000", "191538.105000", "191538.565000", "191539.025000", "191539.485000", "191539.945000", "191540.405000", "191540.865000", "191541.325000", "191541.785000", "191542.245000", "191542.705000", "191543.165000", "191543.625000", "191544.085000", "191544.545000", "191545.005000", "191545.465000", "191545.925000", "191546.385000", "191546.845000", "191547.305000", "191547.765000", "191548.225000", "191548.685000", "191549.145000", "191549.605000", "191550.065000", "191550.525000", "191550.985000", "191551.445000", "191551.905000", "191552.365000", "191552.825000", "191553.285000", "191553.745000", "191554.205000", "191554.665000", "191555.125000", "191555.585000", "191556.045000", "191556.505000", "191556.965000", "191557.425000", "191557.885000", "191558.345000", "191558.805000", "191559.265000", "191559.725000", "191600.185000", "191600.645000", "191601.105000", "191601.565000", "191602.025000", "191602.485000", "191602.945000", "191603.405000", "191603.865000", "191604.325000", "191604.785000", "191605.245000", "191605.705000", "191606.165000", "191606.625000", "191607.085000", "191607.545000", "191608.005000", "191608.465000", "191608.925000", "191609.385000", "191609.845000", "191610.305000", "191610.765000", "191611.225000", "191611.685000", "191612.145000", "191612.605000", "191613.065000", "191613.525000", "191613.985000", "191614.445000", "191614.905000", "191615.365000", "191615.825000", "191616.285000", "191616.745000", "191617.205000", "191617.665000", "191618.125000", "191618.585000", "191619.045000", "191619.505000", "191619.965000", "191620.425000", "191620.885000", "191621.345000", "191621.805000", "191622.265000", "191622.725000", "191623.185000", "191623.645000", "191624.105000", "191624.565000", "191625.025000", "191625.485000", "191625.945000", "191626.405000", "191626.865000", "191627.325000", "191627.785000", "191628.245000", "191628.705000", "191629.165000", "191629.625000", "191630.085000", "191630.545000", "191631.005000", "191631.465000", "191631.925000", "191632.385000", "191632.845000", "191633.305000", "191633.765000", "191634.225000", "191634.685000", "191635.145000", "191635.605000", "191636.065000", "191636.525000", "191636.985000", "191637.445000", "191637.905000", "191638.365000", "191638.825000", "191639.285000", "191639.745000", "191640.205000", "191640.665000", "191641.125000", "191641.585000", "191642.045000", "191642.505000", "191642.965000", "191643.425000", "191643.885000", "191644.345000", "191644.805000", "191645.265000", "191645.725000", "191646.185000", "191646.645000", "191647.105000", "191647.565000", "191648.025000", "191648.485000", "191648.945000", "191649.405000", "191649.865000", "191650.325000", "191650.785000", "191651.245000", "191651.705000", "191652.165000", "191652.625000", "191653.085000", "191653.545000", "191654.005000", "191654.465000", "191654.925000", "191655.385000", "191655.845000", "191656.305000", "191656.765000", "191657.225000", "191657.685000", "191658.145000", "191658.605000", "191659.065000", "191659.525000", "191659.985000", "191700.445000", "191700.905000", "191701.365000", "191701.825000", "191702.285000", "191702.745000", "191703.205000", "191703.665000", "191704.125000", "191704.585000", "191705.045000", "191705.505000", "191705.965000", "191706.425000", "191706.885000", "191707.345000", "191707.805000", "191708.265000", "191708.725000", "191709.185000", "191709.645000", "191710.105000", "191710.565000", "191711.025000", "191711.485000", "191711.945000", "191712.405000", "191712.865000", "191713.325000", "191713.785000", "191714.245000", "191714.705000", "191715.165000", "191715.625000", "191716.085000", "191716.545000", "191717.005000", "191717.465000", "191717.925000", "191718.385000", "191718.845000", "191719.305000", "191719.765000", "191720.225000", "191720.685000", "191721.145000", "191721.605000", "191722.065000", "191722.525000", "191722.985000", "191723.445000", "191723.905000", "191724.365000", "191724.825000", "191725.285000", "191725.745000", "191726.205000", "191726.665000", "191727.125000", "191727.585000", "191728.045000", "191728.505000", "191728.965000", "191729.425000", "191729.885000", "191730.345000", "191730.805000", "191731.265000", "191731.725000", "191732.185000", "191732.645000", "191733.105000", "191733.565000", "191734.025000", "191734.485000", "191734.945000", "191735.405000", "191735.865000", "191736.325000", "191736.785000", "191737.245000", "191737.705000", "191738.165000", "191738.625000", "191739.085000", "191739.545000", "191740.005000", "191740.465000", "191740.925000", "191741.385000", "191741.845000", "191742.305000", "191742.765000", "191743.225000", "191743.685000", "191744.145000", "191744.605000", "191745.065000", "191745.525000", "191745.985000", "191746.445000", "191746.905000", "191747.365000", "191747.825000", "191748.285000", "191748.745000", "191749.205000", "191749.665000", "191750.125000", "191750.585000", "191751.045000", "191751.505000", "191751.965000", "191752.425000", "191752.885000", "191753.345000", "191753.805000", "191754.265000", "191754.725000", "191755.185000", "191755.645000", "191756.105000", "191756.565000", "191757.025000", "191757.485000", "191757.945000", "191758.405000", "191758.865000", "191759.325000", "191759.785000", "191800.245000", "191800.705000", "191801.165000", "191801.625000", "191802.085000", "191802.545000", "191803.005000", "191803.465000", "191803.925000", "191804.385000", "191804.845000", "191805.305000", "191805.765000", "191806.225000", "191806.685000", "191807.145000", "191807.605000", "191808.065000", "191808.525000", "191808.985000", "191809.445000", "191809.905000", "191810.365000", "191810.825000", "191811.285000", "191811.745000", "191812.205000", "191812.665000", "191813.125000", "191813.585000", "191814.045000", "191814.505000", "191814.965000", "191815.425000", "191815.885000", "191816.345000", "191816.805000", "191817.265000", "191817.725000", "191818.185000", "191818.645000", "191819.105000", "191819.565000", "191820.025000", "191820.485000", "191820.945000", "191821.405000", "191821.865000", "191822.325000", "191822.785000", "191823.245000", "191823.705000", "191824.165000", "191824.625000", "191825.085000", "191825.545000", "191826.005000", "191826.465000", "191826.925000", "191827.385000", "191827.845000", "191828.305000", "191828.765000", "191829.225000", "191829.685000", "191830.145000", "191830.605000", "191831.065000", "191831.525000", "191831.985000", "191832.445000", "191832.905000", "191833.365000", "191833.825000", "191834.285000", "191834.745000", "191835.205000", "191835.665000", "191836.125000", "191836.585000", "191837.045000", "191837.505000", "191837.965000", "191838.425000", "191838.885000", "191839.345000", "191839.805000", "191840.265000", "191840.725000", "191841.185000", "191841.645000", "191842.105000", "191842.565000", "191843.025000", "191843.485000", "191843.945000", "191844.405000", "191844.865000", "191845.325000", "191845.785000", "191846.245000", "191846.705000", "191847.165000", "191847.625000", "191848.085000", "191848.545000", "191849.005000", "191849.465000", "191849.925000", "191850.385000", "191850.845000", "191851.305000", "191851.765000", "191852.225000", "191852.685000", "191853.145000", "191853.605000", "191854.065000", "191854.525000", "191854.985000", "191855.445000", "191855.905000", "191856.365000", "191856.825000", "191857.285000", "191857.745000", "191858.205000", "191858.665000", "191859.125000", "191859.585000", "191900.045000", "191900.505000", "191900.965000", "191901.425000", "191901.885000", "191902.345000", "191902.805000", "191903.265000", "191903.725000", "191904.185000", "191904.645000", "191905.105000", "191905.565000", "191906.025000", "191906.485000", "191906.945000", "191907.405000", "191907.865000", "191908.325000", "191908.785000", "191909.245000", "191909.705000", "191910.165000", "191910.625000", "191911.085000", "191911.545000", "191912.005000", "191912.465000", "191912.925000", "191913.385000", "191913.845000", "191914.305000", "191914.765000", "191915.225000", "191915.685000", "191916.145000", "191916.605000", "191917.065000", "191917.525000", "191917.985000", "191918.445000", "191918.905000", "191919.365000", "191919.825000", "191920.285000", "191920.745000", "191921.205000", "191921.665000", "191922.125000", "191922.585000", "191923.045000", "191923.505000", "191923.965000", "191924.425000", "191924.885000", "191925.345000", "191925.805000", "191926.265000", "191926.725000", "191927.185000", "191927.645000", "191928.105000", "191928.565000", "191929.025000", "191929.485000", "191929.945000", "191930.405000", "191930.865000", "191931.325000", "191931.785000", "191932.245000", "191932.705000", "191933.165000", "191933.625000", "191934.085000", "191934.545000", "191935.005000", "191935.465000", "191935.925000", "191936.385000", "191936.845000", "191937.305000", "191937.765000", "191938.225000", "191938.685000", "191939.145000", "191939.605000", "191940.065000", "191940.525000", "191940.985000", "191941.445000", "191941.905000", "191942.365000", "191942.825000", "191943.285000", "191943.745000", "191944.205000", "191944.665000", "191945.125000", "191945.585000", "191946.045000", "191946.505000", "191946.965000", "191947.425000", "191947.885000", "191948.345000", "191948.805000", "191949.265000", "191949.725000", "191950.185000", "191950.645000", "191951.105000", "191951.565000", "191952.025000", "191952.485000", "191952.945000", "191953.405000", "191953.865000", "191954.325000", "191954.785000", "191955.245000", "191955.705000", "191956.165000", "191956.625000", "191957.085000", "191957.545000", "191958.005000", "191958.465000", "191958.925000", "191959.385000", "191959.845000", "192000.305000", "192000.765000", "192001.225000", "192001.685000", "192002.145000", "192002.605000", "192003.065000", "192003.525000", "192003.985000", "192004.445000", "192004.905000", "192005.365000", "192005.825000", "192006.285000", "192006.745000", "192007.205000", "192007.665000", "192008.125000", "192008.585000", "192009.045000", "192009.505000", "192009.965000", "192010.425000", "192010.885000", "192011.345000", "192011.805000", "192012.265000", "192012.725000", "192013.185000", "192013.645000", "192014.105000", "192014.565000", "192015.025000", "192015.485000", "192015.945000", "192016.405000", "192016.865000", "192017.325000", "192017.785000", "192018.245000", "192018.705000", "192019.165000", "192019.625000", "192020.085000", "192020.545000", "192021.005000", "192021.465000", "192021.925000", "192022.385000", "192022.845000", "192023.305000", "192023.765000", "192024.225000", "192024.685000", "192025.145000", "192025.605000", "192026.065000", "192026.525000", "192026.985000", "192027.445000", "192027.905000", "192028.365000", "192028.825000", "192029.285000", "192029.745000", "192030.205000", "192030.665000", "192031.125000", "192031.585000", "192032.045000", "192032.505000", "192032.965000", "192033.425000", "192033.885000", "192034.345000", "192034.805000", "192035.265000", "192035.725000", "192036.185000", "192036.645000", "192037.105000", "192037.565000", "192038.025000", "192038.485000", "192038.945000", "192039.405000", "192039.865000", "192040.325000", "192040.785000", "192041.245000", "192041.705000", "192042.165000", "192042.625000", "192043.085000", "192043.545000", "192044.005000", "192044.465000", "192044.925000", "192045.385000", "192045.845000", "192046.305000", "192046.765000", "192047.225000", "192047.685000", "192048.145000", "192048.605000", "192049.065000", "192049.525000", "192049.985000", "192050.445000", "192050.905000"],
