{
  "AcquisitionMatrixPE": 82,
  "AcquisitionNumber": 1,
  "AcquisitionTime": "19:00:8.685000",
  "BandwidthPerPixelPhaseEncode": 24.888,
  "BaseResolution": 82,
  "BodyPartExamined": "BRAIN",
  "ConsistencyInfo": "N4_VE11E_LATEST_20181129",
  "ConversionSoftware": "dcm2niix",
  "ConversionSoftwareVersion": "v1.0.20201102",
  "DerivedVendorReportedEchoSpacing": 0.00049,
  "DeviceSerialNumber": "66112",
  "DwellTime": 2e-06,
  "EchoTime": 0.0272,
  "EchoTrainLength": 82,
  "EffectiveEchoSpacing": 0.00049,
  "FlipAngle": 44,
  "ImageComments": "Unaliased MB8/PE3",
  "ImageOrientationPatientDICOM": [0.999933, -0.00669565, 0.00948847, 0.00663189, 0.999955, 0.00673531],
  "ImageType": [
    "ORIGINAL",
    "PRIMARY",
    "M",
    "MB",
    "ND",
    "NORM",
    "MOSAIC"
],
  "ImagingFrequency": 123.252,
  "InPlanePhaseEncodingDirectionDICOM": "COL",
  "InstitutionAddress": "Maynard 3,Hanover,NH,US,03755",
  "InstitutionName": "Dartmouth College - PBS",
  "InstitutionalDepartmentName": "Department",
  "MRAcquisitionType": "2D",
  "MagneticFieldStrength": 3,
  "Manufacturer": "Siemens",
  "ManufacturersModelName": "Prisma",
  "Modality": "MR",
  "MultibandAccelerationFactor": 8,
  "PartialFourier": 1,
  "PatientPosition": "HFS",
  "PercentPhaseFOV": 100,
  "PercentSampling": 100,
  "PhaseEncodingDirection": "j-",
  "PhaseEncodingSteps": 82,
  "PhaseResolution": 1,
  "PixelBandwidth": 3050,
  "ProcedureStepDescription": "Wager_Wager^1076_spacetop",
  "ProtocolName": "func_run-03_task-social_acq-ap-mb8",
  "PulseSequenceDetails": "%CustomerSeq%\\cmrr_mbep2d_bold",
  "ReceiveCoilActiveElements": "HEA;HEP",
  "ReceiveCoilName": "Head_32",
  "ReconMatrixPE": 82,
  "RepetitionTime": 0.46,
  "SAR": 0.0732536,
  "ScanOptions": "FS",
  "ScanningSequence": "EP",
  "SequenceName": "epfid2d1_82",
  "SequenceVariant": "SK\\SS",
  "SeriesDescription": "func_run-03_task-social_acq-ap-mb8",
  "SeriesNumber": 10,
  "ShimSetting": [4143, -7737, -7289, 602, -72, -130, 42, 71],
  "SliceThickness": 2.7,
  "SliceTiming": [0, 0.25, 0.0625, 0.315, 0.125, 0.3775, 0.1875, 0, 0.25, 0.0625, 0.315, 0.125, 0.3775, 0.1875, 0, 0.25, 0.0625, 0.315, 0.125, 0.3775, 0.1875, 0, 0.25, 0.0625, 0.315, 0.125, 0.3775, 0.1875, 0, 0.25, 0.0625, 0.315, 0.125, 0.3775, 0.1875, 0, 0.25, 0.0625, 0.315, 0.125, 0.3775, 0.1875, 0, 0.25, 0.0625, 0.315, 0.125, 0.3775, 0.1875, 0, 0.25, 0.0625, 0.315, 0.125, 0.3775, 0.1875],
  "SoftwareVersions": "syngo MR E11",
  "SpacingBetweenSlices": 2.7,
  "StationName": "AWP66112",
  "TaskName": "social",
  "TotalReadoutTime": 0.03969,
  "TxRefAmp": 229.838,
  "WipMemBlock": "27aa6955-0a16-488c-a19b-8e2ee2783504||Sequence: R016 ve11e/master r/434b28f1; Aug  7 2019 18:53:46 by eja",
  "dcmmeta_affine": [
    [-2.682745933532715, 0.01779288239777088, 0.025739498436450958, 111.46240234375],
    [0.017963945865631104, 2.682806968688965, 0.01801420748233795, -90.53257751464844],
    [0.025456883013248444, -0.018070342019200325, 2.699817419052124, -72.25346374511719],
    [0.0, 0.0, 0.0, 1.0]
],
  "dcmmeta_reorient_transform": [
    [0.0, -1.0, 0.0, 81.0],
    [1.0, 0.0, 0.0, 0.0],
    [0.0, 0.0, 1.0, 0.0],
    [0.0, 0.0, 0.0, 1.0]
],
  "dcmmeta_shape": [82, 82, 56, 872],
  "dcmmeta_slice_dim": 2,
  "dcmmeta_version": 0.6,
  "global": {
    "const": {
      "AccessionNumber": "A004012",
      "AcquisitionMatrix": [82, 0, 0, 82],
      "AngioFlag": "N",
      "BitsAllocated": 16,
      "BitsStored": 16,
      "BodyPartExamined": "BRAIN",
      "Columns": 656,
      "EchoNumbers": 1,
      "EchoTime": 27.2,
      "EchoTrainLength": 82,
      "FlipAngle": 44.0,
      "HighBit": 15,
      "ImageOrientationPatient": [0.99993256627566, -0.0066956523441, 0.00948847411657, 0.00663189262619, 0.99995532580633, 0.00673530932801],
      "ImagePositionPatient": [-887.95827900408, -891.58475930103, -86.209478294569],
      "ImageType": [
        "ORIGINAL",
        "PRIMARY",
        "M",
        "MB",
        "ND",
        "NORM",
        "MOSAIC"
],
      "ImagedNucleus": "1H",
      "ImagingFrequency": 123.252199,
      "InPlanePhaseEncodingDirection": "COL",
      "MRAcquisitionType": "2D",
      "MagneticFieldStrength": 3.0,
      "Manufacturer": "SIEMENS",
      "ManufacturerModelName": "Prisma",
      "Modality": "MR",
      "NumberOfAverages": 1.0,
      "NumberOfPhaseEncodingSteps": 82,
      "PercentPhaseFieldOfView": 100.0,
      "PercentSampling": 100.0,
      "PerformedProcedureStepStartTime": "181501.135000",
      "PhotometricInterpretation": "MONOCHROME2",
      "PixelBandwidth": 3050.0,
      "PixelRepresentation": 0,
      "PixelSpacing": [2.6829268932343, 2.6829268932343],
      "ProtocolName": "func_run-03_task-social_acq-ap-mb8",
      "RepetitionTime": 460.0,
      "Rows": 656,
      "SAR": 0.07325364947189,
      "SamplesPerPixel": 1,
      "ScanOptions": "FS",
      "ScanningSequence": "EP",
      "SequenceName": "epfid2d1_82",
      "SequenceVariant": [
        "SK",
        "SS"
],
      "SeriesDescription": "func_run-03_task-social_acq-ap-mb8",
      "SeriesNumber": 10,
      "SeriesTime": "190032.452000",
      "SliceLocation": -71.790014791341,
      "SliceThickness": 2.7000000476837,
      "SmallestImagePixelValue": 0,
      "SoftwareVersions": "syngo MR E11",
      "SpacingBetweenSlices": 2.7000001009002,
      "SpecificCharacterSet": "ISO_IR 100",
      "StudyID": "3",
      "StudyTime": "181501.087000",
      "TransmitCoilName": "Body",
      "VariableFlipAngleFlag": "N",
      "WindowCenterWidthExplanation": "Algo1"
    },
    "slices": {}
  },
  "time": {
    "samples": {
      "AcquisitionNumber": [1, 2, 3, 4, 5, 6, 7, 8, 9, 10, 11, 12, 13, 14, 15, 16, 17, 18, 19, 20, 21, 22, 23, 24, 25, 26, 27, 28, 29, 30, 31, 32, 33, 34, 35, 36, 37, 38, 39, 40, 41, 42, 43, 44, 45, 46, 47, 48, 49, 50, 51, 52, 53, 54, 55, 56, 57, 58, 59, 60, 61, 62, 63, 64, 65, 66, 67, 68, 69, 70, 71, 72, 73, 74, 75, 76, 77, 78, 79, 80, 81, 82, 83, 84, 85, 86, 87, 88, 89, 90, 91, 92, 93, 94, 95, 96, 97, 98, 99, 100, 101, 102, 103, 104, 105, 106, 107, 108, 109, 110, 111, 112, 113, 114, 115, 116, 117, 118, 119, 120, 121, 122, 123, 124, 125, 126, 127, 128, 129, 130, 131, 132, 133, 134, 135, 136, 137, 138, 139, 140, 141, 142, 143, 144, 145, 146, 147, 148, 149, 150, 151, 152, 153, 154, 155, 156, 157, 158, 159, 160, 161, 162, 163, 164, 165, 166, 167, 168, 169, 170, 171, 172, 173, 174, 175, 176, 177, 178, 179, 180, 181, 182, 183, 184, 185, 186, 187, 188, 189, 190, 191, 192, 193, 194, 195, 196, 197, 198, 199, 200, 201, 202, 203, 204, 205, 206, 207, 208, 209, 210, 211, 212, 213, 214, 215, 216, 217, 218, 219, 220, 221, 222, 223, 224, 225, 226, 227, 228, 229, 230, 231, 232, 233, 234, 235, 236, 237, 238, 239, 240, 241, 242, 243, 244, 245, 246, 247, 248, 249, 250, 251, 252, 253, 254, 255, 256, 257, 258, 259, 260, 261, 262, 263, 264, 265, 266, 267, 268, 269, 270, 271, 272, 273, 274, 275, 276, 277, 278, 279, 280, 281, 282, 283, 284, 285, 286, 287, 288, 289, 290, 291, 292, 293, 294, 295, 296, 297, 298, 299, 300, 301, 302, 303, 304, 305, 306, 307, 308, 309, 310, 311, 312, 313, 314, 315, 316, 317, 318, 319, 320, 321, 322, 323, 324, 325, 326, 327, 328, 329, 330, 331, 332, 333, 334, 335, 336, 337, 338, 339, 340, 341, 342, 343, 344, 345, 346, 347, 348, 349, 350, 351, 352, 353, 354, 355, 356, 357, 358, 359, 360, 361, 362, 363, 364, 365, 366, 367, 368, 369, 370, 371, 372, 373, 374, 375, 376, 377, 378, 379, 380, 381, 382, 383, 384, 385, 386, 387, 388, 389, 390, 391, 392, 393, 394, 395, 396, 397, 398, 399, 400, 401, 402, 403, 404, 405, 406, 407, 408, 409, 410, 411, 412, 413, 414, 415, 416, 417, 418, 419, 420, 421, 422, 423, 424, 425, 426, 427, 428, 429, 430, 431, 432, 433, 434, 435, 436, 437, 438, 439, 440, 441, 442, 443, 444, 445, 446, 447, 448, 449, 450, 451, 452, 453, 454, 455, 456, 457, 458, 459, 460, 461, 462, 463, 464, 465, 466, 467, 468, 469, 470, 471, 472, 473, 474, 475, 476, 477, 478, 479, 480, 481, 482, 483, 484, 485, 486, 487, 488, 489, 490, 491, 492, 493, 494, 495, 496, 497, 498, 499, 500, 501, 502, 503, 504, 505, 506, 507, 508, 509, 510, 511, 512, 513, 514, 515, 516, 517, 518, 519, 520, 521, 522, 523, 524, 525, 526, 527, 528, 529, 530, 531, 532, 533, 534, 535, 536, 537, 538, 539, 540, 541, 542, 543, 544, 545, 546, 547, 548, 549, 550, 551, 552, 553, 554, 555, 556, 557, 558, 559, 560, 561, 562, 563, 564, 565, 566, 567, 568, 569, 570, 571, 572, 573, 574, 575, 576, 577, 578, 579, 580, 581, 582, 583, 584, 585, 586, 587, 588, 589, 590, 591, 592, 593, 594, 595, 596, 597, 598, 599, 600, 601, 602, 603, 604, 605, 606, 607, 608, 609, 610, 611, 612, 613, 614, 615, 616, 617, 618, 619, 620, 621, 622, 623, 624, 625, 626, 627, 628, 629, 630, 631, 632, 633, 634, 635, 636, 637, 638, 639, 640, 641, 642, 643, 644, 645, 646, 647, 648, 649, 650, 651, 652, 653, 654, 655, 656, 657, 658, 659, 660, 661, 662, 663, 664, 665, 666, 667, 668, 669, 670, 671, 672, 673, 674, 675, 676, 677, 678, 679, 680, 681, 682, 683, 684, 685, 686, 687, 688, 689, 690, 691, 692, 693, 694, 695, 696, 697, 698, 699, 700, 701, 702, 703, 704, 705, 706, 707, 708, 709, 710, 711, 712, 713, 714, 715, 716, 717, 718, 719, 720, 721, 722, 723, 724, 725, 726, 727, 728, 729, 730, 731, 732, 733, 734, 735, 736, 737, 738, 739, 740, 741, 742, 743, 744, 745, 746, 747, 748, 749, 750, 751, 752, 753, 754, 755, 756, 757, 758, 759, 760, 761, 762, 763, 764, 765, 766, 767, 768, 769, 770, 771, 772, 773, 774, 775, 776, 777, 778, 779, 780, 781, 782, 783, 784, 785, 786, 787, 788, 789, 790, 791, 792, 793, 794, 795, 796, 797, 798, 799, 800, 801, 802, 803, 804, 805, 806, 807, 808, 809, 810, 811, 812, 813, 814, 815, 816, 817, 818, 819, 820, 821, 822, 823, 824, 825, 826, 827, 828, 829, 830, 831, 832, 833, 834, 835, 836, 837, 838, 839, 840, 841, 842, 843, 844, 845, 846, 847, 848, 849, 850, 851, 852, 853, 854, 855, 856, 857, 858, 859, 860, 861, 862, 863, 864, 865, 866, 867, 868, 869, 870, 871, 872],
      "AcquisitionTime": ["190008.685000", "190009.145000", "190009.605000", "190010.065000", "190010.525000", "190010.985000", "190011.445000", "190011.905000", "190012.365000", "190012.825000", "190013.285000", "190013.745000", "190014.205000", "190014.665000", "190015.125000", "190015.585000", "190016.045000", "190016.505000", "190016.965000", "190017.425000", "190017.885000", "190018.345000", "190018.805000", "190019.265000", "190019.725000", "190020.185000", "190020.645000", "190021.105000", "190021.565000", "190022.025000", "190022.485000", "190022.945000", "190023.405000", "190023.865000", "190024.325000", "190024.785000", "190025.245000", "190025.705000", "190026.165000", "190026.625000", "190027.085000", "190027.545000", "190028.005000", "190028.465000", "190028.925000", "190029.385000", "190029.845000", "190030.305000", "190030.765000", "190031.225000", "190031.685000", "190032.145000", "190032.605000", "190033.065000", "190033.525000", "190033.985000", "190034.445000", "190034.905000", "190035.365000", "190035.825000", "190036.285000", "190036.745000", "190037.205000", "190037.665000", "190038.125000", "190038.585000", "190039.045000", "190039.505000", "190039.965000", "190040.425000", "190040.885000", "190041.345000", "190041.805000", "190042.265000", "190042.725000", "190043.185000", "190043.645000", "190044.105000", "190044.565000", "190045.025000", "190045.485000", "190045.945000", "190046.405000", "190046.865000", "190047.325000", "190047.785000", "190048.245000", "190048.705000", "190049.165000", "190049.625000", "190050.085000", "190050.545000", "190051.005000", "190051.465000", "190051.925000", "190052.385000", "190052.845000", "190053.305000", "190053.765000", "190054.225000", "190054.685000", "190055.145000", "190055.605000", "190056.065000", "190056.525000", "190056.985000", "190057.445000", "190057.905000", "190058.365000", "190058.825000", "190059.285000", "190059.745000", "190100.205000", "190100.665000", "190101.125000", "190101.585000", "190102.045000", "190102.505000", "190102.965000", "190103.425000", "190103.885000", "190104.345000", "190104.805000", "190105.265000", "190105.725000", "190106.185000", "190106.645000", "190107.105000", "190107.565000", "190108.025000", "190108.485000", "190108.945000", "190109.405000", "190109.865000", "190110.325000", "190110.785000", "190111.245000", "190111.705000", "190112.165000", "190112.625000", "190113.085000", "190113.545000", "190114.005000", "190114.465000", "190114.925000", "190115.385000", "190115.845000", "190116.305000", "190116.765000", "190117.225000", "190117.685000", "190118.145000", "190118.605000", "190119.065000", "190119.525000", "190119.985000", "190120.445000", "190120.905000", "190121.365000", "190121.825000", "190122.285000", "190122.745000", "190123.205000", "190123.665000", "190124.125000", "190124.585000", "190125.045000", "190125.505000", "190125.965000", "190126.425000", "190126.885000", "190127.345000", "190127.805000", "190128.265000", "190128.725000", "190129.185000", "190129.645000", "190130.105000", "190130.565000", "190131.025000", "190131.485000", "190131.945000", "190132.405000", "190132.865000", "190133.325000", "190133.785000", "190134.245000", "190134.705000", "190135.165000", "190135.625000", "190136.085000", "190136.545000", "190137.005000", "190137.465000", "190137.925000", "190138.385000", "190138.845000", "190139.305000", "190139.765000", "190140.225000", "190140.685000", "190141.145000", "190141.605000", "190142.065000", "190142.525000", "190142.985000", "190143.445000", "190143.905000", "190144.365000", "190144.825000", "190145.285000", "190145.745000", "190146.205000", "190146.665000", "190147.125000", "190147.585000", "190148.045000", "190148.505000", "190148.965000", "190149.425000", "190149.885000", "190150.345000", "190150.805000", "190151.265000", "190151.725000", "190152.185000", "190152.645000", "190153.105000", "190153.565000", "190154.025000", "190154.485000", "190154.945000", "190155.405000", "190155.865000", "190156.325000", "190156.785000", "190157.245000", "190157.705000", "190158.165000", "190158.625000", "190159.085000", "190159.545000", "190200.005000", "190200.465000", "190200.925000", "190201.385000", "190201.845000", "190202.305000", "190202.765000", "190203.225000", "190203.685000", "190204.145000", "190204.605000", "190205.065000", "190205.525000", "190205.985000", "190206.445000", "190206.905000", "190207.365000", "190207.825000", "190208.285000", "190208.745000", "190209.205000", "190209.665000", "190210.125000", "190210.585000", "190211.045000", "190211.505000", "190211.965000", "190212.425000", "190212.885000", "190213.345000", "190213.805000", "190214.265000", "190214.725000", "190215.185000", "190215.645000", "190216.105000", "190216.565000", "190217.025000", "190217.485000", "190217.945000", "190218.405000", "190218.865000", "190219.325000", "190219.785000", "190220.245000", "190220.705000", "190221.165000", "190221.625000", "190222.085000", "190222.545000", "190223.005000", "190223.465000", "190223.925000", "190224.385000", "190224.845000", "190225.305000", "190225.765000", "190226.225000", "190226.685000", "190227.145000", "190227.605000", "190228.065000", "190228.525000", "190228.985000", "190229.445000", "190229.905000", "190230.365000", "190230.825000", "190231.285000", "190231.745000", "190232.205000", "190232.665000", "190233.125000", "190233.585000", "190234.045000", "190234.505000", "190234.965000", "190235.425000", "190235.885000", "190236.345000", "190236.805000", "190237.265000", "190237.725000", "190238.185000", "190238.645000", "190239.105000", "190239.565000", "190240.025000", "190240.485000", "190240.945000", "190241.405000", "190241.865000", "190242.325000", "190242.785000", "190243.245000", "190243.705000", "190244.165000", "190244.625000", "190245.085000", "190245.545000", "190246.005000", "190246.465000", "190246.925000", "190247.385000", "190247.845000", "190248.305000", "190248.765000", "190249.225000", "190249.685000", "190250.145000", "190250.605000", "190251.065000", "190251.525000", "190251.985000", "190252.445000", "190252.905000", "190253.365000", "190253.825000", "190254.285000", "190254.745000", "190255.205000", "190255.665000", "190256.125000", "190256.585000", "190257.045000", "190257.505000", "190257.965000", "190258.425000", "190258.885000", "190259.345000", "190259.805000", "190300.265000", "190300.725000", "190301.185000", "190301.645000", "190302.105000", "190302.565000", "190303.025000", "190303.485000", "190303.945000", "190304.405000", "190304.865000", "190305.325000", "190305.785000", "190306.245000", "190306.705000", "190307.165000", "190307.625000", "190308.085000", "190308.545000", "190309.005000", "190309.465000", "190309.925000", "190310.385000", "190310.845000", "190311.305000", "190311.765000", "190312.225000", "190312.685000", "190313.145000", "190313.605000", "190314.065000", "190314.525000", "190314.985000", "190315.445000", "190315.905000", "190316.365000", "190316.825000", "190317.285000", "190317.745000", "190318.205000", "190318.665000", "190319.125000", "190319.585000", "190320.045000", "190320.505000", "190320.965000", "190321.425000", "190321.885000", "190322.345000", "190322.805000", "190323.265000", "190323.725000", "190324.185000", "190324.645000", "190325.105000", "190325.565000", "190326.025000", "190326.485000", "190326.945000", "190327.405000", "190327.865000", "190328.325000", "190328.785000", "190329.245000", "190329.705000", "190330.165000", "190330.625000", "190331.085000", "190331.545000", "190332.005000", "190332.465000", "190332.925000", "190333.385000", "190333.845000", "190334.305000", "190334.765000", "190335.225000", "190335.685000", "190336.145000", "190336.605000", "190337.065000", "190337.525000", "190337.985000", "190338.445000", "190338.905000", "190339.365000", "190339.825000", "190340.285000", "190340.745000", "190341.205000", "190341.665000", "190342.125000", "190342.585000", "190343.045000", "190343.505000", "190343.965000", "190344.425000", "190344.885000", "190345.345000", "190345.805000", "190346.265000", "190346.725000", "190347.185000", "190347.645000", "190348.105000", "190348.565000", "190349.025000", "190349.485000", "190349.945000", "190350.405000", "190350.865000", "190351.325000", "190351.785000", "190352.245000", "190352.705000", "190353.165000", "190353.625000", "190354.085000", "190354.545000", "190355.005000", "190355.465000", "190355.925000", "190356.385000", "190356.845000", "190357.305000", "190357.765000", "190358.225000", "190358.685000", "190359.145000", "190359.605000", "190400.065000", "190400.525000", "190400.985000", "190401.445000", "190401.905000", "190402.365000", "190402.825000", "190403.285000", "190403.745000", "190404.205000", "190404.665000", "190405.125000", "190405.585000", "190406.045000", "190406.505000", "190406.965000", "190407.425000", "190407.885000", "190408.345000", "190408.805000", "190409.265000", "190409.725000", "190410.185000", "190410.645000", "190411.105000", "190411.565000", "190412.025000", "190412.485000", "190412.945000", "190413.405000", "190413.865000", "190414.325000", "190414.785000", "190415.245000", "190415.705000", "190416.165000", "190416.625000", "190417.085000", "190417.545000", "190418.005000", "190418.465000", "190418.925000", "190419.385000", "190419.845000", "190420.305000", "190420.765000", "190421.225000", "190421.685000", "190422.145000", "190422.605000", "190423.065000", "190423.525000", "190423.985000", "190424.445000", "190424.905000", "190425.365000", "190425.825000", "190426.285000", "190426.745000", "190427.205000", "190427.665000", "190428.125000", "190428.585000", "190429.045000", "190429.505000", "190429.965000", "190430.425000", "190430.885000", "190431.345000", "190431.805000", "190432.265000", "190432.725000", "190433.185000", "190433.645000", "190434.105000", "190434.565000", "190435.025000", "190435.485000", "190435.945000", "190436.405000", "190436.865000", "190437.325000", "190437.785000", "190438.245000", "190438.705000", "190439.165000", "190439.625000", "190440.085000", "190440.545000", "190441.005000", "190441.465000", "190441.925000", "190442.385000", "190442.845000", "190443.305000", "190443.765000", "190444.225000", "190444.685000", "190445.145000", "190445.605000", "190446.065000", "190446.525000", "190446.985000", "190447.445000", "190447.905000", "190448.365000", "190448.825000", "190449.285000", "190449.745000", "190450.205000", "190450.665000", "190451.125000", "190451.585000", "190452.045000", "190452.505000", "190452.965000", "190453.425000", "190453.885000", "190454.345000", "190454.805000", "190455.265000", "190455.725000", "190456.185000", "190456.645000", "190457.105000", "190457.565000", "190458.025000", "190458.485000", "190458.945000", "190459.405000", "190459.865000", "190500.325000", "190500.785000", "190501.245000", "190501.705000", "190502.165000", "190502.625000", "190503.085000", "190503.545000", "190504.005000", "190504.465000", "190504.925000", "190505.385000", "190505.845000", "190506.305000", "190506.765000", "190507.225000", "190507.685000", "190508.145000", "190508.605000", "190509.065000", "190509.525000", "190509.985000", "190510.445000", "190510.905000", "190511.365000", "190511.825000", "190512.285000", "190512.745000", "190513.205000", "190513.665000", "190514.125000", "190514.585000", "190515.045000", "190515.505000", "190515.965000", "190516.425000", "190516.885000", "190517.345000", "190517.805000", "190518.265000", "190518.725000", "190519.185000", "190519.645000", "190520.105000", "190520.565000", "190521.025000", "190521.485000", "190521.945000", "190522.405000", "190522.865000", "190523.325000", "190523.785000", "190524.245000", "190524.705000", "190525.165000", "190525.625000", "190526.085000", "190526.545000", "190527.005000", "190527.465000", "190527.925000", "190528.385000", "190528.845000", "190529.305000", "190529.765000", "190530.225000", "190530.685000", "190531.145000", "190531.605000", "190532.065000", "190532.525000", "190532.985000", "190533.445000", "190533.905000", "190534.365000", "190534.825000", "190535.285000", "190535.745000", "190536.205000", "190536.665000", "190537.125000", "190537.585000", "190538.045000", "190538.505000", "190538.965000", "190539.425000", "190539.885000", "190540.345000", "190540.805000", "190541.265000", "190541.725000", "190542.185000", "190542.645000", "190543.105000", "190543.565000", "190544.025000", "190544.485000", "190544.945000", "190545.405000", "190545.865000", "190546.325000", "190546.785000", "190547.245000", "190547.705000", "190548.165000", "190548.625000", "190549.085000", "190549.545000", "190550.005000", "190550.465000", "190550.925000", "190551.385000", "190551.845000", "190552.305000", "190552.765000", "190553.225000", "190553.685000", "190554.145000", "190554.605000", "190555.065000", "190555.525000", "190555.985000", "190556.445000", "190556.905000", "190557.365000", "190557.825000", "190558.285000", "190558.745000", "190559.205000", "190559.665000", "190600.125000", "190600.585000", "190601.045000", "190601.505000", "190601.965000", "190602.425000", "190602.885000", "190603.345000", "190603.805000", "190604.265000", "190604.725000", "190605.185000", "190605.645000", "190606.105000", "190606.565000", "190607.025000", "190607.485000", "190607.945000", "190608.405000", "190608.865000", "190609.325000", "190609.785000", "190610.245000", "190610.705000", "190611.165000", "190611.625000", "190612.085000", "190612.545000", "190613.005000", "190613.465000", "190613.925000", "190614.385000", "190614.845000", "190615.305000", "190615.765000", "190616.225000", "190616.685000", "190617.145000", "190617.605000", "190618.065000", "190618.525000", "190618.985000", "190619.445000", "190619.905000", "190620.365000", "190620.825000", "190621.285000", "190621.745000", "190622.205000", "190622.665000", "190623.125000", "190623.585000", "190624.045000", "190624.505000", "190624.965000", "190625.425000", "190625.885000", "190626.345000", "190626.805000", "190627.265000", "190627.725000", "190628.185000", "190628.645000", "190629.105000", "190629.565000", "190630.025000", "190630.485000", "190630.945000", "190631.405000", "190631.865000", "190632.325000", "190632.785000", "190633.245000", "190633.705000", "190634.165000", "190634.625000", "190635.085000", "190635.545000", "190636.005000", "190636.465000", "190636.925000", "190637.385000", "190637.845000", "190638.305000", "190638.765000", "190639.225000", "190639.685000", "190640.145000", "190640.605000", "190641.065000", "190641.525000", "190641.985000", "190642.445000", "190642.905000", "190643.365000", "190643.825000", "190644.285000", "190644.745000", "190645.205000", "190645.665000", "190646.125000", "190646.585000", "190647.045000", "190647.505000", "190647.965000", "190648.425000", "190648.885000", "190649.345000"],
