{
  "AcquisitionMatrixPE": 82,
  "AcquisitionNumber": 1,
  "AcquisitionTime": "19:57:53.767500",
  "BandwidthPerPixelPhaseEncode": 24.888,
  "BaseResolution": 82,
  "BodyPartExamined": "BRAIN",
  "ConsistencyInfo": "N4_VE11E_LATEST_20181129",
  "ConversionSoftware": "dcm2niix",
  "ConversionSoftwareVersion": "v1.0.20201102",
  "DerivedVendorReportedEchoSpacing": 0.00049,
  "DeviceSerialNumber": "66112",
  "DwellTime": 2e-06,
  "EchoTime": 0.0272,
  "EchoTrainLength": 82,
  "EffectiveEchoSpacing": 0.00049,
  "FlipAngle": 44,
  "ImageComments": "Unaliased MB8/PE3",
  "ImageOrientationPatientDICOM": [0.999964, 0.0017304, 0.0083305, -0.00122169, 0.998156, -0.0606883],
  "ImageType": [
    "ORIGINAL",
    "PRIMARY",
    "M",
    "MB",
    "ND",
    "NORM",
    "MOSAIC"
],
  "ImagingFrequency": 123.252,
  "InPlanePhaseEncodingDirectionDICOM": "COL",
  "InstitutionAddress": "Maynard 3,Hanover,NH,US,03755",
  "InstitutionName": "Dartmouth College - PBS",
  "InstitutionalDepartmentName": "Department",
  "MRAcquisitionType": "2D",
  "MagneticFieldStrength": 3,
  "Manufacturer": "Siemens",
  "ManufacturersModelName": "Prisma",
  "Modality": "MR",
  "MultibandAccelerationFactor": 8,
  "PartialFourier": 1,
  "PatientPosition": "HFS",
  "PercentPhaseFOV": 100,
  "PercentSampling": 100,
  "PhaseEncodingDirection": "j-",
  "PhaseEncodingSteps": 82,
  "PhaseResolution": 1,
  "PixelBandwidth": 3050,
  "ProcedureStepDescription": "Wager_Wager^1076_spacetop",
  "ProtocolName": "func_run-03_task-alignvideo_acq-ap-mb8",
  "PulseSequenceDetails": "%CustomerSeq%\\cmrr_mbep2d_bold",
  "ReceiveCoilActiveElements": "HEA;HEP",
  "ReceiveCoilName": "Head_32",
  "ReconMatrixPE": 82,
  "RepetitionTime": 0.46,
  "SAR": 0.0733363,
  "ScanOptions": "FS",
  "ScanningSequence": "EP",
  "SequenceName": "epfid2d1_82",
  "SequenceVariant": "SK\\SS",
  "SeriesDescription": "func_run-03_task-alignvideo_acq-ap-mb8",
  "SeriesNumber": 28,
  "ShimSetting": [4143, -7737, -7287, 609, -71, -129, 40, 72],
  "SliceThickness": 2.7,
  "SliceTiming": [0, 0.2525, 0.065, 0.315, 0.1275, 0.3775, 0.19, 0, 0.2525, 0.065, 0.315, 0.1275, 0.3775, 0.19, 0, 0.2525, 0.065, 0.315, 0.1275, 0.3775, 0.19, 0, 0.2525, 0.065, 0.315, 0.1275, 0.3775, 0.19, 0, 0.2525, 0.065, 0.315, 0.1275, 0.3775, 0.19, 0, 0.2525, 0.065, 0.315, 0.1275, 0.3775, 0.19, 0, 0.2525, 0.065, 0.315, 0.1275, 0.3775, 0.19, 0, 0.2525, 0.065, 0.315, 0.1275, 0.3775, 0.19],
  "SoftwareVersions": "syngo MR E11",
  "SpacingBetweenSlices": 2.7,
  "StationName": "AWP66112",
  "TaskName": "alignvideo",
  "TotalReadoutTime": 0.03969,
  "TxRefAmp": 229.838,
  "WipMemBlock": "61548631-6c2d-45db-9d09-b891f4b55544||Sequence: R016 ve11e/master r/434b28f1; Aug  7 2019 18:53:46 by eja",
  "dcmmeta_affine": [
    [-2.6828298568725586, -0.0032777113374322653, 0.022734418511390686, 112.6618423461914],
    [-0.0046425433829426765, 2.6779797077178955, -0.1638248711824417, -86.91273498535156],
    [0.022350125014781952, 0.1628221571445465, 2.694929361343384, -77.94449615478516],
    [0.0, 0.0, 0.0, 1.0]
],
  "dcmmeta_reorient_transform": [
    [0.0, -1.0, 0.0, 81.0],
    [1.0, 0.0, 0.0, 0.0],
    [0.0, 0.0, 1.0, 0.0],
    [0.0, 0.0, 0.0, 1.0]
],
  "dcmmeta_shape": [82, 82, 56, 1065],
  "dcmmeta_slice_dim": 2,
  "dcmmeta_version": 0.6,
  "global": {
    "const": {
      "AccessionNumber": "A004012",
      "AcquisitionMatrix": [82, 0, 0, 82],
      "AngioFlag": "N",
      "BitsAllocated": 16,
      "BitsStored": 16,
      "BodyPartExamined": "BRAIN",
      "Columns": 656,
      "EchoNumbers": 1,
      "EchoTime": 27.2,
      "EchoTrainLength": 82,
      "FlipAngle": 44.0,
      "HighBit": 15,
      "ImageOrientationPatient": [0.99996380357439, 0.00173040252306, 0.00833050107485, -0.0012216923371, 0.99815602139877, -0.0606882559743],
      "ImagePositionPatient": [-881.42779354205, -899.91617777417, -24.440425749621],
      "ImageType": [
        "ORIGINAL",
        "PRIMARY",
        "M",
        "MB",
        "ND",
        "NORM",
        "MOSAIC"
],
      "ImagedNucleus": "1H",
      "ImagingFrequency": 123.252229,
      "InPlanePhaseEncodingDirection": "COL",
      "MRAcquisitionType": "2D",
      "MagneticFieldStrength": 3.0,
      "Manufacturer": "SIEMENS",
      "ManufacturerModelName": "Prisma",
      "Modality": "MR",
      "NumberOfAverages": 1.0,
      "NumberOfPhaseEncodingSteps": 82,
      "PercentPhaseFieldOfView": 100.0,
      "PercentSampling": 100.0,
      "PerformedProcedureStepStartTime": "181501.135000",
      "PhotometricInterpretation": "MONOCHROME2",
      "PixelBandwidth": 3050.0,
      "PixelRepresentation": 0,
      "PixelSpacing": [2.6829268932343, 2.6829268932343],
      "ProtocolName": "func_run-03_task-alignvideo_acq-ap-mb8",
      "RepetitionTime": 460.0,
      "Rows": 656,
      "SAR": 0.07333628799105,
      "SamplesPerPixel": 1,
      "ScanOptions": "FS",
      "ScanningSequence": "EP",
      "SequenceName": "epfid2d1_82",
      "SequenceVariant": [
        "SK",
        "SS"
],
      "SeriesDescription": "func_run-03_task-alignvideo_acq-ap-mb8",
      "SeriesNumber": 28,
      "SeriesTime": "195812.455000",
      "SliceLocation": -71.575975980412,
      "SliceThickness": 2.7000000476837,
      "SmallestImagePixelValue": 0,
      "SoftwareVersions": "syngo MR E11",
      "SpacingBetweenSlices": 2.6999999491115,
      "SpecificCharacterSet": "ISO_IR 100",
      "StudyID": "3",
      "StudyTime": "181501.087000",
      "TransmitCoilName": "Body",
      "VariableFlipAngleFlag": "N",
      "WindowCenterWidthExplanation": "Algo1"
    },
    "slices": {}
  },
  "time": {
    "samples": {
      "AcquisitionNumber": [1, 2, 3, 4, 5, 6, 7, 8, 9, 10, 11, 12, 13, 14, 15, 16, 17, 18, 19, 20, 21, 22, 23, 24, 25, 26, 27, 28, 29, 30, 31, 32, 33, 34, 35, 36, 37, 38, 39, 40, 41, 42, 43, 44, 45, 46, 47, 48, 49, 50, 51, 52, 53, 54, 55, 56, 57, 58, 59, 60, 61, 62, 63, 64, 65, 66, 67, 68, 69, 70, 71, 72, 73, 74, 75, 76, 77, 78, 79, 80, 81, 82, 83, 84, 85, 86, 87, 88, 89, 90, 91, 92, 93, 94, 95, 96, 97, 98, 99, 100, 101, 102, 103, 104, 105, 106, 107, 108, 109, 110, 111, 112, 113, 114, 115, 116, 117, 118, 119, 120, 121, 122, 123, 124, 125, 126, 127, 128, 129, 130, 131, 132, 133, 134, 135, 136, 137, 138, 139, 140, 141, 142, 143, 144, 145, 146, 147, 148, 149, 150, 151, 152, 153, 154, 155, 156, 157, 158, 159, 160, 161, 162, 163, 164, 165, 166, 167, 168, 169, 170, 171, 172, 173, 174, 175, 176, 177, 178, 179, 180, 181, 182, 183, 184, 185, 186, 187, 188, 189, 190, 191, 192, 193, 194, 195, 196, 197, 198, 199, 200, 201, 202, 203, 204, 205, 206, 207, 208, 209, 210, 211, 212, 213, 214, 215, 216, 217, 218, 219, 220, 221, 222, 223, 224, 225, 226, 227, 228, 229, 230, 231, 232, 233, 234, 235, 236, 237, 238, 239, 240, 241, 242, 243, 244, 245, 246, 247, 248, 249, 250, 251, 252, 253, 254, 255, 256, 257, 258, 259, 260, 261, 262, 263, 264, 265, 266, 267, 268, 269, 270, 271, 272, 273, 274, 275, 276, 277, 278, 279, 280, 281, 282, 283, 284, 285, 286, 287, 288, 289, 290, 291, 292, 293, 294, 295, 296, 297, 298, 299, 300, 301, 302, 303, 304, 305, 306, 307, 308, 309, 310, 311, 312, 313, 314, 315, 316, 317, 318, 319, 320, 321, 322, 323, 324, 325, 326, 327, 328, 329, 330, 331, 332, 333, 334, 335, 336, 337, 338, 339, 340, 341, 342, 343, 344, 345, 346, 347, 348, 349, 350, 351, 352, 353, 354, 355, 356, 357, 358, 359, 360, 361, 362, 363, 364, 365, 366, 367, 368, 369, 370, 371, 372, 373, 374, 375, 376, 377, 378, 379, 380, 381, 382, 383, 384, 385, 386, 387, 388, 389, 390, 391, 392, 393, 394, 395, 396, 397, 398, 399, 400, 401, 402, 403, 404, 405, 406, 407, 408, 409, 410, 411, 412, 413, 414, 415, 416, 417, 418, 419, 420, 421, 422, 423, 424, 425, 426, 427, 428, 429, 430, 431, 432, 433, 434, 435, 436, 437, 438, 439, 440, 441, 442, 443, 444, 445, 446, 447, 448, 449, 450, 451, 452, 453, 454, 455, 456, 457, 458, 459, 460, 461, 462, 463, 464, 465, 466, 467, 468, 469, 470, 471, 472, 473, 474, 475, 476, 477, 478, 479, 480, 481, 482, 483, 484, 485, 486, 487, 488, 489, 490, 491, 492, 493, 494, 495, 496, 497, 498, 499, 500, 501, 502, 503, 504, 505, 506, 507, 508, 509, 510, 511, 512, 513, 514, 515, 516, 517, 518, 519, 520, 521, 522, 523, 524, 525, 526, 527, 528, 529, 530, 531, 532, 533, 534, 535, 536, 537, 538, 539, 540, 541, 542, 543, 544, 545, 546, 547, 548, 549, 550, 551, 552, 553, 554, 555, 556, 557, 558, 559, 560, 561, 562, 563, 564, 565, 566, 567, 568, 569, 570, 571, 572, 573, 574, 575, 576, 577, 578, 579, 580, 581, 582, 583, 584, 585, 586, 587, 588, 589, 590, 591, 592, 593, 594, 595, 596, 597, 598, 599, 600, 601, 602, 603, 604, 605, 606, 607, 608, 609, 610, 611, 612, 613, 614, 615, 616, 617, 618, 619, 620, 621, 622, 623, 624, 625, 626, 627, 628, 629, 630, 631, 632, 633, 634, 635, 636, 637, 638, 639, 640, 641, 642, 643, 644, 645, 646, 647, 648, 649, 650, 651, 652, 653, 654, 655, 656, 657, 658, 659, 660, 661, 662, 663, 664, 665, 666, 667, 668, 669, 670, 671, 672, 673, 674, 675, 676, 677, 678, 679, 680, 681, 682, 683, 684, 685, 686, 687, 688, 689, 690, 691, 692, 693, 694, 695, 696, 697, 698, 699, 700, 701, 702, 703, 704, 705, 706, 707, 708, 709, 710, 711, 712, 713, 714, 715, 716, 717, 718, 719, 720, 721, 722, 723, 724, 725, 726, 727, 728, 729, 730, 731, 732, 733, 734, 735, 736, 737, 738, 739, 740, 741, 742, 743, 744, 745, 746, 747, 748, 749, 750, 751, 752, 753, 754, 755, 756, 757, 758, 759, 760, 761, 762, 763, 764, 765, 766, 767, 768, 769, 770, 771, 772, 773, 774, 775, 776, 777, 778, 779, 780, 781, 782, 783, 784, 785, 786, 787, 788, 789, 790, 791, 792, 793, 794, 795, 796, 797, 798, 799, 800, 801, 802, 803, 804, 805, 806, 807, 808, 809, 810, 811, 812, 813, 814, 815, 816, 817, 818, 819, 820, 821, 822, 823, 824, 825, 826, 827, 828, 829, 830, 831, 832, 833, 834, 835, 836, 837, 838, 839, 840, 841, 842, 843, 844, 845, 846, 847, 848, 849, 850, 851, 852, 853, 854, 855, 856, 857, 858, 859, 860, 861, 862, 863, 864, 865, 866, 867, 868, 869, 870, 871, 872, 873, 874, 875, 876, 877, 878, 879, 880, 881, 882, 883, 884, 885, 886, 887, 888, 889, 890, 891, 892, 893, 894, 895, 896, 897, 898, 899, 900, 901, 902, 903, 904, 905, 906, 907, 908, 909, 910, 911, 912, 913, 914, 915, 916, 917, 918, 919, 920, 921, 922, 923, 924, 925, 926, 927, 928, 929, 930, 931, 932, 933, 934, 935, 936, 937, 938, 939, 940, 941, 942, 943, 944, 945, 946, 947, 948, 949, 950, 951, 952, 953, 954, 955, 956, 957, 958, 959, 960, 961, 962, 963, 964, 965, 966, 967, 968, 969, 970, 971, 972, 973, 974, 975, 976, 977, 978, 979, 980, 981, 982, 983, 984, 985, 986, 987, 988, 989, 990, 991, 992, 993, 994, 995, 996, 997, 998, 999, 1000, 1001, 1002, 1003, 1004, 1005, 1006, 1007, 1008, 1009, 1010, 1011, 1012, 1013, 1014, 1015, 1016, 1017, 1018, 1019, 1020, 1021, 1022, 1023, 1024, 1025, 1026, 1027, 1028, 1029, 1030, 1031, 1032, 1033, 1034, 1035, 1036, 1037, 1038, 1039, 1040, 1041, 1042, 1043, 1044, 1045, 1046, 1047, 1048, 1049, 1050, 1051, 1052, 1053, 1054, 1055, 1056, 1057, 1058, 1059, 1060, 1061, 1062, 1063, 1064, 1065],
      "AcquisitionTime": ["195753.767500", "195754.227500", "195754.687500", "195755.147500", "195755.607500", "195756.067500", "195756.527500", "195756.987500", "195757.447500", "195757.907500", "195758.367500", "195758.827500", "195759.287500", "195759.747500", "195800.207500", "195800.667500", "195801.127500", "195801.587500", "195802.047500", "195802.507500", "195802.967500", "195803.427500", "195803.887500", "195804.347500", "195804.807500", "195805.267500", "195805.727500", "195806.187500", "195806.647500", "195807.107500", "195807.567500", "195808.027500", "195808.487500", "195808.947500", "195809.407500", "195809.867500", "195810.327500", "195810.787500", "195811.247500", "195811.707500", "195812.167500", "195812.627500", "195813.087500", "195813.547500", "195814.007500", "195814.467500", "195814.927500", "195815.387500", "195815.847500", "195816.307500", "195816.767500", "195817.227500", "195817.687500", "195818.147500", "195818.607500", "195819.067500", "195819.527500", "195819.987500", "195820.447500", "195820.907500", "195821.367500", "195821.827500", "195822.287500", "195822.747500", "195823.207500", "195823.667500", "195824.127500", "195824.587500", "195825.047500", "195825.507500", "195825.967500", "195826.427500", "195826.887500", "195827.347500", "195827.807500", "195828.267500", "195828.727500", "195829.187500", "195829.647500", "195830.107500", "195830.567500", "195831.027500", "195831.487500", "195831.947500", "195832.407500", "195832.867500", "195833.327500", "195833.787500", "195834.247500", "195834.707500", "195835.167500", "195835.627500", "195836.087500", "195836.547500", "195837.007500", "195837.467500", "195837.927500", "195838.387500", "195838.847500", "195839.307500", "195839.767500", "195840.227500", "195840.687500", "195841.147500", "195841.607500", "195842.067500", "195842.527500", "195842.987500", "195843.447500", "195843.907500", "195844.367500", "195844.827500", "195845.287500", "195845.747500", "195846.207500", "195846.667500", "195847.127500", "195847.587500", "195848.047500", "195848.507500", "195848.967500", "195849.427500", "195849.887500", "195850.347500", "195850.807500", "195851.267500", "195851.727500", "195852.187500", "195852.647500", "195853.107500", "195853.567500", "195854.027500", "195854.487500", "195854.947500", "195855.407500", "195855.867500", "195856.327500", "195856.787500", "195857.247500", "195857.707500", "195858.167500", "195858.627500", "195859.087500", "195859.547500", "195900.007500", "195900.467500", "195900.927500", "195901.387500", "195901.847500", "195902.307500", "195902.767500", "195903.227500", "195903.687500", "195904.147500", "195904.607500", "195905.067500", "195905.527500", "195905.987500", "195906.447500", "195906.907500", "195907.367500", "195907.827500", "195908.287500", "195908.747500", "195909.207500", "195909.667500", "195910.127500", "195910.587500", "195911.047500", "195911.507500", "195911.967500", "195912.427500", "195912.887500", "195913.347500", "195913.807500", "195914.267500", "195914.727500", "195915.187500", "195915.647500", "195916.107500", "195916.567500", "195917.027500", "195917.487500", "195917.947500", "195918.407500", "195918.867500", "195919.327500", "195919.787500", "195920.247500", "195920.707500", "195921.167500", "195921.627500", "195922.087500", "195922.547500", "195923.007500", "195923.467500", "195923.927500", "195924.387500", "195924.847500", "195925.307500", "195925.767500", "195926.227500", "195926.687500", "195927.147500", "195927.607500", "195928.067500", "195928.527500", "195928.987500", "195929.447500", "195929.907500", "195930.367500", "195930.827500", "195931.287500", "195931.747500", "195932.207500", "195932.667500", "195933.127500", "195933.587500", "195934.047500", "195934.507500", "195934.967500", "195935.427500", "195935.887500", "195936.347500", "195936.807500", "195937.267500", "195937.727500", "195938.187500", "195938.647500", "195939.107500", "195939.567500", "195940.027500", "195940.487500", "195940.947500", "195941.407500", "195941.867500", "195942.327500", "195942.787500", "195943.247500", "195943.707500", "195944.167500", "195944.627500", "195945.087500", "195945.547500", "195946.007500", "195946.467500", "195946.927500", "195947.387500", "195947.847500", "195948.307500", "195948.767500", "195949.227500", "195949.687500", "195950.147500", "195950.607500", "195951.067500", "195951.527500", "195951.987500", "195952.447500", "195952.907500", "195953.367500", "195953.827500", "195954.287500", "195954.747500", "195955.207500", "195955.667500", "195956.127500", "195956.587500", "195957.047500", "195957.507500", "195957.967500", "195958.427500", "195958.887500", "195959.347500", "195959.807500", "200000.267500", "200000.727500", "200001.187500", "200001.647500", "200002.107500", "200002.567500", "200003.027500", "200003.487500", "200003.947500", "200004.407500", "200004.867500", "200005.327500", "200005.787500", "200006.247500", "200006.707500", "200007.167500", "200007.627500", "200008.087500", "200008.547500", "200009.007500", "200009.467500", "200009.927500", "200010.387500", "200010.847500", "200011.307500", "200011.767500", "200012.227500", "200012.687500", "200013.147500", "200013.607500", "200014.067500", "200014.527500", "200014.987500", "200015.447500", "200015.907500", "200016.367500", "200016.827500", "200017.287500", "200017.747500", "200018.207500", "200018.667500", "200019.127500", "200019.587500", "200020.047500", "200020.507500", "200020.967500", "200021.427500", "200021.887500", "200022.347500", "200022.807500", "200023.267500", "200023.727500", "200024.187500", "200024.647500", "200025.107500", "200025.567500", "200026.027500", "200026.487500", "200026.947500", "200027.407500", "200027.867500", "200028.327500", "200028.787500", "200029.247500", "200029.707500", "200030.167500", "200030.627500", "200031.087500", "200031.547500", "200032.007500", "200032.467500", "200032.927500", "200033.387500", "200033.847500", "200034.307500", "200034.767500", "200035.227500", "200035.687500", "200036.147500", "200036.607500", "200037.067500", "200037.527500", "200037.987500", "200038.447500", "200038.907500", "200039.367500", "200039.827500", "200040.287500", "200040.747500", "200041.207500", "200041.667500", "200042.127500", "200042.587500", "200043.047500", "200043.507500", "200043.967500", "200044.427500", "200044.887500", "200045.347500", "200045.807500", "200046.267500", "200046.727500", "200047.187500", "200047.647500", "200048.107500", "200048.567500", "200049.027500", "200049.487500", "200049.947500", "200050.407500", "200050.867500", "200051.327500", "200051.787500", "200052.247500", "200052.707500", "200053.167500", "200053.627500", "200054.087500", "200054.547500", "200055.007500", "200055.467500", "200055.927500", "200056.387500", "200056.847500", "200057.307500", "200057.767500", "200058.227500", "200058.687500", "200059.147500", "200059.607500", "200100.067500", "200100.527500", "200100.987500", "200101.447500", "200101.907500", "200102.367500", "200102.827500", "200103.287500", "200103.747500", "200104.207500", "200104.667500", "200105.127500", "200105.587500", "200106.047500", "200106.507500", "200106.967500", "200107.427500", "200107.887500", "200108.347500", "200108.807500", "200109.267500", "200109.727500", "200110.187500", "200110.647500", "200111.107500", "200111.567500", "200112.027500", "200112.487500", "200112.947500", "200113.407500", "200113.867500", "200114.327500", "200114.787500", "200115.247500", "200115.707500", "200116.167500", "200116.627500", "200117.087500", "200117.547500", "200118.007500", "200118.467500", "200118.927500", "200119.387500", "200119.847500", "200120.307500", "200120.767500", "200121.227500", "200121.687500", "200122.147500", "200122.607500", "200123.067500", "200123.527500", "200123.987500", "200124.447500", "200124.907500", "200125.367500", "200125.827500", "200126.287500", "200126.747500", "200127.207500", "200127.667500", "200128.127500", "200128.587500", "200129.047500", "200129.507500", "200129.967500", "200130.427500", "200130.887500", "200131.347500", "200131.807500", "200132.267500", "200132.727500", "200133.187500", "200133.647500", "200134.107500", "200134.567500", "200135.027500", "200135.487500", "200135.947500", "200136.407500", "200136.867500", "200137.327500", "200137.787500", "200138.247500", "200138.707500", "200139.167500", "200139.627500", "200140.087500", "200140.547500", "200141.007500", "200141.467500", "200141.927500", "200142.387500", "200142.847500", "200143.307500", "200143.767500", "200144.227500", "200144.687500", "200145.147500", "200145.607500", "200146.067500", "200146.527500", "200146.987500", "200147.447500", "200147.907500", "200148.367500", "200148.827500", "200149.287500", "200149.747500", "200150.207500", "200150.667500", "200151.127500", "200151.587500", "200152.047500", "200152.507500", "200152.967500", "200153.427500", "200153.887500", "200154.347500", "200154.807500", "200155.267500", "200155.727500", "200156.187500", "200156.647500", "200157.107500", "200157.567500", "200158.027500", "200158.487500", "200158.947500", "200159.407500", "200159.867500", "200200.327500", "200200.787500", "200201.247500", "200201.707500", "200202.167500", "200202.627500", "200203.087500", "200203.547500", "200204.007500", "200204.467500", "200204.927500", "200205.387500", "200205.847500", "200206.307500", "200206.767500", "200207.227500", "200207.687500", "200208.147500", "200208.607500", "200209.067500", "200209.527500", "200209.987500", "200210.447500", "200210.907500", "200211.367500", "200211.827500", "200212.287500", "200212.747500", "200213.207500", "200213.667500", "200214.127500", "200214.587500", "200215.047500", "200215.507500", "200215.967500", "200216.427500", "200216.887500", "200217.347500", "200217.807500", "200218.267500", "200218.727500", "200219.187500", "200219.647500", "200220.107500", "200220.567500", "200221.027500", "200221.487500", "200221.947500", "200222.407500", "200222.867500", "200223.327500", "200223.787500", "200224.247500", "200224.707500", "200225.167500", "200225.627500", "200226.087500", "200226.547500", "200227.007500", "200227.467500", "200227.927500", "200228.387500", "200228.847500", "200229.307500", "200229.767500", "200230.227500", "200230.687500", "200231.147500", "200231.607500", "200232.067500", "200232.527500", "200232.987500", "200233.447500", "200233.907500", "200234.367500", "200234.827500", "200235.287500", "200235.747500", "200236.207500", "200236.667500", "200237.127500", "200237.587500", "200238.047500", "200238.507500", "200238.967500", "200239.427500", "200239.887500", "200240.347500", "200240.807500", "200241.267500", "200241.727500", "200242.187500", "200242.647500", "200243.107500", "200243.567500", "200244.027500", "200244.487500", "200244.947500", "200245.407500", "200245.867500", "200246.327500", "200246.787500", "200247.247500", "200247.707500", "200248.167500", "200248.627500", "200249.087500", "200249.547500", "200250.007500", "200250.467500", "200250.927500", "200251.387500", "200251.847500", "200252.307500", "200252.767500", "200253.227500", "200253.687500", "200254.147500", "200254.607500", "200255.067500", "200255.527500", "200255.987500", "200256.447500", "200256.907500", "200257.367500", "200257.827500", "200258.287500", "200258.747500", "200259.207500", "200259.667500", "200300.127500", "200300.587500", "200301.047500", "200301.507500", "200301.967500", "200302.427500", "200302.887500", "200303.347500", "200303.807500", "200304.267500", "200304.727500", "200305.187500", "200305.647500", "200306.107500", "200306.567500", "200307.027500", "200307.487500", "200307.947500", "200308.407500", "200308.867500", "200309.327500", "200309.787500", "200310.247500", "200310.707500", "200311.167500", "200311.627500", "200312.087500", "200312.547500", "200313.007500", "200313.467500", "200313.927500", "200314.387500", "200314.847500", "200315.307500", "200315.767500", "200316.227500", "200316.687500", "200317.147500", "200317.607500", "200318.067500", "200318.527500", "200318.987500", "200319.447500", "200319.907500", "200320.367500", "200320.827500", "200321.287500", "200321.747500", "200322.207500", "200322.667500", "200323.127500", "200323.587500", "200324.047500", "200324.507500", "200324.967500", "200325.427500", "200325.887500", "200326.347500", "200326.807500", "200327.267500", "200327.727500", "200328.187500", "200328.647500", "200329.107500", "200329.567500", "200330.027500", "200330.487500", "200330.947500", "200331.407500", "200331.867500", "200332.327500", "200332.787500", "200333.247500", "200333.707500", "200334.167500", "200334.627500", "200335.087500", "200335.547500", "200336.007500", "200336.467500", "200336.927500", "200337.387500", "200337.847500", "200338.307500", "200338.767500", "200339.227500", "200339.687500", "200340.147500", "200340.607500", "200341.067500", "200341.527500", "200341.987500", "200342.447500", "200342.907500", "200343.367500", "200343.827500", "200344.287500", "200344.747500", "200345.207500", "200345.667500", "200346.127500", "200346.587500", "200347.047500", "200347.507500", "200347.967500", "200348.427500", "200348.887500", "200349.347500", "200349.807500", "200350.267500", "200350.727500", "200351.187500", "200351.647500", "200352.107500", "200352.567500", "200353.027500", "200353.487500", "200353.947500", "200354.407500", "200354.867500", "200355.327500", "200355.787500", "200356.247500", "200356.707500", "200357.167500", "200357.627500", "200358.087500", "200358.547500", "200359.007500", "200359.467500", "200359.927500", "200400.387500", "200400.847500", "200401.307500", "200401.767500", "200402.227500", "200402.687500", "200403.147500", "200403.607500", "200404.067500", "200404.527500", "200404.987500", "200405.447500", "200405.907500", "200406.367500", "200406.827500", "200407.287500", "200407.747500", "200408.207500", "200408.667500", "200409.127500", "200409.587500", "200410.047500", "200410.507500", "200410.967500", "200411.427500", "200411.887500", "200412.347500", "200412.807500", "200413.267500", "200413.727500", "200414.187500", "200414.647500", "200415.107500", "200415.567500", "200416.027500", "200416.487500", "200416.947500", "200417.407500", "200417.867500", "200418.327500", "200418.787500", "200419.247500", "200419.707500", "200420.167500", "200420.627500", "200421.087500", "200421.547500", "200422.007500", "200422.467500", "200422.927500", "200423.387500", "200423.847500", "200424.307500", "200424.767500", "200425.227500", "200425.687500", "200426.147500", "200426.607500", "200427.067500", "200427.527500", "200427.987500", "200428.447500", "200428.907500", "200429.367500", "200429.827500", "200430.287500", "200430.747500", "200431.207500", "200431.667500", "200432.127500", "200432.587500", "200433.047500", "200433.507500", "200433.967500", "200434.427500", "200434.887500", "200435.347500", "200435.807500", "200436.267500", "200436.727500", "200437.187500", "200437.647500", "200438.107500", "200438.567500", "200439.027500", "200439.487500", "200439.947500", "200440.407500", "200440.867500", "200441.327500", "200441.787500", "200442.247500", "200442.707500", "200443.167500", "200443.627500", "200444.087500", "200444.547500", "200445.007500", "200445.467500", "200445.927500", "200446.387500", "200446.847500", "200447.307500", "200447.767500", "200448.227500", "200448.687500", "200449.147500", "200449.607500", "200450.067500", "200450.527500", "200450.987500", "200451.447500", "200451.907500", "200452.367500", "200452.827500", "200453.287500", "200453.747500", "200454.207500", "200454.667500", "200455.127500", "200455.587500", "200456.047500", "200456.507500", "200456.967500", "200457.427500", "200457.887500", "200458.347500", "200458.807500", "200459.267500", "200459.727500", "200500.187500", "200500.647500", "200501.107500", "200501.567500", "200502.027500", "200502.487500", "200502.947500", "200503.407500", "200503.867500", "200504.327500", "200504.787500", "200505.247500", "200505.707500", "200506.167500", "200506.627500", "200507.087500", "200507.547500", "200508.007500", "200508.467500", "200508.927500", "200509.387500", "200509.847500", "200510.307500", "200510.767500", "200511.227500", "200511.687500", "200512.147500", "200512.607500", "200513.067500", "200513.527500", "200513.987500", "200514.447500", "200514.907500", "200515.367500", "200515.827500", "200516.287500", "200516.747500", "200517.207500", "200517.667500", "200518.127500", "200518.587500", "200519.047500", "200519.507500", "200519.967500", "200520.427500", "200520.887500", "200521.347500", "200521.807500", "200522.267500", "200522.727500", "200523.187500", "200523.647500", "200524.107500", "200524.567500", "200525.027500", "200525.487500", "200525.947500", "200526.407500", "200526.867500", "200527.327500", "200527.787500", "200528.247500", "200528.707500", "200529.167500", "200529.627500", "200530.087500", "200530.547500", "200531.007500", "200531.467500", "200531.927500", "200532.387500", "200532.847500", "200533.307500", "200533.767500", "200534.227500", "200534.687500", "200535.147500", "200535.607500", "200536.067500", "200536.527500", "200536.987500", "200537.447500", "200537.907500", "200538.367500", "200538.827500", "200539.287500", "200539.747500", "200540.207500", "200540.667500", "200541.127500", "200541.587500", "200542.047500", "200542.507500", "200542.967500", "200543.427500", "200543.887500", "200544.347500", "200544.807500", "200545.267500", "200545.727500", "200546.187500", "200546.647500", "200547.107500", "200547.567500", "200548.027500", "200548.487500", "200548.947500", "200549.407500", "200549.867500", "200550.327500", "200550.787500", "200551.247500", "200551.707500", "200552.167500", "200552.627500", "200553.087500", "200553.547500", "200554.007500", "200554.467500", "200554.927500", "200555.387500", "200555.847500", "200556.307500", "200556.767500", "200557.227500", "200557.687500", "200558.147500", "200558.607500", "200559.067500", "200559.527500", "200559.987500", "200600.447500", "200600.907500", "200601.367500", "200601.827500", "200602.287500", "200602.747500", "200603.207500"],
