{
  "AcquisitionMatrixPE": 82,
  "AcquisitionNumber": 1,
  "AcquisitionTime": "18:53:11.837500",
  "BandwidthPerPixelPhaseEncode": 24.888,
  "BaseResolution": 82,
  "BodyPartExamined": "BRAIN",
  "ConsistencyInfo": "N4_VE11E_LATEST_20181129",
  "ConversionSoftware": "dcm2niix",
  "ConversionSoftwareVersion": "v1.0.20201102",
  "DerivedVendorReportedEchoSpacing": 0.00049,
  "DeviceSerialNumber": "66112",
  "DwellTime": 2e-06,
  "EchoTime": 0.0272,
  "EchoTrainLength": 82,
  "EffectiveEchoSpacing": 0.00049,
  "FlipAngle": 44,
  "ImageComments": "Unaliased MB8/PE3",
  "ImageOrientationPatientDICOM": [0.999933, -0.00669565, 0.00948847, 0.00663189, 0.999955, 0.00673531],
  "ImageType": [
    "ORIGINAL",
    "PRIMARY",
    "M",
    "MB",
    "ND",
    "NORM",
    "MOSAIC"
],
  "ImagingFrequency": 123.252,
  "InPlanePhaseEncodingDirectionDICOM": "COL",
  "InstitutionAddress": "Maynard 3,Hanover,NH,US,03755",
  "InstitutionName": "Dartmouth College - PBS",
  "InstitutionalDepartmentName": "Department",
  "MRAcquisitionType": "2D",
  "MagneticFieldStrength": 3,
  "Manufacturer": "Siemens",
  "ManufacturersModelName": "Prisma",
  "Modality": "MR",
  "MultibandAccelerationFactor": 8,
  "PartialFourier": 1,
  "PatientPosition": "HFS",
  "PercentPhaseFOV": 100,
  "PercentSampling": 100,
  "PhaseEncodingDirection": "j-",
  "PhaseEncodingSteps": 82,
  "PhaseResolution": 1,
  "PixelBandwidth": 3050,
  "ProcedureStepDescription": "Wager_Wager^1076_spacetop",
  "ProtocolName": "func_run-02_task-social_acq-ap-mb8",
  "PulseSequenceDetails": "%CustomerSeq%\\cmrr_mbep2d_bold",
  "ReceiveCoilActiveElements": "HEA;HEP",
  "ReceiveCoilName": "Head_32",
  "ReconMatrixPE": 82,
  "RepetitionTime": 0.46,
  "SAR": 0.0732536,
  "ScanOptions": "FS",
  "ScanningSequence": "EP",
  "SequenceName": "epfid2d1_82",
  "SequenceVariant": "SK\\SS",
  "SeriesDescription": "func_run-02_task-social_acq-ap-mb8",
  "SeriesNumber": 8,
  "ShimSetting": [4143, -7737, -7289, 602, -72, -130, 42, 71],
  "SliceThickness": 2.7,
  "SliceTiming": [0, 0.25, 0.0625, 0.3125, 0.125, 0.375, 0.1875, 0, 0.25, 0.0625, 0.3125, 0.125, 0.375, 0.1875, 0, 0.25, 0.0625, 0.3125, 0.125, 0.375, 0.1875, 0, 0.25, 0.0625, 0.3125, 0.125, 0.375, 0.1875, 0, 0.25, 0.0625, 0.3125, 0.125, 0.375, 0.1875, 0, 0.25, 0.0625, 0.3125, 0.125, 0.375, 0.1875, 0, 0.25, 0.0625, 0.3125, 0.125, 0.375, 0.1875, 0, 0.25, 0.0625, 0.3125, 0.125, 0.375, 0.1875],
  "SoftwareVersions": "syngo MR E11",
  "SpacingBetweenSlices": 2.7,
  "StationName": "AWP66112",
  "TaskName": "social",
  "TotalReadoutTime": 0.03969,
  "TxRefAmp": 229.838,
  "WipMemBlock": "4d8008c8-e742-4888-885d-02b01b213881||Sequence: R016 ve11e/master r/434b28f1; Aug  7 2019 18:53:46 by eja",
  "dcmmeta_affine": [
    [-2.682745933532715, 0.01779288239777088, 0.025739498436450958, 111.46240234375],
    [0.017963945865631104, 2.682806968688965, 0.01801420748233795, -90.53257751464844],
    [0.025456883013248444, -0.018070342019200325, 2.699817419052124, -72.25346374511719],
    [0.0, 0.0, 0.0, 1.0]
],
  "dcmmeta_reorient_transform": [
    [0.0, -1.0, 0.0, 81.0],
    [1.0, 0.0, 0.0, 0.0],
    [0.0, 0.0, 1.0, 0.0],
    [0.0, 0.0, 0.0, 1.0]
],
  "dcmmeta_shape": [82, 82, 56, 872],
  "dcmmeta_slice_dim": 2,
  "dcmmeta_version": 0.6,
  "global": {
    "const": {
      "AccessionNumber": "A004012",
      "AcquisitionMatrix": [82, 0, 0, 82],
      "AngioFlag": "N",
      "BitsAllocated": 16,
      "BitsStored": 16,
      "BodyPartExamined": "BRAIN",
      "Columns": 656,
      "EchoNumbers": 1,
      "EchoTime": 27.2,
      "EchoTrainLength": 82,
      "FlipAngle": 44.0,
      "HighBit": 15,
      "ImageOrientationPatient": [0.99993256627566, -0.0066956523441, 0.00948847411657, 0.00663189262619, 0.99995532580633, 0.00673530932801],
      "ImagePositionPatient": [-887.95827900408, -891.58475930103, -86.209478294569],
      "ImageType": [
        "ORIGINAL",
        "PRIMARY",
        "M",
        "MB",
        "ND",
        "NORM",
        "MOSAIC"
],
      "ImagedNucleus": "1H",
      "ImagingFrequency": 123.25219,
      "InPlanePhaseEncodingDirection": "COL",
      "MRAcquisitionType": "2D",
      "MagneticFieldStrength": 3.0,
      "Manufacturer": "SIEMENS",
      "ManufacturerModelName": "Prisma",
      "Modality": "MR",
      "NumberOfAverages": 1.0,
      "NumberOfPhaseEncodingSteps": 82,
      "PercentPhaseFieldOfView": 100.0,
      "PercentSampling": 100.0,
      "PerformedProcedureStepStartTime": "181501.135000",
      "PhotometricInterpretation": "MONOCHROME2",
      "PixelBandwidth": 3050.0,
      "PixelRepresentation": 0,
      "PixelSpacing": [2.6829268932343, 2.6829268932343],
      "ProtocolName": "func_run-02_task-social_acq-ap-mb8",
      "RepetitionTime": 460.0,
      "Rows": 656,
      "SAR": 0.07325364947189,
      "SamplesPerPixel": 1,
      "ScanOptions": "FS",
      "ScanningSequence": "EP",
      "SequenceName": "epfid2d1_82",
      "SequenceVariant": [
        "SK",
        "SS"
],
      "SeriesDescription": "func_run-02_task-social_acq-ap-mb8",
      "SeriesNumber": 8,
      "SeriesTime": "185332.623000",
      "SliceLocation": -71.790014791341,
      "SliceThickness": 2.7000000476837,
      "SmallestImagePixelValue": 0,
      "SoftwareVersions": "syngo MR E11",
      "SpacingBetweenSlices": 2.7000001009002,
      "SpecificCharacterSet": "ISO_IR 100",
      "StudyID": "3",
      "StudyTime": "181501.087000",
      "TransmitCoilName": "Body",
      "VariableFlipAngleFlag": "N",
      "WindowCenterWidthExplanation": "Algo1"
    },
    "slices": {}
  },
  "time": {
    "samples": {
      "AcquisitionNumber": [1, 2, 3, 4, 5, 6, 7, 8, 9, 10, 11, 12, 13, 14, 15, 16, 17, 18, 19, 20, 21, 22, 23, 24, 25, 26, 27, 28, 29, 30, 31, 32, 33, 34, 35, 36, 37, 38, 39, 40, 41, 42, 43, 44, 45, 46, 47, 48, 49, 50, 51, 52, 53, 54, 55, 56, 57, 58, 59, 60, 61, 62, 63, 64, 65, 66, 67, 68, 69, 70, 71, 72, 73, 74, 75, 76, 77, 78, 79, 80, 81, 82, 83, 84, 85, 86, 87, 88, 89, 90, 91, 92, 93, 94, 95, 96, 97, 98, 99, 100, 101, 102, 103, 104, 105, 106, 107, 108, 109, 110, 111, 112, 113, 114, 115, 116, 117, 118, 119, 120, 121, 122, 123, 124, 125, 126, 127, 128, 129, 130, 131, 132, 133, 134, 135, 136, 137, 138, 139, 140, 141, 142, 143, 144, 145, 146, 147, 148, 149, 150, 151, 152, 153, 154, 155, 156, 157, 158, 159, 160, 161, 162, 163, 164, 165, 166, 167, 168, 169, 170, 171, 172, 173, 174, 175, 176, 177, 178, 179, 180, 181, 182, 183, 184, 185, 186, 187, 188, 189, 190, 191, 192, 193, 194, 195, 196, 197, 198, 199, 200, 201, 202, 203, 204, 205, 206, 207, 208, 209, 210, 211, 212, 213, 214, 215, 216, 217, 218, 219, 220, 221, 222, 223, 224, 225, 226, 227, 228, 229, 230, 231, 232, 233, 234, 235, 236, 237, 238, 239, 240, 241, 242, 243, 244, 245, 246, 247, 248, 249, 250, 251, 252, 253, 254, 255, 256, 257, 258, 259, 260, 261, 262, 263, 264, 265, 266, 267, 268, 269, 270, 271, 272, 273, 274, 275, 276, 277, 278, 279, 280, 281, 282, 283, 284, 285, 286, 287, 288, 289, 290, 291, 292, 293, 294, 295, 296, 297, 298, 299, 300, 301, 302, 303, 304, 305, 306, 307, 308, 309, 310, 311, 312, 313, 314, 315, 316, 317, 318, 319, 320, 321, 322, 323, 324, 325, 326, 327, 328, 329, 330, 331, 332, 333, 334, 335, 336, 337, 338, 339, 340, 341, 342, 343, 344, 345, 346, 347, 348, 349, 350, 351, 352, 353, 354, 355, 356, 357, 358, 359, 360, 361, 362, 363, 364, 365, 366, 367, 368, 369, 370, 371, 372, 373, 374, 375, 376, 377, 378, 379, 380, 381, 382, 383, 384, 385, 386, 387, 388, 389, 390, 391, 392, 393, 394, 395, 396, 397, 398, 399, 400, 401, 402, 403, 404, 405, 406, 407, 408, 409, 410, 411, 412, 413, 414, 415, 416, 417, 418, 419, 420, 421, 422, 423, 424, 425, 426, 427, 428, 429, 430, 431, 432, 433, 434, 435, 436, 437, 438, 439, 440, 441, 442, 443, 444, 445, 446, 447, 448, 449, 450, 451, 452, 453, 454, 455, 456, 457, 458, 459, 460, 461, 462, 463, 464, 465, 466, 467, 468, 469, 470, 471, 472, 473, 474, 475, 476, 477, 478, 479, 480, 481, 482, 483, 484, 485, 486, 487, 488, 489, 490, 491, 492, 493, 494, 495, 496, 497, 498, 499, 500, 501, 502, 503, 504, 505, 506, 507, 508, 509, 510, 511, 512, 513, 514, 515, 516, 517, 518, 519, 520, 521, 522, 523, 524, 525, 526, 527, 528, 529, 530, 531, 532, 533, 534, 535, 536, 537, 538, 539, 540, 541, 542, 543, 544, 545, 546, 547, 548, 549, 550, 551, 552, 553, 554, 555, 556, 557, 558, 559, 560, 561, 562, 563, 564, 565, 566, 567, 568, 569, 570, 571, 572, 573, 574, 575, 576, 577, 578, 579, 580, 581, 582, 583, 584, 585, 586, 587, 588, 589, 590, 591, 592, 593, 594, 595, 596, 597, 598, 599, 600, 601, 602, 603, 604, 605, 606, 607, 608, 609, 610, 611, 612, 613, 614, 615, 616, 617, 618, 619, 620, 621, 622, 623, 624, 625, 626, 627, 628, 629, 630, 631, 632, 633, 634, 635, 636, 637, 638, 639, 640, 641, 642, 643, 644, 645, 646, 647, 648, 649, 650, 651, 652, 653, 654, 655, 656, 657, 658, 659, 660, 661, 662, 663, 664, 665, 666, 667, 668, 669, 670, 671, 672, 673, 674, 675, 676, 677, 678, 679, 680, 681, 682, 683, 684, 685, 686, 687, 688, 689, 690, 691, 692, 693, 694, 695, 696, 697, 698, 699, 700, 701, 702, 703, 704, 705, 706, 707, 708, 709, 710, 711, 712, 713, 714, 715, 716, 717, 718, 719, 720, 721, 722, 723, 724, 725, 726, 727, 728, 729, 730, 731, 732, 733, 734, 735, 736, 737, 738, 739, 740, 741, 742, 743, 744, 745, 746, 747, 748, 749, 750, 751, 752, 753, 754, 755, 756, 757, 758, 759, 760, 761, 762, 763, 764, 765, 766, 767, 768, 769, 770, 771, 772, 773, 774, 775, 776, 777, 778, 779, 780, 781, 782, 783, 784, 785, 786, 787, 788, 789, 790, 791, 792, 793, 794, 795, 796, 797, 798, 799, 800, 801, 802, 803, 804, 805, 806, 807, 808, 809, 810, 811, 812, 813, 814, 815, 816, 817, 818, 819, 820, 821, 822, 823, 824, 825, 826, 827, 828, 829, 830, 831, 832, 833, 834, 835, 836, 837, 838, 839, 840, 841, 842, 843, 844, 845, 846, 847, 848, 849, 850, 851, 852, 853, 854, 855, 856, 857, 858, 859, 860, 861, 862, 863, 864, 865, 866, 867, 868, 869, 870, 871, 872],
      "AcquisitionTime": ["185311.837500", "185312.297500", "185312.757500", "185313.217500", "185313.677500", "185314.137500", "185314.597500", "185315.057500", "185315.517500", "185315.977500", "185316.437500", "185316.897500", "185317.357500", "185317.817500", "185318.277500", "185318.737500", "185319.197500", "185319.657500", "185320.117500", "185320.577500", "185321.037500", "185321.497500", "185321.957500", "185322.417500", "185322.877500", "185323.337500", "185323.797500", "185324.257500", "185324.717500", "185325.177500", "185325.637500", "185326.097500", "185326.557500", "185327.017500", "185327.477500", "185327.937500", "185328.397500", "185328.857500", "185329.317500", "185329.777500", "185330.237500", "185330.697500", "185331.157500", "185331.617500", "185332.077500", "185332.537500", "185332.997500", "185333.457500", "185333.917500", "185334.377500", "185334.837500", "185335.297500", "185335.757500", "185336.217500", "185336.677500", "185337.137500", "185337.597500", "185338.057500", "185338.517500", "185338.977500", "185339.437500", "185339.897500", "185340.357500", "185340.817500", "185341.277500", "185341.737500", "185342.197500", "185342.657500", "185343.117500", "185343.577500", "185344.037500", "185344.497500", "185344.957500", "185345.417500", "185345.877500", "185346.337500", "185346.797500", "185347.257500", "185347.717500", "185348.177500", "185348.637500", "185349.097500", "185349.557500", "185350.017500", "185350.477500", "185350.937500", "185351.397500", "185351.857500", "185352.317500", "185352.777500", "185353.237500", "185353.697500", "185354.157500", "185354.617500", "185355.077500", "185355.537500", "185355.997500", "185356.457500", "185356.917500", "185357.377500", "185357.837500", "185358.297500", "185358.757500", "185359.217500", "185359.677500", "185400.137500", "185400.597500", "185401.057500", "185401.517500", "185401.977500", "185402.437500", "185402.897500", "185403.357500", "185403.817500", "185404.277500", "185404.737500", "185405.197500", "185405.657500", "185406.117500", "185406.577500", "185407.037500", "185407.497500", "185407.957500", "185408.417500", "185408.877500", "185409.337500", "185409.797500", "185410.257500", "185410.717500", "185411.177500", "185411.637500", "185412.097500", "185412.557500", "185413.017500", "185413.477500", "185413.937500", "185414.397500", "185414.857500", "185415.317500", "185415.777500", "185416.237500", "185416.697500", "185417.157500", "185417.617500", "185418.077500", "185418.537500", "185418.997500", "185419.457500", "185419.917500", "185420.377500", "185420.837500", "185421.297500", "185421.757500", "185422.217500", "185422.677500", "185423.137500", "185423.597500", "185424.057500", "185424.517500", "185424.977500", "185425.437500", "185425.897500", "185426.357500", "185426.817500", "185427.277500", "185427.737500", "185428.197500", "185428.657500", "185429.117500", "185429.577500", "185430.037500", "185430.497500", "185430.957500", "185431.417500", "185431.877500", "185432.337500", "185432.797500", "185433.257500", "185433.717500", "185434.177500", "185434.637500", "185435.097500", "185435.557500", "185436.017500", "185436.477500", "185436.937500", "185437.397500", "185437.857500", "185438.317500", "185438.777500", "185439.237500", "185439.697500", "185440.157500", "185440.617500", "185441.077500", "185441.537500", "185441.997500", "185442.457500", "185442.917500", "185443.377500", "185443.837500", "185444.297500", "185444.757500", "185445.217500", "185445.677500", "185446.137500", "185446.597500", "185447.057500", "185447.517500", "185447.977500", "185448.437500", "185448.897500", "185449.357500", "185449.817500", "185450.277500", "185450.737500", "185451.197500", "185451.657500", "185452.117500", "185452.577500", "185453.037500", "185453.497500", "185453.957500", "185454.417500", "185454.877500", "185455.337500", "185455.797500", "185456.257500", "185456.717500", "185457.177500", "185457.637500", "185458.097500", "185458.557500", "185459.017500", "185459.477500", "185459.937500", "185500.397500", "185500.857500", "185501.317500", "185501.777500", "185502.237500", "185502.697500", "185503.157500", "185503.617500", "185504.077500", "185504.537500", "185504.997500", "185505.457500", "185505.917500", "185506.377500", "185506.837500", "185507.297500", "185507.757500", "185508.217500", "185508.677500", "185509.137500", "185509.597500", "185510.057500", "185510.517500", "185510.977500", "185511.437500", "185511.897500", "185512.357500", "185512.817500", "185513.277500", "185513.737500", "185514.197500", "185514.657500", "185515.117500", "185515.577500", "185516.037500", "185516.497500", "185516.957500", "185517.417500", "185517.877500", "185518.337500", "185518.797500", "185519.257500", "185519.717500", "185520.177500", "185520.637500", "185521.097500", "185521.557500", "185522.017500", "185522.477500", "185522.937500", "185523.397500", "185523.857500", "185524.317500", "185524.777500", "185525.237500", "185525.697500", "185526.157500", "185526.617500", "185527.077500", "185527.537500", "185527.997500", "185528.457500", "185528.917500", "185529.377500", "185529.837500", "185530.297500", "185530.757500", "185531.217500", "185531.677500", "185532.137500", "185532.597500", "185533.057500", "185533.517500", "185533.977500", "185534.437500", "185534.897500", "185535.357500", "185535.817500", "185536.277500", "185536.737500", "185537.197500", "185537.657500", "185538.117500", "185538.577500", "185539.037500", "185539.497500", "185539.957500", "185540.417500", "185540.877500", "185541.337500", "185541.797500", "185542.257500", "185542.717500", "185543.177500", "185543.637500", "185544.097500", "185544.557500", "185545.017500", "185545.477500", "185545.937500", "185546.397500", "185546.857500", "185547.317500", "185547.777500", "185548.237500", "185548.697500", "185549.157500", "185549.617500", "185550.077500", "185550.537500", "185550.997500", "185551.457500", "185551.917500", "185552.377500", "185552.837500", "185553.297500", "185553.757500", "185554.217500", "185554.677500", "185555.137500", "185555.597500", "185556.057500", "185556.517500", "185556.977500", "185557.437500", "185557.897500", "185558.357500", "185558.817500", "185559.277500", "185559.737500", "185600.197500", "185600.657500", "185601.117500", "185601.577500", "185602.037500", "185602.497500", "185602.957500", "185603.417500", "185603.877500", "185604.337500", "185604.797500", "185605.257500", "185605.717500", "185606.177500", "185606.637500", "185607.097500", "185607.557500", "185608.017500", "185608.477500", "185608.937500", "185609.397500", "185609.857500", "185610.317500", "185610.777500", "185611.237500", "185611.697500", "185612.157500", "185612.617500", "185613.077500", "185613.537500", "185613.997500", "185614.457500", "185614.917500", "185615.377500", "185615.837500", "185616.297500", "185616.757500", "185617.217500", "185617.677500", "185618.137500", "185618.597500", "185619.057500", "185619.517500", "185619.977500", "185620.437500", "185620.897500", "185621.357500", "185621.817500", "185622.277500", "185622.737500", "185623.197500", "185623.657500", "185624.117500", "185624.577500", "185625.037500", "185625.497500", "185625.957500", "185626.417500", "185626.877500", "185627.337500", "185627.797500", "185628.257500", "185628.717500", "185629.177500", "185629.637500", "185630.097500", "185630.557500", "185631.017500", "185631.477500", "185631.937500", "185632.397500", "185632.857500", "185633.317500", "185633.777500", "185634.237500", "185634.697500", "185635.157500", "185635.617500", "185636.077500", "185636.537500", "185636.997500", "185637.457500", "185637.917500", "185638.377500", "185638.837500", "185639.297500", "185639.757500", "185640.217500", "185640.677500", "185641.137500", "185641.597500", "185642.057500", "185642.517500", "185642.977500", "185643.437500", "185643.897500", "185644.357500", "185644.817500", "185645.277500", "185645.737500", "185646.197500", "185646.657500", "185647.117500", "185647.577500", "185648.037500", "185648.497500", "185648.957500", "185649.417500", "185649.877500", "185650.337500", "185650.797500", "185651.257500", "185651.717500", "185652.177500", "185652.637500", "185653.097500", "185653.557500", "185654.017500", "185654.477500", "185654.937500", "185655.397500", "185655.857500", "185656.317500", "185656.777500", "185657.237500", "185657.697500", "185658.157500", "185658.617500", "185659.077500", "185659.537500", "185659.997500", "185700.457500", "185700.917500", "185701.377500", "185701.837500", "185702.297500", "185702.757500", "185703.217500", "185703.677500", "185704.137500", "185704.597500", "185705.057500", "185705.517500", "185705.977500", "185706.437500", "185706.897500", "185707.357500", "185707.817500", "185708.277500", "185708.737500", "185709.197500", "185709.657500", "185710.117500", "185710.577500", "185711.037500", "185711.497500", "185711.957500", "185712.417500", "185712.877500", "185713.337500", "185713.797500", "185714.257500", "185714.717500", "185715.177500", "185715.637500", "185716.097500", "185716.557500", "185717.017500", "185717.477500", "185717.937500", "185718.397500", "185718.857500", "185719.317500", "185719.777500", "185720.237500", "185720.697500", "185721.157500", "185721.617500", "185722.077500", "185722.537500", "185722.997500", "185723.457500", "185723.917500", "185724.377500", "185724.837500", "185725.297500", "185725.757500", "185726.217500", "185726.677500", "185727.137500", "185727.597500", "185728.057500", "185728.517500", "185728.977500", "185729.437500", "185729.897500", "185730.357500", "185730.817500", "185731.277500", "185731.737500", "185732.197500", "185732.657500", "185733.117500", "185733.577500", "185734.037500", "185734.497500", "185734.957500", "185735.417500", "185735.877500", "185736.337500", "185736.797500", "185737.257500", "185737.717500", "185738.177500", "185738.637500", "185739.097500", "185739.557500", "185740.017500", "185740.477500", "185740.937500", "185741.397500", "185741.857500", "185742.317500", "185742.777500", "185743.237500", "185743.697500", "185744.157500", "185744.617500", "185745.077500", "185745.537500", "185745.997500", "185746.457500", "185746.917500", "185747.377500", "185747.837500", "185748.297500", "185748.757500", "185749.217500", "185749.677500", "185750.137500", "185750.597500", "185751.057500", "185751.517500", "185751.977500", "185752.437500", "185752.897500", "185753.357500", "185753.817500", "185754.277500", "185754.737500", "185755.197500", "185755.657500", "185756.117500", "185756.577500", "185757.037500", "185757.497500", "185757.957500", "185758.417500", "185758.877500", "185759.337500", "185759.797500", "185800.257500", "185800.717500", "185801.177500", "185801.637500", "185802.097500", "185802.557500", "185803.017500", "185803.477500", "185803.937500", "185804.397500", "185804.857500", "185805.317500", "185805.777500", "185806.237500", "185806.697500", "185807.157500", "185807.617500", "185808.077500", "185808.537500", "185808.997500", "185809.457500", "185809.917500", "185810.377500", "185810.837500", "185811.297500", "185811.757500", "185812.217500", "185812.677500", "185813.137500", "185813.597500", "185814.057500", "185814.517500", "185814.977500", "185815.437500", "185815.897500", "185816.357500", "185816.817500", "185817.277500", "185817.737500", "185818.197500", "185818.657500", "185819.117500", "185819.577500", "185820.037500", "185820.497500", "185820.957500", "185821.417500", "185821.877500", "185822.337500", "185822.797500", "185823.257500", "185823.717500", "185824.177500", "185824.637500", "185825.097500", "185825.557500", "185826.017500", "185826.477500", "185826.937500", "185827.397500", "185827.857500", "185828.317500", "185828.777500", "185829.237500", "185829.697500", "185830.157500", "185830.617500", "185831.077500", "185831.537500", "185831.997500", "185832.457500", "185832.917500", "185833.377500", "185833.837500", "185834.297500", "185834.757500", "185835.217500", "185835.677500", "185836.137500", "185836.597500", "185837.057500", "185837.517500", "185837.977500", "185838.437500", "185838.897500", "185839.357500", "185839.817500", "185840.277500", "185840.737500", "185841.197500", "185841.657500", "185842.117500", "185842.577500", "185843.037500", "185843.497500", "185843.957500", "185844.417500", "185844.877500", "185845.337500", "185845.797500", "185846.257500", "185846.717500", "185847.177500", "185847.637500", "185848.097500", "185848.557500", "185849.017500", "185849.477500", "185849.937500", "185850.397500", "185850.857500", "185851.317500", "185851.777500", "185852.237500", "185852.697500", "185853.157500", "185853.617500", "185854.077500", "185854.537500", "185854.997500", "185855.457500", "185855.917500", "185856.377500", "185856.837500", "185857.297500", "185857.757500", "185858.217500", "185858.677500", "185859.137500", "185859.597500", "185900.057500", "185900.517500", "185900.977500", "185901.437500", "185901.897500", "185902.357500", "185902.817500", "185903.277500", "185903.737500", "185904.197500", "185904.657500", "185905.117500", "185905.577500", "185906.037500", "185906.497500", "185906.957500", "185907.417500", "185907.877500", "185908.337500", "185908.797500", "185909.257500", "185909.717500", "185910.177500", "185910.637500", "185911.097500", "185911.557500", "185912.017500", "185912.477500", "185912.937500", "185913.397500", "185913.857500", "185914.317500", "185914.777500", "185915.237500", "185915.697500", "185916.157500", "185916.617500", "185917.077500", "185917.537500", "185917.997500", "185918.457500", "185918.917500", "185919.377500", "185919.837500", "185920.297500", "185920.757500", "185921.217500", "185921.677500", "185922.137500", "185922.597500", "185923.057500", "185923.517500", "185923.977500", "185924.437500", "185924.897500", "185925.357500", "185925.817500", "185926.277500", "185926.737500", "185927.197500", "185927.657500", "185928.117500", "185928.577500", "185929.037500", "185929.497500", "185929.957500", "185930.417500", "185930.877500", "185931.337500", "185931.797500", "185932.257500", "185932.717500", "185933.177500", "185933.637500", "185934.097500", "185934.557500", "185935.017500", "185935.477500", "185935.937500", "185936.397500", "185936.857500", "185937.317500", "185937.777500", "185938.237500", "185938.697500", "185939.157500", "185939.617500", "185940.077500", "185940.537500", "185940.997500", "185941.457500", "185941.917500", "185942.377500", "185942.837500", "185943.297500", "185943.757500", "185944.217500", "185944.677500", "185945.137500", "185945.597500", "185946.057500", "185946.517500", "185946.977500", "185947.437500", "185947.897500", "185948.357500", "185948.817500", "185949.277500", "185949.737500", "185950.197500", "185950.657500", "185951.117500", "185951.577500", "185952.037500", "185952.497500"],
