{
  "AcquisitionMatrixPE": 82,
  "AcquisitionNumber": 1,
  "AcquisitionTime": "19:57:33.917500",
  "BandwidthPerPixelPhaseEncode": 24.888,
  "BaseResolution": 82,
  "BodyPartExamined": "BRAIN",
  "ConsistencyInfo": "N4_VE11E_LATEST_20181129",
  "ConversionSoftware": "dcm2niix",
  "ConversionSoftwareVersion": "v1.0.20201102",
  "DerivedVendorReportedEchoSpacing": 0.00049,
  "DeviceSerialNumber": "66112",
  "DwellTime": 2e-06,
  "EchoTime": 0.0272,
  "EchoTrainLength": 82,
  "EffectiveEchoSpacing": 0.00049,
  "FlipAngle": 44,
  "ImageComments": "Unaliased MB8/PE3",
  "ImageOrientationPatientDICOM": [0.998841, -0.048119, 0.000890384, 0.0478031, 0.994087, 0.0974989],
  "ImageType": [
    "ORIGINAL",
    "PRIMARY",
    "M",
    "MB",
    "ND",
    "NORM",
    "MOSAIC"
],
  "ImagingFrequency": 123.252,
  "InPlanePhaseEncodingDirectionDICOM": "COL",
  "InstitutionAddress": "Maynard 3,Hanover,NH,US,03755",
  "InstitutionName": "Dartmouth College - PBS",
  "InstitutionalDepartmentName": "Department",
  "MRAcquisitionType": "2D",
  "MagneticFieldStrength": 3,
  "Manufacturer": "Siemens",
  "ManufacturersModelName": "Prisma",
  "Modality": "MR",
  "MultibandAccelerationFactor": 8,
  "PartialFourier": 1,
  "PatientPosition": "HFS",
  "PercentPhaseFOV": 100,
  "PercentSampling": 100,
  "PhaseEncodingDirection": "j-",
  "PhaseEncodingSteps": 82,
  "PhaseResolution": 1,
  "PixelBandwidth": 3050,
  "ProcedureStepDescription": "Wager_Wager^1076_spacetop",
  "ProtocolName": "func_run-01_task-social_acq-ap-mb8",
  "PulseSequenceDetails": "%CustomerSeq%\\cmrr_mbep2d_bold",
  "ReceiveCoilActiveElements": "HEA;HEP",
  "ReceiveCoilName": "Head_32",
  "ReconMatrixPE": 82,
  "RepetitionTime": 0.46,
  "SAR": 0.0907191,
  "ScanOptions": "FS",
  "ScanningSequence": "EP",
  "SequenceName": "epfid2d1_82",
  "SequenceVariant": "SK\\SS",
  "SeriesDescription": "func_run-01_task-social_acq-ap-mb8",
  "SeriesNumber": 12,
  "ShimSetting": [4142, -7750, -7206, 686, -45, -94, 83, 72],
  "SliceThickness": 2.7,
  "SliceTiming": [0, 0.2525, 0.0625, 0.315, 0.125, 0.3775, 0.1875, 0, 0.2525, 0.0625, 0.315, 0.125, 0.3775, 0.1875, 0, 0.2525, 0.0625, 0.315, 0.125, 0.3775, 0.1875, 0, 0.2525, 0.0625, 0.315, 0.125, 0.3775, 0.1875, 0, 0.2525, 0.0625, 0.315, 0.125, 0.3775, 0.1875, 0, 0.2525, 0.0625, 0.315, 0.125, 0.3775, 0.1875, 0, 0.2525, 0.0625, 0.315, 0.125, 0.3775, 0.1875, 0, 0.2525, 0.0625, 0.315, 0.125, 0.3775, 0.1875],
  "SoftwareVersions": "syngo MR E11",
  "SpacingBetweenSlices": 2.7,
  "StationName": "AWP66112",
  "TaskName": "social",
  "TotalReadoutTime": 0.03969,
  "TxRefAmp": 235.217,
  "WipMemBlock": "48fb6bde-00d5-4e9d-934f-953bcfe73e96||Sequence: R016 ve11e/master r/434b28f1; Aug  7 2019 18:53:46 by eja",
  "dcmmeta_affine": [
    [-2.6798179149627686, 0.12825210392475128, 0.015057005919516087, 103.1296157836914],
    [0.1290997713804245, 2.667062520980835, 0.2628270387649536, -109.15461730957031],
    [0.00238883588463068, -0.2615824043750763, 2.6871352195739746, -35.36450958251953],
    [0.0, 0.0, 0.0, 1.0]
],
  "dcmmeta_reorient_transform": [
    [0.0, -1.0, 0.0, 81.0],
    [1.0, 0.0, 0.0, 0.0],
    [0.0, 0.0, 1.0, 0.0],
    [0.0, 0.0, 0.0, 1.0]
],
  "dcmmeta_shape": [82, 82, 56, 872],
  "dcmmeta_slice_dim": 2,
  "dcmmeta_version": 0.6,
  "global": {
    "const": {
      "AccessionNumber": "A004256",
      "AcquisitionMatrix": [82, 0, 0, 82],
      "AngioFlag": "N",
      "BitsAllocated": 16,
      "BitsStored": 16,
      "BodyPartExamined": "BRAIN",
      "Columns": 656,
      "EchoNumbers": 1,
      "EchoTime": 27.2,
      "EchoTrainLength": 82,
      "FlipAngle": 44.0,
      "HighBit": 15,
      "ImageOrientationPatient": [0.99884121290228, -0.0481190048086, 0.00089038426075, 0.04780305608564, 0.99408693486703, 0.09749889104775],
      "ImagePositionPatient": [-919.43414099661, -835.27277741695, -132.31242654891],
      "ImageType": [
        "ORIGINAL",
        "PRIMARY",
        "M",
        "MB",
        "ND",
        "NORM",
        "MOSAIC"
],
      "ImagedNucleus": "1H",
      "ImagingFrequency": 123.252166,
      "InPlanePhaseEncodingDirection": "COL",
      "MRAcquisitionType": "2D",
      "MagneticFieldStrength": 3.0,
      "Manufacturer": "SIEMENS",
      "ManufacturerModelName": "Prisma",
      "Modality": "MR",
      "NumberOfAverages": 1.0,
      "NumberOfPhaseEncodingSteps": 82,
      "PercentPhaseFieldOfView": 100.0,
      "PercentSampling": 100.0,
      "PerformedProcedureStepStartTime": "192002.699000",
      "PhotometricInterpretation": "MONOCHROME2",
      "PixelBandwidth": 3050.0,
      "PixelRepresentation": 0,
      "PixelSpacing": [2.6829268932343, 2.6829268932343],
      "ProtocolName": "func_run-01_task-social_acq-ap-mb8",
      "RepetitionTime": 460.0,
      "Rows": 656,
      "SAR": 0.0907190875505,
      "SamplesPerPixel": 1,
      "ScanOptions": "FS",
      "ScanningSequence": "EP",
      "SequenceName": "epfid2d1_82",
      "SequenceVariant": [
        "SK",
        "SS"
],
      "SeriesDescription": "func_run-01_task-social_acq-ap-mb8",
      "SeriesNumber": 12,
      "SeriesTime": "195748.571000",
      "SliceLocation": -45.246360888299,
      "SliceThickness": 2.7000000476837,
      "SmallestImagePixelValue": 0,
      "SoftwareVersions": "syngo MR E11",
      "SpacingBetweenSlices": 2.699999972085,
      "SpecificCharacterSet": "ISO_IR 100",
      "StudyID": "3",
      "StudyTime": "192002.652000",
      "TransmitCoilName": "Body",
      "VariableFlipAngleFlag": "N",
      "WindowCenterWidthExplanation": "Algo1"
    },
    "slices": {}
  },
  "time": {
    "samples": {
      "AcquisitionNumber": [1, 2, 3, 4, 5, 6, 7, 8, 9, 10, 11, 12, 13, 14, 15, 16, 17, 18, 19, 20, 21, 22, 23, 24, 25, 26, 27, 28, 29, 30, 31, 32, 33, 34, 35, 36, 37, 38, 39, 40, 41, 42, 43, 44, 45, 46, 47, 48, 49, 50, 51, 52, 53, 54, 55, 56, 57, 58, 59, 60, 61, 62, 63, 64, 65, 66, 67, 68, 69, 70, 71, 72, 73, 74, 75, 76, 77, 78, 79, 80, 81, 82, 83, 84, 85, 86, 87, 88, 89, 90, 91, 92, 93, 94, 95, 96, 97, 98, 99, 100, 101, 102, 103, 104, 105, 106, 107, 108, 109, 110, 111, 112, 113, 114, 115, 116, 117, 118, 119, 120, 121, 122, 123, 124, 125, 126, 127, 128, 129, 130, 131, 132, 133, 134, 135, 136, 137, 138, 139, 140, 141, 142, 143, 144, 145, 146, 147, 148, 149, 150, 151, 152, 153, 154, 155, 156, 157, 158, 159, 160, 161, 162, 163, 164, 165, 166, 167, 168, 169, 170, 171, 172, 173, 174, 175, 176, 177, 178, 179, 180, 181, 182, 183, 184, 185, 186, 187, 188, 189, 190, 191, 192, 193, 194, 195, 196, 197, 198, 199, 200, 201, 202, 203, 204, 205, 206, 207, 208, 209, 210, 211, 212, 213, 214, 215, 216, 217, 218, 219, 220, 221, 222, 223, 224, 225, 226, 227, 228, 229, 230, 231, 232, 233, 234, 235, 236, 237, 238, 239, 240, 241, 242, 243, 244, 245, 246, 247, 248, 249, 250, 251, 252, 253, 254, 255, 256, 257, 258, 259, 260, 261, 262, 263, 264, 265, 266, 267, 268, 269, 270, 271, 272, 273, 274, 275, 276, 277, 278, 279, 280, 281, 282, 283, 284, 285, 286, 287, 288, 289, 290, 291, 292, 293, 294, 295, 296, 297, 298, 299, 300, 301, 302, 303, 304, 305, 306, 307, 308, 309, 310, 311, 312, 313, 314, 315, 316, 317, 318, 319, 320, 321, 322, 323, 324, 325, 326, 327, 328, 329, 330, 331, 332, 333, 334, 335, 336, 337, 338, 339, 340, 341, 342, 343, 344, 345, 346, 347, 348, 349, 350, 351, 352, 353, 354, 355, 356, 357, 358, 359, 360, 361, 362, 363, 364, 365, 366, 367, 368, 369, 370, 371, 372, 373, 374, 375, 376, 377, 378, 379, 380, 381, 382, 383, 384, 385, 386, 387, 388, 389, 390, 391, 392, 393, 394, 395, 396, 397, 398, 399, 400, 401, 402, 403, 404, 405, 406, 407, 408, 409, 410, 411, 412, 413, 414, 415, 416, 417, 418, 419, 420, 421, 422, 423, 424, 425, 426, 427, 428, 429, 430, 431, 432, 433, 434, 435, 436, 437, 438, 439, 440, 441, 442, 443, 444, 445, 446, 447, 448, 449, 450, 451, 452, 453, 454, 455, 456, 457, 458, 459, 460, 461, 462, 463, 464, 465, 466, 467, 468, 469, 470, 471, 472, 473, 474, 475, 476, 477, 478, 479, 480, 481, 482, 483, 484, 485, 486, 487, 488, 489, 490, 491, 492, 493, 494, 495, 496, 497, 498, 499, 500, 501, 502, 503, 504, 505, 506, 507, 508, 509, 510, 511, 512, 513, 514, 515, 516, 517, 518, 519, 520, 521, 522, 523, 524, 525, 526, 527, 528, 529, 530, 531, 532, 533, 534, 535, 536, 537, 538, 539, 540, 541, 542, 543, 544, 545, 546, 547, 548, 549, 550, 551, 552, 553, 554, 555, 556, 557, 558, 559, 560, 561, 562, 563, 564, 565, 566, 567, 568, 569, 570, 571, 572, 573, 574, 575, 576, 577, 578, 579, 580, 581, 582, 583, 584, 585, 586, 587, 588, 589, 590, 591, 592, 593, 594, 595, 596, 597, 598, 599, 600, 601, 602, 603, 604, 605, 606, 607, 608, 609, 610, 611, 612, 613, 614, 615, 616, 617, 618, 619, 620, 621, 622, 623, 624, 625, 626, 627, 628, 629, 630, 631, 632, 633, 634, 635, 636, 637, 638, 639, 640, 641, 642, 643, 644, 645, 646, 647, 648, 649, 650, 651, 652, 653, 654, 655, 656, 657, 658, 659, 660, 661, 662, 663, 664, 665, 666, 667, 668, 669, 670, 671, 672, 673, 674, 675, 676, 677, 678, 679, 680, 681, 682, 683, 684, 685, 686, 687, 688, 689, 690, 691, 692, 693, 694, 695, 696, 697, 698, 699, 700, 701, 702, 703, 704, 705, 706, 707, 708, 709, 710, 711, 712, 713, 714, 715, 716, 717, 718, 719, 720, 721, 722, 723, 724, 725, 726, 727, 728, 729, 730, 731, 732, 733, 734, 735, 736, 737, 738, 739, 740, 741, 742, 743, 744, 745, 746, 747, 748, 749, 750, 751, 752, 753, 754, 755, 756, 757, 758, 759, 760, 761, 762, 763, 764, 765, 766, 767, 768, 769, 770, 771, 772, 773, 774, 775, 776, 777, 778, 779, 780, 781, 782, 783, 784, 785, 786, 787, 788, 789, 790, 791, 792, 793, 794, 795, 796, 797, 798, 799, 800, 801, 802, 803, 804, 805, 806, 807, 808, 809, 810, 811, 812, 813, 814, 815, 816, 817, 818, 819, 820, 821, 822, 823, 824, 825, 826, 827, 828, 829, 830, 831, 832, 833, 834, 835, 836, 837, 838, 839, 840, 841, 842, 843, 844, 845, 846, 847, 848, 849, 850, 851, 852, 853, 854, 855, 856, 857, 858, 859, 860, 861, 862, 863, 864, 865, 866, 867, 868, 869, 870, 871, 872],
      "AcquisitionTime": ["195733.917500", "195734.377500", "195734.837500", "195735.297500", "195735.757500", "195736.217500", "195736.677500", "195737.137500", "195737.597500", "195738.057500", "195738.517500", "195738.977500", "195739.437500", "195739.897500", "195740.357500", "195740.817500", "195741.277500", "195741.737500", "195742.197500", "195742.657500", "195743.117500", "195743.577500", "195744.037500", "195744.497500", "195744.957500", "195745.417500", "195745.877500", "195746.337500", "195746.797500", "195747.257500", "195747.717500", "195748.177500", "195748.637500", "195749.097500", "195749.557500", "195750.017500", "195750.477500", "195750.937500", "195751.397500", "195751.857500", "195752.317500", "195752.777500", "195753.237500", "195753.697500", "195754.157500", "195754.617500", "195755.077500", "195755.537500", "195755.997500", "195756.457500", "195756.917500", "195757.377500", "195757.837500", "195758.297500", "195758.757500", "195759.217500", "195759.677500", "195800.137500", "195800.597500", "195801.057500", "195801.517500", "195801.977500", "195802.437500", "195802.897500", "195803.357500", "195803.817500", "195804.277500", "195804.737500", "195805.197500", "195805.657500", "195806.117500", "195806.577500", "195807.037500", "195807.497500", "195807.957500", "195808.417500", "195808.877500", "195809.337500", "195809.797500", "195810.257500", "195810.717500", "195811.177500", "195811.637500", "195812.097500", "195812.557500", "195813.017500", "195813.477500", "195813.937500", "195814.397500", "195814.857500", "195815.317500", "195815.777500", "195816.237500", "195816.697500", "195817.157500", "195817.617500", "195818.077500", "195818.537500", "195818.997500", "195819.457500", "195819.917500", "195820.377500", "195820.837500", "195821.297500", "195821.757500", "195822.217500", "195822.677500", "195823.137500", "195823.597500", "195824.057500", "195824.517500", "195824.977500", "195825.437500", "195825.897500", "195826.357500", "195826.817500", "195827.277500", "195827.737500", "195828.197500", "195828.657500", "195829.117500", "195829.577500", "195830.037500", "195830.497500", "195830.957500", "195831.417500", "195831.877500", "195832.337500", "195832.797500", "195833.257500", "195833.717500", "195834.177500", "195834.637500", "195835.097500", "195835.557500", "195836.017500", "195836.477500", "195836.937500", "195837.397500", "195837.857500", "195838.317500", "195838.777500", "195839.237500", "195839.697500", "195840.157500", "195840.617500", "195841.077500", "195841.537500", "195841.997500", "195842.457500", "195842.917500", "195843.377500", "195843.837500", "195844.297500", "195844.757500", "195845.217500", "195845.677500", "195846.137500", "195846.597500", "195847.057500", "195847.517500", "195847.977500", "195848.437500", "195848.897500", "195849.357500", "195849.817500", "195850.277500", "195850.737500", "195851.197500", "195851.657500", "195852.117500", "195852.577500", "195853.037500", "195853.497500", "195853.957500", "195854.417500", "195854.877500", "195855.337500", "195855.797500", "195856.257500", "195856.717500", "195857.177500", "195857.637500", "195858.097500", "195858.557500", "195859.017500", "195859.477500", "195859.937500", "195900.397500", "195900.857500", "195901.317500", "195901.777500", "195902.237500", "195902.697500", "195903.157500", "195903.617500", "195904.077500", "195904.537500", "195904.997500", "195905.457500", "195905.917500", "195906.377500", "195906.837500", "195907.297500", "195907.757500", "195908.217500", "195908.677500", "195909.137500", "195909.597500", "195910.057500", "195910.517500", "195910.977500", "195911.437500", "195911.897500", "195912.357500", "195912.817500", "195913.277500", "195913.737500", "195914.197500", "195914.657500", "195915.117500", "195915.577500", "195916.037500", "195916.497500", "195916.957500", "195917.417500", "195917.877500", "195918.337500", "195918.797500", "195919.257500", "195919.717500", "195920.177500", "195920.637500", "195921.097500", "195921.557500", "195922.017500", "195922.477500", "195922.937500", "195923.397500", "195923.857500", "195924.317500", "195924.777500", "195925.237500", "195925.697500", "195926.157500", "195926.617500", "195927.077500", "195927.537500", "195927.997500", "195928.457500", "195928.917500", "195929.377500", "195929.837500", "195930.297500", "195930.757500", "195931.217500", "195931.677500", "195932.137500", "195932.597500", "195933.057500", "195933.517500", "195933.977500", "195934.437500", "195934.897500", "195935.357500", "195935.817500", "195936.277500", "195936.737500", "195937.197500", "195937.657500", "195938.117500", "195938.577500", "195939.037500", "195939.497500", "195939.957500", "195940.417500", "195940.877500", "195941.337500", "195941.797500", "195942.257500", "195942.717500", "195943.177500", "195943.637500", "195944.097500", "195944.557500", "195945.017500", "195945.477500", "195945.937500", "195946.397500", "195946.857500", "195947.317500", "195947.777500", "195948.237500", "195948.697500", "195949.157500", "195949.617500", "195950.077500", "195950.537500", "195950.997500", "195951.457500", "195951.917500", "195952.377500", "195952.837500", "195953.297500", "195953.757500", "195954.217500", "195954.677500", "195955.137500", "195955.597500", "195956.057500", "195956.517500", "195956.977500", "195957.437500", "195957.897500", "195958.357500", "195958.817500", "195959.277500", "195959.737500", "200000.197500", "200000.657500", "200001.117500", "200001.577500", "200002.037500", "200002.497500", "200002.957500", "200003.417500", "200003.877500", "200004.337500", "200004.797500", "200005.257500", "200005.717500", "200006.177500", "200006.637500", "200007.097500", "200007.557500", "200008.017500", "200008.477500", "200008.937500", "200009.397500", "200009.857500", "200010.317500", "200010.777500", "200011.237500", "200011.697500", "200012.157500", "200012.617500", "200013.077500", "200013.537500", "200013.997500", "200014.457500", "200014.917500", "200015.377500", "200015.837500", "200016.297500", "200016.757500", "200017.217500", "200017.677500", "200018.137500", "200018.597500", "200019.057500", "200019.517500", "200019.977500", "200020.437500", "200020.897500", "200021.357500", "200021.817500", "200022.277500", "200022.737500", "200023.197500", "200023.657500", "200024.117500", "200024.577500", "200025.037500", "200025.497500", "200025.957500", "200026.417500", "200026.877500", "200027.337500", "200027.797500", "200028.257500", "200028.717500", "200029.177500", "200029.637500", "200030.097500", "200030.557500", "200031.017500", "200031.477500", "200031.937500", "200032.397500", "200032.857500", "200033.317500", "200033.777500", "200034.237500", "200034.697500", "200035.157500", "200035.617500", "200036.077500", "200036.537500", "200036.997500", "200037.457500", "200037.917500", "200038.377500", "200038.837500", "200039.297500", "200039.757500", "200040.217500", "200040.677500", "200041.137500", "200041.597500", "200042.057500", "200042.517500", "200042.977500", "200043.437500", "200043.897500", "200044.357500", "200044.817500", "200045.277500", "200045.737500", "200046.197500", "200046.657500", "200047.117500", "200047.577500", "200048.037500", "200048.497500", "200048.957500", "200049.417500", "200049.877500", "200050.337500", "200050.797500", "200051.257500", "200051.717500", "200052.177500", "200052.637500", "200053.097500", "200053.557500", "200054.017500", "200054.477500", "200054.937500", "200055.397500", "200055.857500", "200056.317500", "200056.777500", "200057.237500", "200057.697500", "200058.157500", "200058.617500", "200059.077500", "200059.537500", "200059.997500", "200100.457500", "200100.917500", "200101.377500", "200101.837500", "200102.297500", "200102.757500", "200103.217500", "200103.677500", "200104.137500", "200104.597500", "200105.057500", "200105.517500", "200105.977500", "200106.437500", "200106.897500", "200107.357500", "200107.817500", "200108.277500", "200108.737500", "200109.197500", "200109.657500", "200110.117500", "200110.577500", "200111.037500", "200111.497500", "200111.957500", "200112.417500", "200112.877500", "200113.337500", "200113.797500", "200114.257500", "200114.717500", "200115.177500", "200115.637500", "200116.097500", "200116.557500", "200117.017500", "200117.477500", "200117.937500", "200118.397500", "200118.857500", "200119.317500", "200119.777500", "200120.237500", "200120.697500", "200121.157500", "200121.617500", "200122.077500", "200122.537500", "200122.997500", "200123.457500", "200123.917500", "200124.377500", "200124.837500", "200125.297500", "200125.757500", "200126.217500", "200126.677500", "200127.137500", "200127.597500", "200128.057500", "200128.517500", "200128.977500", "200129.437500", "200129.897500", "200130.357500", "200130.817500", "200131.277500", "200131.737500", "200132.197500", "200132.657500", "200133.117500", "200133.577500", "200134.037500", "200134.497500", "200134.957500", "200135.417500", "200135.877500", "200136.337500", "200136.797500", "200137.257500", "200137.717500", "200138.177500", "200138.637500", "200139.097500", "200139.557500", "200140.017500", "200140.477500", "200140.937500", "200141.397500", "200141.857500", "200142.317500", "200142.777500", "200143.237500", "200143.697500", "200144.157500", "200144.617500", "200145.077500", "200145.537500", "200145.997500", "200146.457500", "200146.917500", "200147.377500", "200147.837500", "200148.297500", "200148.757500", "200149.217500", "200149.677500", "200150.137500", "200150.597500", "200151.057500", "200151.517500", "200151.977500", "200152.437500", "200152.897500", "200153.357500", "200153.817500", "200154.277500", "200154.737500", "200155.197500", "200155.657500", "200156.117500", "200156.577500", "200157.037500", "200157.497500", "200157.957500", "200158.417500", "200158.877500", "200159.337500", "200159.797500", "200200.257500", "200200.717500", "200201.177500", "200201.637500", "200202.097500", "200202.557500", "200203.017500", "200203.477500", "200203.937500", "200204.397500", "200204.857500", "200205.317500", "200205.777500", "200206.237500", "200206.697500", "200207.157500", "200207.617500", "200208.077500", "200208.537500", "200208.997500", "200209.457500", "200209.917500", "200210.377500", "200210.837500", "200211.297500", "200211.757500", "200212.217500", "200212.677500", "200213.137500", "200213.597500", "200214.057500", "200214.517500", "200214.977500", "200215.437500", "200215.897500", "200216.357500", "200216.817500", "200217.277500", "200217.737500", "200218.197500", "200218.657500", "200219.117500", "200219.577500", "200220.037500", "200220.497500", "200220.957500", "200221.417500", "200221.877500", "200222.337500", "200222.797500", "200223.257500", "200223.717500", "200224.177500", "200224.637500", "200225.097500", "200225.557500", "200226.017500", "200226.477500", "200226.937500", "200227.397500", "200227.857500", "200228.317500", "200228.777500", "200229.237500", "200229.697500", "200230.157500", "200230.617500", "200231.077500", "200231.537500", "200231.997500", "200232.457500", "200232.917500", "200233.377500", "200233.837500", "200234.297500", "200234.757500", "200235.217500", "200235.677500", "200236.137500", "200236.597500", "200237.057500", "200237.517500", "200237.977500", "200238.437500", "200238.897500", "200239.357500", "200239.817500", "200240.277500", "200240.737500", "200241.197500", "200241.657500", "200242.117500", "200242.577500", "200243.037500", "200243.497500", "200243.957500", "200244.417500", "200244.877500", "200245.337500", "200245.797500", "200246.257500", "200246.717500", "200247.177500", "200247.637500", "200248.097500", "200248.557500", "200249.017500", "200249.477500", "200249.937500", "200250.397500", "200250.857500", "200251.317500", "200251.777500", "200252.237500", "200252.697500", "200253.157500", "200253.617500", "200254.077500", "200254.537500", "200254.997500", "200255.457500", "200255.917500", "200256.377500", "200256.837500", "200257.297500", "200257.757500", "200258.217500", "200258.677500", "200259.137500", "200259.597500", "200300.057500", "200300.517500", "200300.977500", "200301.437500", "200301.897500", "200302.357500", "200302.817500", "200303.277500", "200303.737500", "200304.197500", "200304.657500", "200305.117500", "200305.577500", "200306.037500", "200306.497500", "200306.957500", "200307.417500", "200307.877500", "200308.337500", "200308.797500", "200309.257500", "200309.717500", "200310.177500", "200310.637500", "200311.097500", "200311.557500", "200312.017500", "200312.477500", "200312.937500", "200313.397500", "200313.857500", "200314.317500", "200314.777500", "200315.237500", "200315.697500", "200316.157500", "200316.617500", "200317.077500", "200317.537500", "200317.997500", "200318.457500", "200318.917500", "200319.377500", "200319.837500", "200320.297500", "200320.757500", "200321.217500", "200321.677500", "200322.137500", "200322.597500", "200323.057500", "200323.517500", "200323.977500", "200324.437500", "200324.897500", "200325.357500", "200325.817500", "200326.277500", "200326.737500", "200327.197500", "200327.657500", "200328.117500", "200328.577500", "200329.037500", "200329.497500", "200329.957500", "200330.417500", "200330.877500", "200331.337500", "200331.797500", "200332.257500", "200332.717500", "200333.177500", "200333.637500", "200334.097500", "200334.557500", "200335.017500", "200335.477500", "200335.937500", "200336.397500", "200336.857500", "200337.317500", "200337.777500", "200338.237500", "200338.697500", "200339.157500", "200339.617500", "200340.077500", "200340.537500", "200340.997500", "200341.457500", "200341.917500", "200342.377500", "200342.837500", "200343.297500", "200343.757500", "200344.217500", "200344.677500", "200345.137500", "200345.597500", "200346.057500", "200346.517500", "200346.977500", "200347.437500", "200347.897500", "200348.357500", "200348.817500", "200349.277500", "200349.737500", "200350.197500", "200350.657500", "200351.117500", "200351.577500", "200352.037500", "200352.497500", "200352.957500", "200353.417500", "200353.877500", "200354.337500", "200354.797500", "200355.257500", "200355.717500", "200356.177500", "200356.637500", "200357.097500", "200357.557500", "200358.017500", "200358.477500", "200358.937500", "200359.397500", "200359.857500", "200400.317500", "200400.777500", "200401.237500", "200401.697500", "200402.157500", "200402.617500", "200403.077500", "200403.537500", "200403.997500", "200404.457500", "200404.917500", "200405.377500", "200405.837500", "200406.297500", "200406.757500", "200407.217500", "200407.677500", "200408.137500", "200408.597500", "200409.057500", "200409.517500", "200409.977500", "200410.437500", "200410.897500", "200411.357500", "200411.817500", "200412.277500", "200412.737500", "200413.197500", "200413.657500", "200414.117500", "200414.577500"],
