{
  "AcquisitionMatrixPE": 82,
  "AcquisitionNumber": 1,
  "AcquisitionTime": "20:36:58.595000",
  "BandwidthPerPixelPhaseEncode": 24.888,
  "BaseResolution": 82,
  "BodyPartExamined": "BRAIN",
  "ConsistencyInfo": "N4_VE11E_LATEST_20181129",
  "ConversionSoftware": "dcm2niix",
  "ConversionSoftwareVersion": "v1.0.20201102",
  "DerivedVendorReportedEchoSpacing": 0.00049,
  "DeviceSerialNumber": "66112",
  "DwellTime": 2e-06,
  "EchoTime": 0.0272,
  "EchoTrainLength": 82,
  "EffectiveEchoSpacing": 0.00049,
  "FlipAngle": 44,
  "ImageComments": "Unaliased MB8/PE3",
  "ImageOrientationPatientDICOM": [0.998841, -0.048119, 0.000890384, 0.0478031, 0.994087, 0.0974989],
  "ImageType": [
    "ORIGINAL",
    "PRIMARY",
    "M",
    "MB",
    "ND",
    "NORM",
    "MOSAIC"
],
  "ImagingFrequency": 123.252,
  "InPlanePhaseEncodingDirectionDICOM": "COL",
  "InstitutionAddress": "Maynard 3,Hanover,NH,US,03755",
  "InstitutionName": "Dartmouth College - PBS",
  "InstitutionalDepartmentName": "Department",
  "MRAcquisitionType": "2D",
  "MagneticFieldStrength": 3,
  "Manufacturer": "Siemens",
  "ManufacturersModelName": "Prisma",
  "Modality": "MR",
  "MultibandAccelerationFactor": 8,
  "PartialFourier": 1,
  "PatientPosition": "HFS",
  "PercentPhaseFOV": 100,
  "PercentSampling": 100,
  "PhaseEncodingDirection": "j-",
  "PhaseEncodingSteps": 82,
  "PhaseResolution": 1,
  "PixelBandwidth": 3050,
  "ProcedureStepDescription": "Wager_Wager^1076_spacetop",
  "ProtocolName": "func_run-06_task-social_acq-ap-mb8",
  "PulseSequenceDetails": "%CustomerSeq%\\cmrr_mbep2d_bold",
  "ReceiveCoilActiveElements": "HEA;HEP",
  "ReceiveCoilName": "Head_32",
  "ReconMatrixPE": 82,
  "RepetitionTime": 0.46,
  "SAR": 0.0907191,
  "ScanOptions": "FS",
  "ScanningSequence": "EP",
  "SequenceName": "epfid2d1_82",
  "SequenceVariant": "SK\\SS",
  "SeriesDescription": "func_run-06_task-social_acq-ap-mb8",
  "SeriesNumber": 22,
  "ShimSetting": [4142, -7750, -7206, 686, -45, -94, 83, 72],
  "SliceThickness": 2.7,
  "SliceTiming": [0, 0.25, 0.0625, 0.3125, 0.125, 0.375, 0.1875, 0, 0.25, 0.0625, 0.3125, 0.125, 0.375, 0.1875, 0, 0.25, 0.0625, 0.3125, 0.125, 0.375, 0.1875, 0, 0.25, 0.0625, 0.3125, 0.125, 0.375, 0.1875, 0, 0.25, 0.0625, 0.3125, 0.125, 0.375, 0.1875, 0, 0.25, 0.0625, 0.3125, 0.125, 0.375, 0.1875, 0, 0.25, 0.0625, 0.3125, 0.125, 0.375, 0.1875, 0, 0.25, 0.0625, 0.3125, 0.125, 0.375, 0.1875],
  "SoftwareVersions": "syngo MR E11",
  "SpacingBetweenSlices": 2.7,
  "StationName": "AWP66112",
  "TaskName": "social",
  "TotalReadoutTime": 0.03969,
  "TxRefAmp": 235.217,
  "WipMemBlock": "a2273134-cddd-41cc-8269-30827f4fb302||Sequence: R016 ve11e/master r/434b28f1; Aug  7 2019 18:53:46 by eja",
  "dcmmeta_affine": [
    [-2.6798179149627686, 0.12825210392475128, 0.015057005919516087, 103.1296157836914],
    [0.1290997713804245, 2.667062520980835, 0.2628270387649536, -109.15461730957031],
    [0.00238883588463068, -0.2615824043750763, 2.6871352195739746, -35.36450958251953],
    [0.0, 0.0, 0.0, 1.0]
],
  "dcmmeta_reorient_transform": [
    [0.0, -1.0, 0.0, 81.0],
    [1.0, 0.0, 0.0, 0.0],
    [0.0, 0.0, 1.0, 0.0],
    [0.0, 0.0, 0.0, 1.0]
],
  "dcmmeta_shape": [82, 82, 56, 872],
  "dcmmeta_slice_dim": 2,
  "dcmmeta_version": 0.6,
  "global": {
    "const": {
      "AccessionNumber": "A004256",
      "AcquisitionMatrix": [82, 0, 0, 82],
      "AngioFlag": "N",
      "BitsAllocated": 16,
      "BitsStored": 16,
      "BodyPartExamined": "BRAIN",
      "Columns": 656,
      "EchoNumbers": 1,
      "EchoTime": 27.2,
      "EchoTrainLength": 82,
      "FlipAngle": 44.0,
      "HighBit": 15,
      "ImageOrientationPatient": [0.99884121290228, -0.0481190048086, 0.00089038426075, 0.04780305608564, 0.99408693486703, 0.09749889104775],
      "ImagePositionPatient": [-919.43414099661, -835.27277741695, -132.31242654891],
      "ImageType": [
        "ORIGINAL",
        "PRIMARY",
        "M",
        "MB",
        "ND",
        "NORM",
        "MOSAIC"
],
      "ImagedNucleus": "1H",
      "ImagingFrequency": 123.252166,
      "InPlanePhaseEncodingDirection": "COL",
      "MRAcquisitionType": "2D",
      "MagneticFieldStrength": 3.0,
      "Manufacturer": "SIEMENS",
      "ManufacturerModelName": "Prisma",
      "Modality": "MR",
      "NumberOfAverages": 1.0,
      "NumberOfPhaseEncodingSteps": 82,
      "PercentPhaseFieldOfView": 100.0,
      "PercentSampling": 100.0,
      "PerformedProcedureStepStartTime": "192002.699000",
      "PhotometricInterpretation": "MONOCHROME2",
      "PixelBandwidth": 3050.0,
      "PixelRepresentation": 0,
      "PixelSpacing": [2.6829268932343, 2.6829268932343],
      "ProtocolName": "func_run-06_task-social_acq-ap-mb8",
      "RepetitionTime": 460.0,
      "Rows": 656,
      "SAR": 0.0907190875505,
      "SamplesPerPixel": 1,
      "ScanOptions": "FS",
      "ScanningSequence": "EP",
      "SequenceName": "epfid2d1_82",
      "SequenceVariant": [
        "SK",
        "SS"
],
      "SeriesDescription": "func_run-06_task-social_acq-ap-mb8",
      "SeriesNumber": 22,
      "SeriesTime": "203708.481000",
      "SliceLocation": -45.246360888299,
      "SliceThickness": 2.7000000476837,
      "SmallestImagePixelValue": 0,
      "SoftwareVersions": "syngo MR E11",
      "SpacingBetweenSlices": 2.699999972085,
      "SpecificCharacterSet": "ISO_IR 100",
      "StudyID": "3",
      "StudyTime": "192002.652000",
      "TransmitCoilName": "Body",
      "VariableFlipAngleFlag": "N",
      "WindowCenterWidthExplanation": "Algo1"
    },
    "slices": {}
  },
  "time": {
    "samples": {
      "AcquisitionNumber": [1, 2, 3, 4, 5, 6, 7, 8, 9, 10, 11, 12, 13, 14, 15, 16, 17, 18, 19, 20, 21, 22, 23, 24, 25, 26, 27, 28, 29, 30, 31, 32, 33, 34, 35, 36, 37, 38, 39, 40, 41, 42, 43, 44, 45, 46, 47, 48, 49, 50, 51, 52, 53, 54, 55, 56, 57, 58, 59, 60, 61, 62, 63, 64, 65, 66, 67, 68, 69, 70, 71, 72, 73, 74, 75, 76, 77, 78, 79, 80, 81, 82, 83, 84, 85, 86, 87, 88, 89, 90, 91, 92, 93, 94, 95, 96, 97, 98, 99, 100, 101, 102, 103, 104, 105, 106, 107, 108, 109, 110, 111, 112, 113, 114, 115, 116, 117, 118, 119, 120, 121, 122, 123, 124, 125, 126, 127, 128, 129, 130, 131, 132, 133, 134, 135, 136, 137, 138, 139, 140, 141, 142, 143, 144, 145, 146, 147, 148, 149, 150, 151, 152, 153, 154, 155, 156, 157, 158, 159, 160, 161, 162, 163, 164, 165, 166, 167, 168, 169, 170, 171, 172, 173, 174, 175, 176, 177, 178, 179, 180, 181, 182, 183, 184, 185, 186, 187, 188, 189, 190, 191, 192, 193, 194, 195, 196, 197, 198, 199, 200, 201, 202, 203, 204, 205, 206, 207, 208, 209, 210, 211, 212, 213, 214, 215, 216, 217, 218, 219, 220, 221, 222, 223, 224, 225, 226, 227, 228, 229, 230, 231, 232, 233, 234, 235, 236, 237, 238, 239, 240, 241, 242, 243, 244, 245, 246, 247, 248, 249, 250, 251, 252, 253, 254, 255, 256, 257, 258, 259, 260, 261, 262, 263, 264, 265, 266, 267, 268, 269, 270, 271, 272, 273, 274, 275, 276, 277, 278, 279, 280, 281, 282, 283, 284, 285, 286, 287, 288, 289, 290, 291, 292, 293, 294, 295, 296, 297, 298, 299, 300, 301, 302, 303, 304, 305, 306, 307, 308, 309, 310, 311, 312, 313, 314, 315, 316, 317, 318, 319, 320, 321, 322, 323, 324, 325, 326, 327, 328, 329, 330, 331, 332, 333, 334, 335, 336, 337, 338, 339, 340, 341, 342, 343, 344, 345, 346, 347, 348, 349, 350, 351, 352, 353, 354, 355, 356, 357, 358, 359, 360, 361, 362, 363, 364, 365, 366, 367, 368, 369, 370, 371, 372, 373, 374, 375, 376, 377, 378, 379, 380, 381, 382, 383, 384, 385, 386, 387, 388, 389, 390, 391, 392, 393, 394, 395, 396, 397, 398, 399, 400, 401, 402, 403, 404, 405, 406, 407, 408, 409, 410, 411, 412, 413, 414, 415, 416, 417, 418, 419, 420, 421, 422, 423, 424, 425, 426, 427, 428, 429, 430, 431, 432, 433, 434, 435, 436, 437, 438, 439, 440, 441, 442, 443, 444, 445, 446, 447, 448, 449, 450, 451, 452, 453, 454, 455, 456, 457, 458, 459, 460, 461, 462, 463, 464, 465, 466, 467, 468, 469, 470, 471, 472, 473, 474, 475, 476, 477, 478, 479, 480, 481, 482, 483, 484, 485, 486, 487, 488, 489, 490, 491, 492, 493, 494, 495, 496, 497, 498, 499, 500, 501, 502, 503, 504, 505, 506, 507, 508, 509, 510, 511, 512, 513, 514, 515, 516, 517, 518, 519, 520, 521, 522, 523, 524, 525, 526, 527, 528, 529, 530, 531, 532, 533, 534, 535, 536, 537, 538, 539, 540, 541, 542, 543, 544, 545, 546, 547, 548, 549, 550, 551, 552, 553, 554, 555, 556, 557, 558, 559, 560, 561, 562, 563, 564, 565, 566, 567, 568, 569, 570, 571, 572, 573, 574, 575, 576, 577, 578, 579, 580, 581, 582, 583, 584, 585, 586, 587, 588, 589, 590, 591, 592, 593, 594, 595, 596, 597, 598, 599, 600, 601, 602, 603, 604, 605, 606, 607, 608, 609, 610, 611, 612, 613, 614, 615, 616, 617, 618, 619, 620, 621, 622, 623, 624, 625, 626, 627, 628, 629, 630, 631, 632, 633, 634, 635, 636, 637, 638, 639, 640, 641, 642, 643, 644, 645, 646, 647, 648, 649, 650, 651, 652, 653, 654, 655, 656, 657, 658, 659, 660, 661, 662, 663, 664, 665, 666, 667, 668, 669, 670, 671, 672, 673, 674, 675, 676, 677, 678, 679, 680, 681, 682, 683, 684, 685, 686, 687, 688, 689, 690, 691, 692, 693, 694, 695, 696, 697, 698, 699, 700, 701, 702, 703, 704, 705, 706, 707, 708, 709, 710, 711, 712, 713, 714, 715, 716, 717, 718, 719, 720, 721, 722, 723, 724, 725, 726, 727, 728, 729, 730, 731, 732, 733, 734, 735, 736, 737, 738, 739, 740, 741, 742, 743, 744, 745, 746, 747, 748, 749, 750, 751, 752, 753, 754, 755, 756, 757, 758, 759, 760, 761, 762, 763, 764, 765, 766, 767, 768, 769, 770, 771, 772, 773, 774, 775, 776, 777, 778, 779, 780, 781, 782, 783, 784, 785, 786, 787, 788, 789, 790, 791, 792, 793, 794, 795, 796, 797, 798, 799, 800, 801, 802, 803, 804, 805, 806, 807, 808, 809, 810, 811, 812, 813, 814, 815, 816, 817, 818, 819, 820, 821, 822, 823, 824, 825, 826, 827, 828, 829, 830, 831, 832, 833, 834, 835, 836, 837, 838, 839, 840, 841, 842, 843, 844, 845, 846, 847, 848, 849, 850, 851, 852, 853, 854, 855, 856, 857, 858, 859, 860, 861, 862, 863, 864, 865, 866, 867, 868, 869, 870, 871, 872],
      "AcquisitionTime": ["203658.595000", "203659.055000", "203659.515000", "203659.975000", "203700.435000", "203700.895000", "203701.355000", "203701.815000", "203702.275000", "203702.735000", "203703.195000", "203703.655000", "203704.115000", "203704.575000", "203705.035000", "203705.495000", "203705.955000", "203706.415000", "203706.875000", "203707.335000", "203707.795000", "203708.255000", "203708.715000", "203709.175000", "203709.635000", "203710.095000", "203710.555000", "203711.015000", "203711.475000", "203711.935000", "203712.395000", "203712.855000", "203713.315000", "203713.775000", "203714.235000", "203714.695000", "203715.155000", "203715.615000", "203716.075000", "203716.535000", "203716.995000", "203717.455000", "203717.915000", "203718.375000", "203718.835000", "203719.295000", "203719.755000", "203720.215000", "203720.675000", "203721.135000", "203721.595000", "203722.055000", "203722.515000", "203722.975000", "203723.435000", "203723.895000", "203724.355000", "203724.815000", "203725.275000", "203725.735000", "203726.195000", "203726.655000", "203727.115000", "203727.575000", "203728.035000", "203728.495000", "203728.955000", "203729.415000", "203729.875000", "203730.335000", "203730.795000", "203731.255000", "203731.715000", "203732.175000", "203732.635000", "203733.095000", "203733.555000", "203734.015000", "203734.475000", "203734.935000", "203735.395000", "203735.855000", "203736.315000", "203736.775000", "203737.235000", "203737.695000", "203738.155000", "203738.615000", "203739.075000", "203739.535000", "203739.995000", "203740.455000", "203740.915000", "203741.375000", "203741.835000", "203742.295000", "203742.755000", "203743.215000", "203743.675000", "203744.135000", "203744.595000", "203745.055000", "203745.515000", "203745.975000", "203746.435000", "203746.895000", "203747.355000", "203747.815000", "203748.275000", "203748.735000", "203749.195000", "203749.655000", "203750.115000", "203750.575000", "203751.035000", "203751.495000", "203751.955000", "203752.415000", "203752.875000", "203753.335000", "203753.795000", "203754.255000", "203754.715000", "203755.175000", "203755.635000", "203756.095000", "203756.555000", "203757.015000", "203757.475000", "203757.935000", "203758.395000", "203758.855000", "203759.315000", "203759.775000", "203800.235000", "203800.695000", "203801.155000", "203801.615000", "203802.075000", "203802.535000", "203802.995000", "203803.455000", "203803.915000", "203804.375000", "203804.835000", "203805.295000", "203805.755000", "203806.215000", "203806.675000", "203807.135000", "203807.595000", "203808.055000", "203808.515000", "203808.975000", "203809.435000", "203809.895000", "203810.355000", "203810.815000", "203811.275000", "203811.735000", "203812.195000", "203812.655000", "203813.115000", "203813.575000", "203814.035000", "203814.495000", "203814.955000", "203815.415000", "203815.875000", "203816.335000", "203816.795000", "203817.255000", "203817.715000", "203818.175000", "203818.635000", "203819.095000", "203819.555000", "203820.015000", "203820.475000", "203820.935000", "203821.395000", "203821.855000", "203822.315000", "203822.775000", "203823.235000", "203823.695000", "203824.155000", "203824.615000", "203825.075000", "203825.535000", "203825.995000", "203826.455000", "203826.915000", "203827.375000", "203827.835000", "203828.295000", "203828.755000", "203829.215000", "203829.675000", "203830.135000", "203830.595000", "203831.055000", "203831.515000", "203831.975000", "203832.435000", "203832.895000", "203833.355000", "203833.815000", "203834.275000", "203834.735000", "203835.195000", "203835.655000", "203836.115000", "203836.575000", "203837.035000", "203837.495000", "203837.955000", "203838.415000", "203838.875000", "203839.335000", "203839.795000", "203840.255000", "203840.715000", "203841.175000", "203841.635000", "203842.095000", "203842.555000", "203843.015000", "203843.475000", "203843.935000", "203844.395000", "203844.855000", "203845.315000", "203845.775000", "203846.235000", "203846.695000", "203847.155000", "203847.615000", "203848.075000", "203848.535000", "203848.995000", "203849.455000", "203849.915000", "203850.375000", "203850.835000", "203851.295000", "203851.755000", "203852.215000", "203852.675000", "203853.135000", "203853.595000", "203854.055000", "203854.515000", "203854.975000", "203855.435000", "203855.895000", "203856.355000", "203856.815000", "203857.275000", "203857.735000", "203858.195000", "203858.655000", "203859.115000", "203859.575000", "203900.035000", "203900.495000", "203900.955000", "203901.415000", "203901.875000", "203902.335000", "203902.795000", "203903.255000", "203903.715000", "203904.175000", "203904.635000", "203905.095000", "203905.555000", "203906.015000", "203906.475000", "203906.935000", "203907.395000", "203907.855000", "203908.315000", "203908.775000", "203909.235000", "203909.695000", "203910.155000", "203910.615000", "203911.075000", "203911.535000", "203911.995000", "203912.455000", "203912.915000", "203913.375000", "203913.835000", "203914.295000", "203914.755000", "203915.215000", "203915.675000", "203916.135000", "203916.595000", "203917.055000", "203917.515000", "203917.975000", "203918.435000", "203918.895000", "203919.355000", "203919.815000", "203920.275000", "203920.735000", "203921.195000", "203921.655000", "203922.115000", "203922.575000", "203923.035000", "203923.495000", "203923.955000", "203924.415000", "203924.875000", "203925.335000", "203925.795000", "203926.255000", "203926.715000", "203927.175000", "203927.635000", "203928.095000", "203928.555000", "203929.015000", "203929.475000", "203929.935000", "203930.395000", "203930.855000", "203931.315000", "203931.775000", "203932.235000", "203932.695000", "203933.155000", "203933.615000", "203934.075000", "203934.535000", "203934.995000", "203935.455000", "203935.915000", "203936.375000", "203936.835000", "203937.295000", "203937.755000", "203938.215000", "203938.675000", "203939.135000", "203939.595000", "203940.055000", "203940.515000", "203940.975000", "203941.435000", "203941.895000", "203942.355000", "203942.815000", "203943.275000", "203943.735000", "203944.195000", "203944.655000", "203945.115000", "203945.575000", "203946.035000", "203946.495000", "203946.955000", "203947.415000", "203947.875000", "203948.335000", "203948.795000", "203949.255000", "203949.715000", "203950.175000", "203950.635000", "203951.095000", "203951.555000", "203952.015000", "203952.475000", "203952.935000", "203953.395000", "203953.855000", "203954.315000", "203954.775000", "203955.235000", "203955.695000", "203956.155000", "203956.615000", "203957.075000", "203957.535000", "203957.995000", "203958.455000", "203958.915000", "203959.375000", "203959.835000", "204000.295000", "204000.755000", "204001.215000", "204001.675000", "204002.135000", "204002.595000", "204003.055000", "204003.515000", "204003.975000", "204004.435000", "204004.895000", "204005.355000", "204005.815000", "204006.275000", "204006.735000", "204007.195000", "204007.655000", "204008.115000", "204008.575000", "204009.035000", "204009.495000", "204009.955000", "204010.415000", "204010.875000", "204011.335000", "204011.795000", "204012.255000", "204012.715000", "204013.175000", "204013.635000", "204014.095000", "204014.555000", "204015.015000", "204015.475000", "204015.935000", "204016.395000", "204016.855000", "204017.315000", "204017.775000", "204018.235000", "204018.695000", "204019.155000", "204019.615000", "204020.075000", "204020.535000", "204020.995000", "204021.455000", "204021.915000", "204022.375000", "204022.835000", "204023.295000", "204023.755000", "204024.215000", "204024.675000", "204025.135000", "204025.595000", "204026.055000", "204026.515000", "204026.975000", "204027.435000", "204027.895000", "204028.355000", "204028.815000", "204029.275000", "204029.735000", "204030.195000", "204030.655000", "204031.115000", "204031.575000", "204032.035000", "204032.495000", "204032.955000", "204033.415000", "204033.875000", "204034.335000", "204034.795000", "204035.255000", "204035.715000", "204036.175000", "204036.635000", "204037.095000", "204037.555000", "204038.015000", "204038.475000", "204038.935000", "204039.395000", "204039.855000", "204040.315000", "204040.775000", "204041.235000", "204041.695000", "204042.155000", "204042.615000", "204043.075000", "204043.535000", "204043.995000", "204044.455000", "204044.915000", "204045.375000", "204045.835000", "204046.295000", "204046.755000", "204047.215000", "204047.675000", "204048.135000", "204048.595000", "204049.055000", "204049.515000", "204049.975000", "204050.435000", "204050.895000", "204051.355000", "204051.815000", "204052.275000", "204052.735000", "204053.195000", "204053.655000", "204054.115000", "204054.575000", "204055.035000", "204055.495000", "204055.955000", "204056.415000", "204056.875000", "204057.335000", "204057.795000", "204058.255000", "204058.715000", "204059.175000", "204059.635000", "204100.095000", "204100.555000", "204101.015000", "204101.475000", "204101.935000", "204102.395000", "204102.855000", "204103.315000", "204103.775000", "204104.235000", "204104.695000", "204105.155000", "204105.615000", "204106.075000", "204106.535000", "204106.995000", "204107.455000", "204107.915000", "204108.375000", "204108.835000", "204109.295000", "204109.755000", "204110.215000", "204110.675000", "204111.135000", "204111.595000", "204112.055000", "204112.515000", "204112.975000", "204113.435000", "204113.895000", "204114.355000", "204114.815000", "204115.275000", "204115.735000", "204116.195000", "204116.655000", "204117.115000", "204117.575000", "204118.035000", "204118.495000", "204118.955000", "204119.415000", "204119.875000", "204120.335000", "204120.795000", "204121.255000", "204121.715000", "204122.175000", "204122.635000", "204123.095000", "204123.555000", "204124.015000", "204124.475000", "204124.935000", "204125.395000", "204125.855000", "204126.315000", "204126.775000", "204127.235000", "204127.695000", "204128.155000", "204128.615000", "204129.075000", "204129.535000", "204129.995000", "204130.455000", "204130.915000", "204131.375000", "204131.835000", "204132.295000", "204132.755000", "204133.215000", "204133.675000", "204134.135000", "204134.595000", "204135.055000", "204135.515000", "204135.975000", "204136.435000", "204136.895000", "204137.355000", "204137.815000", "204138.275000", "204138.735000", "204139.195000", "204139.655000", "204140.115000", "204140.575000", "204141.035000", "204141.495000", "204141.955000", "204142.415000", "204142.875000", "204143.335000", "204143.795000", "204144.255000", "204144.715000", "204145.175000", "204145.635000", "204146.095000", "204146.555000", "204147.015000", "204147.475000", "204147.935000", "204148.395000", "204148.855000", "204149.315000", "204149.775000", "204150.235000", "204150.695000", "204151.155000", "204151.615000", "204152.075000", "204152.535000", "204152.995000", "204153.455000", "204153.915000", "204154.375000", "204154.835000", "204155.295000", "204155.755000", "204156.215000", "204156.675000", "204157.135000", "204157.595000", "204158.055000", "204158.515000", "204158.975000", "204159.435000", "204159.895000", "204200.355000", "204200.815000", "204201.275000", "204201.735000", "204202.195000", "204202.655000", "204203.115000", "204203.575000", "204204.035000", "204204.495000", "204204.955000", "204205.415000", "204205.875000", "204206.335000", "204206.795000", "204207.255000", "204207.715000", "204208.175000", "204208.635000", "204209.095000", "204209.555000", "204210.015000", "204210.475000", "204210.935000", "204211.395000", "204211.855000", "204212.315000", "204212.775000", "204213.235000", "204213.695000", "204214.155000", "204214.615000", "204215.075000", "204215.535000", "204215.995000", "204216.455000", "204216.915000", "204217.375000", "204217.835000", "204218.295000", "204218.755000", "204219.215000", "204219.675000", "204220.135000", "204220.595000", "204221.055000", "204221.515000", "204221.975000", "204222.435000", "204222.895000", "204223.355000", "204223.815000", "204224.275000", "204224.735000", "204225.195000", "204225.655000", "204226.115000", "204226.575000", "204227.035000", "204227.495000", "204227.955000", "204228.415000", "204228.875000", "204229.335000", "204229.795000", "204230.255000", "204230.715000", "204231.175000", "204231.635000", "204232.095000", "204232.555000", "204233.015000", "204233.475000", "204233.935000", "204234.395000", "204234.855000", "204235.315000", "204235.775000", "204236.235000", "204236.695000", "204237.155000", "204237.615000", "204238.075000", "204238.535000", "204238.995000", "204239.455000", "204239.915000", "204240.375000", "204240.835000", "204241.295000", "204241.755000", "204242.215000", "204242.675000", "204243.135000", "204243.595000", "204244.055000", "204244.515000", "204244.975000", "204245.435000", "204245.895000", "204246.355000", "204246.815000", "204247.275000", "204247.735000", "204248.195000", "204248.655000", "204249.115000", "204249.575000", "204250.035000", "204250.495000", "204250.955000", "204251.415000", "204251.875000", "204252.335000", "204252.795000", "204253.255000", "204253.715000", "204254.175000", "204254.635000", "204255.095000", "204255.555000", "204256.015000", "204256.475000", "204256.935000", "204257.395000", "204257.855000", "204258.315000", "204258.775000", "204259.235000", "204259.695000", "204300.155000", "204300.615000", "204301.075000", "204301.535000", "204301.995000", "204302.455000", "204302.915000", "204303.375000", "204303.835000", "204304.295000", "204304.755000", "204305.215000", "204305.675000", "204306.135000", "204306.595000", "204307.055000", "204307.515000", "204307.975000", "204308.435000", "204308.895000", "204309.355000", "204309.815000", "204310.275000", "204310.735000", "204311.195000", "204311.655000", "204312.115000", "204312.575000", "204313.035000", "204313.495000", "204313.955000", "204314.415000", "204314.875000", "204315.335000", "204315.795000", "204316.255000", "204316.715000", "204317.175000", "204317.635000", "204318.095000", "204318.555000", "204319.015000", "204319.475000", "204319.935000", "204320.395000", "204320.855000", "204321.315000", "204321.775000", "204322.235000", "204322.695000", "204323.155000", "204323.615000", "204324.075000", "204324.535000", "204324.995000", "204325.455000", "204325.915000", "204326.375000", "204326.835000", "204327.295000", "204327.755000", "204328.215000", "204328.675000", "204329.135000", "204329.595000", "204330.055000", "204330.515000", "204330.975000", "204331.435000", "204331.895000", "204332.355000", "204332.815000", "204333.275000", "204333.735000", "204334.195000", "204334.655000", "204335.115000", "204335.575000", "204336.035000", "204336.495000", "204336.955000", "204337.415000", "204337.875000", "204338.335000", "204338.795000", "204339.255000"],
