{
  "AcquisitionMatrixPE": 82,
  "AcquisitionNumber": 1,
  "AcquisitionTime": "20:22:4.267500",
  "BandwidthPerPixelPhaseEncode": 24.888,
  "BaseResolution": 82,
  "BodyPartExamined": "BRAIN",
  "ConsistencyInfo": "N4_VE11E_LATEST_20181129",
  "ConversionSoftware": "dcm2niix",
  "ConversionSoftwareVersion": "v1.0.20201102",
  "DerivedVendorReportedEchoSpacing": 0.00049,
  "DeviceSerialNumber": "66112",
  "DwellTime": 2e-06,
  "EchoTime": 0.0272,
  "EchoTrainLength": 82,
  "EffectiveEchoSpacing": 0.00049,
  "FlipAngle": 44,
  "ImageComments": "Unaliased MB8/PE3",
  "ImageOrientationPatientDICOM": [0.998841, -0.048119, 0.000890384, 0.0478031, 0.994087, 0.0974989],
  "ImageType": [
    "ORIGINAL",
    "PRIMARY",
    "M",
    "MB",
    "ND",
    "NORM",
    "MOSAIC"
],
  "ImagingFrequency": 123.252,
  "InPlanePhaseEncodingDirectionDICOM": "COL",
  "InstitutionAddress": "Maynard 3,Hanover,NH,US,03755",
  "InstitutionName": "Dartmouth College - PBS",
  "InstitutionalDepartmentName": "Department",
  "MRAcquisitionType": "2D",
  "MagneticFieldStrength": 3,
  "Manufacturer": "Siemens",
  "ManufacturersModelName": "Prisma",
  "Modality": "MR",
  "MultibandAccelerationFactor": 8,
  "PartialFourier": 1,
  "PatientPosition": "HFS",
  "PercentPhaseFOV": 100,
  "PercentSampling": 100,
  "PhaseEncodingDirection": "j-",
  "PhaseEncodingSteps": 82,
  "PhaseResolution": 1,
  "PixelBandwidth": 3050,
  "ProcedureStepDescription": "Wager_Wager^1076_spacetop",
  "ProtocolName": "func_run-04_task-social_acq-ap-mb8",
  "PulseSequenceDetails": "%CustomerSeq%\\cmrr_mbep2d_bold",
  "ReceiveCoilActiveElements": "HEA;HEP",
  "ReceiveCoilName": "Head_32",
  "ReconMatrixPE": 82,
  "RepetitionTime": 0.46,
  "SAR": 0.0907191,
  "ScanOptions": "FS",
  "ScanningSequence": "EP",
  "SequenceName": "epfid2d1_82",
  "SequenceVariant": "SK\\SS",
  "SeriesDescription": "func_run-04_task-social_acq-ap-mb8",
  "SeriesNumber": 18,
  "ShimSetting": [4142, -7750, -7206, 686, -45, -94, 83, 72],
  "SliceThickness": 2.7,
  "SliceTiming": [0, 0.2525, 0.065, 0.315, 0.1275, 0.3775, 0.19, 0, 0.2525, 0.065, 0.315, 0.1275, 0.3775, 0.19, 0, 0.2525, 0.065, 0.315, 0.1275, 0.3775, 0.19, 0, 0.2525, 0.065, 0.315, 0.1275, 0.3775, 0.19, 0, 0.2525, 0.065, 0.315, 0.1275, 0.3775, 0.19, 0, 0.2525, 0.065, 0.315, 0.1275, 0.3775, 0.19, 0, 0.2525, 0.065, 0.315, 0.1275, 0.3775, 0.19, 0, 0.2525, 0.065, 0.315, 0.1275, 0.3775, 0.19],
  "SoftwareVersions": "syngo MR E11",
  "SpacingBetweenSlices": 2.7,
  "StationName": "AWP66112",
  "TaskName": "social",
  "TotalReadoutTime": 0.03969,
  "TxRefAmp": 235.217,
  "WipMemBlock": "63203f00-e244-4032-9595-04fa5387b325||Sequence: R016 ve11e/master r/434b28f1; Aug  7 2019 18:53:46 by eja",
  "dcmmeta_affine": [
    [-2.6798179149627686, 0.12825210392475128, 0.015057005919516087, 103.1296157836914],
    [0.1290997713804245, 2.667062520980835, 0.2628270387649536, -109.15461730957031],
    [0.00238883588463068, -0.2615824043750763, 2.6871352195739746, -35.36450958251953],
    [0.0, 0.0, 0.0, 1.0]
],
  "dcmmeta_reorient_transform": [
    [0.0, -1.0, 0.0, 81.0],
    [1.0, 0.0, 0.0, 0.0],
    [0.0, 0.0, 1.0, 0.0],
    [0.0, 0.0, 0.0, 1.0]
],
  "dcmmeta_shape": [82, 82, 56, 872],
  "dcmmeta_slice_dim": 2,
  "dcmmeta_version": 0.6,
  "global": {
    "const": {
      "AccessionNumber": "A004256",
      "AcquisitionMatrix": [82, 0, 0, 82],
      "AngioFlag": "N",
      "BitsAllocated": 16,
      "BitsStored": 16,
      "BodyPartExamined": "BRAIN",
      "Columns": 656,
      "EchoNumbers": 1,
      "EchoTime": 27.2,
      "EchoTrainLength": 82,
      "FlipAngle": 44.0,
      "HighBit": 15,
      "ImageOrientationPatient": [0.99884121290228, -0.0481190048086, 0.00089038426075, 0.04780305608564, 0.99408693486703, 0.09749889104775],
      "ImagePositionPatient": [-919.43414099661, -835.27277741695, -132.31242654891],
      "ImageType": [
        "ORIGINAL",
        "PRIMARY",
        "M",
        "MB",
        "ND",
        "NORM",
        "MOSAIC"
],
      "ImagedNucleus": "1H",
      "ImagingFrequency": 123.25217,
      "InPlanePhaseEncodingDirection": "COL",
      "MRAcquisitionType": "2D",
      "MagneticFieldStrength": 3.0,
      "Manufacturer": "SIEMENS",
      "ManufacturerModelName": "Prisma",
      "Modality": "MR",
      "NumberOfAverages": 1.0,
      "NumberOfPhaseEncodingSteps": 82,
      "PercentPhaseFieldOfView": 100.0,
      "PercentSampling": 100.0,
      "PerformedProcedureStepStartTime": "192002.699000",
      "PhotometricInterpretation": "MONOCHROME2",
      "PixelBandwidth": 3050.0,
      "PixelRepresentation": 0,
      "PixelSpacing": [2.6829268932343, 2.6829268932343],
      "ProtocolName": "func_run-04_task-social_acq-ap-mb8",
      "RepetitionTime": 460.0,
      "Rows": 656,
      "SAR": 0.0907190875505,
      "SamplesPerPixel": 1,
      "ScanOptions": "FS",
      "ScanningSequence": "EP",
      "SequenceName": "epfid2d1_82",
      "SequenceVariant": [
        "SK",
        "SS"
],
      "SeriesDescription": "func_run-04_task-social_acq-ap-mb8",
      "SeriesNumber": 18,
      "SeriesTime": "202208.563000",
      "SliceLocation": -45.246360888299,
      "SliceThickness": 2.7000000476837,
      "SmallestImagePixelValue": 0,
      "SoftwareVersions": "syngo MR E11",
      "SpacingBetweenSlices": 2.699999972085,
      "SpecificCharacterSet": "ISO_IR 100",
      "StudyID": "3",
      "StudyTime": "192002.652000",
      "TransmitCoilName": "Body",
      "VariableFlipAngleFlag": "N",
      "WindowCenterWidthExplanation": "Algo1"
    },
    "slices": {}
  },
  "time": {
    "samples": {
      "AcquisitionNumber": [1, 2, 3, 4, 5, 6, 7, 8, 9, 10, 11, 12, 13, 14, 15, 16, 17, 18, 19, 20, 21, 22, 23, 24, 25, 26, 27, 28, 29, 30, 31, 32, 33, 34, 35, 36, 37, 38, 39, 40, 41, 42, 43, 44, 45, 46, 47, 48, 49, 50, 51, 52, 53, 54, 55, 56, 57, 58, 59, 60, 61, 62, 63, 64, 65, 66, 67, 68, 69, 70, 71, 72, 73, 74, 75, 76, 77, 78, 79, 80, 81, 82, 83, 84, 85, 86, 87, 88, 89, 90, 91, 92, 93, 94, 95, 96, 97, 98, 99, 100, 101, 102, 103, 104, 105, 106, 107, 108, 109, 110, 111, 112, 113, 114, 115, 116, 117, 118, 119, 120, 121, 122, 123, 124, 125, 126, 127, 128, 129, 130, 131, 132, 133, 134, 135, 136, 137, 138, 139, 140, 141, 142, 143, 144, 145, 146, 147, 148, 149, 150, 151, 152, 153, 154, 155, 156, 157, 158, 159, 160, 161, 162, 163, 164, 165, 166, 167, 168, 169, 170, 171, 172, 173, 174, 175, 176, 177, 178, 179, 180, 181, 182, 183, 184, 185, 186, 187, 188, 189, 190, 191, 192, 193, 194, 195, 196, 197, 198, 199, 200, 201, 202, 203, 204, 205, 206, 207, 208, 209, 210, 211, 212, 213, 214, 215, 216, 217, 218, 219, 220, 221, 222, 223, 224, 225, 226, 227, 228, 229, 230, 231, 232, 233, 234, 235, 236, 237, 238, 239, 240, 241, 242, 243, 244, 245, 246, 247, 248, 249, 250, 251, 252, 253, 254, 255, 256, 257, 258, 259, 260, 261, 262, 263, 264, 265, 266, 267, 268, 269, 270, 271, 272, 273, 274, 275, 276, 277, 278, 279, 280, 281, 282, 283, 284, 285, 286, 287, 288, 289, 290, 291, 292, 293, 294, 295, 296, 297, 298, 299, 300, 301, 302, 303, 304, 305, 306, 307, 308, 309, 310, 311, 312, 313, 314, 315, 316, 317, 318, 319, 320, 321, 322, 323, 324, 325, 326, 327, 328, 329, 330, 331, 332, 333, 334, 335, 336, 337, 338, 339, 340, 341, 342, 343, 344, 345, 346, 347, 348, 349, 350, 351, 352, 353, 354, 355, 356, 357, 358, 359, 360, 361, 362, 363, 364, 365, 366, 367, 368, 369, 370, 371, 372, 373, 374, 375, 376, 377, 378, 379, 380, 381, 382, 383, 384, 385, 386, 387, 388, 389, 390, 391, 392, 393, 394, 395, 396, 397, 398, 399, 400, 401, 402, 403, 404, 405, 406, 407, 408, 409, 410, 411, 412, 413, 414, 415, 416, 417, 418, 419, 420, 421, 422, 423, 424, 425, 426, 427, 428, 429, 430, 431, 432, 433, 434, 435, 436, 437, 438, 439, 440, 441, 442, 443, 444, 445, 446, 447, 448, 449, 450, 451, 452, 453, 454, 455, 456, 457, 458, 459, 460, 461, 462, 463, 464, 465, 466, 467, 468, 469, 470, 471, 472, 473, 474, 475, 476, 477, 478, 479, 480, 481, 482, 483, 484, 485, 486, 487, 488, 489, 490, 491, 492, 493, 494, 495, 496, 497, 498, 499, 500, 501, 502, 503, 504, 505, 506, 507, 508, 509, 510, 511, 512, 513, 514, 515, 516, 517, 518, 519, 520, 521, 522, 523, 524, 525, 526, 527, 528, 529, 530, 531, 532, 533, 534, 535, 536, 537, 538, 539, 540, 541, 542, 543, 544, 545, 546, 547, 548, 549, 550, 551, 552, 553, 554, 555, 556, 557, 558, 559, 560, 561, 562, 563, 564, 565, 566, 567, 568, 569, 570, 571, 572, 573, 574, 575, 576, 577, 578, 579, 580, 581, 582, 583, 584, 585, 586, 587, 588, 589, 590, 591, 592, 593, 594, 595, 596, 597, 598, 599, 600, 601, 602, 603, 604, 605, 606, 607, 608, 609, 610, 611, 612, 613, 614, 615, 616, 617, 618, 619, 620, 621, 622, 623, 624, 625, 626, 627, 628, 629, 630, 631, 632, 633, 634, 635, 636, 637, 638, 639, 640, 641, 642, 643, 644, 645, 646, 647, 648, 649, 650, 651, 652, 653, 654, 655, 656, 657, 658, 659, 660, 661, 662, 663, 664, 665, 666, 667, 668, 669, 670, 671, 672, 673, 674, 675, 676, 677, 678, 679, 680, 681, 682, 683, 684, 685, 686, 687, 688, 689, 690, 691, 692, 693, 694, 695, 696, 697, 698, 699, 700, 701, 702, 703, 704, 705, 706, 707, 708, 709, 710, 711, 712, 713, 714, 715, 716, 717, 718, 719, 720, 721, 722, 723, 724, 725, 726, 727, 728, 729, 730, 731, 732, 733, 734, 735, 736, 737, 738, 739, 740, 741, 742, 743, 744, 745, 746, 747, 748, 749, 750, 751, 752, 753, 754, 755, 756, 757, 758, 759, 760, 761, 762, 763, 764, 765, 766, 767, 768, 769, 770, 771, 772, 773, 774, 775, 776, 777, 778, 779, 780, 781, 782, 783, 784, 785, 786, 787, 788, 789, 790, 791, 792, 793, 794, 795, 796, 797, 798, 799, 800, 801, 802, 803, 804, 805, 806, 807, 808, 809, 810, 811, 812, 813, 814, 815, 816, 817, 818, 819, 820, 821, 822, 823, 824, 825, 826, 827, 828, 829, 830, 831, 832, 833, 834, 835, 836, 837, 838, 839, 840, 841, 842, 843, 844, 845, 846, 847, 848, 849, 850, 851, 852, 853, 854, 855, 856, 857, 858, 859, 860, 861, 862, 863, 864, 865, 866, 867, 868, 869, 870, 871, 872],
      "AcquisitionTime": ["202204.267500", "202204.727500", "202205.187500", "202205.647500", "202206.107500", "202206.567500", "202207.027500", "202207.487500", "202207.947500", "202208.407500", "202208.867500", "202209.327500", "202209.787500", "202210.247500", "202210.707500", "202211.167500", "202211.627500", "202212.087500", "202212.547500", "202213.007500", "202213.467500", "202213.927500", "202214.387500", "202214.847500", "202215.307500", "202215.767500", "202216.227500", "202216.687500", "202217.147500", "202217.607500", "202218.067500", "202218.527500", "202218.987500", "202219.447500", "202219.907500", "202220.367500", "202220.827500", "202221.287500", "202221.747500", "202222.207500", "202222.667500", "202223.127500", "202223.587500", "202224.047500", "202224.507500", "202224.967500", "202225.427500", "202225.887500", "202226.347500", "202226.807500", "202227.267500", "202227.727500", "202228.187500", "202228.647500", "202229.107500", "202229.567500", "202230.027500", "202230.487500", "202230.947500", "202231.407500", "202231.867500", "202232.327500", "202232.787500", "202233.247500", "202233.707500", "202234.167500", "202234.627500", "202235.087500", "202235.547500", "202236.007500", "202236.467500", "202236.927500", "202237.387500", "202237.847500", "202238.307500", "202238.767500", "202239.227500", "202239.687500", "202240.147500", "202240.607500", "202241.067500", "202241.527500", "202241.987500", "202242.447500", "202242.907500", "202243.367500", "202243.827500", "202244.287500", "202244.747500", "202245.207500", "202245.667500", "202246.127500", "202246.587500", "202247.047500", "202247.507500", "202247.967500", "202248.427500", "202248.887500", "202249.347500", "202249.807500", "202250.267500", "202250.727500", "202251.187500", "202251.647500", "202252.107500", "202252.567500", "202253.027500", "202253.487500", "202253.947500", "202254.407500", "202254.867500", "202255.327500", "202255.787500", "202256.247500", "202256.707500", "202257.167500", "202257.627500", "202258.087500", "202258.547500", "202259.007500", "202259.467500", "202259.927500", "202300.387500", "202300.847500", "202301.307500", "202301.767500", "202302.227500", "202302.687500", "202303.147500", "202303.607500", "202304.067500", "202304.527500", "202304.987500", "202305.447500", "202305.907500", "202306.367500", "202306.827500", "202307.287500", "202307.747500", "202308.207500", "202308.667500", "202309.127500", "202309.587500", "202310.047500", "202310.507500", "202310.967500", "202311.427500", "202311.887500", "202312.347500", "202312.807500", "202313.267500", "202313.727500", "202314.187500", "202314.647500", "202315.107500", "202315.567500", "202316.027500", "202316.487500", "202316.947500", "202317.407500", "202317.867500", "202318.327500", "202318.787500", "202319.247500", "202319.707500", "202320.167500", "202320.627500", "202321.087500", "202321.547500", "202322.007500", "202322.467500", "202322.927500", "202323.387500", "202323.847500", "202324.307500", "202324.767500", "202325.227500", "202325.687500", "202326.147500", "202326.607500", "202327.067500", "202327.527500", "202327.987500", "202328.447500", "202328.907500", "202329.367500", "202329.827500", "202330.287500", "202330.747500", "202331.207500", "202331.667500", "202332.127500", "202332.587500", "202333.047500", "202333.507500", "202333.967500", "202334.427500", "202334.887500", "202335.347500", "202335.807500", "202336.267500", "202336.727500", "202337.187500", "202337.647500", "202338.107500", "202338.567500", "202339.027500", "202339.487500", "202339.947500", "202340.407500", "202340.867500", "202341.327500", "202341.787500", "202342.247500", "202342.707500", "202343.167500", "202343.627500", "202344.087500", "202344.547500", "202345.007500", "202345.467500", "202345.927500", "202346.387500", "202346.847500", "202347.307500", "202347.767500", "202348.227500", "202348.687500", "202349.147500", "202349.607500", "202350.067500", "202350.527500", "202350.987500", "202351.447500", "202351.907500", "202352.367500", "202352.827500", "202353.287500", "202353.747500", "202354.207500", "202354.667500", "202355.127500", "202355.587500", "202356.047500", "202356.507500", "202356.967500", "202357.427500", "202357.887500", "202358.347500", "202358.807500", "202359.267500", "202359.727500", "202400.187500", "202400.647500", "202401.107500", "202401.567500", "202402.027500", "202402.487500", "202402.947500", "202403.407500", "202403.867500", "202404.327500", "202404.787500", "202405.247500", "202405.707500", "202406.167500", "202406.627500", "202407.087500", "202407.547500", "202408.007500", "202408.467500", "202408.927500", "202409.387500", "202409.847500", "202410.307500", "202410.767500", "202411.227500", "202411.687500", "202412.147500", "202412.607500", "202413.067500", "202413.527500", "202413.987500", "202414.447500", "202414.907500", "202415.367500", "202415.827500", "202416.287500", "202416.747500", "202417.207500", "202417.667500", "202418.127500", "202418.587500", "202419.047500", "202419.507500", "202419.967500", "202420.427500", "202420.887500", "202421.347500", "202421.807500", "202422.267500", "202422.727500", "202423.187500", "202423.647500", "202424.107500", "202424.567500", "202425.027500", "202425.487500", "202425.947500", "202426.407500", "202426.867500", "202427.327500", "202427.787500", "202428.247500", "202428.707500", "202429.167500", "202429.627500", "202430.087500", "202430.547500", "202431.007500", "202431.467500", "202431.927500", "202432.387500", "202432.847500", "202433.307500", "202433.767500", "202434.227500", "202434.687500", "202435.147500", "202435.607500", "202436.067500", "202436.527500", "202436.987500", "202437.447500", "202437.907500", "202438.367500", "202438.827500", "202439.287500", "202439.747500", "202440.207500", "202440.667500", "202441.127500", "202441.587500", "202442.047500", "202442.507500", "202442.967500", "202443.427500", "202443.887500", "202444.347500", "202444.807500", "202445.267500", "202445.727500", "202446.187500", "202446.647500", "202447.107500", "202447.567500", "202448.027500", "202448.487500", "202448.947500", "202449.407500", "202449.867500", "202450.327500", "202450.787500", "202451.247500", "202451.707500", "202452.167500", "202452.627500", "202453.087500", "202453.547500", "202454.007500", "202454.467500", "202454.927500", "202455.387500", "202455.847500", "202456.307500", "202456.767500", "202457.227500", "202457.687500", "202458.147500", "202458.607500", "202459.067500", "202459.527500", "202459.987500", "202500.447500", "202500.907500", "202501.367500", "202501.827500", "202502.287500", "202502.747500", "202503.207500", "202503.667500", "202504.127500", "202504.587500", "202505.047500", "202505.507500", "202505.967500", "202506.427500", "202506.887500", "202507.347500", "202507.807500", "202508.267500", "202508.727500", "202509.187500", "202509.647500", "202510.107500", "202510.567500", "202511.027500", "202511.487500", "202511.947500", "202512.407500", "202512.867500", "202513.327500", "202513.787500", "202514.247500", "202514.707500", "202515.167500", "202515.627500", "202516.087500", "202516.547500", "202517.007500", "202517.467500", "202517.927500", "202518.387500", "202518.847500", "202519.307500", "202519.767500", "202520.227500", "202520.687500", "202521.147500", "202521.607500", "202522.067500", "202522.527500", "202522.987500", "202523.447500", "202523.907500", "202524.367500", "202524.827500", "202525.287500", "202525.747500", "202526.207500", "202526.667500", "202527.127500", "202527.587500", "202528.047500", "202528.507500", "202528.967500", "202529.427500", "202529.887500", "202530.347500", "202530.807500", "202531.267500", "202531.727500", "202532.187500", "202532.647500", "202533.107500", "202533.567500", "202534.027500", "202534.487500", "202534.947500", "202535.407500", "202535.867500", "202536.327500", "202536.787500", "202537.247500", "202537.707500", "202538.167500", "202538.627500", "202539.087500", "202539.547500", "202540.007500", "202540.467500", "202540.927500", "202541.387500", "202541.847500", "202542.307500", "202542.767500", "202543.227500", "202543.687500", "202544.147500", "202544.607500", "202545.067500", "202545.527500", "202545.987500", "202546.447500", "202546.907500", "202547.367500", "202547.827500", "202548.287500", "202548.747500", "202549.207500", "202549.667500", "202550.127500", "202550.587500", "202551.047500", "202551.507500", "202551.967500", "202552.427500", "202552.887500", "202553.347500", "202553.807500", "202554.267500", "202554.727500", "202555.187500", "202555.647500", "202556.107500", "202556.567500", "202557.027500", "202557.487500", "202557.947500", "202558.407500", "202558.867500", "202559.327500", "202559.787500", "202600.247500", "202600.707500", "202601.167500", "202601.627500", "202602.087500", "202602.547500", "202603.007500", "202603.467500", "202603.927500", "202604.387500", "202604.847500", "202605.307500", "202605.767500", "202606.227500", "202606.687500", "202607.147500", "202607.607500", "202608.067500", "202608.527500", "202608.987500", "202609.447500", "202609.907500", "202610.367500", "202610.827500", "202611.287500", "202611.747500", "202612.207500", "202612.667500", "202613.127500", "202613.587500", "202614.047500", "202614.507500", "202614.967500", "202615.427500", "202615.887500", "202616.347500", "202616.807500", "202617.267500", "202617.727500", "202618.187500", "202618.647500", "202619.107500", "202619.567500", "202620.027500", "202620.487500", "202620.947500", "202621.407500", "202621.867500", "202622.327500", "202622.787500", "202623.247500", "202623.707500", "202624.167500", "202624.627500", "202625.087500", "202625.547500", "202626.007500", "202626.467500", "202626.927500", "202627.387500", "202627.847500", "202628.307500", "202628.767500", "202629.227500", "202629.687500", "202630.147500", "202630.607500", "202631.067500", "202631.527500", "202631.987500", "202632.447500", "202632.907500", "202633.367500", "202633.827500", "202634.287500", "202634.747500", "202635.207500", "202635.667500", "202636.127500", "202636.587500", "202637.047500", "202637.507500", "202637.967500", "202638.427500", "202638.887500", "202639.347500", "202639.807500", "202640.267500", "202640.727500", "202641.187500", "202641.647500", "202642.107500", "202642.567500", "202643.027500", "202643.487500", "202643.947500", "202644.407500", "202644.867500", "202645.327500", "202645.787500", "202646.247500", "202646.707500", "202647.167500", "202647.627500", "202648.087500", "202648.547500", "202649.007500", "202649.467500", "202649.927500", "202650.387500", "202650.847500", "202651.307500", "202651.767500", "202652.227500", "202652.687500", "202653.147500", "202653.607500", "202654.067500", "202654.527500", "202654.987500", "202655.447500", "202655.907500", "202656.367500", "202656.827500", "202657.287500", "202657.747500", "202658.207500", "202658.667500", "202659.127500", "202659.587500", "202700.047500", "202700.507500", "202700.967500", "202701.427500", "202701.887500", "202702.347500", "202702.807500", "202703.267500", "202703.727500", "202704.187500", "202704.647500", "202705.107500", "202705.567500", "202706.027500", "202706.487500", "202706.947500", "202707.407500", "202707.867500", "202708.327500", "202708.787500", "202709.247500", "202709.707500", "202710.167500", "202710.627500", "202711.087500", "202711.547500", "202712.007500", "202712.467500", "202712.927500", "202713.387500", "202713.847500", "202714.307500", "202714.767500", "202715.227500", "202715.687500", "202716.147500", "202716.607500", "202717.067500", "202717.527500", "202717.987500", "202718.447500", "202718.907500", "202719.367500", "202719.827500", "202720.287500", "202720.747500", "202721.207500", "202721.667500", "202722.127500", "202722.587500", "202723.047500", "202723.507500", "202723.967500", "202724.427500", "202724.887500", "202725.347500", "202725.807500", "202726.267500", "202726.727500", "202727.187500", "202727.647500", "202728.107500", "202728.567500", "202729.027500", "202729.487500", "202729.947500", "202730.407500", "202730.867500", "202731.327500", "202731.787500", "202732.247500", "202732.707500", "202733.167500", "202733.627500", "202734.087500", "202734.547500", "202735.007500", "202735.467500", "202735.927500", "202736.387500", "202736.847500", "202737.307500", "202737.767500", "202738.227500", "202738.687500", "202739.147500", "202739.607500", "202740.067500", "202740.527500", "202740.987500", "202741.447500", "202741.907500", "202742.367500", "202742.827500", "202743.287500", "202743.747500", "202744.207500", "202744.667500", "202745.127500", "202745.587500", "202746.047500", "202746.507500", "202746.967500", "202747.427500", "202747.887500", "202748.347500", "202748.807500", "202749.267500", "202749.727500", "202750.187500", "202750.647500", "202751.107500", "202751.567500", "202752.027500", "202752.487500", "202752.947500", "202753.407500", "202753.867500", "202754.327500", "202754.787500", "202755.247500", "202755.707500", "202756.167500", "202756.627500", "202757.087500", "202757.547500", "202758.007500", "202758.467500", "202758.927500", "202759.387500", "202759.847500", "202800.307500", "202800.767500", "202801.227500", "202801.687500", "202802.147500", "202802.607500", "202803.067500", "202803.527500", "202803.987500", "202804.447500", "202804.907500", "202805.367500", "202805.827500", "202806.287500", "202806.747500", "202807.207500", "202807.667500", "202808.127500", "202808.587500", "202809.047500", "202809.507500", "202809.967500", "202810.427500", "202810.887500", "202811.347500", "202811.807500", "202812.267500", "202812.727500", "202813.187500", "202813.647500", "202814.107500", "202814.567500", "202815.027500", "202815.487500", "202815.947500", "202816.407500", "202816.867500", "202817.327500", "202817.787500", "202818.247500", "202818.707500", "202819.167500", "202819.627500", "202820.087500", "202820.547500", "202821.007500", "202821.467500", "202821.927500", "202822.387500", "202822.847500", "202823.307500", "202823.767500", "202824.227500", "202824.687500", "202825.147500", "202825.607500", "202826.067500", "202826.527500", "202826.987500", "202827.447500", "202827.907500", "202828.367500", "202828.827500", "202829.287500", "202829.747500", "202830.207500", "202830.667500", "202831.127500", "202831.587500", "202832.047500", "202832.507500", "202832.967500", "202833.427500", "202833.887500", "202834.347500", "202834.807500", "202835.267500", "202835.727500", "202836.187500", "202836.647500", "202837.107500", "202837.567500", "202838.027500", "202838.487500", "202838.947500", "202839.407500", "202839.867500", "202840.327500", "202840.787500", "202841.247500", "202841.707500", "202842.167500", "202842.627500", "202843.087500", "202843.547500", "202844.007500", "202844.467500", "202844.927500"],
