{
  "AcquisitionMatrixPE": 82,
  "AcquisitionNumber": 1,
  "AcquisitionTime": "20:29:53.477500",
  "BandwidthPerPixelPhaseEncode": 24.888,
  "BaseResolution": 82,
  "BodyPartExamined": "BRAIN",
  "ConsistencyInfo": "N4_VE11E_LATEST_20181129",
  "ConversionSoftware": "dcm2niix",
  "ConversionSoftwareVersion": "v1.0.20201102",
  "DerivedVendorReportedEchoSpacing": 0.00049,
  "DeviceSerialNumber": "66112",
  "DwellTime": 2e-06,
  "EchoTime": 0.0272,
  "EchoTrainLength": 82,
  "EffectiveEchoSpacing": 0.00049,
  "FlipAngle": 44,
  "ImageComments": "Unaliased MB8/PE3",
  "ImageOrientationPatientDICOM": [0.998841, -0.048119, 0.000890384, 0.0478031, 0.994087, 0.0974989],
  "ImageType": [
    "ORIGINAL",
    "PRIMARY",
    "M",
    "MB",
    "ND",
    "NORM",
    "MOSAIC"
],
  "ImagingFrequency": 123.252,
  "InPlanePhaseEncodingDirectionDICOM": "COL",
  "InstitutionAddress": "Maynard 3,Hanover,NH,US,03755",
  "InstitutionName": "Dartmouth College - PBS",
  "InstitutionalDepartmentName": "Department",
  "MRAcquisitionType": "2D",
  "MagneticFieldStrength": 3,
  "Manufacturer": "Siemens",
  "ManufacturersModelName": "Prisma",
  "Modality": "MR",
  "MultibandAccelerationFactor": 8,
  "PartialFourier": 1,
  "PatientPosition": "HFS",
  "PercentPhaseFOV": 100,
  "PercentSampling": 100,
  "PhaseEncodingDirection": "j-",
  "PhaseEncodingSteps": 82,
  "PhaseResolution": 1,
  "PixelBandwidth": 3050,
  "ProcedureStepDescription": "Wager_Wager^1076_spacetop",
  "ProtocolName": "func_run-05_task-social_acq-ap-mb8",
  "PulseSequenceDetails": "%CustomerSeq%\\cmrr_mbep2d_bold",
  "ReceiveCoilActiveElements": "HEA;HEP",
  "ReceiveCoilName": "Head_32",
  "ReconMatrixPE": 82,
  "RepetitionTime": 0.46,
  "SAR": 0.0907191,
  "ScanOptions": "FS",
  "ScanningSequence": "EP",
  "SequenceName": "epfid2d1_82",
  "SequenceVariant": "SK\\SS",
  "SeriesDescription": "func_run-05_task-social_acq-ap-mb8",
  "SeriesNumber": 20,
  "ShimSetting": [4142, -7750, -7206, 686, -45, -94, 83, 72],
  "SliceThickness": 2.7,
  "SliceTiming": [0, 0.2525, 0.0625, 0.315, 0.1275, 0.3775, 0.19, 0, 0.2525, 0.0625, 0.315, 0.1275, 0.3775, 0.19, 0, 0.2525, 0.0625, 0.315, 0.1275, 0.3775, 0.19, 0, 0.2525, 0.0625, 0.315, 0.1275, 0.3775, 0.19, 0, 0.2525, 0.0625, 0.315, 0.1275, 0.3775, 0.19, 0, 0.2525, 0.0625, 0.315, 0.1275, 0.3775, 0.19, 0, 0.2525, 0.0625, 0.315, 0.1275, 0.3775, 0.19, 0, 0.2525, 0.0625, 0.315, 0.1275, 0.3775, 0.19],
  "SoftwareVersions": "syngo MR E11",
  "SpacingBetweenSlices": 2.7,
  "StationName": "AWP66112",
  "TaskName": "social",
  "TotalReadoutTime": 0.03969,
  "TxRefAmp": 235.217,
  "WipMemBlock": "3d4b69bb-4093-40df-b2fd-0c74ad05929f||Sequence: R016 ve11e/master r/434b28f1; Aug  7 2019 18:53:46 by eja",
  "dcmmeta_affine": [
    [-2.6798179149627686, 0.12825210392475128, 0.015057005919516087, 103.1296157836914],
    [0.1290997713804245, 2.667062520980835, 0.2628270387649536, -109.15461730957031],
    [0.00238883588463068, -0.2615824043750763, 2.6871352195739746, -35.36450958251953],
    [0.0, 0.0, 0.0, 1.0]
],
  "dcmmeta_reorient_transform": [
    [0.0, -1.0, 0.0, 81.0],
    [1.0, 0.0, 0.0, 0.0],
    [0.0, 0.0, 1.0, 0.0],
    [0.0, 0.0, 0.0, 1.0]
],
  "dcmmeta_shape": [82, 82, 56, 872],
  "dcmmeta_slice_dim": 2,
  "dcmmeta_version": 0.6,
  "global": {
    "const": {
      "AccessionNumber": "A004256",
      "AcquisitionMatrix": [82, 0, 0, 82],
      "AngioFlag": "N",
      "BitsAllocated": 16,
      "BitsStored": 16,
      "BodyPartExamined": "BRAIN",
      "Columns": 656,
      "EchoNumbers": 1,
      "EchoTime": 27.2,
      "EchoTrainLength": 82,
      "FlipAngle": 44.0,
      "HighBit": 15,
      "ImageOrientationPatient": [0.99884121290228, -0.0481190048086, 0.00089038426075, 0.04780305608564, 0.99408693486703, 0.09749889104775],
      "ImagePositionPatient": [-919.43414099661, -835.27277741695, -132.31242654891],
      "ImageType": [
        "ORIGINAL",
        "PRIMARY",
        "M",
        "MB",
        "ND",
        "NORM",
        "MOSAIC"
],
      "ImagedNucleus": "1H",
      "ImagingFrequency": 123.252166,
      "InPlanePhaseEncodingDirection": "COL",
      "MRAcquisitionType": "2D",
      "MagneticFieldStrength": 3.0,
      "Manufacturer": "SIEMENS",
      "ManufacturerModelName": "Prisma",
      "Modality": "MR",
      "NumberOfAverages": 1.0,
      "NumberOfPhaseEncodingSteps": 82,
      "PercentPhaseFieldOfView": 100.0,
      "PercentSampling": 100.0,
      "PerformedProcedureStepStartTime": "192002.699000",
      "PhotometricInterpretation": "MONOCHROME2",
      "PixelBandwidth": 3050.0,
      "PixelRepresentation": 0,
      "PixelSpacing": [2.6829268932343, 2.6829268932343],
      "ProtocolName": "func_run-05_task-social_acq-ap-mb8",
      "RepetitionTime": 460.0,
      "Rows": 656,
      "SAR": 0.0907190875505,
      "SamplesPerPixel": 1,
      "ScanOptions": "FS",
      "ScanningSequence": "EP",
      "SequenceName": "epfid2d1_82",
      "SequenceVariant": [
        "SK",
        "SS"
],
      "SeriesDescription": "func_run-05_task-social_acq-ap-mb8",
      "SeriesNumber": 20,
      "SeriesTime": "203008.396000",
      "SliceLocation": -45.246360888299,
      "SliceThickness": 2.7000000476837,
      "SmallestImagePixelValue": 0,
      "SoftwareVersions": "syngo MR E11",
      "SpacingBetweenSlices": 2.699999972085,
      "SpecificCharacterSet": "ISO_IR 100",
      "StudyID": "3",
      "StudyTime": "192002.652000",
      "TransmitCoilName": "Body",
      "VariableFlipAngleFlag": "N",
      "WindowCenterWidthExplanation": "Algo1"
    },
    "slices": {}
  },
  "time": {
    "samples": {
      "AcquisitionNumber": [1, 2, 3, 4, 5, 6, 7, 8, 9, 10, 11, 12, 13, 14, 15, 16, 17, 18, 19, 20, 21, 22, 23, 24, 25, 26, 27, 28, 29, 30, 31, 32, 33, 34, 35, 36, 37, 38, 39, 40, 41, 42, 43, 44, 45, 46, 47, 48, 49, 50, 51, 52, 53, 54, 55, 56, 57, 58, 59, 60, 61, 62, 63, 64, 65, 66, 67, 68, 69, 70, 71, 72, 73, 74, 75, 76, 77, 78, 79, 80, 81, 82, 83, 84, 85, 86, 87, 88, 89, 90, 91, 92, 93, 94, 95, 96, 97, 98, 99, 100, 101, 102, 103, 104, 105, 106, 107, 108, 109, 110, 111, 112, 113, 114, 115, 116, 117, 118, 119, 120, 121, 122, 123, 124, 125, 126, 127, 128, 129, 130, 131, 132, 133, 134, 135, 136, 137, 138, 139, 140, 141, 142, 143, 144, 145, 146, 147, 148, 149, 150, 151, 152, 153, 154, 155, 156, 157, 158, 159, 160, 161, 162, 163, 164, 165, 166, 167, 168, 169, 170, 171, 172, 173, 174, 175, 176, 177, 178, 179, 180, 181, 182, 183, 184, 185, 186, 187, 188, 189, 190, 191, 192, 193, 194, 195, 196, 197, 198, 199, 200, 201, 202, 203, 204, 205, 206, 207, 208, 209, 210, 211, 212, 213, 214, 215, 216, 217, 218, 219, 220, 221, 222, 223, 224, 225, 226, 227, 228, 229, 230, 231, 232, 233, 234, 235, 236, 237, 238, 239, 240, 241, 242, 243, 244, 245, 246, 247, 248, 249, 250, 251, 252, 253, 254, 255, 256, 257, 258, 259, 260, 261, 262, 263, 264, 265, 266, 267, 268, 269, 270, 271, 272, 273, 274, 275, 276, 277, 278, 279, 280, 281, 282, 283, 284, 285, 286, 287, 288, 289, 290, 291, 292, 293, 294, 295, 296, 297, 298, 299, 300, 301, 302, 303, 304, 305, 306, 307, 308, 309, 310, 311, 312, 313, 314, 315, 316, 317, 318, 319, 320, 321, 322, 323, 324, 325, 326, 327, 328, 329, 330, 331, 332, 333, 334, 335, 336, 337, 338, 339, 340, 341, 342, 343, 344, 345, 346, 347, 348, 349, 350, 351, 352, 353, 354, 355, 356, 357, 358, 359, 360, 361, 362, 363, 364, 365, 366, 367, 368, 369, 370, 371, 372, 373, 374, 375, 376, 377, 378, 379, 380, 381, 382, 383, 384, 385, 386, 387, 388, 389, 390, 391, 392, 393, 394, 395, 396, 397, 398, 399, 400, 401, 402, 403, 404, 405, 406, 407, 408, 409, 410, 411, 412, 413, 414, 415, 416, 417, 418, 419, 420, 421, 422, 423, 424, 425, 426, 427, 428, 429, 430, 431, 432, 433, 434, 435, 436, 437, 438, 439, 440, 441, 442, 443, 444, 445, 446, 447, 448, 449, 450, 451, 452, 453, 454, 455, 456, 457, 458, 459, 460, 461, 462, 463, 464, 465, 466, 467, 468, 469, 470, 471, 472, 473, 474, 475, 476, 477, 478, 479, 480, 481, 482, 483, 484, 485, 486, 487, 488, 489, 490, 491, 492, 493, 494, 495, 496, 497, 498, 499, 500, 501, 502, 503, 504, 505, 506, 507, 508, 509, 510, 511, 512, 513, 514, 515, 516, 517, 518, 519, 520, 521, 522, 523, 524, 525, 526, 527, 528, 529, 530, 531, 532, 533, 534, 535, 536, 537, 538, 539, 540, 541, 542, 543, 544, 545, 546, 547, 548, 549, 550, 551, 552, 553, 554, 555, 556, 557, 558, 559, 560, 561, 562, 563, 564, 565, 566, 567, 568, 569, 570, 571, 572, 573, 574, 575, 576, 577, 578, 579, 580, 581, 582, 583, 584, 585, 586, 587, 588, 589, 590, 591, 592, 593, 594, 595, 596, 597, 598, 599, 600, 601, 602, 603, 604, 605, 606, 607, 608, 609, 610, 611, 612, 613, 614, 615, 616, 617, 618, 619, 620, 621, 622, 623, 624, 625, 626, 627, 628, 629, 630, 631, 632, 633, 634, 635, 636, 637, 638, 639, 640, 641, 642, 643, 644, 645, 646, 647, 648, 649, 650, 651, 652, 653, 654, 655, 656, 657, 658, 659, 660, 661, 662, 663, 664, 665, 666, 667, 668, 669, 670, 671, 672, 673, 674, 675, 676, 677, 678, 679, 680, 681, 682, 683, 684, 685, 686, 687, 688, 689, 690, 691, 692, 693, 694, 695, 696, 697, 698, 699, 700, 701, 702, 703, 704, 705, 706, 707, 708, 709, 710, 711, 712, 713, 714, 715, 716, 717, 718, 719, 720, 721, 722, 723, 724, 725, 726, 727, 728, 729, 730, 731, 732, 733, 734, 735, 736, 737, 738, 739, 740, 741, 742, 743, 744, 745, 746, 747, 748, 749, 750, 751, 752, 753, 754, 755, 756, 757, 758, 759, 760, 761, 762, 763, 764, 765, 766, 767, 768, 769, 770, 771, 772, 773, 774, 775, 776, 777, 778, 779, 780, 781, 782, 783, 784, 785, 786, 787, 788, 789, 790, 791, 792, 793, 794, 795, 796, 797, 798, 799, 800, 801, 802, 803, 804, 805, 806, 807, 808, 809, 810, 811, 812, 813, 814, 815, 816, 817, 818, 819, 820, 821, 822, 823, 824, 825, 826, 827, 828, 829, 830, 831, 832, 833, 834, 835, 836, 837, 838, 839, 840, 841, 842, 843, 844, 845, 846, 847, 848, 849, 850, 851, 852, 853, 854, 855, 856, 857, 858, 859, 860, 861, 862, 863, 864, 865, 866, 867, 868, 869, 870, 871, 872],
      "AcquisitionTime": ["202953.477500", "202953.937500", "202954.397500", "202954.857500", "202955.317500", "202955.777500", "202956.237500", "202956.697500", "202957.157500", "202957.617500", "202958.077500", "202958.537500", "202958.997500", "202959.457500", "202959.917500", "203000.377500", "203000.837500", "203001.297500", "203001.757500", "203002.217500", "203002.677500", "203003.137500", "203003.597500", "203004.057500", "203004.517500", "203004.977500", "203005.437500", "203005.897500", "203006.357500", "203006.817500", "203007.277500", "203007.737500", "203008.197500", "203008.657500", "203009.117500", "203009.577500", "203010.037500", "203010.497500", "203010.957500", "203011.417500", "203011.877500", "203012.337500", "203012.797500", "203013.257500", "203013.717500", "203014.177500", "203014.637500", "203015.097500", "203015.557500", "203016.017500", "203016.477500", "203016.937500", "203017.397500", "203017.857500", "203018.317500", "203018.777500", "203019.237500", "203019.697500", "203020.157500", "203020.617500", "203021.077500", "203021.537500", "203021.997500", "203022.457500", "203022.917500", "203023.377500", "203023.837500", "203024.297500", "203024.757500", "203025.217500", "203025.677500", "203026.137500", "203026.597500", "203027.057500", "203027.517500", "203027.977500", "203028.437500", "203028.897500", "203029.357500", "203029.817500", "203030.277500", "203030.737500", "203031.197500", "203031.657500", "203032.117500", "203032.577500", "203033.037500", "203033.497500", "203033.957500", "203034.417500", "203034.877500", "203035.337500", "203035.797500", "203036.257500", "203036.717500", "203037.177500", "203037.637500", "203038.097500", "203038.557500", "203039.017500", "203039.477500", "203039.937500", "203040.397500", "203040.857500", "203041.317500", "203041.777500", "203042.237500", "203042.697500", "203043.157500", "203043.617500", "203044.077500", "203044.537500", "203044.997500", "203045.457500", "203045.917500", "203046.377500", "203046.837500", "203047.297500", "203047.757500", "203048.217500", "203048.677500", "203049.137500", "203049.597500", "203050.057500", "203050.517500", "203050.977500", "203051.437500", "203051.897500", "203052.357500", "203052.817500", "203053.277500", "203053.737500", "203054.197500", "203054.657500", "203055.117500", "203055.577500", "203056.037500", "203056.497500", "203056.957500", "203057.417500", "203057.877500", "203058.337500", "203058.797500", "203059.257500", "203059.717500", "203100.177500", "203100.637500", "203101.097500", "203101.557500", "203102.017500", "203102.477500", "203102.937500", "203103.397500", "203103.857500", "203104.317500", "203104.777500", "203105.237500", "203105.697500", "203106.157500", "203106.617500", "203107.077500", "203107.537500", "203107.997500", "203108.457500", "203108.917500", "203109.377500", "203109.837500", "203110.297500", "203110.757500", "203111.217500", "203111.677500", "203112.137500", "203112.597500", "203113.057500", "203113.517500", "203113.977500", "203114.437500", "203114.897500", "203115.357500", "203115.817500", "203116.277500", "203116.737500", "203117.197500", "203117.657500", "203118.117500", "203118.577500", "203119.037500", "203119.497500", "203119.957500", "203120.417500", "203120.877500", "203121.337500", "203121.797500", "203122.257500", "203122.717500", "203123.177500", "203123.637500", "203124.097500", "203124.557500", "203125.017500", "203125.477500", "203125.937500", "203126.397500", "203126.857500", "203127.317500", "203127.777500", "203128.237500", "203128.697500", "203129.157500", "203129.617500", "203130.077500", "203130.537500", "203130.997500", "203131.457500", "203131.917500", "203132.377500", "203132.837500", "203133.297500", "203133.757500", "203134.217500", "203134.677500", "203135.137500", "203135.597500", "203136.057500", "203136.517500", "203136.977500", "203137.437500", "203137.897500", "203138.357500", "203138.817500", "203139.277500", "203139.737500", "203140.197500", "203140.657500", "203141.117500", "203141.577500", "203142.037500", "203142.497500", "203142.957500", "203143.417500", "203143.877500", "203144.337500", "203144.797500", "203145.257500", "203145.717500", "203146.177500", "203146.637500", "203147.097500", "203147.557500", "203148.017500", "203148.477500", "203148.937500", "203149.397500", "203149.857500", "203150.317500", "203150.777500", "203151.237500", "203151.697500", "203152.157500", "203152.617500", "203153.077500", "203153.537500", "203153.997500", "203154.457500", "203154.917500", "203155.377500", "203155.837500", "203156.297500", "203156.757500", "203157.217500", "203157.677500", "203158.137500", "203158.597500", "203159.057500", "203159.517500", "203159.977500", "203200.437500", "203200.897500", "203201.357500", "203201.817500", "203202.277500", "203202.737500", "203203.197500", "203203.657500", "203204.117500", "203204.577500", "203205.037500", "203205.497500", "203205.957500", "203206.417500", "203206.877500", "203207.337500", "203207.797500", "203208.257500", "203208.717500", "203209.177500", "203209.637500", "203210.097500", "203210.557500", "203211.017500", "203211.477500", "203211.937500", "203212.397500", "203212.857500", "203213.317500", "203213.777500", "203214.237500", "203214.697500", "203215.157500", "203215.617500", "203216.077500", "203216.537500", "203216.997500", "203217.457500", "203217.917500", "203218.377500", "203218.837500", "203219.297500", "203219.757500", "203220.217500", "203220.677500", "203221.137500", "203221.597500", "203222.057500", "203222.517500", "203222.977500", "203223.437500", "203223.897500", "203224.357500", "203224.817500", "203225.277500", "203225.737500", "203226.197500", "203226.657500", "203227.117500", "203227.577500", "203228.037500", "203228.497500", "203228.957500", "203229.417500", "203229.877500", "203230.337500", "203230.797500", "203231.257500", "203231.717500", "203232.177500", "203232.637500", "203233.097500", "203233.557500", "203234.017500", "203234.477500", "203234.937500", "203235.397500", "203235.857500", "203236.317500", "203236.777500", "203237.237500", "203237.697500", "203238.157500", "203238.617500", "203239.077500", "203239.537500", "203239.997500", "203240.457500", "203240.917500", "203241.377500", "203241.837500", "203242.297500", "203242.757500", "203243.217500", "203243.677500", "203244.137500", "203244.597500", "203245.057500", "203245.517500", "203245.977500", "203246.437500", "203246.897500", "203247.357500", "203247.817500", "203248.277500", "203248.737500", "203249.197500", "203249.657500", "203250.117500", "203250.577500", "203251.037500", "203251.497500", "203251.957500", "203252.417500", "203252.877500", "203253.337500", "203253.797500", "203254.257500", "203254.717500", "203255.177500", "203255.637500", "203256.097500", "203256.557500", "203257.017500", "203257.477500", "203257.937500", "203258.397500", "203258.857500", "203259.317500", "203259.777500", "203300.237500", "203300.697500", "203301.157500", "203301.617500", "203302.077500", "203302.537500", "203302.997500", "203303.457500", "203303.917500", "203304.377500", "203304.837500", "203305.297500", "203305.757500", "203306.217500", "203306.677500", "203307.137500", "203307.597500", "203308.057500", "203308.517500", "203308.977500", "203309.437500", "203309.897500", "203310.357500", "203310.817500", "203311.277500", "203311.737500", "203312.197500", "203312.657500", "203313.117500", "203313.577500", "203314.037500", "203314.497500", "203314.957500", "203315.417500", "203315.877500", "203316.337500", "203316.797500", "203317.257500", "203317.717500", "203318.177500", "203318.637500", "203319.097500", "203319.557500", "203320.017500", "203320.477500", "203320.937500", "203321.397500", "203321.857500", "203322.317500", "203322.777500", "203323.237500", "203323.697500", "203324.157500", "203324.617500", "203325.077500", "203325.537500", "203325.997500", "203326.457500", "203326.917500", "203327.377500", "203327.837500", "203328.297500", "203328.757500", "203329.217500", "203329.677500", "203330.137500", "203330.597500", "203331.057500", "203331.517500", "203331.977500", "203332.437500", "203332.897500", "203333.357500", "203333.817500", "203334.277500", "203334.737500", "203335.197500", "203335.657500", "203336.117500", "203336.577500", "203337.037500", "203337.497500", "203337.957500", "203338.417500", "203338.877500", "203339.337500", "203339.797500", "203340.257500", "203340.717500", "203341.177500", "203341.637500", "203342.097500", "203342.557500", "203343.017500", "203343.477500", "203343.937500", "203344.397500", "203344.857500", "203345.317500", "203345.777500", "203346.237500", "203346.697500", "203347.157500", "203347.617500", "203348.077500", "203348.537500", "203348.997500", "203349.457500", "203349.917500", "203350.377500", "203350.837500", "203351.297500", "203351.757500", "203352.217500", "203352.677500", "203353.137500", "203353.597500", "203354.057500", "203354.517500", "203354.977500", "203355.437500", "203355.897500", "203356.357500", "203356.817500", "203357.277500", "203357.737500", "203358.197500", "203358.657500", "203359.117500", "203359.577500", "203400.037500", "203400.497500", "203400.957500", "203401.417500", "203401.877500", "203402.337500", "203402.797500", "203403.257500", "203403.717500", "203404.177500", "203404.637500", "203405.097500", "203405.557500", "203406.017500", "203406.477500", "203406.937500", "203407.397500", "203407.857500", "203408.317500", "203408.777500", "203409.237500", "203409.697500", "203410.157500", "203410.617500", "203411.077500", "203411.537500", "203411.997500", "203412.457500", "203412.917500", "203413.377500", "203413.837500", "203414.297500", "203414.757500", "203415.217500", "203415.677500", "203416.137500", "203416.597500", "203417.057500", "203417.517500", "203417.977500", "203418.437500", "203418.897500", "203419.357500", "203419.817500", "203420.277500", "203420.737500", "203421.197500", "203421.657500", "203422.117500", "203422.577500", "203423.037500", "203423.497500", "203423.957500", "203424.417500", "203424.877500", "203425.337500", "203425.797500", "203426.257500", "203426.717500", "203427.177500", "203427.637500", "203428.097500", "203428.557500", "203429.017500", "203429.477500", "203429.937500", "203430.397500", "203430.857500", "203431.317500", "203431.777500", "203432.237500", "203432.697500", "203433.157500", "203433.617500", "203434.077500", "203434.537500", "203434.997500", "203435.457500", "203435.917500", "203436.377500", "203436.837500", "203437.297500", "203437.757500", "203438.217500", "203438.677500", "203439.137500", "203439.597500", "203440.057500", "203440.517500", "203440.977500", "203441.437500", "203441.897500", "203442.357500", "203442.817500", "203443.277500", "203443.737500", "203444.197500", "203444.657500", "203445.117500", "203445.577500", "203446.037500", "203446.497500", "203446.957500", "203447.417500", "203447.877500", "203448.337500", "203448.797500", "203449.257500", "203449.717500", "203450.177500", "203450.637500", "203451.097500", "203451.557500", "203452.017500", "203452.477500", "203452.937500", "203453.397500", "203453.857500", "203454.317500", "203454.777500", "203455.237500", "203455.697500", "203456.157500", "203456.617500", "203457.077500", "203457.537500", "203457.997500", "203458.457500", "203458.917500", "203459.377500", "203459.837500", "203500.297500", "203500.757500", "203501.217500", "203501.677500", "203502.137500", "203502.597500", "203503.057500", "203503.517500", "203503.977500", "203504.437500", "203504.897500", "203505.357500", "203505.817500", "203506.277500", "203506.737500", "203507.197500", "203507.657500", "203508.117500", "203508.577500", "203509.037500", "203509.497500", "203509.957500", "203510.417500", "203510.877500", "203511.337500", "203511.797500", "203512.257500", "203512.717500", "203513.177500", "203513.637500", "203514.097500", "203514.557500", "203515.017500", "203515.477500", "203515.937500", "203516.397500", "203516.857500", "203517.317500", "203517.777500", "203518.237500", "203518.697500", "203519.157500", "203519.617500", "203520.077500", "203520.537500", "203520.997500", "203521.457500", "203521.917500", "203522.377500", "203522.837500", "203523.297500", "203523.757500", "203524.217500", "203524.677500", "203525.137500", "203525.597500", "203526.057500", "203526.517500", "203526.977500", "203527.437500", "203527.897500", "203528.357500", "203528.817500", "203529.277500", "203529.737500", "203530.197500", "203530.657500", "203531.117500", "203531.577500", "203532.037500", "203532.497500", "203532.957500", "203533.417500", "203533.877500", "203534.337500", "203534.797500", "203535.257500", "203535.717500", "203536.177500", "203536.637500", "203537.097500", "203537.557500", "203538.017500", "203538.477500", "203538.937500", "203539.397500", "203539.857500", "203540.317500", "203540.777500", "203541.237500", "203541.697500", "203542.157500", "203542.617500", "203543.077500", "203543.537500", "203543.997500", "203544.457500", "203544.917500", "203545.377500", "203545.837500", "203546.297500", "203546.757500", "203547.217500", "203547.677500", "203548.137500", "203548.597500", "203549.057500", "203549.517500", "203549.977500", "203550.437500", "203550.897500", "203551.357500", "203551.817500", "203552.277500", "203552.737500", "203553.197500", "203553.657500", "203554.117500", "203554.577500", "203555.037500", "203555.497500", "203555.957500", "203556.417500", "203556.877500", "203557.337500", "203557.797500", "203558.257500", "203558.717500", "203559.177500", "203559.637500", "203600.097500", "203600.557500", "203601.017500", "203601.477500", "203601.937500", "203602.397500", "203602.857500", "203603.317500", "203603.777500", "203604.237500", "203604.697500", "203605.157500", "203605.617500", "203606.077500", "203606.537500", "203606.997500", "203607.457500", "203607.917500", "203608.377500", "203608.837500", "203609.297500", "203609.757500", "203610.217500", "203610.677500", "203611.137500", "203611.597500", "203612.057500", "203612.517500", "203612.977500", "203613.437500", "203613.897500", "203614.357500", "203614.817500", "203615.277500", "203615.737500", "203616.197500", "203616.657500", "203617.117500", "203617.577500", "203618.037500", "203618.497500", "203618.957500", "203619.417500", "203619.877500", "203620.337500", "203620.797500", "203621.257500", "203621.717500", "203622.177500", "203622.637500", "203623.097500", "203623.557500", "203624.017500", "203624.477500", "203624.937500", "203625.397500", "203625.857500", "203626.317500", "203626.777500", "203627.237500", "203627.697500", "203628.157500", "203628.617500", "203629.077500", "203629.537500", "203629.997500", "203630.457500", "203630.917500", "203631.377500", "203631.837500", "203632.297500", "203632.757500", "203633.217500", "203633.677500", "203634.137500"],
