{
  "AcquisitionMatrixPE": 82,
  "AcquisitionNumber": 1,
  "AcquisitionTime": "22:23:6.880000",
  "BandwidthPerPixelPhaseEncode": 24.888,
  "BaseResolution": 82,
  "BodyPartExamined": "BRAIN",
  "ConsistencyInfo": "N4_VE11E_LATEST_20181129",
  "ConversionSoftware": "dcm2niix",
  "ConversionSoftwareVersion": "v1.0.20201102",
  "DerivedVendorReportedEchoSpacing": 0.00049,
  "DeviceSerialNumber": "66112",
  "DwellTime": 2e-06,
  "EchoTime": 0.0272,
  "EchoTrainLength": 82,
  "EffectiveEchoSpacing": 0.00049,
  "FlipAngle": 44,
  "ImageComments": "Unaliased MB8/PE3",
  "ImageOrientationPatientDICOM": [0.999738, 0.0218743, 0.00668161, -0.0218144, 0.999722, -0.00891911],
  "ImageType": [
    "ORIGINAL",
    "PRIMARY",
    "M",
    "MB",
    "ND",
    "NORM",
    "MOSAIC"
],
  "ImagingFrequency": 123.252,
  "InPlanePhaseEncodingDirectionDICOM": "COL",
  "InstitutionAddress": "Maynard 3,Hanover,NH,US,03755",
  "InstitutionName": "Dartmouth College - PBS",
  "InstitutionalDepartmentName": "Department",
  "MRAcquisitionType": "2D",
  "MagneticFieldStrength": 3,
  "Manufacturer": "Siemens",
  "ManufacturersModelName": "Prisma",
  "Modality": "MR",
  "MultibandAccelerationFactor": 8,
  "PartialFourier": 1,
  "PatientPosition": "HFS",
  "PercentPhaseFOV": 100,
  "PercentSampling": 100,
  "PhaseEncodingDirection": "j-",
  "PhaseEncodingSteps": 82,
  "PhaseResolution": 1,
  "PixelBandwidth": 3050,
  "ProcedureStepDescription": "Wager_Wager^1076_spacetop",
  "ProtocolName": "func_run-05_task-social_acq-ap-mb8",
  "PulseSequenceDetails": "%CustomerSeq%\\cmrr_mbep2d_bold",
  "ReceiveCoilActiveElements": "HEA;HEP",
  "ReceiveCoilName": "Head_32",
  "ReconMatrixPE": 82,
  "RepetitionTime": 0.46,
  "SAR": 0.0944853,
  "ScanOptions": "FS",
  "ScanningSequence": "EP",
  "SequenceName": "epfid2d1_82",
  "SequenceVariant": "SK\\SS",
  "SeriesDescription": "func_run-05_task-social_acq-ap-mb8",
  "SeriesNumber": 20,
  "ShimSetting": [4162, -7785, -7239, 580, -37, -11, 20, 62],
  "SliceThickness": 2.7,
  "SliceTiming": [0, 0.25, 0.0625, 0.3125, 0.125, 0.375, 0.1875, 0, 0.25, 0.0625, 0.3125, 0.125, 0.375, 0.1875, 0, 0.25, 0.0625, 0.3125, 0.125, 0.375, 0.1875, 0, 0.25, 0.0625, 0.3125, 0.125, 0.375, 0.1875, 0, 0.25, 0.0625, 0.3125, 0.125, 0.375, 0.1875, 0, 0.25, 0.0625, 0.3125, 0.125, 0.375, 0.1875, 0, 0.25, 0.0625, 0.3125, 0.125, 0.375, 0.1875, 0, 0.25, 0.0625, 0.3125, 0.125, 0.375, 0.1875],
  "SoftwareVersions": "syngo MR E11",
  "SpacingBetweenSlices": 2.7,
  "StationName": "AWP66112",
  "TaskName": "social",
  "TotalReadoutTime": 0.03969,
  "TxRefAmp": 253.67,
  "WipMemBlock": "92eeb171-3e1d-42d1-9b2c-02ce3e464c0d||Sequence: R016 ve11e/master r/434b28f1; Aug  7 2019 18:53:46 by eja",
  "dcmmeta_affine": [
    [-2.682224988937378, -0.058526311069726944, 0.018562113866209984, 115.07896423339844],
    [-0.05868718773126602, 2.6821818351745605, -0.023681748658418655, -93.421142578125],
    [0.017926279455423355, 0.023929309099912643, 2.6998324394226074, -71.71964263916016],
    [0.0, 0.0, 0.0, 1.0]
],
  "dcmmeta_reorient_transform": [
    [0.0, -1.0, 0.0, 81.0],
    [1.0, 0.0, 0.0, 0.0],
    [0.0, 0.0, 1.0, 0.0],
    [0.0, 0.0, 0.0, 1.0]
],
  "dcmmeta_shape": [82, 82, 56, 872],
  "dcmmeta_slice_dim": 2,
  "dcmmeta_version": 0.6,
  "global": {
    "const": {
      "AccessionNumber": "A004111",
      "AcquisitionMatrix": [82, 0, 0, 82],
      "AngioFlag": "N",
      "BitsAllocated": 16,
      "BitsStored": 16,
      "BodyPartExamined": "BRAIN",
      "Columns": 656,
      "EchoNumbers": 1,
      "EchoTime": 27.2,
      "EchoTrainLength": 82,
      "FlipAngle": 44.0,
      "HighBit": 15,
      "ImageOrientationPatient": [0.99973840098591, 0.02187431459006, 0.00668161322921, -0.0218143516679, 0.99972225323541, -0.008919105741],
      "ImagePositionPatient": [-863.33986821123, -910.46495252112, -68.058502880588],
      "ImageType": [
        "ORIGINAL",
        "PRIMARY",
        "M",
        "MB",
        "ND",
        "NORM",
        "MOSAIC"
],
      "ImagedNucleus": "1H",
      "ImagingFrequency": 123.25221,
      "InPlanePhaseEncodingDirection": "COL",
      "MRAcquisitionType": "2D",
      "MagneticFieldStrength": 3.0,
      "Manufacturer": "SIEMENS",
      "ManufacturerModelName": "Prisma",
      "Modality": "MR",
      "NumberOfAverages": 1.0,
      "NumberOfPhaseEncodingSteps": 82,
      "PercentPhaseFieldOfView": 100.0,
      "PercentSampling": 100.0,
      "PerformedProcedureStepStartTime": "213212.058000",
      "PhotometricInterpretation": "MONOCHROME2",
      "PixelBandwidth": 3050.0,
      "PixelRepresentation": 0,
      "PixelSpacing": [2.6829268932343, 2.6829268932343],
      "ProtocolName": "func_run-05_task-social_acq-ap-mb8",
      "RepetitionTime": 460.0,
      "Rows": 656,
      "SAR": 0.09448533089734,
      "SamplesPerPixel": 1,
      "ScanOptions": "FS",
      "ScanningSequence": "EP",
      "SequenceName": "epfid2d1_82",
      "SequenceVariant": [
        "SK",
        "SS"
],
      "SeriesDescription": "func_run-05_task-social_acq-ap-mb8",
      "SeriesNumber": 20,
      "SeriesTime": "222325.552000",
      "SliceLocation": -70.104642566843,
      "SliceThickness": 2.7000000476837,
      "SmallestImagePixelValue": 0,
      "SoftwareVersions": "syngo MR E11",
      "SpacingBetweenSlices": 2.700000098374,
      "SpecificCharacterSet": "ISO_IR 100",
      "StudyID": "1",
      "StudyTime": "213211.994000",
      "TransmitCoilName": "Body",
      "VariableFlipAngleFlag": "N",
      "WindowCenterWidthExplanation": "Algo1"
    },
    "slices": {}
  },
  "time": {
    "samples": {
      "AcquisitionNumber": [1, 2, 3, 4, 5, 6, 7, 8, 9, 10, 11, 12, 13, 14, 15, 16, 17, 18, 19, 20, 21, 22, 23, 24, 25, 26, 27, 28, 29, 30, 31, 32, 33, 34, 35, 36, 37, 38, 39, 40, 41, 42, 43, 44, 45, 46, 47, 48, 49, 50, 51, 52, 53, 54, 55, 56, 57, 58, 59, 60, 61, 62, 63, 64, 65, 66, 67, 68, 69, 70, 71, 72, 73, 74, 75, 76, 77, 78, 79, 80, 81, 82, 83, 84, 85, 86, 87, 88, 89, 90, 91, 92, 93, 94, 95, 96, 97, 98, 99, 100, 101, 102, 103, 104, 105, 106, 107, 108, 109, 110, 111, 112, 113, 114, 115, 116, 117, 118, 119, 120, 121, 122, 123, 124, 125, 126, 127, 128, 129, 130, 131, 132, 133, 134, 135, 136, 137, 138, 139, 140, 141, 142, 143, 144, 145, 146, 147, 148, 149, 150, 151, 152, 153, 154, 155, 156, 157, 158, 159, 160, 161, 162, 163, 164, 165, 166, 167, 168, 169, 170, 171, 172, 173, 174, 175, 176, 177, 178, 179, 180, 181, 182, 183, 184, 185, 186, 187, 188, 189, 190, 191, 192, 193, 194, 195, 196, 197, 198, 199, 200, 201, 202, 203, 204, 205, 206, 207, 208, 209, 210, 211, 212, 213, 214, 215, 216, 217, 218, 219, 220, 221, 222, 223, 224, 225, 226, 227, 228, 229, 230, 231, 232, 233, 234, 235, 236, 237, 238, 239, 240, 241, 242, 243, 244, 245, 246, 247, 248, 249, 250, 251, 252, 253, 254, 255, 256, 257, 258, 259, 260, 261, 262, 263, 264, 265, 266, 267, 268, 269, 270, 271, 272, 273, 274, 275, 276, 277, 278, 279, 280, 281, 282, 283, 284, 285, 286, 287, 288, 289, 290, 291, 292, 293, 294, 295, 296, 297, 298, 299, 300, 301, 302, 303, 304, 305, 306, 307, 308, 309, 310, 311, 312, 313, 314, 315, 316, 317, 318, 319, 320, 321, 322, 323, 324, 325, 326, 327, 328, 329, 330, 331, 332, 333, 334, 335, 336, 337, 338, 339, 340, 341, 342, 343, 344, 345, 346, 347, 348, 349, 350, 351, 352, 353, 354, 355, 356, 357, 358, 359, 360, 361, 362, 363, 364, 365, 366, 367, 368, 369, 370, 371, 372, 373, 374, 375, 376, 377, 378, 379, 380, 381, 382, 383, 384, 385, 386, 387, 388, 389, 390, 391, 392, 393, 394, 395, 396, 397, 398, 399, 400, 401, 402, 403, 404, 405, 406, 407, 408, 409, 410, 411, 412, 413, 414, 415, 416, 417, 418, 419, 420, 421, 422, 423, 424, 425, 426, 427, 428, 429, 430, 431, 432, 433, 434, 435, 436, 437, 438, 439, 440, 441, 442, 443, 444, 445, 446, 447, 448, 449, 450, 451, 452, 453, 454, 455, 456, 457, 458, 459, 460, 461, 462, 463, 464, 465, 466, 467, 468, 469, 470, 471, 472, 473, 474, 475, 476, 477, 478, 479, 480, 481, 482, 483, 484, 485, 486, 487, 488, 489, 490, 491, 492, 493, 494, 495, 496, 497, 498, 499, 500, 501, 502, 503, 504, 505, 506, 507, 508, 509, 510, 511, 512, 513, 514, 515, 516, 517, 518, 519, 520, 521, 522, 523, 524, 525, 526, 527, 528, 529, 530, 531, 532, 533, 534, 535, 536, 537, 538, 539, 540, 541, 542, 543, 544, 545, 546, 547, 548, 549, 550, 551, 552, 553, 554, 555, 556, 557, 558, 559, 560, 561, 562, 563, 564, 565, 566, 567, 568, 569, 570, 571, 572, 573, 574, 575, 576, 577, 578, 579, 580, 581, 582, 583, 584, 585, 586, 587, 588, 589, 590, 591, 592, 593, 594, 595, 596, 597, 598, 599, 600, 601, 602, 603, 604, 605, 606, 607, 608, 609, 610, 611, 612, 613, 614, 615, 616, 617, 618, 619, 620, 621, 622, 623, 624, 625, 626, 627, 628, 629, 630, 631, 632, 633, 634, 635, 636, 637, 638, 639, 640, 641, 642, 643, 644, 645, 646, 647, 648, 649, 650, 651, 652, 653, 654, 655, 656, 657, 658, 659, 660, 661, 662, 663, 664, 665, 666, 667, 668, 669, 670, 671, 672, 673, 674, 675, 676, 677, 678, 679, 680, 681, 682, 683, 684, 685, 686, 687, 688, 689, 690, 691, 692, 693, 694, 695, 696, 697, 698, 699, 700, 701, 702, 703, 704, 705, 706, 707, 708, 709, 710, 711, 712, 713, 714, 715, 716, 717, 718, 719, 720, 721, 722, 723, 724, 725, 726, 727, 728, 729, 730, 731, 732, 733, 734, 735, 736, 737, 738, 739, 740, 741, 742, 743, 744, 745, 746, 747, 748, 749, 750, 751, 752, 753, 754, 755, 756, 757, 758, 759, 760, 761, 762, 763, 764, 765, 766, 767, 768, 769, 770, 771, 772, 773, 774, 775, 776, 777, 778, 779, 780, 781, 782, 783, 784, 785, 786, 787, 788, 789, 790, 791, 792, 793, 794, 795, 796, 797, 798, 799, 800, 801, 802, 803, 804, 805, 806, 807, 808, 809, 810, 811, 812, 813, 814, 815, 816, 817, 818, 819, 820, 821, 822, 823, 824, 825, 826, 827, 828, 829, 830, 831, 832, 833, 834, 835, 836, 837, 838, 839, 840, 841, 842, 843, 844, 845, 846, 847, 848, 849, 850, 851, 852, 853, 854, 855, 856, 857, 858, 859, 860, 861, 862, 863, 864, 865, 866, 867, 868, 869, 870, 871, 872],
      "AcquisitionTime": ["222306.880000", "222307.340000", "222307.800000", "222308.260000", "222308.720000", "222309.180000", "222309.640000", "222310.100000", "222310.560000", "222311.020000", "222311.480000", "222311.940000", "222312.400000", "222312.860000", "222313.320000", "222313.780000", "222314.240000", "222314.700000", "222315.160000", "222315.620000", "222316.080000", "222316.540000", "222317.000000", "222317.460000", "222317.920000", "222318.380000", "222318.840000", "222319.300000", "222319.760000", "222320.220000", "222320.680000", "222321.140000", "222321.600000", "222322.060000", "222322.520000", "222322.980000", "222323.440000", "222323.900000", "222324.360000", "222324.820000", "222325.280000", "222325.740000", "222326.200000", "222326.660000", "222327.120000", "222327.580000", "222328.040000", "222328.500000", "222328.960000", "222329.420000", "222329.880000", "222330.340000", "222330.800000", "222331.260000", "222331.720000", "222332.180000", "222332.640000", "222333.100000", "222333.560000", "222334.020000", "222334.480000", "222334.940000", "222335.400000", "222335.860000", "222336.320000", "222336.780000", "222337.240000", "222337.700000", "222338.160000", "222338.620000", "222339.080000", "222339.540000", "222340.000000", "222340.460000", "222340.920000", "222341.380000", "222341.840000", "222342.300000", "222342.760000", "222343.220000", "222343.680000", "222344.140000", "222344.600000", "222345.060000", "222345.520000", "222345.980000", "222346.440000", "222346.900000", "222347.360000", "222347.820000", "222348.280000", "222348.740000", "222349.200000", "222349.660000", "222350.120000", "222350.580000", "222351.040000", "222351.500000", "222351.960000", "222352.420000", "222352.880000", "222353.340000", "222353.800000", "222354.260000", "222354.720000", "222355.180000", "222355.640000", "222356.100000", "222356.560000", "222357.020000", "222357.480000", "222357.940000", "222358.400000", "222358.860000", "222359.320000", "222359.780000", "222400.240000", "222400.700000", "222401.160000", "222401.620000", "222402.080000", "222402.540000", "222403.000000", "222403.460000", "222403.920000", "222404.380000", "222404.840000", "222405.300000", "222405.760000", "222406.220000", "222406.680000", "222407.140000", "222407.600000", "222408.060000", "222408.520000", "222408.980000", "222409.440000", "222409.900000", "222410.360000", "222410.820000", "222411.280000", "222411.740000", "222412.200000", "222412.660000", "222413.120000", "222413.580000", "222414.040000", "222414.500000", "222414.960000", "222415.420000", "222415.880000", "222416.340000", "222416.800000", "222417.260000", "222417.720000", "222418.180000", "222418.640000", "222419.100000", "222419.560000", "222420.020000", "222420.480000", "222420.940000", "222421.400000", "222421.860000", "222422.320000", "222422.780000", "222423.240000", "222423.700000", "222424.160000", "222424.620000", "222425.080000", "222425.540000", "222426.000000", "222426.460000", "222426.920000", "222427.380000", "222427.840000", "222428.300000", "222428.760000", "222429.220000", "222429.680000", "222430.140000", "222430.600000", "222431.060000", "222431.520000", "222431.980000", "222432.440000", "222432.900000", "222433.360000", "222433.820000", "222434.280000", "222434.740000", "222435.200000", "222435.660000", "222436.120000", "222436.580000", "222437.040000", "222437.500000", "222437.960000", "222438.420000", "222438.880000", "222439.340000", "222439.800000", "222440.260000", "222440.720000", "222441.180000", "222441.640000", "222442.100000", "222442.560000", "222443.020000", "222443.480000", "222443.940000", "222444.400000", "222444.860000", "222445.320000", "222445.780000", "222446.240000", "222446.700000", "222447.160000", "222447.620000", "222448.080000", "222448.540000", "222449.000000", "222449.460000", "222449.920000", "222450.380000", "222450.840000", "222451.300000", "222451.760000", "222452.220000", "222452.680000", "222453.140000", "222453.600000", "222454.060000", "222454.520000", "222454.980000", "222455.440000", "222455.900000", "222456.360000", "222456.820000", "222457.280000", "222457.740000", "222458.200000", "222458.660000", "222459.120000", "222459.580000", "222500.040000", "222500.500000", "222500.960000", "222501.420000", "222501.880000", "222502.340000", "222502.800000", "222503.260000", "222503.720000", "222504.180000", "222504.640000", "222505.100000", "222505.560000", "222506.020000", "222506.480000", "222506.940000", "222507.400000", "222507.860000", "222508.320000", "222508.780000", "222509.240000", "222509.700000", "222510.160000", "222510.620000", "222511.080000", "222511.540000", "222512.000000", "222512.460000", "222512.920000", "222513.380000", "222513.840000", "222514.300000", "222514.760000", "222515.220000", "222515.680000", "222516.140000", "222516.600000", "222517.060000", "222517.520000", "222517.980000", "222518.440000", "222518.900000", "222519.360000", "222519.820000", "222520.280000", "222520.740000", "222521.200000", "222521.660000", "222522.120000", "222522.580000", "222523.040000", "222523.500000", "222523.960000", "222524.420000", "222524.880000", "222525.340000", "222525.800000", "222526.260000", "222526.720000", "222527.180000", "222527.640000", "222528.100000", "222528.560000", "222529.020000", "222529.480000", "222529.940000", "222530.400000", "222530.860000", "222531.320000", "222531.780000", "222532.240000", "222532.700000", "222533.160000", "222533.620000", "222534.080000", "222534.540000", "222535.000000", "222535.460000", "222535.920000", "222536.380000", "222536.840000", "222537.300000", "222537.760000", "222538.220000", "222538.680000", "222539.140000", "222539.600000", "222540.060000", "222540.520000", "222540.980000", "222541.440000", "222541.900000", "222542.360000", "222542.820000", "222543.280000", "222543.740000", "222544.200000", "222544.660000", "222545.120000", "222545.580000", "222546.040000", "222546.500000", "222546.960000", "222547.420000", "222547.880000", "222548.340000", "222548.800000", "222549.260000", "222549.720000", "222550.180000", "222550.640000", "222551.100000", "222551.560000", "222552.020000", "222552.480000", "222552.940000", "222553.400000", "222553.860000", "222554.320000", "222554.780000", "222555.240000", "222555.700000", "222556.160000", "222556.620000", "222557.080000", "222557.540000", "222558.000000", "222558.460000", "222558.920000", "222559.380000", "222559.840000", "222600.300000", "222600.760000", "222601.220000", "222601.680000", "222602.140000", "222602.600000", "222603.060000", "222603.520000", "222603.980000", "222604.440000", "222604.900000", "222605.360000", "222605.820000", "222606.280000", "222606.740000", "222607.200000", "222607.660000", "222608.120000", "222608.580000", "222609.040000", "222609.500000", "222609.960000", "222610.420000", "222610.880000", "222611.340000", "222611.800000", "222612.260000", "222612.720000", "222613.180000", "222613.640000", "222614.100000", "222614.560000", "222615.020000", "222615.480000", "222615.940000", "222616.400000", "222616.860000", "222617.320000", "222617.780000", "222618.240000", "222618.700000", "222619.160000", "222619.620000", "222620.080000", "222620.540000", "222621.000000", "222621.460000", "222621.920000", "222622.380000", "222622.840000", "222623.300000", "222623.760000", "222624.220000", "222624.680000", "222625.140000", "222625.600000", "222626.060000", "222626.520000", "222626.980000", "222627.440000", "222627.900000", "222628.360000", "222628.820000", "222629.280000", "222629.740000", "222630.200000", "222630.660000", "222631.120000", "222631.580000", "222632.040000", "222632.500000", "222632.960000", "222633.420000", "222633.880000", "222634.340000", "222634.800000", "222635.260000", "222635.720000", "222636.180000", "222636.640000", "222637.100000", "222637.560000", "222638.020000", "222638.480000", "222638.940000", "222639.400000", "222639.860000", "222640.320000", "222640.780000", "222641.240000", "222641.700000", "222642.160000", "222642.620000", "222643.080000", "222643.540000", "222644.000000", "222644.460000", "222644.920000", "222645.380000", "222645.840000", "222646.300000", "222646.760000", "222647.220000", "222647.680000", "222648.140000", "222648.600000", "222649.060000", "222649.520000", "222649.980000", "222650.440000", "222650.900000", "222651.360000", "222651.820000", "222652.280000", "222652.740000", "222653.200000", "222653.660000", "222654.120000", "222654.580000", "222655.040000", "222655.500000", "222655.960000", "222656.420000", "222656.880000", "222657.340000", "222657.800000", "222658.260000", "222658.720000", "222659.180000", "222659.640000", "222700.100000", "222700.560000", "222701.020000", "222701.480000", "222701.940000", "222702.400000", "222702.860000", "222703.320000", "222703.780000", "222704.240000", "222704.700000", "222705.160000", "222705.620000", "222706.080000", "222706.540000", "222707.000000", "222707.460000", "222707.920000", "222708.380000", "222708.840000", "222709.300000", "222709.760000", "222710.220000", "222710.680000", "222711.140000", "222711.600000", "222712.060000", "222712.520000", "222712.980000", "222713.440000", "222713.900000", "222714.360000", "222714.820000", "222715.280000", "222715.740000", "222716.200000", "222716.660000", "222717.120000", "222717.580000", "222718.040000", "222718.500000", "222718.960000", "222719.420000", "222719.880000", "222720.340000", "222720.800000", "222721.260000", "222721.720000", "222722.180000", "222722.640000", "222723.100000", "222723.560000", "222724.020000", "222724.480000", "222724.940000", "222725.400000", "222725.860000", "222726.320000", "222726.780000", "222727.240000", "222727.700000", "222728.160000", "222728.620000", "222729.080000", "222729.540000", "222730.000000", "222730.460000", "222730.920000", "222731.380000", "222731.840000", "222732.300000", "222732.760000", "222733.220000", "222733.680000", "222734.140000", "222734.600000", "222735.060000", "222735.520000", "222735.980000", "222736.440000", "222736.900000", "222737.360000", "222737.820000", "222738.280000", "222738.740000", "222739.200000", "222739.660000", "222740.120000", "222740.580000", "222741.040000", "222741.500000", "222741.960000", "222742.420000", "222742.880000", "222743.340000", "222743.800000", "222744.260000", "222744.720000", "222745.180000", "222745.640000", "222746.100000", "222746.560000", "222747.020000", "222747.480000", "222747.940000", "222748.400000", "222748.860000", "222749.320000", "222749.780000", "222750.240000", "222750.700000", "222751.160000", "222751.620000", "222752.080000", "222752.540000", "222753.000000", "222753.460000", "222753.920000", "222754.380000", "222754.840000", "222755.300000", "222755.760000", "222756.220000", "222756.680000", "222757.140000", "222757.600000", "222758.060000", "222758.520000", "222758.980000", "222759.440000", "222759.900000", "222800.360000", "222800.820000", "222801.280000", "222801.740000", "222802.200000", "222802.660000", "222803.120000", "222803.580000", "222804.040000", "222804.500000", "222804.960000", "222805.420000", "222805.880000", "222806.340000", "222806.800000", "222807.260000", "222807.720000", "222808.180000", "222808.640000", "222809.100000", "222809.560000", "222810.020000", "222810.480000", "222810.940000", "222811.400000", "222811.860000", "222812.320000", "222812.780000", "222813.240000", "222813.700000", "222814.160000", "222814.620000", "222815.080000", "222815.540000", "222816.000000", "222816.460000", "222816.920000", "222817.380000", "222817.840000", "222818.300000", "222818.760000", "222819.220000", "222819.680000", "222820.140000", "222820.600000", "222821.060000", "222821.520000", "222821.980000", "222822.440000", "222822.900000", "222823.360000", "222823.820000", "222824.280000", "222824.740000", "222825.200000", "222825.660000", "222826.120000", "222826.580000", "222827.040000", "222827.500000", "222827.960000", "222828.420000", "222828.880000", "222829.340000", "222829.800000", "222830.260000", "222830.720000", "222831.180000", "222831.640000", "222832.100000", "222832.560000", "222833.020000", "222833.480000", "222833.940000", "222834.400000", "222834.860000", "222835.320000", "222835.780000", "222836.240000", "222836.700000", "222837.160000", "222837.620000", "222838.080000", "222838.540000", "222839.000000", "222839.460000", "222839.920000", "222840.380000", "222840.840000", "222841.300000", "222841.760000", "222842.220000", "222842.680000", "222843.140000", "222843.600000", "222844.060000", "222844.520000", "222844.980000", "222845.440000", "222845.900000", "222846.360000", "222846.820000", "222847.280000", "222847.740000", "222848.200000", "222848.660000", "222849.120000", "222849.580000", "222850.040000", "222850.500000", "222850.960000", "222851.420000", "222851.880000", "222852.340000", "222852.800000", "222853.260000", "222853.720000", "222854.180000", "222854.640000", "222855.100000", "222855.560000", "222856.020000", "222856.480000", "222856.940000", "222857.400000", "222857.860000", "222858.320000", "222858.780000", "222859.240000", "222859.700000", "222900.160000", "222900.620000", "222901.080000", "222901.540000", "222902.000000", "222902.460000", "222902.920000", "222903.380000", "222903.840000", "222904.300000", "222904.760000", "222905.220000", "222905.680000", "222906.140000", "222906.600000", "222907.060000", "222907.520000", "222907.980000", "222908.440000", "222908.900000", "222909.360000", "222909.820000", "222910.280000", "222910.740000", "222911.200000", "222911.660000", "222912.120000", "222912.580000", "222913.040000", "222913.500000", "222913.960000", "222914.420000", "222914.880000", "222915.340000", "222915.800000", "222916.260000", "222916.720000", "222917.180000", "222917.640000", "222918.100000", "222918.560000", "222919.020000", "222919.480000", "222919.940000", "222920.400000", "222920.860000", "222921.320000", "222921.780000", "222922.240000", "222922.700000", "222923.160000", "222923.620000", "222924.080000", "222924.540000", "222925.000000", "222925.460000", "222925.920000", "222926.380000", "222926.840000", "222927.300000", "222927.760000", "222928.220000", "222928.680000", "222929.140000", "222929.600000", "222930.060000", "222930.520000", "222930.980000", "222931.440000", "222931.900000", "222932.360000", "222932.820000", "222933.280000", "222933.740000", "222934.200000", "222934.660000", "222935.120000", "222935.580000", "222936.040000", "222936.500000", "222936.960000", "222937.420000", "222937.880000", "222938.340000", "222938.800000", "222939.260000", "222939.720000", "222940.180000", "222940.640000", "222941.100000", "222941.560000", "222942.020000", "222942.480000", "222942.940000", "222943.400000", "222943.860000", "222944.320000", "222944.780000", "222945.240000", "222945.700000", "222946.160000", "222946.620000", "222947.080000", "222947.540000"],
