{
  "AcquisitionMatrixPE": 82,
  "AcquisitionNumber": 1,
  "AcquisitionTime": "22:30:10.487500",
  "BandwidthPerPixelPhaseEncode": 24.888,
  "BaseResolution": 82,
  "BodyPartExamined": "BRAIN",
  "ConsistencyInfo": "N4_VE11E_LATEST_20181129",
  "ConversionSoftware": "dcm2niix",
  "ConversionSoftwareVersion": "v1.0.20201102",
  "DerivedVendorReportedEchoSpacing": 0.00049,
  "DeviceSerialNumber": "66112",
  "DwellTime": 2e-06,
  "EchoTime": 0.0272,
  "EchoTrainLength": 82,
  "EffectiveEchoSpacing": 0.00049,
  "FlipAngle": 44,
  "ImageComments": "Unaliased MB8/PE3",
  "ImageOrientationPatientDICOM": [0.999738, 0.0218743, 0.00668161, -0.0218144, 0.999722, -0.00891911],
  "ImageType": [
    "ORIGINAL",
    "PRIMARY",
    "M",
    "MB",
    "ND",
    "NORM",
    "MOSAIC"
],
  "ImagingFrequency": 123.252,
  "InPlanePhaseEncodingDirectionDICOM": "COL",
  "InstitutionAddress": "Maynard 3,Hanover,NH,US,03755",
  "InstitutionName": "Dartmouth College - PBS",
  "InstitutionalDepartmentName": "Department",
  "MRAcquisitionType": "2D",
  "MagneticFieldStrength": 3,
  "Manufacturer": "Siemens",
  "ManufacturersModelName": "Prisma",
  "Modality": "MR",
  "MultibandAccelerationFactor": 8,
  "PartialFourier": 1,
  "PatientPosition": "HFS",
  "PercentPhaseFOV": 100,
  "PercentSampling": 100,
  "PhaseEncodingDirection": "j-",
  "PhaseEncodingSteps": 82,
  "PhaseResolution": 1,
  "PixelBandwidth": 3050,
  "ProcedureStepDescription": "Wager_Wager^1076_spacetop",
  "ProtocolName": "func_run-06_task-social_acq-ap-mb8",
  "PulseSequenceDetails": "%CustomerSeq%\\cmrr_mbep2d_bold",
  "ReceiveCoilActiveElements": "HEA;HEP",
  "ReceiveCoilName": "Head_32",
  "ReconMatrixPE": 82,
  "RepetitionTime": 0.46,
  "SAR": 0.0944853,
  "ScanOptions": "FS",
  "ScanningSequence": "EP",
  "SequenceName": "epfid2d1_82",
  "SequenceVariant": "SK\\SS",
  "SeriesDescription": "func_run-06_task-social_acq-ap-mb8",
  "SeriesNumber": 22,
  "ShimSetting": [4162, -7785, -7239, 580, -37, -11, 20, 62],
  "SliceThickness": 2.7,
  "SliceTiming": [0, 0.25, 0.0625, 0.3125, 0.125, 0.375, 0.1875, 0, 0.25, 0.0625, 0.3125, 0.125, 0.375, 0.1875, 0, 0.25, 0.0625, 0.3125, 0.125, 0.375, 0.1875, 0, 0.25, 0.0625, 0.3125, 0.125, 0.375, 0.1875, 0, 0.25, 0.0625, 0.3125, 0.125, 0.375, 0.1875, 0, 0.25, 0.0625, 0.3125, 0.125, 0.375, 0.1875, 0, 0.25, 0.0625, 0.3125, 0.125, 0.375, 0.1875, 0, 0.25, 0.0625, 0.3125, 0.125, 0.375, 0.1875],
  "SoftwareVersions": "syngo MR E11",
  "SpacingBetweenSlices": 2.7,
  "StationName": "AWP66112",
  "TaskName": "social",
  "TotalReadoutTime": 0.03969,
  "TxRefAmp": 253.67,
  "WipMemBlock": "ccac185c-8369-48d8-ae0e-15a6b179eccf||Sequence: R016 ve11e/master r/434b28f1; Aug  7 2019 18:53:46 by eja",
  "dcmmeta_affine": [
    [-2.682224988937378, -0.058526311069726944, 0.018562113866209984, 115.07896423339844],
    [-0.05868718773126602, 2.6821818351745605, -0.023681748658418655, -93.421142578125],
    [0.017926279455423355, 0.023929309099912643, 2.6998324394226074, -71.71964263916016],
    [0.0, 0.0, 0.0, 1.0]
],
  "dcmmeta_reorient_transform": [
    [0.0, -1.0, 0.0, 81.0],
    [1.0, 0.0, 0.0, 0.0],
    [0.0, 0.0, 1.0, 0.0],
    [0.0, 0.0, 0.0, 1.0]
],
  "dcmmeta_shape": [82, 82, 56, 872],
  "dcmmeta_slice_dim": 2,
  "dcmmeta_version": 0.6,
  "global": {
    "const": {
      "AccessionNumber": "A004111",
      "AcquisitionMatrix": [82, 0, 0, 82],
      "AngioFlag": "N",
      "BitsAllocated": 16,
      "BitsStored": 16,
      "BodyPartExamined": "BRAIN",
      "Columns": 656,
      "EchoNumbers": 1,
      "EchoTime": 27.2,
      "EchoTrainLength": 82,
      "FlipAngle": 44.0,
      "HighBit": 15,
      "ImageOrientationPatient": [0.99973840098591, 0.02187431459006, 0.00668161322921, -0.0218143516679, 0.99972225323541, -0.008919105741],
      "ImagePositionPatient": [-863.33986821123, -910.46495252112, -68.058502880588],
      "ImageType": [
        "ORIGINAL",
        "PRIMARY",
        "M",
        "MB",
        "ND",
        "NORM",
        "MOSAIC"
],
      "ImagedNucleus": "1H",
      "ImagingFrequency": 123.252216,
      "InPlanePhaseEncodingDirection": "COL",
      "MRAcquisitionType": "2D",
      "MagneticFieldStrength": 3.0,
      "Manufacturer": "SIEMENS",
      "ManufacturerModelName": "Prisma",
      "Modality": "MR",
      "NumberOfAverages": 1.0,
      "NumberOfPhaseEncodingSteps": 82,
      "PercentPhaseFieldOfView": 100.0,
      "PercentSampling": 100.0,
      "PerformedProcedureStepStartTime": "213212.058000",
      "PhotometricInterpretation": "MONOCHROME2",
      "PixelBandwidth": 3050.0,
      "PixelRepresentation": 0,
      "PixelSpacing": [2.6829268932343, 2.6829268932343],
      "ProtocolName": "func_run-06_task-social_acq-ap-mb8",
      "RepetitionTime": 460.0,
      "Rows": 656,
      "SAR": 0.09448533089734,
      "SamplesPerPixel": 1,
      "ScanOptions": "FS",
      "ScanningSequence": "EP",
      "SequenceName": "epfid2d1_82",
      "SequenceVariant": [
        "SK",
        "SS"
],
      "SeriesDescription": "func_run-06_task-social_acq-ap-mb8",
      "SeriesNumber": 22,
      "SeriesTime": "223025.623000",
      "SliceLocation": -70.104642566843,
      "SliceThickness": 2.7000000476837,
      "SmallestImagePixelValue": 0,
      "SoftwareVersions": "syngo MR E11",
      "SpacingBetweenSlices": 2.700000098374,
      "SpecificCharacterSet": "ISO_IR 100",
      "StudyID": "1",
      "StudyTime": "213211.994000",
      "TransmitCoilName": "Body",
      "VariableFlipAngleFlag": "N",
      "WindowCenterWidthExplanation": "Algo1"
    },
    "slices": {}
  },
  "time": {
    "samples": {
      "AcquisitionNumber": [1, 2, 3, 4, 5, 6, 7, 8, 9, 10, 11, 12, 13, 14, 15, 16, 17, 18, 19, 20, 21, 22, 23, 24, 25, 26, 27, 28, 29, 30, 31, 32, 33, 34, 35, 36, 37, 38, 39, 40, 41, 42, 43, 44, 45, 46, 47, 48, 49, 50, 51, 52, 53, 54, 55, 56, 57, 58, 59, 60, 61, 62, 63, 64, 65, 66, 67, 68, 69, 70, 71, 72, 73, 74, 75, 76, 77, 78, 79, 80, 81, 82, 83, 84, 85, 86, 87, 88, 89, 90, 91, 92, 93, 94, 95, 96, 97, 98, 99, 100, 101, 102, 103, 104, 105, 106, 107, 108, 109, 110, 111, 112, 113, 114, 115, 116, 117, 118, 119, 120, 121, 122, 123, 124, 125, 126, 127, 128, 129, 130, 131, 132, 133, 134, 135, 136, 137, 138, 139, 140, 141, 142, 143, 144, 145, 146, 147, 148, 149, 150, 151, 152, 153, 154, 155, 156, 157, 158, 159, 160, 161, 162, 163, 164, 165, 166, 167, 168, 169, 170, 171, 172, 173, 174, 175, 176, 177, 178, 179, 180, 181, 182, 183, 184, 185, 186, 187, 188, 189, 190, 191, 192, 193, 194, 195, 196, 197, 198, 199, 200, 201, 202, 203, 204, 205, 206, 207, 208, 209, 210, 211, 212, 213, 214, 215, 216, 217, 218, 219, 220, 221, 222, 223, 224, 225, 226, 227, 228, 229, 230, 231, 232, 233, 234, 235, 236, 237, 238, 239, 240, 241, 242, 243, 244, 245, 246, 247, 248, 249, 250, 251, 252, 253, 254, 255, 256, 257, 258, 259, 260, 261, 262, 263, 264, 265, 266, 267, 268, 269, 270, 271, 272, 273, 274, 275, 276, 277, 278, 279, 280, 281, 282, 283, 284, 285, 286, 287, 288, 289, 290, 291, 292, 293, 294, 295, 296, 297, 298, 299, 300, 301, 302, 303, 304, 305, 306, 307, 308, 309, 310, 311, 312, 313, 314, 315, 316, 317, 318, 319, 320, 321, 322, 323, 324, 325, 326, 327, 328, 329, 330, 331, 332, 333, 334, 335, 336, 337, 338, 339, 340, 341, 342, 343, 344, 345, 346, 347, 348, 349, 350, 351, 352, 353, 354, 355, 356, 357, 358, 359, 360, 361, 362, 363, 364, 365, 366, 367, 368, 369, 370, 371, 372, 373, 374, 375, 376, 377, 378, 379, 380, 381, 382, 383, 384, 385, 386, 387, 388, 389, 390, 391, 392, 393, 394, 395, 396, 397, 398, 399, 400, 401, 402, 403, 404, 405, 406, 407, 408, 409, 410, 411, 412, 413, 414, 415, 416, 417, 418, 419, 420, 421, 422, 423, 424, 425, 426, 427, 428, 429, 430, 431, 432, 433, 434, 435, 436, 437, 438, 439, 440, 441, 442, 443, 444, 445, 446, 447, 448, 449, 450, 451, 452, 453, 454, 455, 456, 457, 458, 459, 460, 461, 462, 463, 464, 465, 466, 467, 468, 469, 470, 471, 472, 473, 474, 475, 476, 477, 478, 479, 480, 481, 482, 483, 484, 485, 486, 487, 488, 489, 490, 491, 492, 493, 494, 495, 496, 497, 498, 499, 500, 501, 502, 503, 504, 505, 506, 507, 508, 509, 510, 511, 512, 513, 514, 515, 516, 517, 518, 519, 520, 521, 522, 523, 524, 525, 526, 527, 528, 529, 530, 531, 532, 533, 534, 535, 536, 537, 538, 539, 540, 541, 542, 543, 544, 545, 546, 547, 548, 549, 550, 551, 552, 553, 554, 555, 556, 557, 558, 559, 560, 561, 562, 563, 564, 565, 566, 567, 568, 569, 570, 571, 572, 573, 574, 575, 576, 577, 578, 579, 580, 581, 582, 583, 584, 585, 586, 587, 588, 589, 590, 591, 592, 593, 594, 595, 596, 597, 598, 599, 600, 601, 602, 603, 604, 605, 606, 607, 608, 609, 610, 611, 612, 613, 614, 615, 616, 617, 618, 619, 620, 621, 622, 623, 624, 625, 626, 627, 628, 629, 630, 631, 632, 633, 634, 635, 636, 637, 638, 639, 640, 641, 642, 643, 644, 645, 646, 647, 648, 649, 650, 651, 652, 653, 654, 655, 656, 657, 658, 659, 660, 661, 662, 663, 664, 665, 666, 667, 668, 669, 670, 671, 672, 673, 674, 675, 676, 677, 678, 679, 680, 681, 682, 683, 684, 685, 686, 687, 688, 689, 690, 691, 692, 693, 694, 695, 696, 697, 698, 699, 700, 701, 702, 703, 704, 705, 706, 707, 708, 709, 710, 711, 712, 713, 714, 715, 716, 717, 718, 719, 720, 721, 722, 723, 724, 725, 726, 727, 728, 729, 730, 731, 732, 733, 734, 735, 736, 737, 738, 739, 740, 741, 742, 743, 744, 745, 746, 747, 748, 749, 750, 751, 752, 753, 754, 755, 756, 757, 758, 759, 760, 761, 762, 763, 764, 765, 766, 767, 768, 769, 770, 771, 772, 773, 774, 775, 776, 777, 778, 779, 780, 781, 782, 783, 784, 785, 786, 787, 788, 789, 790, 791, 792, 793, 794, 795, 796, 797, 798, 799, 800, 801, 802, 803, 804, 805, 806, 807, 808, 809, 810, 811, 812, 813, 814, 815, 816, 817, 818, 819, 820, 821, 822, 823, 824, 825, 826, 827, 828, 829, 830, 831, 832, 833, 834, 835, 836, 837, 838, 839, 840, 841, 842, 843, 844, 845, 846, 847, 848, 849, 850, 851, 852, 853, 854, 855, 856, 857, 858, 859, 860, 861, 862, 863, 864, 865, 866, 867, 868, 869, 870, 871, 872],
      "AcquisitionTime": ["223010.487500", "223010.947500", "223011.407500", "223011.867500", "223012.327500", "223012.787500", "223013.247500", "223013.707500", "223014.167500", "223014.627500", "223015.087500", "223015.547500", "223016.007500", "223016.467500", "223016.927500", "223017.387500", "223017.847500", "223018.307500", "223018.767500", "223019.227500", "223019.687500", "223020.147500", "223020.607500", "223021.067500", "223021.527500", "223021.987500", "223022.447500", "223022.907500", "223023.367500", "223023.827500", "223024.287500", "223024.747500", "223025.207500", "223025.667500", "223026.127500", "223026.587500", "223027.047500", "223027.507500", "223027.967500", "223028.427500", "223028.887500", "223029.347500", "223029.807500", "223030.267500", "223030.727500", "223031.187500", "223031.647500", "223032.107500", "223032.567500", "223033.027500", "223033.487500", "223033.947500", "223034.407500", "223034.867500", "223035.327500", "223035.787500", "223036.247500", "223036.707500", "223037.167500", "223037.627500", "223038.087500", "223038.547500", "223039.007500", "223039.467500", "223039.927500", "223040.387500", "223040.847500", "223041.307500", "223041.767500", "223042.227500", "223042.687500", "223043.147500", "223043.607500", "223044.067500", "223044.527500", "223044.987500", "223045.447500", "223045.907500", "223046.367500", "223046.827500", "223047.287500", "223047.747500", "223048.207500", "223048.667500", "223049.127500", "223049.587500", "223050.047500", "223050.507500", "223050.967500", "223051.427500", "223051.887500", "223052.347500", "223052.807500", "223053.267500", "223053.727500", "223054.187500", "223054.647500", "223055.107500", "223055.567500", "223056.027500", "223056.487500", "223056.947500", "223057.407500", "223057.867500", "223058.327500", "223058.787500", "223059.247500", "223059.707500", "223100.167500", "223100.627500", "223101.087500", "223101.547500", "223102.007500", "223102.467500", "223102.927500", "223103.387500", "223103.847500", "223104.307500", "223104.767500", "223105.227500", "223105.687500", "223106.147500", "223106.607500", "223107.067500", "223107.527500", "223107.987500", "223108.447500", "223108.907500", "223109.367500", "223109.827500", "223110.287500", "223110.747500", "223111.207500", "223111.667500", "223112.127500", "223112.587500", "223113.047500", "223113.507500", "223113.967500", "223114.427500", "223114.887500", "223115.347500", "223115.807500", "223116.267500", "223116.727500", "223117.187500", "223117.647500", "223118.107500", "223118.567500", "223119.027500", "223119.487500", "223119.947500", "223120.407500", "223120.867500", "223121.327500", "223121.787500", "223122.247500", "223122.707500", "223123.167500", "223123.627500", "223124.087500", "223124.547500", "223125.007500", "223125.467500", "223125.927500", "223126.387500", "223126.847500", "223127.307500", "223127.767500", "223128.227500", "223128.687500", "223129.147500", "223129.607500", "223130.067500", "223130.527500", "223130.987500", "223131.447500", "223131.907500", "223132.367500", "223132.827500", "223133.287500", "223133.747500", "223134.207500", "223134.667500", "223135.127500", "223135.587500", "223136.047500", "223136.507500", "223136.967500", "223137.427500", "223137.887500", "223138.347500", "223138.807500", "223139.267500", "223139.727500", "223140.187500", "223140.647500", "223141.107500", "223141.567500", "223142.027500", "223142.487500", "223142.947500", "223143.407500", "223143.867500", "223144.327500", "223144.787500", "223145.247500", "223145.707500", "223146.167500", "223146.627500", "223147.087500", "223147.547500", "223148.007500", "223148.467500", "223148.927500", "223149.387500", "223149.847500", "223150.307500", "223150.767500", "223151.227500", "223151.687500", "223152.147500", "223152.607500", "223153.067500", "223153.527500", "223153.987500", "223154.447500", "223154.907500", "223155.367500", "223155.827500", "223156.287500", "223156.747500", "223157.207500", "223157.667500", "223158.127500", "223158.587500", "223159.047500", "223159.507500", "223159.967500", "223200.427500", "223200.887500", "223201.347500", "223201.807500", "223202.267500", "223202.727500", "223203.187500", "223203.647500", "223204.107500", "223204.567500", "223205.027500", "223205.487500", "223205.947500", "223206.407500", "223206.867500", "223207.327500", "223207.787500", "223208.247500", "223208.707500", "223209.167500", "223209.627500", "223210.087500", "223210.547500", "223211.007500", "223211.467500", "223211.927500", "223212.387500", "223212.847500", "223213.307500", "223213.767500", "223214.227500", "223214.687500", "223215.147500", "223215.607500", "223216.067500", "223216.527500", "223216.987500", "223217.447500", "223217.907500", "223218.367500", "223218.827500", "223219.287500", "223219.747500", "223220.207500", "223220.667500", "223221.127500", "223221.587500", "223222.047500", "223222.507500", "223222.967500", "223223.427500", "223223.887500", "223224.347500", "223224.807500", "223225.267500", "223225.727500", "223226.187500", "223226.647500", "223227.107500", "223227.567500", "223228.027500", "223228.487500", "223228.947500", "223229.407500", "223229.867500", "223230.327500", "223230.787500", "223231.247500", "223231.707500", "223232.167500", "223232.627500", "223233.087500", "223233.547500", "223234.007500", "223234.467500", "223234.927500", "223235.387500", "223235.847500", "223236.307500", "223236.767500", "223237.227500", "223237.687500", "223238.147500", "223238.607500", "223239.067500", "223239.527500", "223239.987500", "223240.447500", "223240.907500", "223241.367500", "223241.827500", "223242.287500", "223242.747500", "223243.207500", "223243.667500", "223244.127500", "223244.587500", "223245.047500", "223245.507500", "223245.967500", "223246.427500", "223246.887500", "223247.347500", "223247.807500", "223248.267500", "223248.727500", "223249.187500", "223249.647500", "223250.107500", "223250.567500", "223251.027500", "223251.487500", "223251.947500", "223252.407500", "223252.867500", "223253.327500", "223253.787500", "223254.247500", "223254.707500", "223255.167500", "223255.627500", "223256.087500", "223256.547500", "223257.007500", "223257.467500", "223257.927500", "223258.387500", "223258.847500", "223259.307500", "223259.767500", "223300.227500", "223300.687500", "223301.147500", "223301.607500", "223302.067500", "223302.527500", "223302.987500", "223303.447500", "223303.907500", "223304.367500", "223304.827500", "223305.287500", "223305.747500", "223306.207500", "223306.667500", "223307.127500", "223307.587500", "223308.047500", "223308.507500", "223308.967500", "223309.427500", "223309.887500", "223310.347500", "223310.807500", "223311.267500", "223311.727500", "223312.187500", "223312.647500", "223313.107500", "223313.567500", "223314.027500", "223314.487500", "223314.947500", "223315.407500", "223315.867500", "223316.327500", "223316.787500", "223317.247500", "223317.707500", "223318.167500", "223318.627500", "223319.087500", "223319.547500", "223320.007500", "223320.467500", "223320.927500", "223321.387500", "223321.847500", "223322.307500", "223322.767500", "223323.227500", "223323.687500", "223324.147500", "223324.607500", "223325.067500", "223325.527500", "223325.987500", "223326.447500", "223326.907500", "223327.367500", "223327.827500", "223328.287500", "223328.747500", "223329.207500", "223329.667500", "223330.127500", "223330.587500", "223331.047500", "223331.507500", "223331.967500", "223332.427500", "223332.887500", "223333.347500", "223333.807500", "223334.267500", "223334.727500", "223335.187500", "223335.647500", "223336.107500", "223336.567500", "223337.027500", "223337.487500", "223337.947500", "223338.407500", "223338.867500", "223339.327500", "223339.787500", "223340.247500", "223340.707500", "223341.167500", "223341.627500", "223342.087500", "223342.547500", "223343.007500", "223343.467500", "223343.927500", "223344.387500", "223344.847500", "223345.307500", "223345.767500", "223346.227500", "223346.687500", "223347.147500", "223347.607500", "223348.067500", "223348.527500", "223348.987500", "223349.447500", "223349.907500", "223350.367500", "223350.827500", "223351.287500", "223351.747500", "223352.207500", "223352.667500", "223353.127500", "223353.587500", "223354.047500", "223354.507500", "223354.967500", "223355.427500", "223355.887500", "223356.347500", "223356.807500", "223357.267500", "223357.727500", "223358.187500", "223358.647500", "223359.107500", "223359.567500", "223400.027500", "223400.487500", "223400.947500", "223401.407500", "223401.867500", "223402.327500", "223402.787500", "223403.247500", "223403.707500", "223404.167500", "223404.627500", "223405.087500", "223405.547500", "223406.007500", "223406.467500", "223406.927500", "223407.387500", "223407.847500", "223408.307500", "223408.767500", "223409.227500", "223409.687500", "223410.147500", "223410.607500", "223411.067500", "223411.527500", "223411.987500", "223412.447500", "223412.907500", "223413.367500", "223413.827500", "223414.287500", "223414.747500", "223415.207500", "223415.667500", "223416.127500", "223416.587500", "223417.047500", "223417.507500", "223417.967500", "223418.427500", "223418.887500", "223419.347500", "223419.807500", "223420.267500", "223420.727500", "223421.187500", "223421.647500", "223422.107500", "223422.567500", "223423.027500", "223423.487500", "223423.947500", "223424.407500", "223424.867500", "223425.327500", "223425.787500", "223426.247500", "223426.707500", "223427.167500", "223427.627500", "223428.087500", "223428.547500", "223429.007500", "223429.467500", "223429.927500", "223430.387500", "223430.847500", "223431.307500", "223431.767500", "223432.227500", "223432.687500", "223433.147500", "223433.607500", "223434.067500", "223434.527500", "223434.987500", "223435.447500", "223435.907500", "223436.367500", "223436.827500", "223437.287500", "223437.747500", "223438.207500", "223438.667500", "223439.127500", "223439.587500", "223440.047500", "223440.507500", "223440.967500", "223441.427500", "223441.887500", "223442.347500", "223442.807500", "223443.267500", "223443.727500", "223444.187500", "223444.647500", "223445.107500", "223445.567500", "223446.027500", "223446.487500", "223446.947500", "223447.407500", "223447.867500", "223448.327500", "223448.787500", "223449.247500", "223449.707500", "223450.167500", "223450.627500", "223451.087500", "223451.547500", "223452.007500", "223452.467500", "223452.927500", "223453.387500", "223453.847500", "223454.307500", "223454.767500", "223455.227500", "223455.687500", "223456.147500", "223456.607500", "223457.067500", "223457.527500", "223457.987500", "223458.447500", "223458.907500", "223459.367500", "223459.827500", "223500.287500", "223500.747500", "223501.207500", "223501.667500", "223502.127500", "223502.587500", "223503.047500", "223503.507500", "223503.967500", "223504.427500", "223504.887500", "223505.347500", "223505.807500", "223506.267500", "223506.727500", "223507.187500", "223507.647500", "223508.107500", "223508.567500", "223509.027500", "223509.487500", "223509.947500", "223510.407500", "223510.867500", "223511.327500", "223511.787500", "223512.247500", "223512.707500", "223513.167500", "223513.627500", "223514.087500", "223514.547500", "223515.007500", "223515.467500", "223515.927500", "223516.387500", "223516.847500", "223517.307500", "223517.767500", "223518.227500", "223518.687500", "223519.147500", "223519.607500", "223520.067500", "223520.527500", "223520.987500", "223521.447500", "223521.907500", "223522.367500", "223522.827500", "223523.287500", "223523.747500", "223524.207500", "223524.667500", "223525.127500", "223525.587500", "223526.047500", "223526.507500", "223526.967500", "223527.427500", "223527.887500", "223528.347500", "223528.807500", "223529.267500", "223529.727500", "223530.187500", "223530.647500", "223531.107500", "223531.567500", "223532.027500", "223532.487500", "223532.947500", "223533.407500", "223533.867500", "223534.327500", "223534.787500", "223535.247500", "223535.707500", "223536.167500", "223536.627500", "223537.087500", "223537.547500", "223538.007500", "223538.467500", "223538.927500", "223539.387500", "223539.847500", "223540.307500", "223540.767500", "223541.227500", "223541.687500", "223542.147500", "223542.607500", "223543.067500", "223543.527500", "223543.987500", "223544.447500", "223544.907500", "223545.367500", "223545.827500", "223546.287500", "223546.747500", "223547.207500", "223547.667500", "223548.127500", "223548.587500", "223549.047500", "223549.507500", "223549.967500", "223550.427500", "223550.887500", "223551.347500", "223551.807500", "223552.267500", "223552.727500", "223553.187500", "223553.647500", "223554.107500", "223554.567500", "223555.027500", "223555.487500", "223555.947500", "223556.407500", "223556.867500", "223557.327500", "223557.787500", "223558.247500", "223558.707500", "223559.167500", "223559.627500", "223600.087500", "223600.547500", "223601.007500", "223601.467500", "223601.927500", "223602.387500", "223602.847500", "223603.307500", "223603.767500", "223604.227500", "223604.687500", "223605.147500", "223605.607500", "223606.067500", "223606.527500", "223606.987500", "223607.447500", "223607.907500", "223608.367500", "223608.827500", "223609.287500", "223609.747500", "223610.207500", "223610.667500", "223611.127500", "223611.587500", "223612.047500", "223612.507500", "223612.967500", "223613.427500", "223613.887500", "223614.347500", "223614.807500", "223615.267500", "223615.727500", "223616.187500", "223616.647500", "223617.107500", "223617.567500", "223618.027500", "223618.487500", "223618.947500", "223619.407500", "223619.867500", "223620.327500", "223620.787500", "223621.247500", "223621.707500", "223622.167500", "223622.627500", "223623.087500", "223623.547500", "223624.007500", "223624.467500", "223624.927500", "223625.387500", "223625.847500", "223626.307500", "223626.767500", "223627.227500", "223627.687500", "223628.147500", "223628.607500", "223629.067500", "223629.527500", "223629.987500", "223630.447500", "223630.907500", "223631.367500", "223631.827500", "223632.287500", "223632.747500", "223633.207500", "223633.667500", "223634.127500", "223634.587500", "223635.047500", "223635.507500", "223635.967500", "223636.427500", "223636.887500", "223637.347500", "223637.807500", "223638.267500", "223638.727500", "223639.187500", "223639.647500", "223640.107500", "223640.567500", "223641.027500", "223641.487500", "223641.947500", "223642.407500", "223642.867500", "223643.327500", "223643.787500", "223644.247500", "223644.707500", "223645.167500", "223645.627500", "223646.087500", "223646.547500", "223647.007500", "223647.467500", "223647.927500", "223648.387500", "223648.847500", "223649.307500", "223649.767500", "223650.227500", "223650.687500", "223651.147500"],
