{
  "AcquisitionMatrixPE": 82,
  "AcquisitionNumber": 1,
  "AcquisitionTime": "09:19:37.652500",
  "BandwidthPerPixelPhaseEncode": 24.888,
  "BaseResolution": 82,
  "BodyPartExamined": "BRAIN",
  "ConsistencyInfo": "N4_VE11E_LATEST_20181129",
  "ConversionSoftware": "dcm2niix",
  "ConversionSoftwareVersion": "v1.0.20201102",
  "DerivedVendorReportedEchoSpacing": 0.00049,
  "DeviceSerialNumber": "66112",
  "DwellTime": 2e-06,
  "EchoTime": 0.0272,
  "EchoTrainLength": 82,
  "EffectiveEchoSpacing": 0.00049,
  "FlipAngle": 44,
  "ImageComments": "Unaliased MB8/PE3",
  "ImageOrientationPatientDICOM": [0.998857, 0.0099587, 0.0467509, -0.000522931, 0.980274, -0.197642],
  "ImageType": [
    "ORIGINAL",
    "PRIMARY",
    "M",
    "MB",
    "ND",
    "NORM",
    "MOSAIC"
],
  "ImagingFrequency": 123.259,
  "InPlanePhaseEncodingDirectionDICOM": "COL",
  "InstitutionAddress": "Maynard 3,Hanover,NH,US,03755",
  "InstitutionName": "Dartmouth College - PBS",
  "InstitutionalDepartmentName": "Department",
  "MRAcquisitionType": "2D",
  "MagneticFieldStrength": 3,
  "Manufacturer": "Siemens",
  "ManufacturersModelName": "Prisma",
  "Modality": "MR",
  "MultibandAccelerationFactor": 8,
  "PartialFourier": 1,
  "PatientPosition": "HFS",
  "PercentPhaseFOV": 100,
  "PercentSampling": 100,
  "PhaseEncodingDirection": "j-",
  "PhaseEncodingSteps": 82,
  "PhaseResolution": 1,
  "PixelBandwidth": 3050,
  "ProcedureStepDescription": "Wager_Wager^1076_spacetop",
  "ProtocolName": "func_run-03_task-social_acq-ap-mb8",
  "PulseSequenceDetails": "%CustomerSeq%\\cmrr_mbep2d_bold",
  "ReceiveCoilActiveElements": "HEA;HEP",
  "ReceiveCoilName": "Head_32",
  "ReconMatrixPE": 82,
  "RepetitionTime": 0.46,
  "SAR": 0.116302,
  "ScanOptions": "FS",
  "ScanningSequence": "EP",
  "SequenceName": "epfid2d1_82",
  "SequenceVariant": "SK\\SS",
  "SeriesDescription": "func_run-03_task-social_acq-ap-mb8",
  "SeriesNumber": 12,
  "ShimSetting": [4225, -7755, -7222, 72, -151, -77, 69, 59],
  "SliceThickness": 2.7,
  "SliceTiming": [0, 0.25, 0.0625, 0.315, 0.125, 0.3775, 0.1875, 0, 0.25, 0.0625, 0.315, 0.125, 0.3775, 0.1875, 0, 0.25, 0.0625, 0.315, 0.125, 0.3775, 0.1875, 0, 0.25, 0.0625, 0.315, 0.125, 0.3775, 0.1875, 0, 0.25, 0.0625, 0.315, 0.125, 0.3775, 0.1875, 0, 0.25, 0.0625, 0.315, 0.125, 0.3775, 0.1875, 0, 0.25, 0.0625, 0.315, 0.125, 0.3775, 0.1875, 0, 0.25, 0.0625, 0.315, 0.125, 0.3775, 0.1875],
  "SoftwareVersions": "syngo MR E11",
  "SpacingBetweenSlices": 2.7,
  "StationName": "AWP66112",
  "TaskName": "social",
  "TotalReadoutTime": 0.03969,
  "TxRefAmp": 305.621,
  "WipMemBlock": "6fcf4a12-1433-46a8-a03b-0d72b293cbd8||Sequence: R016 ve11e/master r/434b28f1; Aug  7 2019 18:53:46 by eja",
  "dcmmeta_affine": [
    [-2.6798601150512695, -0.0014029855374246836, 0.1290517896413803, 109.62295532226562],
    [-0.026718467473983765, 2.6300039291381836, -0.5329564809799194, -74.9377212524414],
    [0.12542924284934998, 0.530258059501648, 2.6437289714813232, -102.9595718383789],
    [0.0, 0.0, 0.0, 1.0]
],
  "dcmmeta_reorient_transform": [
    [0.0, -1.0, 0.0, 81.0],
    [1.0, 0.0, 0.0, 0.0],
    [0.0, 0.0, 1.0, 0.0],
    [0.0, 0.0, 0.0, 1.0]
],
  "dcmmeta_shape": [82, 82, 56, 872],
  "dcmmeta_slice_dim": 2,
  "dcmmeta_version": 0.6,
  "global": {
    "const": {
      "AccessionNumber": "A004338",
      "AcquisitionMatrix": [82, 0, 0, 82],
      "AngioFlag": "N",
      "BitsAllocated": 16,
      "BitsStored": 16,
      "BodyPartExamined": "BRAIN",
      "Columns": 656,
      "EchoNumbers": 1,
      "EchoTime": 27.2,
      "EchoTrainLength": 82,
      "FlipAngle": 44.0,
      "HighBit": 15,
      "ImageOrientationPatient": [0.99885693548106, 0.00995870143998, 0.04675090060108, -0.0005229309436, 0.9802741998175, -0.1976416446891],
      "ImagePositionPatient": [-878.22651511854, -900.5719546259, 56.177206657081],
      "ImageType": [
        "ORIGINAL",
        "PRIMARY",
        "M",
        "MB",
        "ND",
        "NORM",
        "MOSAIC"
],
      "ImagedNucleus": "1H",
      "ImagingFrequency": 123.259071,
      "InPlanePhaseEncodingDirection": "COL",
      "MRAcquisitionType": "2D",
      "MagneticFieldStrength": 3.0,
      "Manufacturer": "SIEMENS",
      "ManufacturerModelName": "Prisma",
      "Modality": "MR",
      "NumberOfAverages": 1.0,
      "NumberOfPhaseEncodingSteps": 82,
      "PercentPhaseFieldOfView": 100.0,
      "PercentSampling": 100.0,
      "PerformedProcedureStepStartTime": "083944.957000",
      "PhotometricInterpretation": "MONOCHROME2",
      "PixelBandwidth": 3050.0,
      "PixelRepresentation": 0,
      "PixelSpacing": [2.6829268932343, 2.6829268932343],
      "ProtocolName": "func_run-03_task-social_acq-ap-mb8",
      "RepetitionTime": 460.0,
      "Rows": 656,
      "SAR": 0.11630244295507,
      "SamplesPerPixel": 1,
      "ScanOptions": "FS",
      "ScanningSequence": "EP",
      "SequenceName": "epfid2d1_82",
      "SequenceVariant": [
        "SK",
        "SS"
],
      "SeriesDescription": "func_run-03_task-social_acq-ap-mb8",
      "SeriesNumber": 12,
      "SeriesTime": "091957.544000",
      "SliceLocation": -80.782085600027,
      "SliceThickness": 2.7000000476837,
      "SmallestImagePixelValue": 0,
      "SoftwareVersions": "syngo MR E11",
      "SpacingBetweenSlices": 2.7000000461369,
      "SpecificCharacterSet": "ISO_IR 100",
      "StudyID": "3",
      "StudyTime": "083944.764000",
      "TransmitCoilName": "Body",
      "VariableFlipAngleFlag": "N",
      "WindowCenterWidthExplanation": "Algo1"
    },
    "slices": {}
  },
  "time": {
    "samples": {
      "AcquisitionNumber": [1, 2, 3, 4, 5, 6, 7, 8, 9, 10, 11, 12, 13, 14, 15, 16, 17, 18, 19, 20, 21, 22, 23, 24, 25, 26, 27, 28, 29, 30, 31, 32, 33, 34, 35, 36, 37, 38, 39, 40, 41, 42, 43, 44, 45, 46, 47, 48, 49, 50, 51, 52, 53, 54, 55, 56, 57, 58, 59, 60, 61, 62, 63, 64, 65, 66, 67, 68, 69, 70, 71, 72, 73, 74, 75, 76, 77, 78, 79, 80, 81, 82, 83, 84, 85, 86, 87, 88, 89, 90, 91, 92, 93, 94, 95, 96, 97, 98, 99, 100, 101, 102, 103, 104, 105, 106, 107, 108, 109, 110, 111, 112, 113, 114, 115, 116, 117, 118, 119, 120, 121, 122, 123, 124, 125, 126, 127, 128, 129, 130, 131, 132, 133, 134, 135, 136, 137, 138, 139, 140, 141, 142, 143, 144, 145, 146, 147, 148, 149, 150, 151, 152, 153, 154, 155, 156, 157, 158, 159, 160, 161, 162, 163, 164, 165, 166, 167, 168, 169, 170, 171, 172, 173, 174, 175, 176, 177, 178, 179, 180, 181, 182, 183, 184, 185, 186, 187, 188, 189, 190, 191, 192, 193, 194, 195, 196, 197, 198, 199, 200, 201, 202, 203, 204, 205, 206, 207, 208, 209, 210, 211, 212, 213, 214, 215, 216, 217, 218, 219, 220, 221, 222, 223, 224, 225, 226, 227, 228, 229, 230, 231, 232, 233, 234, 235, 236, 237, 238, 239, 240, 241, 242, 243, 244, 245, 246, 247, 248, 249, 250, 251, 252, 253, 254, 255, 256, 257, 258, 259, 260, 261, 262, 263, 264, 265, 266, 267, 268, 269, 270, 271, 272, 273, 274, 275, 276, 277, 278, 279, 280, 281, 282, 283, 284, 285, 286, 287, 288, 289, 290, 291, 292, 293, 294, 295, 296, 297, 298, 299, 300, 301, 302, 303, 304, 305, 306, 307, 308, 309, 310, 311, 312, 313, 314, 315, 316, 317, 318, 319, 320, 321, 322, 323, 324, 325, 326, 327, 328, 329, 330, 331, 332, 333, 334, 335, 336, 337, 338, 339, 340, 341, 342, 343, 344, 345, 346, 347, 348, 349, 350, 351, 352, 353, 354, 355, 356, 357, 358, 359, 360, 361, 362, 363, 364, 365, 366, 367, 368, 369, 370, 371, 372, 373, 374, 375, 376, 377, 378, 379, 380, 381, 382, 383, 384, 385, 386, 387, 388, 389, 390, 391, 392, 393, 394, 395, 396, 397, 398, 399, 400, 401, 402, 403, 404, 405, 406, 407, 408, 409, 410, 411, 412, 413, 414, 415, 416, 417, 418, 419, 420, 421, 422, 423, 424, 425, 426, 427, 428, 429, 430, 431, 432, 433, 434, 435, 436, 437, 438, 439, 440, 441, 442, 443, 444, 445, 446, 447, 448, 449, 450, 451, 452, 453, 454, 455, 456, 457, 458, 459, 460, 461, 462, 463, 464, 465, 466, 467, 468, 469, 470, 471, 472, 473, 474, 475, 476, 477, 478, 479, 480, 481, 482, 483, 484, 485, 486, 487, 488, 489, 490, 491, 492, 493, 494, 495, 496, 497, 498, 499, 500, 501, 502, 503, 504, 505, 506, 507, 508, 509, 510, 511, 512, 513, 514, 515, 516, 517, 518, 519, 520, 521, 522, 523, 524, 525, 526, 527, 528, 529, 530, 531, 532, 533, 534, 535, 536, 537, 538, 539, 540, 541, 542, 543, 544, 545, 546, 547, 548, 549, 550, 551, 552, 553, 554, 555, 556, 557, 558, 559, 560, 561, 562, 563, 564, 565, 566, 567, 568, 569, 570, 571, 572, 573, 574, 575, 576, 577, 578, 579, 580, 581, 582, 583, 584, 585, 586, 587, 588, 589, 590, 591, 592, 593, 594, 595, 596, 597, 598, 599, 600, 601, 602, 603, 604, 605, 606, 607, 608, 609, 610, 611, 612, 613, 614, 615, 616, 617, 618, 619, 620, 621, 622, 623, 624, 625, 626, 627, 628, 629, 630, 631, 632, 633, 634, 635, 636, 637, 638, 639, 640, 641, 642, 643, 644, 645, 646, 647, 648, 649, 650, 651, 652, 653, 654, 655, 656, 657, 658, 659, 660, 661, 662, 663, 664, 665, 666, 667, 668, 669, 670, 671, 672, 673, 674, 675, 676, 677, 678, 679, 680, 681, 682, 683, 684, 685, 686, 687, 688, 689, 690, 691, 692, 693, 694, 695, 696, 697, 698, 699, 700, 701, 702, 703, 704, 705, 706, 707, 708, 709, 710, 711, 712, 713, 714, 715, 716, 717, 718, 719, 720, 721, 722, 723, 724, 725, 726, 727, 728, 729, 730, 731, 732, 733, 734, 735, 736, 737, 738, 739, 740, 741, 742, 743, 744, 745, 746, 747, 748, 749, 750, 751, 752, 753, 754, 755, 756, 757, 758, 759, 760, 761, 762, 763, 764, 765, 766, 767, 768, 769, 770, 771, 772, 773, 774, 775, 776, 777, 778, 779, 780, 781, 782, 783, 784, 785, 786, 787, 788, 789, 790, 791, 792, 793, 794, 795, 796, 797, 798, 799, 800, 801, 802, 803, 804, 805, 806, 807, 808, 809, 810, 811, 812, 813, 814, 815, 816, 817, 818, 819, 820, 821, 822, 823, 824, 825, 826, 827, 828, 829, 830, 831, 832, 833, 834, 835, 836, 837, 838, 839, 840, 841, 842, 843, 844, 845, 846, 847, 848, 849, 850, 851, 852, 853, 854, 855, 856, 857, 858, 859, 860, 861, 862, 863, 864, 865, 866, 867, 868, 869, 870, 871, 872],
      "AcquisitionTime": ["091937.652500", "091938.112500", "091938.572500", "091939.032500", "091939.492500", "091939.952500", "091940.412500", "091940.872500", "091941.332500", "091941.792500", "091942.252500", "091942.712500", "091943.172500", "091943.632500", "091944.092500", "091944.552500", "091945.012500", "091945.472500", "091945.932500", "091946.392500", "091946.852500", "091947.312500", "091947.772500", "091948.232500", "091948.692500", "091949.152500", "091949.612500", "091950.072500", "091950.532500", "091950.992500", "091951.452500", "091951.912500", "091952.372500", "091952.832500", "091953.292500", "091953.752500", "091954.212500", "091954.672500", "091955.132500", "091955.592500", "091956.052500", "091956.512500", "091956.972500", "091957.432500", "091957.892500", "091958.352500", "091958.812500", "091959.272500", "091959.732500", "092000.192500", "092000.652500", "092001.112500", "092001.572500", "092002.032500", "092002.492500", "092002.952500", "092003.412500", "092003.872500", "092004.332500", "092004.792500", "092005.252500", "092005.712500", "092006.172500", "092006.632500", "092007.092500", "092007.552500", "092008.012500", "092008.472500", "092008.932500", "092009.392500", "092009.852500", "092010.312500", "092010.772500", "092011.232500", "092011.692500", "092012.152500", "092012.612500", "092013.072500", "092013.532500", "092013.992500", "092014.452500", "092014.912500", "092015.372500", "092015.832500", "092016.292500", "092016.752500", "092017.212500", "092017.672500", "092018.132500", "092018.592500", "092019.052500", "092019.512500", "092019.972500", "092020.432500", "092020.892500", "092021.352500", "092021.812500", "092022.272500", "092022.732500", "092023.192500", "092023.652500", "092024.112500", "092024.572500", "092025.032500", "092025.492500", "092025.952500", "092026.412500", "092026.872500", "092027.332500", "092027.792500", "092028.252500", "092028.712500", "092029.172500", "092029.632500", "092030.092500", "092030.552500", "092031.012500", "092031.472500", "092031.932500", "092032.392500", "092032.852500", "092033.312500", "092033.772500", "092034.232500", "092034.692500", "092035.152500", "092035.612500", "092036.072500", "092036.532500", "092036.992500", "092037.452500", "092037.912500", "092038.372500", "092038.832500", "092039.292500", "092039.752500", "092040.212500", "092040.672500", "092041.132500", "092041.592500", "092042.052500", "092042.512500", "092042.972500", "092043.432500", "092043.892500", "092044.352500", "092044.812500", "092045.272500", "092045.732500", "092046.192500", "092046.652500", "092047.112500", "092047.572500", "092048.032500", "092048.492500", "092048.952500", "092049.412500", "092049.872500", "092050.332500", "092050.792500", "092051.252500", "092051.712500", "092052.172500", "092052.632500", "092053.092500", "092053.552500", "092054.012500", "092054.472500", "092054.932500", "092055.392500", "092055.852500", "092056.312500", "092056.772500", "092057.232500", "092057.692500", "092058.152500", "092058.612500", "092059.072500", "092059.532500", "092059.992500", "092100.452500", "092100.912500", "092101.372500", "092101.832500", "092102.292500", "092102.752500", "092103.212500", "092103.672500", "092104.132500", "092104.592500", "092105.052500", "092105.512500", "092105.972500", "092106.432500", "092106.892500", "092107.352500", "092107.812500", "092108.272500", "092108.732500", "092109.192500", "092109.652500", "092110.112500", "092110.572500", "092111.032500", "092111.492500", "092111.952500", "092112.412500", "092112.872500", "092113.332500", "092113.792500", "092114.252500", "092114.712500", "092115.172500", "092115.632500", "092116.092500", "092116.552500", "092117.012500", "092117.472500", "092117.932500", "092118.392500", "092118.852500", "092119.312500", "092119.772500", "092120.232500", "092120.692500", "092121.152500", "092121.612500", "092122.072500", "092122.532500", "092122.992500", "092123.452500", "092123.912500", "092124.372500", "092124.832500", "092125.292500", "092125.752500", "092126.212500", "092126.672500", "092127.132500", "092127.592500", "092128.052500", "092128.512500", "092128.972500", "092129.432500", "092129.892500", "092130.352500", "092130.812500", "092131.272500", "092131.732500", "092132.192500", "092132.652500", "092133.112500", "092133.572500", "092134.032500", "092134.492500", "092134.952500", "092135.412500", "092135.872500", "092136.332500", "092136.792500", "092137.252500", "092137.712500", "092138.172500", "092138.632500", "092139.092500", "092139.552500", "092140.012500", "092140.472500", "092140.932500", "092141.392500", "092141.852500", "092142.312500", "092142.772500", "092143.232500", "092143.692500", "092144.152500", "092144.612500", "092145.072500", "092145.532500", "092145.992500", "092146.452500", "092146.912500", "092147.372500", "092147.832500", "092148.292500", "092148.752500", "092149.212500", "092149.672500", "092150.132500", "092150.592500", "092151.052500", "092151.512500", "092151.972500", "092152.432500", "092152.892500", "092153.352500", "092153.812500", "092154.272500", "092154.732500", "092155.192500", "092155.652500", "092156.112500", "092156.572500", "092157.032500", "092157.492500", "092157.952500", "092158.412500", "092158.872500", "092159.332500", "092159.792500", "092200.252500", "092200.712500", "092201.172500", "092201.632500", "092202.092500", "092202.552500", "092203.012500", "092203.472500", "092203.932500", "092204.392500", "092204.852500", "092205.312500", "092205.772500", "092206.232500", "092206.692500", "092207.152500", "092207.612500", "092208.072500", "092208.532500", "092208.992500", "092209.452500", "092209.912500", "092210.372500", "092210.832500", "092211.292500", "092211.752500", "092212.212500", "092212.672500", "092213.132500", "092213.592500", "092214.052500", "092214.512500", "092214.972500", "092215.432500", "092215.892500", "092216.352500", "092216.812500", "092217.272500", "092217.732500", "092218.192500", "092218.652500", "092219.112500", "092219.572500", "092220.032500", "092220.492500", "092220.952500", "092221.412500", "092221.872500", "092222.332500", "092222.792500", "092223.252500", "092223.712500", "092224.172500", "092224.632500", "092225.092500", "092225.552500", "092226.012500", "092226.472500", "092226.932500", "092227.392500", "092227.852500", "092228.312500", "092228.772500", "092229.232500", "092229.692500", "092230.152500", "092230.612500", "092231.072500", "092231.532500", "092231.992500", "092232.452500", "092232.912500", "092233.372500", "092233.832500", "092234.292500", "092234.752500", "092235.212500", "092235.672500", "092236.132500", "092236.592500", "092237.052500", "092237.512500", "092237.972500", "092238.432500", "092238.892500", "092239.352500", "092239.812500", "092240.272500", "092240.732500", "092241.192500", "092241.652500", "092242.112500", "092242.572500", "092243.032500", "092243.492500", "092243.952500", "092244.412500", "092244.872500", "092245.332500", "092245.792500", "092246.252500", "092246.712500", "092247.172500", "092247.632500", "092248.092500", "092248.552500", "092249.012500", "092249.472500", "092249.932500", "092250.392500", "092250.852500", "092251.312500", "092251.772500", "092252.232500", "092252.692500", "092253.152500", "092253.612500", "092254.072500", "092254.532500", "092254.992500", "092255.452500", "092255.912500", "092256.372500", "092256.832500", "092257.292500", "092257.752500", "092258.212500", "092258.672500", "092259.132500", "092259.592500", "092300.052500", "092300.512500", "092300.972500", "092301.432500", "092301.892500", "092302.352500", "092302.812500", "092303.272500", "092303.732500", "092304.192500", "092304.652500", "092305.112500", "092305.572500", "092306.032500", "092306.492500", "092306.952500", "092307.412500", "092307.872500", "092308.332500", "092308.792500", "092309.252500", "092309.712500", "092310.172500", "092310.632500", "092311.092500", "092311.552500", "092312.012500", "092312.472500", "092312.932500", "092313.392500", "092313.852500", "092314.312500", "092314.772500", "092315.232500", "092315.692500", "092316.152500", "092316.612500", "092317.072500", "092317.532500", "092317.992500", "092318.452500", "092318.912500", "092319.372500", "092319.832500", "092320.292500", "092320.752500", "092321.212500", "092321.672500", "092322.132500", "092322.592500", "092323.052500", "092323.512500", "092323.972500", "092324.432500", "092324.892500", "092325.352500", "092325.812500", "092326.272500", "092326.732500", "092327.192500", "092327.652500", "092328.112500", "092328.572500", "092329.032500", "092329.492500", "092329.952500", "092330.412500", "092330.872500", "092331.332500", "092331.792500", "092332.252500", "092332.712500", "092333.172500", "092333.632500", "092334.092500", "092334.552500", "092335.012500", "092335.472500", "092335.932500", "092336.392500", "092336.852500", "092337.312500", "092337.772500", "092338.232500", "092338.692500", "092339.152500", "092339.612500", "092340.072500", "092340.532500", "092340.992500", "092341.452500", "092341.912500", "092342.372500", "092342.832500", "092343.292500", "092343.752500", "092344.212500", "092344.672500", "092345.132500", "092345.592500", "092346.052500", "092346.512500", "092346.972500", "092347.432500", "092347.892500", "092348.352500", "092348.812500", "092349.272500", "092349.732500", "092350.192500", "092350.652500", "092351.112500", "092351.572500", "092352.032500", "092352.492500", "092352.952500", "092353.412500", "092353.872500", "092354.332500", "092354.792500", "092355.252500", "092355.712500", "092356.172500", "092356.632500", "092357.092500", "092357.552500", "092358.012500", "092358.472500", "092358.932500", "092359.392500", "092359.852500", "092400.312500", "092400.772500", "092401.232500", "092401.692500", "092402.152500", "092402.612500", "092403.072500", "092403.532500", "092403.992500", "092404.452500", "092404.912500", "092405.372500", "092405.832500", "092406.292500", "092406.752500", "092407.212500", "092407.672500", "092408.132500", "092408.592500", "092409.052500", "092409.512500", "092409.972500", "092410.432500", "092410.892500", "092411.352500", "092411.812500", "092412.272500", "092412.732500", "092413.192500", "092413.652500", "092414.112500", "092414.572500", "092415.032500", "092415.492500", "092415.952500", "092416.412500", "092416.872500", "092417.332500", "092417.792500", "092418.252500", "092418.712500", "092419.172500", "092419.632500", "092420.092500", "092420.552500", "092421.012500", "092421.472500", "092421.932500", "092422.392500", "092422.852500", "092423.312500", "092423.772500", "092424.232500", "092424.692500", "092425.152500", "092425.612500", "092426.072500", "092426.532500", "092426.992500", "092427.452500", "092427.912500", "092428.372500", "092428.832500", "092429.292500", "092429.752500", "092430.212500", "092430.672500", "092431.132500", "092431.592500", "092432.052500", "092432.512500", "092432.972500", "092433.432500", "092433.892500", "092434.352500", "092434.812500", "092435.272500", "092435.732500", "092436.192500", "092436.652500", "092437.112500", "092437.572500", "092438.032500", "092438.492500", "092438.952500", "092439.412500", "092439.872500", "092440.332500", "092440.792500", "092441.252500", "092441.712500", "092442.172500", "092442.632500", "092443.092500", "092443.552500", "092444.012500", "092444.472500", "092444.932500", "092445.392500", "092445.852500", "092446.312500", "092446.772500", "092447.232500", "092447.692500", "092448.152500", "092448.612500", "092449.072500", "092449.532500", "092449.992500", "092450.452500", "092450.912500", "092451.372500", "092451.832500", "092452.292500", "092452.752500", "092453.212500", "092453.672500", "092454.132500", "092454.592500", "092455.052500", "092455.512500", "092455.972500", "092456.432500", "092456.892500", "092457.352500", "092457.812500", "092458.272500", "092458.732500", "092459.192500", "092459.652500", "092500.112500", "092500.572500", "092501.032500", "092501.492500", "092501.952500", "092502.412500", "092502.872500", "092503.332500", "092503.792500", "092504.252500", "092504.712500", "092505.172500", "092505.632500", "092506.092500", "092506.552500", "092507.012500", "092507.472500", "092507.932500", "092508.392500", "092508.852500", "092509.312500", "092509.772500", "092510.232500", "092510.692500", "092511.152500", "092511.612500", "092512.072500", "092512.532500", "092512.992500", "092513.452500", "092513.912500", "092514.372500", "092514.832500", "092515.292500", "092515.752500", "092516.212500", "092516.672500", "092517.132500", "092517.592500", "092518.052500", "092518.512500", "092518.972500", "092519.432500", "092519.892500", "092520.352500", "092520.812500", "092521.272500", "092521.732500", "092522.192500", "092522.652500", "092523.112500", "092523.572500", "092524.032500", "092524.492500", "092524.952500", "092525.412500", "092525.872500", "092526.332500", "092526.792500", "092527.252500", "092527.712500", "092528.172500", "092528.632500", "092529.092500", "092529.552500", "092530.012500", "092530.472500", "092530.932500", "092531.392500", "092531.852500", "092532.312500", "092532.772500", "092533.232500", "092533.692500", "092534.152500", "092534.612500", "092535.072500", "092535.532500", "092535.992500", "092536.452500", "092536.912500", "092537.372500", "092537.832500", "092538.292500", "092538.752500", "092539.212500", "092539.672500", "092540.132500", "092540.592500", "092541.052500", "092541.512500", "092541.972500", "092542.432500", "092542.892500", "092543.352500", "092543.812500", "092544.272500", "092544.732500", "092545.192500", "092545.652500", "092546.112500", "092546.572500", "092547.032500", "092547.492500", "092547.952500", "092548.412500", "092548.872500", "092549.332500", "092549.792500", "092550.252500", "092550.712500", "092551.172500", "092551.632500", "092552.092500", "092552.552500", "092553.012500", "092553.472500", "092553.932500", "092554.392500", "092554.852500", "092555.312500", "092555.772500", "092556.232500", "092556.692500", "092557.152500", "092557.612500", "092558.072500", "092558.532500", "092558.992500", "092559.452500", "092559.912500", "092600.372500", "092600.832500", "092601.292500", "092601.752500", "092602.212500", "092602.672500", "092603.132500", "092603.592500", "092604.052500", "092604.512500", "092604.972500", "092605.432500", "092605.892500", "092606.352500", "092606.812500", "092607.272500", "092607.732500", "092608.192500", "092608.652500", "092609.112500", "092609.572500", "092610.032500", "092610.492500", "092610.952500", "092611.412500", "092611.872500", "092612.332500", "092612.792500", "092613.252500", "092613.712500", "092614.172500", "092614.632500", "092615.092500", "092615.552500", "092616.012500", "092616.472500", "092616.932500", "092617.392500", "092617.852500", "092618.312500"],
