{
  "AcquisitionMatrixPE": 82,
  "AcquisitionNumber": 1,
  "AcquisitionTime": "20:41:5.117500",
  "BandwidthPerPixelPhaseEncode": 24.888,
  "BaseResolution": 82,
  "BodyPartExamined": "BRAIN",
  "ConsistencyInfo": "N4_VE11E_LATEST_20181129",
  "ConversionSoftware": "dcm2niix",
  "ConversionSoftwareVersion": "v1.0.20201102",
  "DerivedVendorReportedEchoSpacing": 0.00049,
  "DeviceSerialNumber": "66112",
  "DwellTime": 2e-06,
  "EchoTime": 0.0272,
  "EchoTrainLength": 82,
  "EffectiveEchoSpacing": 0.00049,
  "FlipAngle": 44,
  "ImageComments": "Unaliased MB8/PE3",
  "ImageOrientationPatientDICOM": [0.999962, 0.0068788, 0.00527075, -0.00680668, 0.999885, -0.013582],
  "ImageType": [
    "ORIGINAL",
    "PRIMARY",
    "M",
    "MB",
    "ND",
    "NORM",
    "MOSAIC"
],
  "ImagingFrequency": 123.252,
  "InPlanePhaseEncodingDirectionDICOM": "COL",
  "InstitutionAddress": "Maynard 3,Hanover,NH,US,03755",
  "InstitutionName": "Dartmouth College - PBS",
  "InstitutionalDepartmentName": "Department",
  "MRAcquisitionType": "2D",
  "MagneticFieldStrength": 3,
  "Manufacturer": "Siemens",
  "ManufacturersModelName": "Prisma",
  "Modality": "MR",
  "MultibandAccelerationFactor": 8,
  "PartialFourier": 1,
  "PatientPosition": "HFS",
  "PercentPhaseFOV": 100,
  "PercentSampling": 100,
  "PhaseEncodingDirection": "j-",
  "PhaseEncodingSteps": 82,
  "PhaseResolution": 1,
  "PixelBandwidth": 3050,
  "ProcedureStepDescription": "Wager_Wager^1076_spacetop",
  "ProtocolName": "func_run-06_task-social_acq-ap-mb8",
  "PulseSequenceDetails": "%CustomerSeq%\\cmrr_mbep2d_bold",
  "ReceiveCoilActiveElements": "HEA;HEP",
  "ReceiveCoilName": "Head_32",
  "ReconMatrixPE": 82,
  "RepetitionTime": 0.46,
  "SAR": 0.0909174,
  "ScanOptions": "FS",
  "ScanningSequence": "EP",
  "SequenceName": "epfid2d1_82",
  "SequenceVariant": "SK\\SS",
  "SeriesDescription": "func_run-06_task-social_acq-ap-mb8",
  "SeriesNumber": 22,
  "ShimSetting": [4153, -7753, -7225, 795, -14, -222, 36, 67],
  "SliceThickness": 2.7,
  "SliceTiming": [0, 0.2525, 0.0625, 0.315, 0.125, 0.3775, 0.1875, 0, 0.2525, 0.0625, 0.315, 0.125, 0.3775, 0.1875, 0, 0.2525, 0.0625, 0.315, 0.125, 0.3775, 0.1875, 0, 0.2525, 0.0625, 0.315, 0.125, 0.3775, 0.1875, 0, 0.2525, 0.0625, 0.315, 0.125, 0.3775, 0.1875, 0, 0.2525, 0.0625, 0.315, 0.125, 0.3775, 0.1875, 0, 0.2525, 0.0625, 0.315, 0.125, 0.3775, 0.1875, 0, 0.2525, 0.0625, 0.315, 0.125, 0.3775, 0.1875],
  "SoftwareVersions": "syngo MR E11",
  "SpacingBetweenSlices": 2.7,
  "StationName": "AWP66112",
  "TaskName": "social",
  "TotalReadoutTime": 0.03969,
  "TxRefAmp": 229.553,
  "WipMemBlock": "92bc7709-d845-4c35-a042-1293651d5af8||Sequence: R016 ve11e/master r/434b28f1; Aug  7 2019 18:53:46 by eja",
  "dcmmeta_affine": [
    [-2.682826042175293, -0.018261820077896118, 0.014481631107628345, 113.79428100585938],
    [-0.018455326557159424, 2.6826171875, -0.0365731418132782, -98.05107879638672],
    [0.014141030609607697, 0.036439500749111176, 2.6997134685516357, -65.28993225097656],
    [0.0, 0.0, 0.0, 1.0]
],
  "dcmmeta_reorient_transform": [
    [0.0, -1.0, 0.0, 81.0],
    [1.0, 0.0, 0.0, 0.0],
    [0.0, 0.0, 1.0, 0.0],
    [0.0, 0.0, 0.0, 1.0]
],
  "dcmmeta_shape": [82, 82, 56, 872],
  "dcmmeta_slice_dim": 2,
  "dcmmeta_version": 0.6,
  "global": {
    "const": {
      "AccessionNumber": "A003888",
      "AcquisitionMatrix": [82, 0, 0, 82],
      "AngioFlag": "N",
      "BitsAllocated": 16,
      "BitsStored": 16,
      "BodyPartExamined": "BRAIN",
      "Columns": 656,
      "EchoNumbers": 1,
      "EchoTime": 27.2,
      "EchoTrainLength": 82,
      "FlipAngle": 44.0,
      "HighBit": 15,
      "ImageOrientationPatient": [0.99996244993573, 0.00687880346991, 0.00527074770449, -0.0068066779278, 0.99988459261518, -0.0135819949328],
      "ImagePositionPatient": [-877.04503924729, -894.44875410511, -55.938673370637],
      "ImageType": [
        "ORIGINAL",
        "PRIMARY",
        "M",
        "MB",
        "ND",
        "NORM",
        "MOSAIC"
],
      "ImagedNucleus": "1H",
      "ImagingFrequency": 123.252207,
      "InPlanePhaseEncodingDirection": "COL",
      "MRAcquisitionType": "2D",
      "MagneticFieldStrength": 3.0,
      "Manufacturer": "SIEMENS",
      "ManufacturerModelName": "Prisma",
      "Modality": "MR",
      "NumberOfAverages": 1.0,
      "NumberOfPhaseEncodingSteps": 82,
      "PercentPhaseFieldOfView": 100.0,
      "PercentSampling": 100.0,
      "PerformedProcedureStepStartTime": "193759.322000",
      "PhotometricInterpretation": "MONOCHROME2",
      "PixelBandwidth": 3050.0,
      "PixelRepresentation": 0,
      "PixelSpacing": [2.6829268932343, 2.6829268932343],
      "ProtocolName": "func_run-06_task-social_acq-ap-mb8",
      "RepetitionTime": 460.0,
      "Rows": 656,
      "SAR": 0.09091736471096,
      "SamplesPerPixel": 1,
      "ScanOptions": "FS",
      "ScanningSequence": "EP",
      "SequenceName": "epfid2d1_82",
      "SequenceVariant": [
        "SK",
        "SS"
],
      "SeriesDescription": "func_run-06_task-social_acq-ap-mb8",
      "SeriesNumber": 22,
      "SeriesTime": "204133.527000",
      "SliceLocation": -63.344499213745,
      "SliceThickness": 2.7000000476837,
      "SmallestImagePixelValue": 0,
      "SoftwareVersions": "syngo MR E11",
      "SpacingBetweenSlices": 2.699999966841,
      "SpecificCharacterSet": "ISO_IR 100",
      "StudyID": "1",
      "StudyTime": "193759.263000",
      "TransmitCoilName": "Body",
      "VariableFlipAngleFlag": "N",
      "WindowCenterWidthExplanation": "Algo1"
    },
    "slices": {}
  },
  "time": {
    "samples": {
      "AcquisitionNumber": [1, 2, 3, 4, 5, 6, 7, 8, 9, 10, 11, 12, 13, 14, 15, 16, 17, 18, 19, 20, 21, 22, 23, 24, 25, 26, 27, 28, 29, 30, 31, 32, 33, 34, 35, 36, 37, 38, 39, 40, 41, 42, 43, 44, 45, 46, 47, 48, 49, 50, 51, 52, 53, 54, 55, 56, 57, 58, 59, 60, 61, 62, 63, 64, 65, 66, 67, 68, 69, 70, 71, 72, 73, 74, 75, 76, 77, 78, 79, 80, 81, 82, 83, 84, 85, 86, 87, 88, 89, 90, 91, 92, 93, 94, 95, 96, 97, 98, 99, 100, 101, 102, 103, 104, 105, 106, 107, 108, 109, 110, 111, 112, 113, 114, 115, 116, 117, 118, 119, 120, 121, 122, 123, 124, 125, 126, 127, 128, 129, 130, 131, 132, 133, 134, 135, 136, 137, 138, 139, 140, 141, 142, 143, 144, 145, 146, 147, 148, 149, 150, 151, 152, 153, 154, 155, 156, 157, 158, 159, 160, 161, 162, 163, 164, 165, 166, 167, 168, 169, 170, 171, 172, 173, 174, 175, 176, 177, 178, 179, 180, 181, 182, 183, 184, 185, 186, 187, 188, 189, 190, 191, 192, 193, 194, 195, 196, 197, 198, 199, 200, 201, 202, 203, 204, 205, 206, 207, 208, 209, 210, 211, 212, 213, 214, 215, 216, 217, 218, 219, 220, 221, 222, 223, 224, 225, 226, 227, 228, 229, 230, 231, 232, 233, 234, 235, 236, 237, 238, 239, 240, 241, 242, 243, 244, 245, 246, 247, 248, 249, 250, 251, 252, 253, 254, 255, 256, 257, 258, 259, 260, 261, 262, 263, 264, 265, 266, 267, 268, 269, 270, 271, 272, 273, 274, 275, 276, 277, 278, 279, 280, 281, 282, 283, 284, 285, 286, 287, 288, 289, 290, 291, 292, 293, 294, 295, 296, 297, 298, 299, 300, 301, 302, 303, 304, 305, 306, 307, 308, 309, 310, 311, 312, 313, 314, 315, 316, 317, 318, 319, 320, 321, 322, 323, 324, 325, 326, 327, 328, 329, 330, 331, 332, 333, 334, 335, 336, 337, 338, 339, 340, 341, 342, 343, 344, 345, 346, 347, 348, 349, 350, 351, 352, 353, 354, 355, 356, 357, 358, 359, 360, 361, 362, 363, 364, 365, 366, 367, 368, 369, 370, 371, 372, 373, 374, 375, 376, 377, 378, 379, 380, 381, 382, 383, 384, 385, 386, 387, 388, 389, 390, 391, 392, 393, 394, 395, 396, 397, 398, 399, 400, 401, 402, 403, 404, 405, 406, 407, 408, 409, 410, 411, 412, 413, 414, 415, 416, 417, 418, 419, 420, 421, 422, 423, 424, 425, 426, 427, 428, 429, 430, 431, 432, 433, 434, 435, 436, 437, 438, 439, 440, 441, 442, 443, 444, 445, 446, 447, 448, 449, 450, 451, 452, 453, 454, 455, 456, 457, 458, 459, 460, 461, 462, 463, 464, 465, 466, 467, 468, 469, 470, 471, 472, 473, 474, 475, 476, 477, 478, 479, 480, 481, 482, 483, 484, 485, 486, 487, 488, 489, 490, 491, 492, 493, 494, 495, 496, 497, 498, 499, 500, 501, 502, 503, 504, 505, 506, 507, 508, 509, 510, 511, 512, 513, 514, 515, 516, 517, 518, 519, 520, 521, 522, 523, 524, 525, 526, 527, 528, 529, 530, 531, 532, 533, 534, 535, 536, 537, 538, 539, 540, 541, 542, 543, 544, 545, 546, 547, 548, 549, 550, 551, 552, 553, 554, 555, 556, 557, 558, 559, 560, 561, 562, 563, 564, 565, 566, 567, 568, 569, 570, 571, 572, 573, 574, 575, 576, 577, 578, 579, 580, 581, 582, 583, 584, 585, 586, 587, 588, 589, 590, 591, 592, 593, 594, 595, 596, 597, 598, 599, 600, 601, 602, 603, 604, 605, 606, 607, 608, 609, 610, 611, 612, 613, 614, 615, 616, 617, 618, 619, 620, 621, 622, 623, 624, 625, 626, 627, 628, 629, 630, 631, 632, 633, 634, 635, 636, 637, 638, 639, 640, 641, 642, 643, 644, 645, 646, 647, 648, 649, 650, 651, 652, 653, 654, 655, 656, 657, 658, 659, 660, 661, 662, 663, 664, 665, 666, 667, 668, 669, 670, 671, 672, 673, 674, 675, 676, 677, 678, 679, 680, 681, 682, 683, 684, 685, 686, 687, 688, 689, 690, 691, 692, 693, 694, 695, 696, 697, 698, 699, 700, 701, 702, 703, 704, 705, 706, 707, 708, 709, 710, 711, 712, 713, 714, 715, 716, 717, 718, 719, 720, 721, 722, 723, 724, 725, 726, 727, 728, 729, 730, 731, 732, 733, 734, 735, 736, 737, 738, 739, 740, 741, 742, 743, 744, 745, 746, 747, 748, 749, 750, 751, 752, 753, 754, 755, 756, 757, 758, 759, 760, 761, 762, 763, 764, 765, 766, 767, 768, 769, 770, 771, 772, 773, 774, 775, 776, 777, 778, 779, 780, 781, 782, 783, 784, 785, 786, 787, 788, 789, 790, 791, 792, 793, 794, 795, 796, 797, 798, 799, 800, 801, 802, 803, 804, 805, 806, 807, 808, 809, 810, 811, 812, 813, 814, 815, 816, 817, 818, 819, 820, 821, 822, 823, 824, 825, 826, 827, 828, 829, 830, 831, 832, 833, 834, 835, 836, 837, 838, 839, 840, 841, 842, 843, 844, 845, 846, 847, 848, 849, 850, 851, 852, 853, 854, 855, 856, 857, 858, 859, 860, 861, 862, 863, 864, 865, 866, 867, 868, 869, 870, 871, 872],
      "AcquisitionTime": ["204105.117500", "204105.577500", "204106.037500", "204106.497500", "204106.957500", "204107.417500", "204107.877500", "204108.337500", "204108.797500", "204109.257500", "204109.717500", "204110.177500", "204110.637500", "204111.097500", "204111.557500", "204112.017500", "204112.477500", "204112.937500", "204113.397500", "204113.857500", "204114.317500", "204114.777500", "204115.237500", "204115.697500", "204116.157500", "204116.617500", "204117.077500", "204117.537500", "204117.997500", "204118.457500", "204118.917500", "204119.377500", "204119.837500", "204120.297500", "204120.757500", "204121.217500", "204121.677500", "204122.137500", "204122.597500", "204123.057500", "204123.517500", "204123.977500", "204124.437500", "204124.897500", "204125.357500", "204125.817500", "204126.277500", "204126.737500", "204127.197500", "204127.657500", "204128.117500", "204128.577500", "204129.037500", "204129.497500", "204129.957500", "204130.417500", "204130.877500", "204131.337500", "204131.797500", "204132.257500", "204132.717500", "204133.177500", "204133.637500", "204134.097500", "204134.557500", "204135.017500", "204135.477500", "204135.937500", "204136.397500", "204136.857500", "204137.317500", "204137.777500", "204138.237500", "204138.697500", "204139.157500", "204139.617500", "204140.077500", "204140.537500", "204140.997500", "204141.457500", "204141.917500", "204142.377500", "204142.837500", "204143.297500", "204143.757500", "204144.217500", "204144.677500", "204145.137500", "204145.597500", "204146.057500", "204146.517500", "204146.977500", "204147.437500", "204147.897500", "204148.357500", "204148.817500", "204149.277500", "204149.737500", "204150.197500", "204150.657500", "204151.117500", "204151.577500", "204152.037500", "204152.497500", "204152.957500", "204153.417500", "204153.877500", "204154.337500", "204154.797500", "204155.257500", "204155.717500", "204156.177500", "204156.637500", "204157.097500", "204157.557500", "204158.017500", "204158.477500", "204158.937500", "204159.397500", "204159.857500", "204200.317500", "204200.777500", "204201.237500", "204201.697500", "204202.157500", "204202.617500", "204203.077500", "204203.537500", "204203.997500", "204204.457500", "204204.917500", "204205.377500", "204205.837500", "204206.297500", "204206.757500", "204207.217500", "204207.677500", "204208.137500", "204208.597500", "204209.057500", "204209.517500", "204209.977500", "204210.437500", "204210.897500", "204211.357500", "204211.817500", "204212.277500", "204212.737500", "204213.197500", "204213.657500", "204214.117500", "204214.577500", "204215.037500", "204215.497500", "204215.957500", "204216.417500", "204216.877500", "204217.337500", "204217.797500", "204218.257500", "204218.717500", "204219.177500", "204219.637500", "204220.097500", "204220.557500", "204221.017500", "204221.477500", "204221.937500", "204222.397500", "204222.857500", "204223.317500", "204223.777500", "204224.237500", "204224.697500", "204225.157500", "204225.617500", "204226.077500", "204226.537500", "204226.997500", "204227.457500", "204227.917500", "204228.377500", "204228.837500", "204229.297500", "204229.757500", "204230.217500", "204230.677500", "204231.137500", "204231.597500", "204232.057500", "204232.517500", "204232.977500", "204233.437500", "204233.897500", "204234.357500", "204234.817500", "204235.277500", "204235.737500", "204236.197500", "204236.657500", "204237.117500", "204237.577500", "204238.037500", "204238.497500", "204238.957500", "204239.417500", "204239.877500", "204240.337500", "204240.797500", "204241.257500", "204241.717500", "204242.177500", "204242.637500", "204243.097500", "204243.557500", "204244.017500", "204244.477500", "204244.937500", "204245.397500", "204245.857500", "204246.317500", "204246.777500", "204247.237500", "204247.697500", "204248.157500", "204248.617500", "204249.077500", "204249.537500", "204249.997500", "204250.457500", "204250.917500", "204251.377500", "204251.837500", "204252.297500", "204252.757500", "204253.217500", "204253.677500", "204254.137500", "204254.597500", "204255.057500", "204255.517500", "204255.977500", "204256.437500", "204256.897500", "204257.357500", "204257.817500", "204258.277500", "204258.737500", "204259.197500", "204259.657500", "204300.117500", "204300.577500", "204301.037500", "204301.497500", "204301.957500", "204302.417500", "204302.877500", "204303.337500", "204303.797500", "204304.257500", "204304.717500", "204305.177500", "204305.637500", "204306.097500", "204306.557500", "204307.017500", "204307.477500", "204307.937500", "204308.397500", "204308.857500", "204309.317500", "204309.777500", "204310.237500", "204310.697500", "204311.157500", "204311.617500", "204312.077500", "204312.537500", "204312.997500", "204313.457500", "204313.917500", "204314.377500", "204314.837500", "204315.297500", "204315.757500", "204316.217500", "204316.677500", "204317.137500", "204317.597500", "204318.057500", "204318.517500", "204318.977500", "204319.437500", "204319.897500", "204320.357500", "204320.817500", "204321.277500", "204321.737500", "204322.197500", "204322.657500", "204323.117500", "204323.577500", "204324.037500", "204324.497500", "204324.957500", "204325.417500", "204325.877500", "204326.337500", "204326.797500", "204327.257500", "204327.717500", "204328.177500", "204328.637500", "204329.097500", "204329.557500", "204330.017500", "204330.477500", "204330.937500", "204331.397500", "204331.857500", "204332.317500", "204332.777500", "204333.237500", "204333.697500", "204334.157500", "204334.617500", "204335.077500", "204335.537500", "204335.997500", "204336.457500", "204336.917500", "204337.377500", "204337.837500", "204338.297500", "204338.757500", "204339.217500", "204339.677500", "204340.137500", "204340.597500", "204341.057500", "204341.517500", "204341.977500", "204342.437500", "204342.897500", "204343.357500", "204343.817500", "204344.277500", "204344.737500", "204345.197500", "204345.657500", "204346.117500", "204346.577500", "204347.037500", "204347.497500", "204347.957500", "204348.417500", "204348.877500", "204349.337500", "204349.797500", "204350.257500", "204350.717500", "204351.177500", "204351.637500", "204352.097500", "204352.557500", "204353.017500", "204353.477500", "204353.937500", "204354.397500", "204354.857500", "204355.317500", "204355.777500", "204356.237500", "204356.697500", "204357.157500", "204357.617500", "204358.077500", "204358.537500", "204358.997500", "204359.457500", "204359.917500", "204400.377500", "204400.837500", "204401.297500", "204401.757500", "204402.217500", "204402.677500", "204403.137500", "204403.597500", "204404.057500", "204404.517500", "204404.977500", "204405.437500", "204405.897500", "204406.357500", "204406.817500", "204407.277500", "204407.737500", "204408.197500", "204408.657500", "204409.117500", "204409.577500", "204410.037500", "204410.497500", "204410.957500", "204411.417500", "204411.877500", "204412.337500", "204412.797500", "204413.257500", "204413.717500", "204414.177500", "204414.637500", "204415.097500", "204415.557500", "204416.017500", "204416.477500", "204416.937500", "204417.397500", "204417.857500", "204418.317500", "204418.777500", "204419.237500", "204419.697500", "204420.157500", "204420.617500", "204421.077500", "204421.537500", "204421.997500", "204422.457500", "204422.917500", "204423.377500", "204423.837500", "204424.297500", "204424.757500", "204425.217500", "204425.677500", "204426.137500", "204426.597500", "204427.057500", "204427.517500", "204427.977500", "204428.437500", "204428.897500", "204429.357500", "204429.817500", "204430.277500", "204430.737500", "204431.197500", "204431.657500", "204432.117500", "204432.577500", "204433.037500", "204433.497500", "204433.957500", "204434.417500", "204434.877500", "204435.337500", "204435.797500", "204436.257500", "204436.717500", "204437.177500", "204437.637500", "204438.097500", "204438.557500", "204439.017500", "204439.477500", "204439.937500", "204440.397500", "204440.857500", "204441.317500", "204441.777500", "204442.237500", "204442.697500", "204443.157500", "204443.617500", "204444.077500", "204444.537500", "204444.997500", "204445.457500", "204445.917500", "204446.377500", "204446.837500", "204447.297500", "204447.757500", "204448.217500", "204448.677500", "204449.137500", "204449.597500", "204450.057500", "204450.517500", "204450.977500", "204451.437500", "204451.897500", "204452.357500", "204452.817500", "204453.277500", "204453.737500", "204454.197500", "204454.657500", "204455.117500", "204455.577500", "204456.037500", "204456.497500", "204456.957500", "204457.417500", "204457.877500", "204458.337500", "204458.797500", "204459.257500", "204459.717500", "204500.177500", "204500.637500", "204501.097500", "204501.557500", "204502.017500", "204502.477500", "204502.937500", "204503.397500", "204503.857500", "204504.317500", "204504.777500", "204505.237500", "204505.697500", "204506.157500", "204506.617500", "204507.077500", "204507.537500", "204507.997500", "204508.457500", "204508.917500", "204509.377500", "204509.837500", "204510.297500", "204510.757500", "204511.217500", "204511.677500", "204512.137500", "204512.597500", "204513.057500", "204513.517500", "204513.977500", "204514.437500", "204514.897500", "204515.357500", "204515.817500", "204516.277500", "204516.737500", "204517.197500", "204517.657500", "204518.117500", "204518.577500", "204519.037500", "204519.497500", "204519.957500", "204520.417500", "204520.877500", "204521.337500", "204521.797500", "204522.257500", "204522.717500", "204523.177500", "204523.637500", "204524.097500", "204524.557500", "204525.017500", "204525.477500", "204525.937500", "204526.397500", "204526.857500", "204527.317500", "204527.777500", "204528.237500", "204528.697500", "204529.157500", "204529.617500", "204530.077500", "204530.537500", "204530.997500", "204531.457500", "204531.917500", "204532.377500", "204532.837500", "204533.297500", "204533.757500", "204534.217500", "204534.677500", "204535.137500", "204535.597500", "204536.057500", "204536.517500", "204536.977500", "204537.437500", "204537.897500", "204538.357500", "204538.817500", "204539.277500", "204539.737500", "204540.197500", "204540.657500", "204541.117500", "204541.577500", "204542.037500", "204542.497500", "204542.957500", "204543.417500", "204543.877500", "204544.337500", "204544.797500", "204545.257500", "204545.717500", "204546.177500", "204546.637500", "204547.097500", "204547.557500", "204548.017500", "204548.477500", "204548.937500", "204549.397500", "204549.857500", "204550.317500", "204550.777500", "204551.237500", "204551.697500", "204552.157500", "204552.617500", "204553.077500", "204553.537500", "204553.997500", "204554.457500", "204554.917500", "204555.377500", "204555.837500", "204556.297500", "204556.757500", "204557.217500", "204557.677500", "204558.137500", "204558.597500", "204559.057500", "204559.517500", "204559.977500", "204600.437500", "204600.897500", "204601.357500", "204601.817500", "204602.277500", "204602.737500", "204603.197500", "204603.657500", "204604.117500", "204604.577500", "204605.037500", "204605.497500", "204605.957500", "204606.417500", "204606.877500", "204607.337500", "204607.797500", "204608.257500", "204608.717500", "204609.177500", "204609.637500", "204610.097500", "204610.557500", "204611.017500", "204611.477500", "204611.937500", "204612.397500", "204612.857500", "204613.317500", "204613.777500", "204614.237500", "204614.697500", "204615.157500", "204615.617500", "204616.077500", "204616.537500", "204616.997500", "204617.457500", "204617.917500", "204618.377500", "204618.837500", "204619.297500", "204619.757500", "204620.217500", "204620.677500", "204621.137500", "204621.597500", "204622.057500", "204622.517500", "204622.977500", "204623.437500", "204623.897500", "204624.357500", "204624.817500", "204625.277500", "204625.737500", "204626.197500", "204626.657500", "204627.117500", "204627.577500", "204628.037500", "204628.497500", "204628.957500", "204629.417500", "204629.877500", "204630.337500", "204630.797500", "204631.257500", "204631.717500", "204632.177500", "204632.637500", "204633.097500", "204633.557500", "204634.017500", "204634.477500", "204634.937500", "204635.397500", "204635.857500", "204636.317500", "204636.777500", "204637.237500", "204637.697500", "204638.157500", "204638.617500", "204639.077500", "204639.537500", "204639.997500", "204640.457500", "204640.917500", "204641.377500", "204641.837500", "204642.297500", "204642.757500", "204643.217500", "204643.677500", "204644.137500", "204644.597500", "204645.057500", "204645.517500", "204645.977500", "204646.437500", "204646.897500", "204647.357500", "204647.817500", "204648.277500", "204648.737500", "204649.197500", "204649.657500", "204650.117500", "204650.577500", "204651.037500", "204651.497500", "204651.957500", "204652.417500", "204652.877500", "204653.337500", "204653.797500", "204654.257500", "204654.717500", "204655.177500", "204655.637500", "204656.097500", "204656.557500", "204657.017500", "204657.477500", "204657.937500", "204658.397500", "204658.857500", "204659.317500", "204659.777500", "204700.237500", "204700.697500", "204701.157500", "204701.617500", "204702.077500", "204702.537500", "204702.997500", "204703.457500", "204703.917500", "204704.377500", "204704.837500", "204705.297500", "204705.757500", "204706.217500", "204706.677500", "204707.137500", "204707.597500", "204708.057500", "204708.517500", "204708.977500", "204709.437500", "204709.897500", "204710.357500", "204710.817500", "204711.277500", "204711.737500", "204712.197500", "204712.657500", "204713.117500", "204713.577500", "204714.037500", "204714.497500", "204714.957500", "204715.417500", "204715.877500", "204716.337500", "204716.797500", "204717.257500", "204717.717500", "204718.177500", "204718.637500", "204719.097500", "204719.557500", "204720.017500", "204720.477500", "204720.937500", "204721.397500", "204721.857500", "204722.317500", "204722.777500", "204723.237500", "204723.697500", "204724.157500", "204724.617500", "204725.077500", "204725.537500", "204725.997500", "204726.457500", "204726.917500", "204727.377500", "204727.837500", "204728.297500", "204728.757500", "204729.217500", "204729.677500", "204730.137500", "204730.597500", "204731.057500", "204731.517500", "204731.977500", "204732.437500", "204732.897500", "204733.357500", "204733.817500", "204734.277500", "204734.737500", "204735.197500", "204735.657500", "204736.117500", "204736.577500", "204737.037500", "204737.497500", "204737.957500", "204738.417500", "204738.877500", "204739.337500", "204739.797500", "204740.257500", "204740.717500", "204741.177500", "204741.637500", "204742.097500", "204742.557500", "204743.017500", "204743.477500", "204743.937500", "204744.397500", "204744.857500", "204745.317500", "204745.777500"],
