{
  "AcquisitionMatrixPE": 82,
  "AcquisitionNumber": 1,
  "AcquisitionTime": "15:14:53.372500",
  "BandwidthPerPixelPhaseEncode": 24.888,
  "BaseResolution": 82,
  "BodyPartExamined": "BRAIN",
  "ConsistencyInfo": "N4_VE11C_LATEST_20160120",
  "ConversionSoftware": "dcm2niix",
  "ConversionSoftwareVersion": "v1.0.20201102",
  "DerivedVendorReportedEchoSpacing": 0.00049,
  "DeviceSerialNumber": "66112",
  "DwellTime": 2e-06,
  "EchoTime": 0.0272,
  "EchoTrainLength": 82,
  "EffectiveEchoSpacing": 0.00049,
  "FlipAngle": 44,
  "ImageComments": "Unaliased MB8/PE3",
  "ImageOrientationPatientDICOM": [0.999779, 0.0133024, 0.0162514, -0.0139605, 0.999058, 0.0410794],
  "ImageType": [
    "ORIGINAL",
    "PRIMARY",
    "M",
    "MB",
    "ND",
    "NORM",
    "MOSAIC"
],
  "ImagingFrequency": 123.252,
  "InPlanePhaseEncodingDirectionDICOM": "COL",
  "InstitutionAddress": "Maynard 3,Hanover,NH,US,03755",
  "InstitutionName": "Dartmouth College - PBS",
  "InstitutionalDepartmentName": "Department",
  "MRAcquisitionType": "2D",
  "MagneticFieldStrength": 3,
  "Manufacturer": "Siemens",
  "ManufacturersModelName": "Prisma",
  "Modality": "MR",
  "MultibandAccelerationFactor": 8,
  "PartialFourier": 1,
  "PatientPosition": "HFS",
  "PercentPhaseFOV": 100,
  "PercentSampling": 100,
  "PhaseEncodingDirection": "j-",
  "PhaseEncodingSteps": 82,
  "PhaseResolution": 1,
  "PixelBandwidth": 3050,
  "ProcedureStepDescription": "Wager_Wager^1076_spacetop",
  "ProtocolName": "func_run-02_task-social_acq-ap-mb8",
  "PulseSequenceDetails": "%CustomerSeq%\\cmrr_mbep2d_bold",
  "ReceiveCoilActiveElements": "HEA;HEP",
  "ReceiveCoilName": "Head_32",
  "ReconMatrixPE": 82,
  "RepetitionTime": 0.46,
  "SAR": 0.0725047,
  "ScanOptions": "FS",
  "ScanningSequence": "EP",
  "SequenceName": "epfid2d1_82",
  "SequenceVariant": "SK\\SS",
  "SeriesDescription": "func_run-02_task-social_acq-ap-mb8",
  "SeriesNumber": 10,
  "ShimSetting": [4165, -7731, -7300, 622, -54, -17, 28, 84],
  "SliceThickness": 2.7,
  "SliceTiming": [0, 0.2525, 0.0625, 0.315, 0.125, 0.3775, 0.19, 0, 0.2525, 0.0625, 0.315, 0.125, 0.3775, 0.19, 0, 0.2525, 0.0625, 0.315, 0.125, 0.3775, 0.19, 0, 0.2525, 0.0625, 0.315, 0.125, 0.3775, 0.19, 0, 0.2525, 0.0625, 0.315, 0.125, 0.3775, 0.19, 0, 0.2525, 0.0625, 0.315, 0.125, 0.3775, 0.19, 0, 0.2525, 0.0625, 0.315, 0.125, 0.3775, 0.19, 0, 0.2525, 0.0625, 0.315, 0.125, 0.3775, 0.19],
  "SoftwareVersions": "syngo MR E11",
  "SpacingBetweenSlices": 2.7,
  "StationName": "AWP66112",
  "TaskName": "social",
  "TotalReadoutTime": 0.03969,
  "TxRefAmp": 227.279,
  "WipMemBlock": "caeef56c-263d-4633-8149-4a5fd7e7f141||Sequence: R016 ve11c/master r/e634e98; Dec 19 2017 11:00:25 by eja",
  "dcmmeta_affine": [
    [-2.682335138320923, -0.03745506703853607, 0.04236191138625145, 110.38511657714844],
    [-0.035689301788806915, 2.6804006099700928, 0.11150258034467697, -85.02178955078125],
    [0.04360119625926018, -0.11021311581134796, 2.697364091873169, -54.23923110961914],
    [0.0, 0.0, 0.0, 1.0]
],
  "dcmmeta_reorient_transform": [
    [0.0, -1.0, 0.0, 81.0],
    [1.0, 0.0, 0.0, 0.0],
    [0.0, 0.0, 1.0, 0.0],
    [0.0, 0.0, 0.0, 1.0]
],
  "dcmmeta_shape": [82, 82, 56, 872],
  "dcmmeta_slice_dim": 2,
  "dcmmeta_version": 0.6,
  "global": {
    "const": {
      "AccessionNumber": "A003478",
      "AcquisitionMatrix": [82, 0, 0, 82],
      "AngioFlag": "N",
      "BitsAllocated": 16,
      "BitsStored": 16,
      "BodyPartExamined": "BRAIN",
      "Columns": 656,
      "EchoNumbers": 1,
      "EchoTime": 27.2,
      "EchoTrainLength": 82,
      "FlipAngle": 44.0,
      "HighBit": 15,
      "ImageOrientationPatient": [0.99977944582458, 0.01330237570381, 0.01625135401514, -0.0139605249619, 0.99905834861468, 0.04107943288423],
      "ImagePositionPatient": [-866.431840333, -911.60842711578, -107.31120109616],
      "ImageType": [
        "ORIGINAL",
        "PRIMARY",
        "M",
        "MB",
        "ND",
        "NORM",
        "MOSAIC"
],
      "ImagedNucleus": "1H",
      "ImagingFrequency": 123.252142,
      "InPlanePhaseEncodingDirection": "COL",
      "MRAcquisitionType": "2D",
      "MagneticFieldStrength": 3.0,
      "Manufacturer": "SIEMENS",
      "ManufacturerModelName": "Prisma",
      "Modality": "MR",
      "NumberOfAverages": 1.0,
      "NumberOfPhaseEncodingSteps": 82,
      "PercentPhaseFieldOfView": 100.0,
      "PercentSampling": 100.0,
      "PerformedProcedureStepStartTime": "145213.637000",
      "PhotometricInterpretation": "MONOCHROME2",
      "PixelBandwidth": 3050.0,
      "PixelRepresentation": 0,
      "PixelSpacing": [2.6829268932343, 2.6829268932343],
      "ProtocolName": "func_run-02_task-social_acq-ap-mb8",
      "RepetitionTime": 460.0,
      "Rows": 656,
      "SAR": 0.07250465734253,
      "SamplesPerPixel": 1,
      "ScanOptions": "FS",
      "ScanningSequence": "EP",
      "SequenceName": "epfid2d1_82",
      "SequenceVariant": [
        "SK",
        "SS"
],
      "SeriesDescription": "func_run-02_task-social_acq-ap-mb8",
      "SeriesNumber": 10,
      "SeriesTime": "151505.419000",
      "SliceLocation": -55.9655468085,
      "SliceThickness": 2.7000000476837,
      "SmallestImagePixelValue": 0,
      "SoftwareVersions": "syngo MR E11",
      "SpacingBetweenSlices": 2.7000000951588,
      "SpecificCharacterSet": "ISO_IR 100",
      "StudyID": "1",
      "StudyTime": "145213.561000",
      "TransmitCoilName": "Body",
      "VariableFlipAngleFlag": "N",
      "WindowCenterWidthExplanation": "Algo1",
      "dBdt": 0.0},
    "slices": {}
  },
  "time": {
    "samples": {
      "AcquisitionNumber": [1, 2, 3, 4, 5, 6, 7, 8, 9, 10, 11, 12, 13, 14, 15, 16, 17, 18, 19, 20, 21, 22, 23, 24, 25, 26, 27, 28, 29, 30, 31, 32, 33, 34, 35, 36, 37, 38, 39, 40, 41, 42, 43, 44, 45, 46, 47, 48, 49, 50, 51, 52, 53, 54, 55, 56, 57, 58, 59, 60, 61, 62, 63, 64, 65, 66, 67, 68, 69, 70, 71, 72, 73, 74, 75, 76, 77, 78, 79, 80, 81, 82, 83, 84, 85, 86, 87, 88, 89, 90, 91, 92, 93, 94, 95, 96, 97, 98, 99, 100, 101, 102, 103, 104, 105, 106, 107, 108, 109, 110, 111, 112, 113, 114, 115, 116, 117, 118, 119, 120, 121, 122, 123, 124, 125, 126, 127, 128, 129, 130, 131, 132, 133, 134, 135, 136, 137, 138, 139, 140, 141, 142, 143, 144, 145, 146, 147, 148, 149, 150, 151, 152, 153, 154, 155, 156, 157, 158, 159, 160, 161, 162, 163, 164, 165, 166, 167, 168, 169, 170, 171, 172, 173, 174, 175, 176, 177, 178, 179, 180, 181, 182, 183, 184, 185, 186, 187, 188, 189, 190, 191, 192, 193, 194, 195, 196, 197, 198, 199, 200, 201, 202, 203, 204, 205, 206, 207, 208, 209, 210, 211, 212, 213, 214, 215, 216, 217, 218, 219, 220, 221, 222, 223, 224, 225, 226, 227, 228, 229, 230, 231, 232, 233, 234, 235, 236, 237, 238, 239, 240, 241, 242, 243, 244, 245, 246, 247, 248, 249, 250, 251, 252, 253, 254, 255, 256, 257, 258, 259, 260, 261, 262, 263, 264, 265, 266, 267, 268, 269, 270, 271, 272, 273, 274, 275, 276, 277, 278, 279, 280, 281, 282, 283, 284, 285, 286, 287, 288, 289, 290, 291, 292, 293, 294, 295, 296, 297, 298, 299, 300, 301, 302, 303, 304, 305, 306, 307, 308, 309, 310, 311, 312, 313, 314, 315, 316, 317, 318, 319, 320, 321, 322, 323, 324, 325, 326, 327, 328, 329, 330, 331, 332, 333, 334, 335, 336, 337, 338, 339, 340, 341, 342, 343, 344, 345, 346, 347, 348, 349, 350, 351, 352, 353, 354, 355, 356, 357, 358, 359, 360, 361, 362, 363, 364, 365, 366, 367, 368, 369, 370, 371, 372, 373, 374, 375, 376, 377, 378, 379, 380, 381, 382, 383, 384, 385, 386, 387, 388, 389, 390, 391, 392, 393, 394, 395, 396, 397, 398, 399, 400, 401, 402, 403, 404, 405, 406, 407, 408, 409, 410, 411, 412, 413, 414, 415, 416, 417, 418, 419, 420, 421, 422, 423, 424, 425, 426, 427, 428, 429, 430, 431, 432, 433, 434, 435, 436, 437, 438, 439, 440, 441, 442, 443, 444, 445, 446, 447, 448, 449, 450, 451, 452, 453, 454, 455, 456, 457, 458, 459, 460, 461, 462, 463, 464, 465, 466, 467, 468, 469, 470, 471, 472, 473, 474, 475, 476, 477, 478, 479, 480, 481, 482, 483, 484, 485, 486, 487, 488, 489, 490, 491, 492, 493, 494, 495, 496, 497, 498, 499, 500, 501, 502, 503, 504, 505, 506, 507, 508, 509, 510, 511, 512, 513, 514, 515, 516, 517, 518, 519, 520, 521, 522, 523, 524, 525, 526, 527, 528, 529, 530, 531, 532, 533, 534, 535, 536, 537, 538, 539, 540, 541, 542, 543, 544, 545, 546, 547, 548, 549, 550, 551, 552, 553, 554, 555, 556, 557, 558, 559, 560, 561, 562, 563, 564, 565, 566, 567, 568, 569, 570, 571, 572, 573, 574, 575, 576, 577, 578, 579, 580, 581, 582, 583, 584, 585, 586, 587, 588, 589, 590, 591, 592, 593, 594, 595, 596, 597, 598, 599, 600, 601, 602, 603, 604, 605, 606, 607, 608, 609, 610, 611, 612, 613, 614, 615, 616, 617, 618, 619, 620, 621, 622, 623, 624, 625, 626, 627, 628, 629, 630, 631, 632, 633, 634, 635, 636, 637, 638, 639, 640, 641, 642, 643, 644, 645, 646, 647, 648, 649, 650, 651, 652, 653, 654, 655, 656, 657, 658, 659, 660, 661, 662, 663, 664, 665, 666, 667, 668, 669, 670, 671, 672, 673, 674, 675, 676, 677, 678, 679, 680, 681, 682, 683, 684, 685, 686, 687, 688, 689, 690, 691, 692, 693, 694, 695, 696, 697, 698, 699, 700, 701, 702, 703, 704, 705, 706, 707, 708, 709, 710, 711, 712, 713, 714, 715, 716, 717, 718, 719, 720, 721, 722, 723, 724, 725, 726, 727, 728, 729, 730, 731, 732, 733, 734, 735, 736, 737, 738, 739, 740, 741, 742, 743, 744, 745, 746, 747, 748, 749, 750, 751, 752, 753, 754, 755, 756, 757, 758, 759, 760, 761, 762, 763, 764, 765, 766, 767, 768, 769, 770, 771, 772, 773, 774, 775, 776, 777, 778, 779, 780, 781, 782, 783, 784, 785, 786, 787, 788, 789, 790, 791, 792, 793, 794, 795, 796, 797, 798, 799, 800, 801, 802, 803, 804, 805, 806, 807, 808, 809, 810, 811, 812, 813, 814, 815, 816, 817, 818, 819, 820, 821, 822, 823, 824, 825, 826, 827, 828, 829, 830, 831, 832, 833, 834, 835, 836, 837, 838, 839, 840, 841, 842, 843, 844, 845, 846, 847, 848, 849, 850, 851, 852, 853, 854, 855, 856, 857, 858, 859, 860, 861, 862, 863, 864, 865, 866, 867, 868, 869, 870, 871, 872],
      "AcquisitionTime": ["151453.372500", "151453.832500", "151454.292500", "151454.752500", "151455.212500", "151455.672500", "151456.132500", "151456.592500", "151457.052500", "151457.512500", "151457.972500", "151458.432500", "151458.892500", "151459.352500", "151459.812500", "151500.272500", "151500.732500", "151501.192500", "151501.652500", "151502.112500", "151502.572500", "151503.032500", "151503.492500", "151503.952500", "151504.412500", "151504.872500", "151505.332500", "151505.792500", "151506.252500", "151506.712500", "151507.172500", "151507.632500", "151508.092500", "151508.552500", "151509.012500", "151509.472500", "151509.932500", "151510.392500", "151510.852500", "151511.312500", "151511.772500", "151512.232500", "151512.692500", "151513.152500", "151513.612500", "151514.072500", "151514.532500", "151514.992500", "151515.452500", "151515.912500", "151516.372500", "151516.832500", "151517.292500", "151517.752500", "151518.212500", "151518.672500", "151519.132500", "151519.592500", "151520.052500", "151520.512500", "151520.972500", "151521.432500", "151521.892500", "151522.352500", "151522.812500", "151523.272500", "151523.732500", "151524.192500", "151524.652500", "151525.112500", "151525.572500", "151526.032500", "151526.492500", "151526.952500", "151527.412500", "151527.872500", "151528.332500", "151528.792500", "151529.252500", "151529.712500", "151530.172500", "151530.632500", "151531.092500", "151531.552500", "151532.012500", "151532.472500", "151532.932500", "151533.392500", "151533.852500", "151534.312500", "151534.772500", "151535.232500", "151535.692500", "151536.152500", "151536.612500", "151537.072500", "151537.532500", "151537.992500", "151538.452500", "151538.912500", "151539.372500", "151539.832500", "151540.292500", "151540.752500", "151541.212500", "151541.672500", "151542.132500", "151542.592500", "151543.052500", "151543.512500", "151543.972500", "151544.432500", "151544.892500", "151545.352500", "151545.812500", "151546.272500", "151546.732500", "151547.192500", "151547.652500", "151548.112500", "151548.572500", "151549.032500", "151549.492500", "151549.952500", "151550.412500", "151550.872500", "151551.332500", "151551.792500", "151552.252500", "151552.712500", "151553.172500", "151553.632500", "151554.092500", "151554.552500", "151555.012500", "151555.472500", "151555.932500", "151556.392500", "151556.852500", "151557.312500", "151557.772500", "151558.232500", "151558.692500", "151559.152500", "151559.612500", "151600.072500", "151600.532500", "151600.992500", "151601.452500", "151601.912500", "151602.372500", "151602.832500", "151603.292500", "151603.752500", "151604.212500", "151604.672500", "151605.132500", "151605.592500", "151606.052500", "151606.512500", "151606.972500", "151607.432500", "151607.892500", "151608.352500", "151608.812500", "151609.272500", "151609.732500", "151610.192500", "151610.652500", "151611.112500", "151611.572500", "151612.032500", "151612.492500", "151612.952500", "151613.412500", "151613.872500", "151614.332500", "151614.792500", "151615.252500", "151615.712500", "151616.172500", "151616.632500", "151617.092500", "151617.552500", "151618.012500", "151618.472500", "151618.932500", "151619.392500", "151619.852500", "151620.312500", "151620.772500", "151621.232500", "151621.692500", "151622.152500", "151622.612500", "151623.072500", "151623.532500", "151623.992500", "151624.452500", "151624.912500", "151625.372500", "151625.832500", "151626.292500", "151626.752500", "151627.212500", "151627.672500", "151628.132500", "151628.592500", "151629.052500", "151629.512500", "151629.972500", "151630.432500", "151630.892500", "151631.352500", "151631.812500", "151632.272500", "151632.732500", "151633.192500", "151633.652500", "151634.112500", "151634.572500", "151635.032500", "151635.492500", "151635.952500", "151636.412500", "151636.872500", "151637.332500", "151637.792500", "151638.252500", "151638.712500", "151639.172500", "151639.632500", "151640.092500", "151640.552500", "151641.012500", "151641.472500", "151641.932500", "151642.392500", "151642.852500", "151643.312500", "151643.772500", "151644.232500", "151644.692500", "151645.152500", "151645.612500", "151646.072500", "151646.532500", "151646.992500", "151647.452500", "151647.912500", "151648.372500", "151648.832500", "151649.292500", "151649.752500", "151650.212500", "151650.672500", "151651.132500", "151651.592500", "151652.052500", "151652.512500", "151652.972500", "151653.432500", "151653.892500", "151654.352500", "151654.812500", "151655.272500", "151655.732500", "151656.192500", "151656.652500", "151657.112500", "151657.572500", "151658.032500", "151658.492500", "151658.952500", "151659.412500", "151659.872500", "151700.332500", "151700.792500", "151701.252500", "151701.712500", "151702.172500", "151702.632500", "151703.092500", "151703.552500", "151704.012500", "151704.472500", "151704.932500", "151705.392500", "151705.852500", "151706.312500", "151706.772500", "151707.232500", "151707.692500", "151708.152500", "151708.612500", "151709.072500", "151709.532500", "151709.992500", "151710.452500", "151710.912500", "151711.372500", "151711.832500", "151712.292500", "151712.752500", "151713.212500", "151713.672500", "151714.132500", "151714.592500", "151715.052500", "151715.512500", "151715.972500", "151716.432500", "151716.892500", "151717.352500", "151717.812500", "151718.272500", "151718.732500", "151719.192500", "151719.652500", "151720.112500", "151720.572500", "151721.032500", "151721.492500", "151721.952500", "151722.412500", "151722.872500", "151723.332500", "151723.792500", "151724.252500", "151724.712500", "151725.172500", "151725.632500", "151726.092500", "151726.552500", "151727.012500", "151727.472500", "151727.932500", "151728.392500", "151728.852500", "151729.312500", "151729.772500", "151730.232500", "151730.692500", "151731.152500", "151731.612500", "151732.072500", "151732.532500", "151732.992500", "151733.452500", "151733.912500", "151734.372500", "151734.832500", "151735.292500", "151735.752500", "151736.212500", "151736.672500", "151737.132500", "151737.592500", "151738.052500", "151738.512500", "151738.972500", "151739.432500", "151739.892500", "151740.352500", "151740.812500", "151741.272500", "151741.732500", "151742.192500", "151742.652500", "151743.112500", "151743.572500", "151744.032500", "151744.492500", "151744.952500", "151745.412500", "151745.872500", "151746.332500", "151746.792500", "151747.252500", "151747.712500", "151748.172500", "151748.632500", "151749.092500", "151749.552500", "151750.012500", "151750.472500", "151750.932500", "151751.392500", "151751.852500", "151752.312500", "151752.772500", "151753.232500", "151753.692500", "151754.152500", "151754.612500", "151755.072500", "151755.532500", "151755.992500", "151756.452500", "151756.912500", "151757.372500", "151757.832500", "151758.292500", "151758.752500", "151759.212500", "151759.672500", "151800.132500", "151800.592500", "151801.052500", "151801.512500", "151801.972500", "151802.432500", "151802.892500", "151803.352500", "151803.812500", "151804.272500", "151804.732500", "151805.192500", "151805.652500", "151806.112500", "151806.572500", "151807.032500", "151807.492500", "151807.952500", "151808.412500", "151808.872500", "151809.332500", "151809.792500", "151810.252500", "151810.712500", "151811.172500", "151811.632500", "151812.092500", "151812.552500", "151813.012500", "151813.472500", "151813.932500", "151814.392500", "151814.852500", "151815.312500", "151815.772500", "151816.232500", "151816.692500", "151817.152500", "151817.612500", "151818.072500", "151818.532500", "151818.992500", "151819.452500", "151819.912500", "151820.372500", "151820.832500", "151821.292500", "151821.752500", "151822.212500", "151822.672500", "151823.132500", "151823.592500", "151824.052500", "151824.512500", "151824.972500", "151825.432500", "151825.892500", "151826.352500", "151826.812500", "151827.272500", "151827.732500", "151828.192500", "151828.652500", "151829.112500", "151829.572500", "151830.032500", "151830.492500", "151830.952500", "151831.412500", "151831.872500", "151832.332500", "151832.792500", "151833.252500", "151833.712500", "151834.172500", "151834.632500", "151835.092500", "151835.552500", "151836.012500", "151836.472500", "151836.932500", "151837.392500", "151837.852500", "151838.312500", "151838.772500", "151839.232500", "151839.692500", "151840.152500", "151840.612500", "151841.072500", "151841.532500", "151841.992500", "151842.452500", "151842.912500", "151843.372500", "151843.832500", "151844.292500", "151844.752500", "151845.212500", "151845.672500", "151846.132500", "151846.592500", "151847.052500", "151847.512500", "151847.972500", "151848.432500", "151848.892500", "151849.352500", "151849.812500", "151850.272500", "151850.732500", "151851.192500", "151851.652500", "151852.112500", "151852.572500", "151853.032500", "151853.492500", "151853.952500", "151854.412500", "151854.872500", "151855.332500", "151855.792500", "151856.252500", "151856.712500", "151857.172500", "151857.632500", "151858.092500", "151858.552500", "151859.012500", "151859.472500", "151859.932500", "151900.392500", "151900.852500", "151901.312500", "151901.772500", "151902.232500", "151902.692500", "151903.152500", "151903.612500", "151904.072500", "151904.532500", "151904.992500", "151905.452500", "151905.912500", "151906.372500", "151906.832500", "151907.292500", "151907.752500", "151908.212500", "151908.672500", "151909.132500", "151909.592500", "151910.052500", "151910.512500", "151910.972500", "151911.432500", "151911.892500", "151912.352500", "151912.812500", "151913.272500", "151913.732500", "151914.192500", "151914.652500", "151915.112500", "151915.572500", "151916.032500", "151916.492500", "151916.952500", "151917.412500", "151917.872500", "151918.332500", "151918.792500", "151919.252500", "151919.712500", "151920.172500", "151920.632500", "151921.092500", "151921.552500", "151922.012500", "151922.472500", "151922.932500", "151923.392500", "151923.852500", "151924.312500", "151924.772500", "151925.232500", "151925.692500", "151926.152500", "151926.612500", "151927.072500", "151927.532500", "151927.992500", "151928.452500", "151928.912500", "151929.372500", "151929.832500", "151930.292500", "151930.752500", "151931.212500", "151931.672500", "151932.132500", "151932.592500", "151933.052500", "151933.512500", "151933.972500", "151934.432500", "151934.892500", "151935.352500", "151935.812500", "151936.272500", "151936.732500", "151937.192500", "151937.652500", "151938.112500", "151938.572500", "151939.032500", "151939.492500", "151939.952500", "151940.412500", "151940.872500", "151941.332500", "151941.792500", "151942.252500", "151942.712500", "151943.172500", "151943.632500", "151944.092500", "151944.552500", "151945.012500", "151945.472500", "151945.932500", "151946.392500", "151946.852500", "151947.312500", "151947.772500", "151948.232500", "151948.692500", "151949.152500", "151949.612500", "151950.072500", "151950.532500", "151950.992500", "151951.452500", "151951.912500", "151952.372500", "151952.832500", "151953.292500", "151953.752500", "151954.212500", "151954.672500", "151955.132500", "151955.592500", "151956.052500", "151956.512500", "151956.972500", "151957.432500", "151957.892500", "151958.352500", "151958.812500", "151959.272500", "151959.732500", "152000.192500", "152000.652500", "152001.112500", "152001.572500", "152002.032500", "152002.492500", "152002.952500", "152003.412500", "152003.872500", "152004.332500", "152004.792500", "152005.252500", "152005.712500", "152006.172500", "152006.632500", "152007.092500", "152007.552500", "152008.012500", "152008.472500", "152008.932500", "152009.392500", "152009.852500", "152010.312500", "152010.772500", "152011.232500", "152011.692500", "152012.152500", "152012.612500", "152013.072500", "152013.532500", "152013.992500", "152014.452500", "152014.912500", "152015.372500", "152015.832500", "152016.292500", "152016.752500", "152017.212500", "152017.672500", "152018.132500", "152018.592500", "152019.052500", "152019.512500", "152019.972500", "152020.432500", "152020.892500", "152021.352500", "152021.812500", "152022.272500", "152022.732500", "152023.192500", "152023.652500", "152024.112500", "152024.572500", "152025.032500", "152025.492500", "152025.952500", "152026.412500", "152026.872500", "152027.332500", "152027.792500", "152028.252500", "152028.712500", "152029.172500", "152029.632500", "152030.092500", "152030.552500", "152031.012500", "152031.472500", "152031.932500", "152032.392500", "152032.852500", "152033.312500", "152033.772500", "152034.232500", "152034.692500", "152035.152500", "152035.612500", "152036.072500", "152036.532500", "152036.992500", "152037.452500", "152037.912500", "152038.372500", "152038.832500", "152039.292500", "152039.752500", "152040.212500", "152040.672500", "152041.132500", "152041.592500", "152042.052500", "152042.512500", "152042.972500", "152043.432500", "152043.892500", "152044.352500", "152044.812500", "152045.272500", "152045.732500", "152046.192500", "152046.652500", "152047.112500", "152047.572500", "152048.032500", "152048.492500", "152048.952500", "152049.412500", "152049.872500", "152050.332500", "152050.792500", "152051.252500", "152051.712500", "152052.172500", "152052.632500", "152053.092500", "152053.552500", "152054.012500", "152054.472500", "152054.932500", "152055.392500", "152055.852500", "152056.312500", "152056.772500", "152057.232500", "152057.692500", "152058.152500", "152058.612500", "152059.072500", "152059.532500", "152059.992500", "152100.452500", "152100.912500", "152101.372500", "152101.832500", "152102.292500", "152102.752500", "152103.212500", "152103.672500", "152104.132500", "152104.592500", "152105.052500", "152105.512500", "152105.972500", "152106.432500", "152106.892500", "152107.352500", "152107.812500", "152108.272500", "152108.732500", "152109.192500", "152109.652500", "152110.112500", "152110.572500", "152111.032500", "152111.492500", "152111.952500", "152112.412500", "152112.872500", "152113.332500", "152113.792500", "152114.252500", "152114.712500", "152115.172500", "152115.632500", "152116.092500", "152116.552500", "152117.012500", "152117.472500", "152117.932500", "152118.392500", "152118.852500", "152119.312500", "152119.772500", "152120.232500", "152120.692500", "152121.152500", "152121.612500", "152122.072500", "152122.532500", "152122.992500", "152123.452500", "152123.912500", "152124.372500", "152124.832500", "152125.292500", "152125.752500", "152126.212500", "152126.672500", "152127.132500", "152127.592500", "152128.052500", "152128.512500", "152128.972500", "152129.432500", "152129.892500", "152130.352500", "152130.812500", "152131.272500", "152131.732500", "152132.192500", "152132.652500", "152133.112500", "152133.572500", "152134.032500"],
