{
  "AcquisitionMatrixPE": 140,
  "AcquisitionNumber": 1,
  "AcquisitionTime": "19:14:26.992500",
  "BandwidthPerPixelPhaseEncode": 10.352,
  "BaseResolution": 140,
  "BodyPartExamined": "BRAIN",
  "ConsistencyInfo": "N4_VE11E_LATEST_20181129",
  "ConversionSoftware": "dcm2niix",
  "ConversionSoftwareVersion": "v1.0.20201102",
  "DerivedVendorReportedEchoSpacing": 0.000689998,
  "DeviceSerialNumber": "66112",
  "DiffusionScheme": "Monopolar",
  "DwellTime": 2.1e-06,
  "EchoTime": 0.088,
  "EchoTrainLength": 105,
  "EffectiveEchoSpacing": 0.000689998,
  "FlipAngle": 90,
  "ImageComments": "Unaliased MB3/PE3",
  "ImageOrientationPatientDICOM": [0.998443, 0.0429091, -0.0356318, -0.0320751, 0.964381, 0.262564],
  "ImageType": [
    "ORIGINAL",
    "PRIMARY",
    "DIFFUSION",
    "NONE",
    "MB",
    "ND"
],
  "ImagingFrequency": 123.259,
  "InPlanePhaseEncodingDirectionDICOM": "COL",
  "InstitutionAddress": "Maynard 3,Hanover,NH,US,03755",
  "InstitutionName": "Dartmouth College - PBS",
  "InstitutionalDepartmentName": "Department",
  "IntendedFor": [
    "ses-01/dwi/sub-0133_ses-01_acq-96dirX6b0Xmb_dwi.nii.gz"
],
  "MRAcquisitionType": "2D",
  "MagneticFieldStrength": 3,
  "Manufacturer": "Siemens",
  "ManufacturersModelName": "Prisma",
  "Modality": "MR",
  "MultibandAccelerationFactor": 3,
  "PartialFourier": 0.75,
  "PatientPosition": "HFS",
  "PercentPhaseFOV": 100,
  "PercentSampling": 100,
  "PhaseEncodingDirection": "j-",
  "PhaseEncodingSteps": 105,
  "PhaseResolution": 1,
  "PixelBandwidth": 1700,
  "ProcedureStepDescription": "Wager_Wager^1076_spacetop",
  "ProtocolName": "dwi_acq-discorr-AP",
  "PulseSequenceDetails": "%CustomerSeq%\\cmrr_mbep2d_diff",
  "ReceiveCoilActiveElements": "HEA;HEP",
  "ReceiveCoilName": "Head_32",
  "ReconMatrixPE": 140,
  "RepetitionTime": 4.1,
  "SAR": 0.170927,
  "ScanOptions": "PFP\\FS",
  "ScanningSequence": "EP",
  "SequenceName": "ep_b0",
  "SequenceVariant": "SK\\SS",
  "SeriesDescription": "dwi_acq-discorr-AP",
  "SeriesNumber": 7,
  "ShimSetting": [4216, -7789, -7239, 126, -113, -96, 31, 81],
  "SliceThickness": 1.7,
  "SliceTiming": [0, 2.10938, 0.14062, 2.26562, 0.29688, 2.40625, 0.45312, 2.5625, 0.59375, 2.71875, 0.75, 2.85938, 0.90625, 3.01562, 1.04688, 3.17188, 1.20312, 3.3125, 1.35938, 3.46875, 1.5, 3.625, 1.65625, 3.76562, 1.8125, 3.92188, 1.95312, 0, 2.10938, 0.14062, 2.26562, 0.29688, 2.40625, 0.45312, 2.5625, 0.59375, 2.71875, 0.75, 2.85938, 0.90625, 3.01562, 1.04688, 3.17188, 1.20312, 3.3125, 1.35938, 3.46875, 1.5, 3.625, 1.65625, 3.76562, 1.8125, 3.92188, 1.95312, 0, 2.10938, 0.14062, 2.26562, 0.29688, 2.40625, 0.45312, 2.5625, 0.59375, 2.71875, 0.75, 2.85938, 0.90625, 3.01562, 1.04688, 3.17188, 1.20312, 3.3125, 1.35938, 3.46875, 1.5, 3.625, 1.65625, 3.76562, 1.8125, 3.92188, 1.95312],
  "SoftwareVersions": "syngo MR E11",
  "SpacingBetweenSlices": 1.7,
  "StationName": "AWP66112",
  "TotalReadoutTime": 0.0959097,
  "TxRefAmp": 277.601,
  "WipMemBlock": "476dc1eb-d005-4cda-9360-03a1f0183cdc||Sequence: R016 ve11e/master r/434b28f1; Aug  7 2019 19:06:17 by eja",
  "dcmmeta_affine": [
    [-1.7116172313690186, -0.05498587340116501, -0.07756936550140381, 128.34803771972656],
    [-0.07355853915214539, 1.653225302696228, 0.4437217712402344, -93.91311645507812],
    [-0.06108313798904419, -0.45010894536972046, 1.6392364501953125, -25.8798828125],
    [0.0, 0.0, 0.0, 1.0]
],
  "dcmmeta_reorient_transform": [
    [0.0, -1.0, 0.0, 139.0],
    [1.0, 0.0, 0.0, 0.0],
    [0.0, 0.0, -1.0, 80.0],
    [0.0, 0.0, 0.0, 1.0]
],
  "dcmmeta_shape": [140, 140, 81],
  "dcmmeta_slice_dim": 2,
  "dcmmeta_version": 0.6,
  "global": {
    "const": {
      "AccessionNumber": "A004921",
      "AcquisitionMatrix": [140, 0, 0, 140],
      "AcquisitionNumber": 1,
      "AngioFlag": "N",
      "BitsAllocated": 16,
      "BitsStored": 16,
      "BodyPartExamined": "BRAIN",
      "Columns": 140,
      "EchoNumbers": 1,
      "EchoTime": 88.0,
      "EchoTrainLength": 105,
      "FlipAngle": 90.0,
      "HighBit": 15,
      "ImageOrientationPatient": [0.99844337738043, 0.04290914587382, -0.0356318307912, -0.0320750932607, 0.96438144655885, 0.26256354264325],
      "ImageType": [
        "ORIGINAL",
        "PRIMARY",
        "DIFFUSION",
        "NONE",
        "MB",
        "ND"
],
      "ImagedNucleus": "1H",
      "ImagingFrequency": 123.258972,
      "InPlanePhaseEncodingDirection": "COL",
      "MRAcquisitionType": "2D",
      "MagneticFieldStrength": 3.0,
      "Manufacturer": "SIEMENS",
      "ManufacturerModelName": "Prisma",
      "Modality": "MR",
      "NumberOfAverages": 1.0,
      "NumberOfPhaseEncodingSteps": 105,
      "PercentPhaseFieldOfView": 100.0,
      "PercentSampling": 100.0,
      "PerformedProcedureStepStartTime": "181835.929000",
      "PhotometricInterpretation": "MONOCHROME2",
      "PixelBandwidth": 1700.0,
      "PixelRepresentation": 0,
      "PixelSpacing": [1.7142857313156, 1.7142857313156],
      "ProtocolName": "dwi_acq-discorr-AP",
      "RepetitionTime": 4100.0,
      "Rows": 140,
      "SAR": 0.1709268422831,
      "SamplesPerPixel": 1,
      "ScanOptions": [
        "PFP",
        "FS"
],
      "ScanningSequence": "EP",
      "SequenceName": "ep_b0",
      "SequenceVariant": [
        "SK",
        "SS"
],
      "SeriesDescription": "dwi_acq-discorr-AP",
      "SeriesNumber": 7,
      "SeriesTime": "191431.584000",
      "SliceThickness": 1.7000000476837,
      "SmallestImagePixelValue": 0,
      "SoftwareVersions": "syngo MR E11",
      "SpacingBetweenSlices": 1.7,
      "SpecificCharacterSet": "ISO_IR 100",
      "StudyID": "1",
      "StudyTime": "181835.850000",
      "TransmitCoilName": "Body",
      "VariableFlipAngleFlag": "N",
      "WindowCenterWidthExplanation": "Algo1"
    },
    "slices": {
      "AcquisitionTime": ["191426.992500", "191429.110000", "191427.145000", "191429.260000", "191427.295000", "191429.412500", "191427.447500", "191429.562500", "191427.597500", "191429.712500", "191427.750000", "191429.865000", "191427.900000", "191430.015000", "191428.052500", "191430.167500", "191428.202500", "191430.317500", "191428.352500", "191430.470000", "191428.505000", "191430.620000", "191428.655000", "191430.770000", "191428.807500", "191430.922500", "191428.957500", "191426.992500", "191429.110000", "191427.145000", "191429.260000", "191427.295000", "191429.412500", "191427.447500", "191429.562500", "191427.597500", "191429.712500", "191427.750000", "191429.865000", "191427.900000", "191430.015000", "191428.052500", "191430.167500", "191428.202500", "191430.317500", "191428.352500", "191430.470000", "191428.505000", "191430.620000", "191428.655000", "191430.770000", "191428.807500", "191430.922500", "191428.957500", "191426.992500", "191429.110000", "191427.145000", "191429.260000", "191427.295000", "191429.412500", "191427.447500", "191429.562500", "191427.597500", "191429.712500", "191427.750000", "191429.865000", "191427.900000", "191430.015000", "191428.052500", "191430.167500", "191428.202500", "191430.317500", "191428.352500", "191430.470000", "191428.505000", "191430.620000", "191428.655000", "191430.770000", "191428.807500", "191430.922500", "191428.957500"],
      "ContentTime": ["191431.587000", "191431.674000", "191431.594000", "191431.680000", "191431.600000", "191431.686000", "191431.606000", "191431.692000", "191431.613000", "191431.697000", "191431.620000", "191431.704000", "191431.626000", "191431.709000", "191431.632000", "191431.717000", "191431.638000", "191431.724000", "191431.644000", "191431.732000", "191431.650000", "191431.738000", "191431.656000", "191431.744000", "191431.662000", "191431.751000", "191431.668000", "191431.590000", "191431.676000", "191431.596000", "191431.682000", "191431.602000", "191431.688000", "191431.609000", "191431.694000", "191431.615000", "191431.699000", "191431.622000", "191431.706000", "191431.628000", "191431.712000", "191431.634000", "191431.719000", "191431.640000", "191431.728000", "191431.646000", "191431.734000", "191431.652000", "191431.740000", "191431.658000", "191431.747000", "191431.664000", "191431.753000", "191431.670000", "191431.592000", "191431.678000", "191431.598000", "191431.684000", "191431.604000", "191431.690000", "191431.611000", "191431.695000", "191431.617000", "191431.701000", "191431.623000", "191431.708000", "191431.630000", "191431.714000", "191431.635000", "191431.722000", "191431.642000", "191431.730000", "191431.648000", "191431.736000", "191431.655000", "191431.742000", "191431.660000", "191431.749000", "191431.666000", "191431.755000", "191431.672000"],
      "CsaImage.GSWDDataType": [
        "predicted",
        "predicted",
        "predicted",
        "predicted",
        "predicted",
        "predicted",
        "predicted",
        "predicted",
        "predicted",
        "predicted",
        "predicted",
        "predicted",
        "predicted",
        "predicted",
        "predicted",
        "predicted",
        "predicted",
        "predicted",
        "predicted",
        "predicted",
        "predicted",
        "predicted",
        "predicted",
        "measured",
        "predicted",
        "measured",
        "predicted",
        "predicted",
        "predicted",
        "predicted",
        "predicted",
        "predicted",
        "predicted",
        "predicted",
        "predicted",
        "predicted",
        "predicted",
        "predicted",
        "predicted",
        "predicted",
        "predicted",
        "predicted",
        "predicted",
        "predicted",
        "predicted",
        "predicted",
        "predicted",
        "predicted",
        "predicted",
        "predicted",
        "measured",
        "predicted",
        "measured",
        "predicted",
        "predicted",
        "predicted",
        "predicted",
        "predicted",
        "predicted",
        "predicted",
        "predicted",
        "predicted",
        "predicted",
        "predicted",
        "predicted",
        "predicted",
        "predicted",
        "predicted",
        "predicted",
        "predicted",
        "predicted",
        "predicted",
        "predicted",
        "predicted",
        "predicted",
        "predicted",
        "predicted",
        "measured",
        "predicted",
        "measured",
        "predicted"
],
      "CsaImage.ICE_Dims": [
        "X_1_1_1_1_1_1_1_1_1_1_1_115",
        "X_1_1_1_1_1_1_42_1_1_2_1_115",
        "X_1_1_1_1_1_1_2_1_1_3_1_115",
        "X_1_1_1_1_1_1_43_1_1_4_1_115",
        "X_1_1_1_1_1_1_3_1_1_5_1_115",
        "X_1_1_1_1_1_1_44_1_1_6_1_115",
        "X_1_1_1_1_1_1_4_1_1_7_1_115",
        "X_1_1_1_1_1_1_45_1_1_8_1_115",
        "X_1_1_1_1_1_1_5_1_1_9_1_115",
        "X_1_1_1_1_1_1_46_1_1_10_1_115",
        "X_1_1_1_1_1_1_6_1_1_11_1_115",
        "X_1_1_1_1_1_1_47_1_1_12_1_115",
        "X_1_1_1_1_1_1_7_1_1_13_1_115",
        "X_1_1_1_1_1_1_48_1_1_14_1_115",
        "X_1_1_1_1_1_1_8_1_1_15_1_115",
        "X_1_1_1_1_1_1_49_1_1_16_1_115",
        "X_1_1_1_1_1_1_9_1_1_17_1_115",
        "X_1_1_1_1_1_1_50_1_1_18_1_115",
        "X_1_1_1_1_1_1_10_1_1_19_1_115",
        "X_1_1_1_1_1_1_51_1_1_20_1_115",
        "X_1_1_1_1_1_1_11_1_1_21_1_115",
        "X_1_1_1_1_1_1_52_1_1_22_1_115",
        "X_1_1_1_1_1_1_12_1_1_23_1_115",
        "X_1_1_1_1_1_1_53_1_1_24_1_115",
        "X_1_1_1_1_1_1_13_1_1_25_1_115",
        "X_1_1_1_1_1_1_54_1_1_26_1_115",
        "X_1_1_1_1_1_1_14_1_1_27_1_115",
        "X_1_1_1_1_1_1_55_1_1_28_1_115",
        "X_1_1_1_1_1_1_15_1_1_29_1_115",
        "X_1_1_1_1_1_1_56_1_1_30_1_115",
        "X_1_1_1_1_1_1_16_1_1_31_1_115",
        "X_1_1_1_1_1_1_57_1_1_32_1_115",
        "X_1_1_1_1_1_1_17_1_1_33_1_115",
        "X_1_1_1_1_1_1_58_1_1_34_1_115",
        "X_1_1_1_1_1_1_18_1_1_35_1_115",
        "X_1_1_1_1_1_1_59_1_1_36_1_115",
        "X_1_1_1_1_1_1_19_1_1_37_1_115",
        "X_1_1_1_1_1_1_60_1_1_38_1_115",
        "X_1_1_1_1_1_1_20_1_1_39_1_115",
        "X_1_1_1_1_1_1_61_1_1_40_1_115",
        "X_1_1_1_1_1_1_21_1_1_41_1_115",
        "X_1_1_1_1_1_1_62_1_1_42_1_115",
        "X_1_1_1_1_1_1_22_1_1_43_1_115",
        "X_1_1_1_1_1_1_63_1_1_44_1_115",
        "X_1_1_1_1_1_1_23_1_1_45_1_115",
        "X_1_1_1_1_1_1_64_1_1_46_1_115",
        "X_1_1_1_1_1_1_24_1_1_47_1_115",
        "X_1_1_1_1_1_1_65_1_1_48_1_115",
        "X_1_1_1_1_1_1_25_1_1_49_1_115",
        "X_1_1_1_1_1_1_66_1_1_50_1_115",
        "X_1_1_1_1_1_1_26_1_1_51_1_115",
        "X_1_1_1_1_1_1_67_1_1_52_1_115",
        "X_1_1_1_1_1_1_27_1_1_53_1_115",
        "X_1_1_1_1_1_1_68_1_1_54_1_115",
        "X_1_1_1_1_1_1_28_1_1_55_1_115",
        "X_1_1_1_1_1_1_69_1_1_56_1_115",
        "X_1_1_1_1_1_1_29_1_1_57_1_115",
        "X_1_1_1_1_1_1_70_1_1_58_1_115",
        "X_1_1_1_1_1_1_30_1_1_59_1_115",
        "X_1_1_1_1_1_1_71_1_1_60_1_115",
        "X_1_1_1_1_1_1_31_1_1_61_1_115",
        "X_1_1_1_1_1_1_72_1_1_62_1_115",
        "X_1_1_1_1_1_1_32_1_1_63_1_115",
        "X_1_1_1_1_1_1_73_1_1_64_1_115",
        "X_1_1_1_1_1_1_33_1_1_65_1_115",
        "X_1_1_1_1_1_1_74_1_1_66_1_115",
        "X_1_1_1_1_1_1_34_1_1_67_1_115",
        "X_1_1_1_1_1_1_75_1_1_68_1_115",
        "X_1_1_1_1_1_1_35_1_1_69_1_115",
        "X_1_1_1_1_1_1_76_1_1_70_1_115",
        "X_1_1_1_1_1_1_36_1_1_71_1_115",
        "X_1_1_1_1_1_1_77_1_1_72_1_115",
        "X_1_1_1_1_1_1_37_1_1_73_1_115",
        "X_1_1_1_1_1_1_78_1_1_74_1_115",
        "X_1_1_1_1_1_1_38_1_1_75_1_115",
        "X_1_1_1_1_1_1_79_1_1_76_1_115",
        "X_1_1_1_1_1_1_39_1_1_77_1_115",
        "X_1_1_1_1_1_1_80_1_1_78_1_115",
        "X_1_1_1_1_1_1_40_1_1_79_1_115",
        "X_1_1_1_1_1_1_81_1_1_80_1_115",
        "X_1_1_1_1_1_1_41_1_1_81_1_115"
],
      "CsaImage.ProtocolSliceNumber": [0, 1, 2, 3, 4, 5, 6, 7, 8, 9, 10, 11, 12, 13, 14, 15, 16, 17, 18, 19, 20, 21, 22, 23, 24, 25, 26, 27, 28, 29, 30, 31, 32, 33, 34, 35, 36, 37, 38, 39, 40, 41, 42, 43, 44, 45, 46, 47, 48, 49, 50, 51, 52, 53, 54, 55, 56, 57, 58, 59, 60, 61, 62, 63, 64, 65, 66, 67, 68, 69, 70, 71, 72, 73, 74, 75, 76, 77, 78, 79, 80],
      "CsaImage.RFSWDDataType": [
        "predicted",
        "predicted",
        "predicted",
        "predicted",
        "predicted",
        "predicted",
        "predicted",
        "predicted",
        "predicted",
        "predicted",
        "predicted",
        "predicted",
        "predicted",
        "predicted",
        "predicted",
        "predicted",
        "predicted",
        "predicted",
        "predicted",
        "predicted",
        "predicted",
        "predicted",
        "predicted",
        "measured",
        "predicted",
        "measured",
        "predicted",
        "predicted",
        "predicted",
        "predicted",
        "predicted",
        "predicted",
        "predicted",
        "predicted",
        "predicted",
        "predicted",
        "predicted",
        "predicted",
        "predicted",
        "predicted",
        "predicted",
        "predicted",
        "predicted",
        "predicted",
        "predicted",
        "predicted",
        "predicted",
        "predicted",
        "predicted",
        "predicted",
        "measured",
        "predicted",
        "measured",
        "predicted",
        "predicted",
        "predicted",
        "predicted",
        "predicted",
        "predicted",
        "predicted",
        "predicted",
        "predicted",
        "predicted",
        "predicted",
        "predicted",
        "predicted",
        "predicted",
        "predicted",
        "predicted",
        "predicted",
        "predicted",
        "predicted",
        "predicted",
        "predicted",
        "predicted",
        "predicted",
        "predicted",
        "measured",
        "predicted",
        "measured",
        "predicted"
],
      "CsaImage.SlicePosition_PCS": [
        [-120.70499706, -135.88532838, -88.44500149],
        [-120.62742757, -136.3290492, -86.80576504],
        [-120.54985809, -136.77276906, -85.16652859],
        [-120.47228908, -137.21648988, -83.52729596],
        [-120.3947196, -137.66020974, -81.88805951],
        [-120.31715011, -138.1039296, -80.24882306],
        [-120.23958063, -138.54764947, -78.60958661],
        [-120.16201162, -138.99137124, -76.97035016],
        [-120.08444213, -139.4350911, -75.33111371],
        [-120.00687265, -139.87881097, -73.69187726],
        [-119.92930316, -140.32253083, -72.05264081],
        [-119.85173392, -140.7662526, -70.41340436],
        [-119.77416443, -141.20997247, -68.77416791],
        [-119.69659519, -141.65369233, -67.13493146],
        [-119.6190257, -142.09741219, -65.49569501],
        [-119.54145646, -142.54113206, -63.85645856],
        [-119.46388697, -142.98485383, -62.21722211],
        [-119.38631749, -143.42857369, -60.57798947],
        [-119.30874824, -143.87229356, -58.93875111],
        [-119.23117876, -144.31601342, -57.29951466],
        [-119.15360951, -144.75973519, -55.66027821],
        [-119.07604002, -145.20345506, -54.02104367],
        [-118.99847078, -145.64717492, -52.38180722],
        [-118.92090129, -146.09089478, -50.74257077],
        [-118.84333181, -146.53461465, -49.10333432],
        [-118.76576256, -146.97833642, -47.46409787],
        [-118.68819308, -147.42205628, -45.82486142],
        [-118.61062383, -147.86577615, -44.18562497],
        [-118.53305435, -148.30949601, -42.54638947],
        [-118.4554851, -148.75321778, -40.90715302],
        [-118.37791562, -149.19693765, -39.26791752],
        [-118.30034637, -149.64065751, -37.62868107],
        [-118.22277688, -150.08437737, -35.98944462],
        [-118.1452074, -150.52809724, -34.35020865],
        [-118.06763815, -150.97181901, -32.7109722],
        [-117.99006867, -151.41553887, -31.07173623],
        [-117.9124993, -151.85925874, -29.43250002],
        [-117.83492994, -152.3029786, -27.79326374],
        [-117.75736057, -152.74670037, -26.15402759],
        [-117.67979121, -153.19042024, -24.51479138],
        [-117.60222184, -153.63414201, -22.87555493],
        [-117.52465248, -154.07785996, -21.23631896],
        [-117.44708311, -154.52158173, -19.59708298],
        [-117.36951363, -154.96529969, -17.95784653],
        [-117.29194426, -155.40902146, -16.31861008],
        [-117.21437489, -155.85274323, -14.67937459],
        [-117.13680553, -156.29646119, -13.04013814],
        [-117.05923616, -156.74018296, -11.40090169],
        [-116.9816668, -157.18390092, -9.76166524],
        [-116.90409737, -157.62762269, -8.12242879],
        [-116.82652801, -158.07134446, -6.48319234],
        [-116.74895864, -158.51506242, -4.84395779],
        [-116.67138928, -158.95878419, -3.20472134],
        [-116.59381985, -159.40250214, -1.56548489],
        [-116.51625049, -159.84622392, 0.07375156],
        [-116.43868109, -160.28994569, 1.71298801],
        [-116.36111173, -160.73366364, 3.35222446],
        [-116.28354233, -161.17738542, 4.99146091],
        [-116.20597296, -161.62110719, 6.63069736],
        [-116.12840358, -162.06482514, 8.26993381],
        [-116.0508342, -162.50854691, 9.90917026],
        [-115.97326482, -162.95226487, 11.54840671],
        [-115.89569544, -163.39598664, 13.18763935],
        [-115.81812605, -163.83970841, 14.8268758],
        [-115.74055667, -164.28342637, 16.46611225],
        [-115.66298729, -164.72714814, 18.1053487],
        [-115.58541792, -165.1708661, 19.74458515],
        [-115.50784853, -165.61458787, 21.3838216],
        [-115.43027913, -166.05830964, 23.02305805],
        [-115.35270977, -166.5020276, 24.6622945],
        [-115.2751404, -166.94574937, 26.30153095],
        [-115.19757097, -167.38946732, 27.9407674],
        [-115.12000161, -167.8331891, 29.58000385],
        [-115.04243224, -168.27691087, 31.2192403],
        [-114.96486288, -168.72062882, 32.85847675],
        [-114.88729345, -169.16435059, 34.4977132],
        [-114.80972409, -169.60807237, 36.13694965],
        [-114.73215472, -170.05179032, 37.77618228],
        [-114.65458536, -170.49551209, 39.41541873],
        [-114.57701599, -170.93923005, 41.05465518],
        [-114.49944663, -171.38295182, 42.69389163]
],
      "CsaImage.TimeAfterStart": [16.4, 18.515, 16.5525, 18.6675, 16.7025, 18.8175, 16.855, 18.97, 17.005, 19.12, 17.155, 19.2725, 17.3075, 19.4225, 17.4575, 19.575, 17.61, 19.725, 17.76, 19.875, 17.9125, 20.0275, 18.0625, 20.1775, 18.215, 20.33, 18.365, 16.4, 18.515, 16.5525, 18.6675, 16.7025, 18.8175, 16.855, 18.97, 17.005, 19.12, 17.155, 19.2725, 17.3075, 19.4225, 17.4575, 19.575, 17.61, 19.725, 17.76, 19.875, 17.9125, 20.0275, 18.0625, 20.1775, 18.215, 20.33, 18.365, 16.4, 18.515, 16.5525, 18.6675, 16.7025, 18.8175, 16.855, 18.97, 17.005, 19.12, 17.155, 19.2725, 17.3075, 19.4225, 17.4575, 19.575, 17.61, 19.725, 17.76, 19.875, 17.9125, 20.0275, 18.0625, 20.1775, 18.215, 20.33, 18.365],
      "ImagePositionPatient": [
        [-120.70499705759, -135.88532837791, -88.44500149355],
        [-120.62742757288, -136.32904919548, -86.805765043355],
        [-120.54985808817, -136.77276905937, -85.166528593159],
        [-120.47228908029, -137.21648987693, -83.527295957661],
        [-120.39471959558, -137.66020974082, -81.888059507466],
        [-120.31715011087, -138.10392960472, -80.248823057271],
        [-120.23958062616, -138.54764946861, -78.609586607075],
        [-120.16201161829, -138.99137123985, -76.97035015688],
        [-120.08444213358, -139.43509110374, -75.331113706685],
        [-120.00687264887, -139.87881096763, -73.69187725649],
        [-119.92930316416, -140.32253083152, -72.052640806294],
        [-119.85173391786, -140.76625260276, -70.413404356099],
        [-119.77416443315, -141.20997246665, -68.774167905904],
        [-119.69659518686, -141.65369233055, -67.134931455708],
        [-119.61902570215, -142.09741219444, -65.495695005513],
        [-119.54145645586, -142.54113205833, -63.856458555318],
        [-119.46388697115, -142.98485382957, -62.217222105122],
        [-119.38631748644, -143.42857369346, -60.577989469624],
        [-119.30874824014, -143.87229355735, -58.93875111208],
        [-119.23117875543, -144.31601342124, -57.299514661885],
        [-119.15360950914, -144.75973519248, -55.66027821169],
        [-119.07604002443, -145.20345505638, -54.021043668843],
        [-118.99847077814, -145.64717492027, -52.381807218648],
        [-118.92090129343, -146.09089478416, -50.742570768452],
        [-118.84333180872, -146.53461464805, -49.103334318257],
        [-118.76576256242, -146.97833641929, -47.464097868062],
        [-118.68819307771, -147.42205628318, -45.824861417866],
        [-118.61062383142, -147.86577614707, -44.185624967671],
        [-118.53305434671, -148.30949601097, -42.54638947115],
        [-118.45548510042, -148.75321778221, -40.907153020955],
        [-118.37791561571, -149.1969376461, -39.267917524434],
        [-118.30034636942, -149.64065750999, -37.628681074239],
        [-118.22277688471, -150.08437737388, -35.989444624043],
        [-118.14520739999, -150.52809723777, -34.350208650685],
        [-118.0676381537, -150.97181900901, -32.71097220049],
        [-117.99006866899, -151.4155388729, -31.071736227132],
        [-117.91249930349, -151.8592587368, -29.432500015355],
        [-117.83492993799, -152.30297860069, -27.793263743974],
        [-117.75736057249, -152.74670037193, -26.154027591801],
        [-117.67979120699, -153.19042023582, -24.514791380025],
        [-117.60222184149, -153.63414200706, -22.875554929829],
        [-117.52465247598, -154.0778599636, -21.236318956471],
        [-117.44708311048, -154.52158173484, -19.597082983113],
        [-117.36951362577, -154.96529969139, -17.957846532918],
        [-117.29194426027, -155.40902146263, -16.318610082722],
        [-117.21437489477, -155.85274323387, -14.679374586201],
        [-117.13680552927, -156.29646119041, -13.040138136006],
        [-117.05923616377, -156.74018296165, -11.400901685811],
        [-116.98166679826, -157.18390091819, -9.7616652356155],
        [-116.90409737316, -157.62762268943, -8.1224287854202],
        [-116.82652800766, -158.07134446067, -6.4831923352249],
        [-116.74895864216, -158.51506241722, -4.8439577923782],
        [-116.67138927665, -158.95878418846, -3.2047213421829],
        [-116.59381985155, -159.402502145, -1.5654848919876],
        [-116.51625048605, -159.84622391624, 0.07375155820773],
        [-116.43868109074, -160.28994568748, 1.712988008403],
        [-116.36111172524, -160.73366364402, 3.3522244585984],
        [-116.28354232994, -161.17738541526, 4.9914609087937],
        [-116.20597296444, -161.6211071865, 6.630697358989],
        [-116.12840358403, -162.06482514305, 8.2699338091843],
        [-116.05083419618, -162.50854691429, 9.9091702593796],
        [-115.97326481764, -162.95226487083, 11.548406709575],
        [-115.89569543538, -163.39598664207, 13.187639345073],
        [-115.81812604752, -163.83970841331, 14.826875795268],
        [-115.74055666712, -164.28342636985, 16.466112245464],
        [-115.66298728672, -164.72714814109, 18.105348695659],
        [-115.58541792122, -165.17086609764, 19.744585145854],
        [-115.50784852591, -165.61458786888, 21.38382159605],
        [-115.43027913061, -166.05830964012, 23.023058046245],
        [-115.35270976511, -166.50202759666, 24.66229449644],
        [-115.27514039961, -166.9457493679, 26.301530946635],
        [-115.1975709745, -167.38946732444, 27.940767396831],
        [-115.120001609, -167.83318909568, 29.580003847026],
        [-115.0424322435, -168.27691086692, 31.219240297221],
        [-114.964862878, -168.72062882347, 32.858476747417],
        [-114.88729345289, -169.16435059471, 34.497713197612],
        [-114.80972408739, -169.60807236595, 36.136949647807],
        [-114.73215472189, -170.05179032249, 37.776182283305],
        [-114.65458535639, -170.49551209373, 39.415418733501],
        [-114.57701599088, -170.93923005027, 41.054655183696],
        [-114.49944662538, -171.38295182151, 42.693891633891]
],
      "InstanceCreationTime": ["191431.587000", "191431.674000", "191431.594000", "191431.680000", "191431.600000", "191431.686000", "191431.606000", "191431.692000", "191431.613000", "191431.697000", "191431.620000", "191431.704000", "191431.626000", "191431.709000", "191431.632000", "191431.717000", "191431.638000", "191431.724000", "191431.644000", "191431.732000", "191431.650000", "191431.738000", "191431.656000", "191431.744000", "191431.662000", "191431.751000", "191431.668000", "191431.590000", "191431.676000", "191431.596000", "191431.682000", "191431.602000", "191431.688000", "191431.609000", "191431.694000", "191431.615000", "191431.699000", "191431.622000", "191431.706000", "191431.628000", "191431.712000", "191431.634000", "191431.719000", "191431.640000", "191431.728000", "191431.646000", "191431.734000", "191431.652000", "191431.740000", "191431.658000", "191431.747000", "191431.664000", "191431.753000", "191431.670000", "191431.592000", "191431.678000", "191431.598000", "191431.684000", "191431.604000", "191431.690000", "191431.611000", "191431.695000", "191431.617000", "191431.701000", "191431.623000", "191431.708000", "191431.630000", "191431.714000", "191431.635000", "191431.722000", "191431.642000", "191431.730000", "191431.648000", "191431.736000", "191431.655000", "191431.742000", "191431.660000", "191431.749000", "191431.666000", "191431.755000", "191431.672000"],
      "InstanceNumber": [1, 2, 3, 4, 5, 6, 7, 8, 9, 10, 11, 12, 13, 14, 15, 16, 17, 18, 19, 20, 21, 22, 23, 24, 25, 26, 27, 28, 29, 30, 31, 32, 33, 34, 35, 36, 37, 38, 39, 40, 41, 42, 43, 44, 45, 46, 47, 48, 49, 50, 51, 52, 53, 54, 55, 56, 57, 58, 59, 60, 61, 62, 63, 64, 65, 66, 67, 68, 69, 70, 71, 72, 73, 74, 75, 76, 77, 78, 79, 80, 81],
      "LargestImagePixelValue": [26219, 24470, 28065, 51688, 50737, 47310, 52639, 40962, 33819, 27084, 28700, 35966, 44124, 45833, 42101, 36844, 44565, 63951, 60315, 63918, 64324, 50117, 41804, 47361, 35394, 32260, 33065, 33227, 34521, 31607, 31490, 38685, 41705, 36372, 36915, 41569, 42083, 51957, 36219, 33700, 38488, 41254, 42276, 49522, 46769, 49913, 53805, 55995, 62534, 58326, 62655, 53175, 62118, 65535, 59822, 59079, 63154, 65535, 65535, 58771, 58279, 53850, 51626, 65535, 65535, 55224, 63308, 58828, 49941, 65535, 65535, 65535, 65535, 65535, 65535, 65535, 65535, 65535, 65535, 65535, 40538],
      "SliceLocation": [-55.323637142599, -53.623636751849, -51.92363661002, -50.223639919375, -48.523639777546, -46.823639635717, -45.123639493888, -43.423638875976, -41.723638734147, -40.023638592318, -38.323638450489, -36.623637821697, -34.923637679868, -33.223637548918, -31.523637407089, -29.823637276139, -28.123636636469, -26.423640172987, -24.723638202863, -23.023638061034, -21.323637432243, -19.623639129587, -17.923638998637, -16.223638856808, -14.523638714979, -12.823638086188, -11.123637944359, -9.4236378134083, -7.7236385911659, -6.0236379623749, -4.3236387401325, -2.6236386091822, -0.9236384673531, 0.77636121468262, 2.4763618434737, 4.1763615255094, 5.8763614320024, 7.5763613959696, 9.2763617428292, 10.976361649322, 12.676362283553, 14.376361462308, 16.076361636745, 17.776361280734, 19.476361914964, 21.176361629608, 22.876361268157, 24.576361902387, 26.276361540936, 27.976362177886, 29.676362812117, 31.376360611492, 33.076361245723, 34.776360886991, 36.476361521222, 38.176362156812, 39.876361795361, 41.576362430951, 43.276363065182, 44.976362704411, 46.676363339661, 48.376362978805, 50.076359935453, 51.776360570704, 53.476360209932, 55.176360844843, 56.876360483392, 58.576361118982, 60.276361754572, 61.976361393121, 63.676362027352, 65.37636166862, 67.076362302851, 68.776362937081, 70.47636257563, 72.17636321258, 73.876363846811, 75.576359807013, 77.276360441243, 78.976360079792, 80.676360714023],
