{
  "AcquisitionMatrixPE": 82,
  "AcquisitionNumber": 1,
  "AcquisitionTime": "15:17:30.010000",
  "BandwidthPerPixelPhaseEncode": 24.888,
  "BaseResolution": 82,
  "BodyPartExamined": "BRAIN",
  "ConsistencyInfo": "N4_VE11E_LATEST_20181129",
  "ConversionSoftware": "dcm2niix",
  "ConversionSoftwareVersion": "v1.0.20201102",
  "DerivedVendorReportedEchoSpacing": 0.00049,
  "DeviceSerialNumber": "66112",
  "DwellTime": 2e-06,
  "EchoTime": 0.0272,
  "EchoTrainLength": 82,
  "EffectiveEchoSpacing": 0.00049,
  "FlipAngle": 44,
  "ImageComments": "Unaliased MB8/PE3",
  "ImageOrientationPatientDICOM": [0.997774, -0.0662148, 0.00797191, 0.0645231, 0.988632, 0.135805],
  "ImageType": [
    "ORIGINAL",
    "PRIMARY",
    "M",
    "MB",
    "ND",
    "NORM",
    "MOSAIC"
],
  "ImagingFrequency": 123.259,
  "InPlanePhaseEncodingDirectionDICOM": "COL",
  "InstitutionAddress": "Maynard 3,Hanover,NH,US,03755",
  "InstitutionName": "Dartmouth College - PBS",
  "InstitutionalDepartmentName": "Department",
  "MRAcquisitionType": "2D",
  "MagneticFieldStrength": 3,
  "Manufacturer": "Siemens",
  "ManufacturersModelName": "Prisma",
  "Modality": "MR",
  "MultibandAccelerationFactor": 8,
  "PartialFourier": 1,
  "PatientPosition": "HFS",
  "PercentPhaseFOV": 100,
  "PercentSampling": 100,
  "PhaseEncodingDirection": "j-",
  "PhaseEncodingSteps": 82,
  "PhaseResolution": 1,
  "PixelBandwidth": 3050,
  "ProcedureStepDescription": "Wager_Wager^1076_spacetop",
  "ProtocolName": "func_run-05_task-social_acq-ap-mb8",
  "PulseSequenceDetails": "%CustomerSeq%\\cmrr_mbep2d_bold",
  "ReceiveCoilActiveElements": "HEA;HEP",
  "ReceiveCoilName": "Head_32",
  "ReconMatrixPE": 82,
  "RepetitionTime": 0.46,
  "SAR": 0.0883897,
  "ScanOptions": "FS",
  "ScanningSequence": "EP",
  "SequenceName": "epfid2d1_82",
  "SequenceVariant": "SK\\SS",
  "SeriesDescription": "func_run-05_task-social_acq-ap-mb8",
  "SeriesNumber": 16,
  "ShimSetting": [4236, -7913, -7204, 544, -175, -258, 315, 149],
  "SliceThickness": 2.7,
  "SliceTiming": [0, 0.2525, 0.0625, 0.315, 0.125, 0.3775, 0.1875, 0, 0.2525, 0.0625, 0.315, 0.125, 0.3775, 0.1875, 0, 0.2525, 0.0625, 0.315, 0.125, 0.3775, 0.1875, 0, 0.2525, 0.0625, 0.315, 0.125, 0.3775, 0.1875, 0, 0.2525, 0.0625, 0.315, 0.125, 0.3775, 0.1875, 0, 0.2525, 0.0625, 0.315, 0.125, 0.3775, 0.1875, 0, 0.2525, 0.0625, 0.315, 0.125, 0.3775, 0.1875, 0, 0.2525, 0.0625, 0.315, 0.125, 0.3775, 0.1875],
  "SoftwareVersions": "syngo MR E11",
  "SpacingBetweenSlices": 2.7,
  "StationName": "AWP66112",
  "TaskName": "social",
  "TotalReadoutTime": 0.03969,
  "TxRefAmp": 237.882,
  "WipMemBlock": "e8270819-e64a-43ad-b50b-ea2fe25290b8||Sequence: R016 ve11e/master r/434b28f1; Aug  7 2019 18:53:46 by eja",
  "dcmmeta_affine": [
    [-2.6769535541534424, 0.17311081290245056, 0.04555869475007057, 102.24628448486328],
    [0.17764946818351746, 2.652428150177002, 0.3644682466983795, -118.98263549804688],
    [0.021388059481978416, -0.36435481905937195, 2.6748995780944824, -45.51960372924805],
    [0.0, 0.0, 0.0, 1.0]
],
  "dcmmeta_reorient_transform": [
    [0.0, -1.0, 0.0, 81.0],
    [1.0, 0.0, 0.0, 0.0],
    [0.0, 0.0, 1.0, 0.0],
    [0.0, 0.0, 0.0, 1.0]
],
  "dcmmeta_shape": [82, 82, 56, 872],
  "dcmmeta_slice_dim": 2,
  "dcmmeta_version": 0.6,
  "global": {
    "const": {
      "AccessionNumber": "A004670",
      "AcquisitionMatrix": [82, 0, 0, 82],
      "AngioFlag": "N",
      "BitsAllocated": 16,
      "BitsStored": 16,
      "BodyPartExamined": "BRAIN",
      "Columns": 656,
      "EchoNumbers": 1,
      "EchoTime": 27.2,
      "EchoTrainLength": 82,
      "FlipAngle": 44.0,
      "HighBit": 15,
      "ImageOrientationPatient": [0.99777354578042, -0.0662148015345, 0.00797191310201, 0.06452312216736, 0.98863227482522, 0.13580497737453],
      "ImagePositionPatient": [-934.2367179787, -806.12551482166, -185.74055124895],
      "ImageType": [
        "ORIGINAL",
        "PRIMARY",
        "M",
        "MB",
        "ND",
        "NORM",
        "MOSAIC"
],
      "ImagedNucleus": "1H",
      "ImagingFrequency": 123.25909,
      "InPlanePhaseEncodingDirection": "COL",
      "MRAcquisitionType": "2D",
      "MagneticFieldStrength": 3.0,
      "Manufacturer": "SIEMENS",
      "ManufacturerModelName": "Prisma",
      "Modality": "MR",
      "NumberOfAverages": 1.0,
      "NumberOfPhaseEncodingSteps": 82,
      "PercentPhaseFieldOfView": 100.0,
      "PercentSampling": 100.0,
      "PerformedProcedureStepStartTime": "141015.186000",
      "PhotometricInterpretation": "MONOCHROME2",
      "PixelBandwidth": 3050.0,
      "PixelRepresentation": 0,
      "PixelSpacing": [2.6829268932343, 2.6829268932343],
      "ProtocolName": "func_run-05_task-social_acq-ap-mb8",
      "RepetitionTime": 460.0,
      "Rows": 656,
      "SAR": 0.0883897273466,
      "SamplesPerPixel": 1,
      "ScanOptions": "FS",
      "ScanningSequence": "EP",
      "SequenceName": "epfid2d1_82",
      "SequenceVariant": [
        "SK",
        "SS"
],
      "SeriesDescription": "func_run-05_task-social_acq-ap-mb8",
      "SeriesNumber": 16,
      "SeriesTime": "151759.842000",
      "SliceLocation": -59.432424317941,
      "SliceThickness": 2.7000000476837,
      "SmallestImagePixelValue": 0,
      "SoftwareVersions": "syngo MR E11",
      "SpacingBetweenSlices": 2.7000000060619,
      "SpecificCharacterSet": "ISO_IR 100",
      "StudyID": "1",
      "StudyTime": "141015.096000",
      "TransmitCoilName": "Body",
      "VariableFlipAngleFlag": "N",
      "WindowCenterWidthExplanation": "Algo1"
    },
    "slices": {}
  },
  "time": {
    "samples": {
      "AcquisitionNumber": [1, 2, 3, 4, 5, 6, 7, 8, 9, 10, 11, 12, 13, 14, 15, 16, 17, 18, 19, 20, 21, 22, 23, 24, 25, 26, 27, 28, 29, 30, 31, 32, 33, 34, 35, 36, 37, 38, 39, 40, 41, 42, 43, 44, 45, 46, 47, 48, 49, 50, 51, 52, 53, 54, 55, 56, 57, 58, 59, 60, 61, 62, 63, 64, 65, 66, 67, 68, 69, 70, 71, 72, 73, 74, 75, 76, 77, 78, 79, 80, 81, 82, 83, 84, 85, 86, 87, 88, 89, 90, 91, 92, 93, 94, 95, 96, 97, 98, 99, 100, 101, 102, 103, 104, 105, 106, 107, 108, 109, 110, 111, 112, 113, 114, 115, 116, 117, 118, 119, 120, 121, 122, 123, 124, 125, 126, 127, 128, 129, 130, 131, 132, 133, 134, 135, 136, 137, 138, 139, 140, 141, 142, 143, 144, 145, 146, 147, 148, 149, 150, 151, 152, 153, 154, 155, 156, 157, 158, 159, 160, 161, 162, 163, 164, 165, 166, 167, 168, 169, 170, 171, 172, 173, 174, 175, 176, 177, 178, 179, 180, 181, 182, 183, 184, 185, 186, 187, 188, 189, 190, 191, 192, 193, 194, 195, 196, 197, 198, 199, 200, 201, 202, 203, 204, 205, 206, 207, 208, 209, 210, 211, 212, 213, 214, 215, 216, 217, 218, 219, 220, 221, 222, 223, 224, 225, 226, 227, 228, 229, 230, 231, 232, 233, 234, 235, 236, 237, 238, 239, 240, 241, 242, 243, 244, 245, 246, 247, 248, 249, 250, 251, 252, 253, 254, 255, 256, 257, 258, 259, 260, 261, 262, 263, 264, 265, 266, 267, 268, 269, 270, 271, 272, 273, 274, 275, 276, 277, 278, 279, 280, 281, 282, 283, 284, 285, 286, 287, 288, 289, 290, 291, 292, 293, 294, 295, 296, 297, 298, 299, 300, 301, 302, 303, 304, 305, 306, 307, 308, 309, 310, 311, 312, 313, 314, 315, 316, 317, 318, 319, 320, 321, 322, 323, 324, 325, 326, 327, 328, 329, 330, 331, 332, 333, 334, 335, 336, 337, 338, 339, 340, 341, 342, 343, 344, 345, 346, 347, 348, 349, 350, 351, 352, 353, 354, 355, 356, 357, 358, 359, 360, 361, 362, 363, 364, 365, 366, 367, 368, 369, 370, 371, 372, 373, 374, 375, 376, 377, 378, 379, 380, 381, 382, 383, 384, 385, 386, 387, 388, 389, 390, 391, 392, 393, 394, 395, 396, 397, 398, 399, 400, 401, 402, 403, 404, 405, 406, 407, 408, 409, 410, 411, 412, 413, 414, 415, 416, 417, 418, 419, 420, 421, 422, 423, 424, 425, 426, 427, 428, 429, 430, 431, 432, 433, 434, 435, 436, 437, 438, 439, 440, 441, 442, 443, 444, 445, 446, 447, 448, 449, 450, 451, 452, 453, 454, 455, 456, 457, 458, 459, 460, 461, 462, 463, 464, 465, 466, 467, 468, 469, 470, 471, 472, 473, 474, 475, 476, 477, 478, 479, 480, 481, 482, 483, 484, 485, 486, 487, 488, 489, 490, 491, 492, 493, 494, 495, 496, 497, 498, 499, 500, 501, 502, 503, 504, 505, 506, 507, 508, 509, 510, 511, 512, 513, 514, 515, 516, 517, 518, 519, 520, 521, 522, 523, 524, 525, 526, 527, 528, 529, 530, 531, 532, 533, 534, 535, 536, 537, 538, 539, 540, 541, 542, 543, 544, 545, 546, 547, 548, 549, 550, 551, 552, 553, 554, 555, 556, 557, 558, 559, 560, 561, 562, 563, 564, 565, 566, 567, 568, 569, 570, 571, 572, 573, 574, 575, 576, 577, 578, 579, 580, 581, 582, 583, 584, 585, 586, 587, 588, 589, 590, 591, 592, 593, 594, 595, 596, 597, 598, 599, 600, 601, 602, 603, 604, 605, 606, 607, 608, 609, 610, 611, 612, 613, 614, 615, 616, 617, 618, 619, 620, 621, 622, 623, 624, 625, 626, 627, 628, 629, 630, 631, 632, 633, 634, 635, 636, 637, 638, 639, 640, 641, 642, 643, 644, 645, 646, 647, 648, 649, 650, 651, 652, 653, 654, 655, 656, 657, 658, 659, 660, 661, 662, 663, 664, 665, 666, 667, 668, 669, 670, 671, 672, 673, 674, 675, 676, 677, 678, 679, 680, 681, 682, 683, 684, 685, 686, 687, 688, 689, 690, 691, 692, 693, 694, 695, 696, 697, 698, 699, 700, 701, 702, 703, 704, 705, 706, 707, 708, 709, 710, 711, 712, 713, 714, 715, 716, 717, 718, 719, 720, 721, 722, 723, 724, 725, 726, 727, 728, 729, 730, 731, 732, 733, 734, 735, 736, 737, 738, 739, 740, 741, 742, 743, 744, 745, 746, 747, 748, 749, 750, 751, 752, 753, 754, 755, 756, 757, 758, 759, 760, 761, 762, 763, 764, 765, 766, 767, 768, 769, 770, 771, 772, 773, 774, 775, 776, 777, 778, 779, 780, 781, 782, 783, 784, 785, 786, 787, 788, 789, 790, 791, 792, 793, 794, 795, 796, 797, 798, 799, 800, 801, 802, 803, 804, 805, 806, 807, 808, 809, 810, 811, 812, 813, 814, 815, 816, 817, 818, 819, 820, 821, 822, 823, 824, 825, 826, 827, 828, 829, 830, 831, 832, 833, 834, 835, 836, 837, 838, 839, 840, 841, 842, 843, 844, 845, 846, 847, 848, 849, 850, 851, 852, 853, 854, 855, 856, 857, 858, 859, 860, 861, 862, 863, 864, 865, 866, 867, 868, 869, 870, 871, 872],
      "AcquisitionTime": ["151730.010000", "151730.470000", "151730.930000", "151731.390000", "151731.850000", "151732.310000", "151732.770000", "151733.230000", "151733.690000", "151734.150000", "151734.610000", "151735.070000", "151735.530000", "151735.990000", "151736.450000", "151736.910000", "151737.370000", "151737.830000", "151738.290000", "151738.750000", "151739.210000", "151739.670000", "151740.130000", "151740.590000", "151741.050000", "151741.510000", "151741.970000", "151742.430000", "151742.890000", "151743.350000", "151743.810000", "151744.270000", "151744.730000", "151745.190000", "151745.650000", "151746.110000", "151746.570000", "151747.030000", "151747.490000", "151747.950000", "151748.410000", "151748.870000", "151749.330000", "151749.790000", "151750.250000", "151750.710000", "151751.170000", "151751.630000", "151752.090000", "151752.550000", "151753.010000", "151753.470000", "151753.930000", "151754.390000", "151754.850000", "151755.310000", "151755.770000", "151756.230000", "151756.690000", "151757.150000", "151757.610000", "151758.070000", "151758.530000", "151758.990000", "151759.450000", "151759.910000", "151800.370000", "151800.830000", "151801.290000", "151801.750000", "151802.210000", "151802.670000", "151803.130000", "151803.590000", "151804.050000", "151804.510000", "151804.970000", "151805.430000", "151805.890000", "151806.350000", "151806.810000", "151807.270000", "151807.730000", "151808.190000", "151808.650000", "151809.110000", "151809.570000", "151810.030000", "151810.490000", "151810.950000", "151811.410000", "151811.870000", "151812.330000", "151812.790000", "151813.250000", "151813.710000", "151814.170000", "151814.630000", "151815.090000", "151815.550000", "151816.010000", "151816.470000", "151816.930000", "151817.390000", "151817.850000", "151818.310000", "151818.770000", "151819.230000", "151819.690000", "151820.150000", "151820.610000", "151821.070000", "151821.530000", "151821.990000", "151822.450000", "151822.910000", "151823.370000", "151823.830000", "151824.290000", "151824.750000", "151825.210000", "151825.670000", "151826.130000", "151826.590000", "151827.050000", "151827.510000", "151827.970000", "151828.430000", "151828.890000", "151829.350000", "151829.810000", "151830.270000", "151830.730000", "151831.190000", "151831.650000", "151832.110000", "151832.570000", "151833.030000", "151833.490000", "151833.950000", "151834.410000", "151834.870000", "151835.330000", "151835.790000", "151836.250000", "151836.710000", "151837.170000", "151837.630000", "151838.090000", "151838.550000", "151839.010000", "151839.470000", "151839.930000", "151840.390000", "151840.850000", "151841.310000", "151841.770000", "151842.230000", "151842.690000", "151843.150000", "151843.610000", "151844.070000", "151844.530000", "151844.990000", "151845.450000", "151845.910000", "151846.370000", "151846.830000", "151847.290000", "151847.750000", "151848.210000", "151848.670000", "151849.130000", "151849.590000", "151850.050000", "151850.510000", "151850.970000", "151851.430000", "151851.890000", "151852.350000", "151852.810000", "151853.270000", "151853.730000", "151854.190000", "151854.650000", "151855.110000", "151855.570000", "151856.030000", "151856.490000", "151856.950000", "151857.410000", "151857.870000", "151858.330000", "151858.790000", "151859.250000", "151859.710000", "151900.170000", "151900.630000", "151901.090000", "151901.550000", "151902.010000", "151902.470000", "151902.930000", "151903.390000", "151903.850000", "151904.310000", "151904.770000", "151905.230000", "151905.690000", "151906.150000", "151906.610000", "151907.070000", "151907.530000", "151907.990000", "151908.450000", "151908.910000", "151909.370000", "151909.830000", "151910.290000", "151910.750000", "151911.210000", "151911.670000", "151912.130000", "151912.590000", "151913.050000", "151913.510000", "151913.970000", "151914.430000", "151914.890000", "151915.350000", "151915.810000", "151916.270000", "151916.730000", "151917.190000", "151917.650000", "151918.110000", "151918.570000", "151919.030000", "151919.490000", "151919.950000", "151920.410000", "151920.870000", "151921.330000", "151921.790000", "151922.250000", "151922.710000", "151923.170000", "151923.630000", "151924.090000", "151924.550000", "151925.010000", "151925.470000", "151925.930000", "151926.390000", "151926.850000", "151927.310000", "151927.770000", "151928.230000", "151928.690000", "151929.150000", "151929.610000", "151930.070000", "151930.530000", "151930.990000", "151931.450000", "151931.910000", "151932.370000", "151932.830000", "151933.290000", "151933.750000", "151934.210000", "151934.670000", "151935.130000", "151935.590000", "151936.050000", "151936.510000", "151936.970000", "151937.430000", "151937.890000", "151938.350000", "151938.810000", "151939.270000", "151939.730000", "151940.190000", "151940.650000", "151941.110000", "151941.570000", "151942.030000", "151942.490000", "151942.950000", "151943.410000", "151943.870000", "151944.330000", "151944.790000", "151945.250000", "151945.710000", "151946.170000", "151946.630000", "151947.090000", "151947.550000", "151948.010000", "151948.470000", "151948.930000", "151949.390000", "151949.850000", "151950.310000", "151950.770000", "151951.230000", "151951.690000", "151952.150000", "151952.610000", "151953.070000", "151953.530000", "151953.990000", "151954.450000", "151954.910000", "151955.370000", "151955.830000", "151956.290000", "151956.750000", "151957.210000", "151957.670000", "151958.130000", "151958.590000", "151959.050000", "151959.510000", "151959.970000", "152000.430000", "152000.890000", "152001.350000", "152001.810000", "152002.270000", "152002.730000", "152003.190000", "152003.650000", "152004.110000", "152004.570000", "152005.030000", "152005.490000", "152005.950000", "152006.410000", "152006.870000", "152007.330000", "152007.790000", "152008.250000", "152008.710000", "152009.170000", "152009.630000", "152010.090000", "152010.550000", "152011.010000", "152011.470000", "152011.930000", "152012.390000", "152012.850000", "152013.310000", "152013.770000", "152014.230000", "152014.690000", "152015.150000", "152015.610000", "152016.070000", "152016.530000", "152016.990000", "152017.450000", "152017.910000", "152018.370000", "152018.830000", "152019.290000", "152019.750000", "152020.210000", "152020.670000", "152021.130000", "152021.590000", "152022.050000", "152022.510000", "152022.970000", "152023.430000", "152023.890000", "152024.350000", "152024.810000", "152025.270000", "152025.730000", "152026.190000", "152026.650000", "152027.110000", "152027.570000", "152028.030000", "152028.490000", "152028.950000", "152029.410000", "152029.870000", "152030.330000", "152030.790000", "152031.250000", "152031.710000", "152032.170000", "152032.630000", "152033.090000", "152033.550000", "152034.010000", "152034.470000", "152034.930000", "152035.390000", "152035.850000", "152036.310000", "152036.770000", "152037.230000", "152037.690000", "152038.150000", "152038.610000", "152039.070000", "152039.530000", "152039.990000", "152040.450000", "152040.910000", "152041.370000", "152041.830000", "152042.290000", "152042.750000", "152043.210000", "152043.670000", "152044.130000", "152044.590000", "152045.050000", "152045.510000", "152045.970000", "152046.430000", "152046.890000", "152047.350000", "152047.810000", "152048.270000", "152048.730000", "152049.190000", "152049.650000", "152050.110000", "152050.570000", "152051.030000", "152051.490000", "152051.950000", "152052.410000", "152052.870000", "152053.330000", "152053.790000", "152054.250000", "152054.710000", "152055.170000", "152055.630000", "152056.090000", "152056.550000", "152057.010000", "152057.470000", "152057.930000", "152058.390000", "152058.850000", "152059.310000", "152059.770000", "152100.230000", "152100.690000", "152101.150000", "152101.610000", "152102.070000", "152102.530000", "152102.990000", "152103.450000", "152103.910000", "152104.370000", "152104.830000", "152105.290000", "152105.750000", "152106.210000", "152106.670000", "152107.130000", "152107.590000", "152108.050000", "152108.510000", "152108.970000", "152109.430000", "152109.890000", "152110.350000", "152110.810000", "152111.270000", "152111.730000", "152112.190000", "152112.650000", "152113.110000", "152113.570000", "152114.030000", "152114.490000", "152114.950000", "152115.410000", "152115.870000", "152116.330000", "152116.790000", "152117.250000", "152117.710000", "152118.170000", "152118.630000", "152119.090000", "152119.550000", "152120.010000", "152120.470000", "152120.930000", "152121.390000", "152121.850000", "152122.310000", "152122.770000", "152123.230000", "152123.690000", "152124.150000", "152124.610000", "152125.070000", "152125.530000", "152125.990000", "152126.450000", "152126.910000", "152127.370000", "152127.830000", "152128.290000", "152128.750000", "152129.210000", "152129.670000", "152130.130000", "152130.590000", "152131.050000", "152131.510000", "152131.970000", "152132.430000", "152132.890000", "152133.350000", "152133.810000", "152134.270000", "152134.730000", "152135.190000", "152135.650000", "152136.110000", "152136.570000", "152137.030000", "152137.490000", "152137.950000", "152138.410000", "152138.870000", "152139.330000", "152139.790000", "152140.250000", "152140.710000", "152141.170000", "152141.630000", "152142.090000", "152142.550000", "152143.010000", "152143.470000", "152143.930000", "152144.390000", "152144.850000", "152145.310000", "152145.770000", "152146.230000", "152146.690000", "152147.150000", "152147.610000", "152148.070000", "152148.530000", "152148.990000", "152149.450000", "152149.910000", "152150.370000", "152150.830000", "152151.290000", "152151.750000", "152152.210000", "152152.670000", "152153.130000", "152153.590000", "152154.050000", "152154.510000", "152154.970000", "152155.430000", "152155.890000", "152156.350000", "152156.810000", "152157.270000", "152157.730000", "152158.190000", "152158.650000", "152159.110000", "152159.570000", "152200.030000", "152200.490000", "152200.950000", "152201.410000", "152201.870000", "152202.330000", "152202.790000", "152203.250000", "152203.710000", "152204.170000", "152204.630000", "152205.090000", "152205.550000", "152206.010000", "152206.470000", "152206.930000", "152207.390000", "152207.850000", "152208.310000", "152208.770000", "152209.230000", "152209.690000", "152210.150000", "152210.610000", "152211.070000", "152211.530000", "152211.990000", "152212.450000", "152212.910000", "152213.370000", "152213.830000", "152214.290000", "152214.750000", "152215.210000", "152215.670000", "152216.130000", "152216.590000", "152217.050000", "152217.510000", "152217.970000", "152218.430000", "152218.890000", "152219.350000", "152219.810000", "152220.270000", "152220.730000", "152221.190000", "152221.650000", "152222.110000", "152222.570000", "152223.030000", "152223.490000", "152223.950000", "152224.410000", "152224.870000", "152225.330000", "152225.790000", "152226.250000", "152226.710000", "152227.170000", "152227.630000", "152228.090000", "152228.550000", "152229.010000", "152229.470000", "152229.930000", "152230.390000", "152230.850000", "152231.310000", "152231.770000", "152232.230000", "152232.690000", "152233.150000", "152233.610000", "152234.070000", "152234.530000", "152234.990000", "152235.450000", "152235.910000", "152236.370000", "152236.830000", "152237.290000", "152237.750000", "152238.210000", "152238.670000", "152239.130000", "152239.590000", "152240.050000", "152240.510000", "152240.970000", "152241.430000", "152241.890000", "152242.350000", "152242.810000", "152243.270000", "152243.730000", "152244.190000", "152244.650000", "152245.110000", "152245.570000", "152246.030000", "152246.490000", "152246.950000", "152247.410000", "152247.870000", "152248.330000", "152248.790000", "152249.250000", "152249.710000", "152250.170000", "152250.630000", "152251.090000", "152251.550000", "152252.010000", "152252.470000", "152252.930000", "152253.390000", "152253.850000", "152254.310000", "152254.770000", "152255.230000", "152255.690000", "152256.150000", "152256.610000", "152257.070000", "152257.530000", "152257.990000", "152258.450000", "152258.910000", "152259.370000", "152259.830000", "152300.290000", "152300.750000", "152301.210000", "152301.670000", "152302.130000", "152302.590000", "152303.050000", "152303.510000", "152303.970000", "152304.430000", "152304.890000", "152305.350000", "152305.810000", "152306.270000", "152306.730000", "152307.190000", "152307.650000", "152308.110000", "152308.570000", "152309.030000", "152309.490000", "152309.950000", "152310.410000", "152310.870000", "152311.330000", "152311.790000", "152312.250000", "152312.710000", "152313.170000", "152313.630000", "152314.090000", "152314.550000", "152315.010000", "152315.470000", "152315.930000", "152316.390000", "152316.850000", "152317.310000", "152317.770000", "152318.230000", "152318.690000", "152319.150000", "152319.610000", "152320.070000", "152320.530000", "152320.990000", "152321.450000", "152321.910000", "152322.370000", "152322.830000", "152323.290000", "152323.750000", "152324.210000", "152324.670000", "152325.130000", "152325.590000", "152326.050000", "152326.510000", "152326.970000", "152327.430000", "152327.890000", "152328.350000", "152328.810000", "152329.270000", "152329.730000", "152330.190000", "152330.650000", "152331.110000", "152331.570000", "152332.030000", "152332.490000", "152332.950000", "152333.410000", "152333.870000", "152334.330000", "152334.790000", "152335.250000", "152335.710000", "152336.170000", "152336.630000", "152337.090000", "152337.550000", "152338.010000", "152338.470000", "152338.930000", "152339.390000", "152339.850000", "152340.310000", "152340.770000", "152341.230000", "152341.690000", "152342.150000", "152342.610000", "152343.070000", "152343.530000", "152343.990000", "152344.450000", "152344.910000", "152345.370000", "152345.830000", "152346.290000", "152346.750000", "152347.210000", "152347.670000", "152348.130000", "152348.590000", "152349.050000", "152349.510000", "152349.970000", "152350.430000", "152350.890000", "152351.350000", "152351.810000", "152352.270000", "152352.730000", "152353.190000", "152353.650000", "152354.110000", "152354.570000", "152355.030000", "152355.490000", "152355.950000", "152356.410000", "152356.870000", "152357.330000", "152357.790000", "152358.250000", "152358.710000", "152359.170000", "152359.630000", "152400.090000", "152400.550000", "152401.010000", "152401.470000", "152401.930000", "152402.390000", "152402.850000", "152403.310000", "152403.770000", "152404.230000", "152404.690000", "152405.150000", "152405.610000", "152406.070000", "152406.530000", "152406.990000", "152407.450000", "152407.910000", "152408.370000", "152408.830000", "152409.290000", "152409.750000", "152410.210000", "152410.670000"],
