{
  "AcquisitionMatrixPE": 82,
  "AcquisitionNumber": 1,
  "AcquisitionTime": "14:48:51.802500",
  "BandwidthPerPixelPhaseEncode": 24.888,
  "BaseResolution": 82,
  "BodyPartExamined": "BRAIN",
  "ConsistencyInfo": "N4_VE11E_LATEST_20181129",
  "ConversionSoftware": "dcm2niix",
  "ConversionSoftwareVersion": "v1.0.20201102",
  "DerivedVendorReportedEchoSpacing": 0.00049,
  "DeviceSerialNumber": "66112",
  "DwellTime": 2e-06,
  "EchoTime": 0.0272,
  "EchoTrainLength": 82,
  "EffectiveEchoSpacing": 0.00049,
  "FlipAngle": 44,
  "ImageComments": "Unaliased MB8/PE3",
  "ImageOrientationPatientDICOM": [0.997774, -0.0662148, 0.00797191, 0.0645231, 0.988632, 0.135805],
  "ImageType": [
    "ORIGINAL",
    "PRIMARY",
    "M",
    "MB",
    "ND",
    "NORM",
    "MOSAIC"
],
  "ImagingFrequency": 123.259,
  "InPlanePhaseEncodingDirectionDICOM": "COL",
  "InstitutionAddress": "Maynard 3,Hanover,NH,US,03755",
  "InstitutionName": "Dartmouth College - PBS",
  "InstitutionalDepartmentName": "Department",
  "MRAcquisitionType": "2D",
  "MagneticFieldStrength": 3,
  "Manufacturer": "Siemens",
  "ManufacturersModelName": "Prisma",
  "Modality": "MR",
  "MultibandAccelerationFactor": 8,
  "PartialFourier": 1,
  "PatientPosition": "HFS",
  "PercentPhaseFOV": 100,
  "PercentSampling": 100,
  "PhaseEncodingDirection": "j-",
  "PhaseEncodingSteps": 82,
  "PhaseResolution": 1,
  "PixelBandwidth": 3050,
  "ProcedureStepDescription": "Wager_Wager^1076_spacetop",
  "ProtocolName": "func_run-01_task-social_acq-ap-mb8",
  "PulseSequenceDetails": "%CustomerSeq%\\cmrr_mbep2d_bold",
  "ReceiveCoilActiveElements": "HEA;HEP",
  "ReceiveCoilName": "Head_32",
  "ReconMatrixPE": 82,
  "RepetitionTime": 0.46,
  "SAR": 0.0883897,
  "ScanOptions": "FS",
  "ScanningSequence": "EP",
  "SequenceName": "epfid2d1_82",
  "SequenceVariant": "SK\\SS",
  "SeriesDescription": "func_run-01_task-social_acq-ap-mb8",
  "SeriesNumber": 8,
  "ShimSetting": [4236, -7913, -7204, 544, -175, -258, 315, 149],
  "SliceThickness": 2.7,
  "SliceTiming": [0, 0.2525, 0.0625, 0.315, 0.125, 0.3775, 0.19, 0, 0.2525, 0.0625, 0.315, 0.125, 0.3775, 0.19, 0, 0.2525, 0.0625, 0.315, 0.125, 0.3775, 0.19, 0, 0.2525, 0.0625, 0.315, 0.125, 0.3775, 0.19, 0, 0.2525, 0.0625, 0.315, 0.125, 0.3775, 0.19, 0, 0.2525, 0.0625, 0.315, 0.125, 0.3775, 0.19, 0, 0.2525, 0.0625, 0.315, 0.125, 0.3775, 0.19, 0, 0.2525, 0.0625, 0.315, 0.125, 0.3775, 0.19],
  "SoftwareVersions": "syngo MR E11",
  "SpacingBetweenSlices": 2.7,
  "StationName": "AWP66112",
  "TaskName": "social",
  "TotalReadoutTime": 0.03969,
  "TxRefAmp": 237.882,
  "WipMemBlock": "34e95194-038d-44ab-85f2-0e4475dee718||Sequence: R016 ve11e/master r/434b28f1; Aug  7 2019 18:53:46 by eja",
  "dcmmeta_affine": [
    [-2.6769535541534424, 0.17311081290245056, 0.04555869475007057, 102.24628448486328],
    [0.17764946818351746, 2.652428150177002, 0.3644682466983795, -118.98263549804688],
    [0.021388059481978416, -0.36435481905937195, 2.6748995780944824, -45.51960372924805],
    [0.0, 0.0, 0.0, 1.0]
],
  "dcmmeta_reorient_transform": [
    [0.0, -1.0, 0.0, 81.0],
    [1.0, 0.0, 0.0, 0.0],
    [0.0, 0.0, 1.0, 0.0],
    [0.0, 0.0, 0.0, 1.0]
],
  "dcmmeta_shape": [82, 82, 56, 872],
  "dcmmeta_slice_dim": 2,
  "dcmmeta_version": 0.6,
  "global": {
    "const": {
      "AccessionNumber": "A004670",
      "AcquisitionMatrix": [82, 0, 0, 82],
      "AngioFlag": "N",
      "BitsAllocated": 16,
      "BitsStored": 16,
      "BodyPartExamined": "BRAIN",
      "Columns": 656,
      "EchoNumbers": 1,
      "EchoTime": 27.2,
      "EchoTrainLength": 82,
      "FlipAngle": 44.0,
      "HighBit": 15,
      "ImageOrientationPatient": [0.99777354578042, -0.0662148015345, 0.00797191310201, 0.06452312216736, 0.98863227482522, 0.13580497737453],
      "ImagePositionPatient": [-934.2367179787, -806.12551482166, -185.74055124895],
      "ImageType": [
        "ORIGINAL",
        "PRIMARY",
        "M",
        "MB",
        "ND",
        "NORM",
        "MOSAIC"
],
      "ImagedNucleus": "1H",
      "ImagingFrequency": 123.259064,
      "InPlanePhaseEncodingDirection": "COL",
      "MRAcquisitionType": "2D",
      "MagneticFieldStrength": 3.0,
      "Manufacturer": "SIEMENS",
      "ManufacturerModelName": "Prisma",
      "Modality": "MR",
      "NumberOfAverages": 1.0,
      "NumberOfPhaseEncodingSteps": 82,
      "PercentPhaseFieldOfView": 100.0,
      "PercentSampling": 100.0,
      "PerformedProcedureStepStartTime": "141015.186000",
      "PhotometricInterpretation": "MONOCHROME2",
      "PixelBandwidth": 3050.0,
      "PixelRepresentation": 0,
      "PixelSpacing": [2.6829268932343, 2.6829268932343],
      "ProtocolName": "func_run-01_task-social_acq-ap-mb8",
      "RepetitionTime": 460.0,
      "Rows": 656,
      "SAR": 0.0883897273466,
      "SamplesPerPixel": 1,
      "ScanOptions": "FS",
      "ScanningSequence": "EP",
      "SequenceName": "epfid2d1_82",
      "SequenceVariant": [
        "SK",
        "SS"
],
      "SeriesDescription": "func_run-01_task-social_acq-ap-mb8",
      "SeriesNumber": 8,
      "SeriesTime": "144919.741000",
      "SliceLocation": -59.432424317941,
      "SliceThickness": 2.7000000476837,
      "SmallestImagePixelValue": 0,
      "SoftwareVersions": "syngo MR E11",
      "SpacingBetweenSlices": 2.7000000060619,
      "SpecificCharacterSet": "ISO_IR 100",
      "StudyID": "1",
      "StudyTime": "141015.096000",
      "TransmitCoilName": "Body",
      "VariableFlipAngleFlag": "N",
      "WindowCenterWidthExplanation": "Algo1"
    },
    "slices": {}
  },
  "time": {
    "samples": {
      "AcquisitionNumber": [1, 2, 3, 4, 5, 6, 7, 8, 9, 10, 11, 12, 13, 14, 15, 16, 17, 18, 19, 20, 21, 22, 23, 24, 25, 26, 27, 28, 29, 30, 31, 32, 33, 34, 35, 36, 37, 38, 39, 40, 41, 42, 43, 44, 45, 46, 47, 48, 49, 50, 51, 52, 53, 54, 55, 56, 57, 58, 59, 60, 61, 62, 63, 64, 65, 66, 67, 68, 69, 70, 71, 72, 73, 74, 75, 76, 77, 78, 79, 80, 81, 82, 83, 84, 85, 86, 87, 88, 89, 90, 91, 92, 93, 94, 95, 96, 97, 98, 99, 100, 101, 102, 103, 104, 105, 106, 107, 108, 109, 110, 111, 112, 113, 114, 115, 116, 117, 118, 119, 120, 121, 122, 123, 124, 125, 126, 127, 128, 129, 130, 131, 132, 133, 134, 135, 136, 137, 138, 139, 140, 141, 142, 143, 144, 145, 146, 147, 148, 149, 150, 151, 152, 153, 154, 155, 156, 157, 158, 159, 160, 161, 162, 163, 164, 165, 166, 167, 168, 169, 170, 171, 172, 173, 174, 175, 176, 177, 178, 179, 180, 181, 182, 183, 184, 185, 186, 187, 188, 189, 190, 191, 192, 193, 194, 195, 196, 197, 198, 199, 200, 201, 202, 203, 204, 205, 206, 207, 208, 209, 210, 211, 212, 213, 214, 215, 216, 217, 218, 219, 220, 221, 222, 223, 224, 225, 226, 227, 228, 229, 230, 231, 232, 233, 234, 235, 236, 237, 238, 239, 240, 241, 242, 243, 244, 245, 246, 247, 248, 249, 250, 251, 252, 253, 254, 255, 256, 257, 258, 259, 260, 261, 262, 263, 264, 265, 266, 267, 268, 269, 270, 271, 272, 273, 274, 275, 276, 277, 278, 279, 280, 281, 282, 283, 284, 285, 286, 287, 288, 289, 290, 291, 292, 293, 294, 295, 296, 297, 298, 299, 300, 301, 302, 303, 304, 305, 306, 307, 308, 309, 310, 311, 312, 313, 314, 315, 316, 317, 318, 319, 320, 321, 322, 323, 324, 325, 326, 327, 328, 329, 330, 331, 332, 333, 334, 335, 336, 337, 338, 339, 340, 341, 342, 343, 344, 345, 346, 347, 348, 349, 350, 351, 352, 353, 354, 355, 356, 357, 358, 359, 360, 361, 362, 363, 364, 365, 366, 367, 368, 369, 370, 371, 372, 373, 374, 375, 376, 377, 378, 379, 380, 381, 382, 383, 384, 385, 386, 387, 388, 389, 390, 391, 392, 393, 394, 395, 396, 397, 398, 399, 400, 401, 402, 403, 404, 405, 406, 407, 408, 409, 410, 411, 412, 413, 414, 415, 416, 417, 418, 419, 420, 421, 422, 423, 424, 425, 426, 427, 428, 429, 430, 431, 432, 433, 434, 435, 436, 437, 438, 439, 440, 441, 442, 443, 444, 445, 446, 447, 448, 449, 450, 451, 452, 453, 454, 455, 456, 457, 458, 459, 460, 461, 462, 463, 464, 465, 466, 467, 468, 469, 470, 471, 472, 473, 474, 475, 476, 477, 478, 479, 480, 481, 482, 483, 484, 485, 486, 487, 488, 489, 490, 491, 492, 493, 494, 495, 496, 497, 498, 499, 500, 501, 502, 503, 504, 505, 506, 507, 508, 509, 510, 511, 512, 513, 514, 515, 516, 517, 518, 519, 520, 521, 522, 523, 524, 525, 526, 527, 528, 529, 530, 531, 532, 533, 534, 535, 536, 537, 538, 539, 540, 541, 542, 543, 544, 545, 546, 547, 548, 549, 550, 551, 552, 553, 554, 555, 556, 557, 558, 559, 560, 561, 562, 563, 564, 565, 566, 567, 568, 569, 570, 571, 572, 573, 574, 575, 576, 577, 578, 579, 580, 581, 582, 583, 584, 585, 586, 587, 588, 589, 590, 591, 592, 593, 594, 595, 596, 597, 598, 599, 600, 601, 602, 603, 604, 605, 606, 607, 608, 609, 610, 611, 612, 613, 614, 615, 616, 617, 618, 619, 620, 621, 622, 623, 624, 625, 626, 627, 628, 629, 630, 631, 632, 633, 634, 635, 636, 637, 638, 639, 640, 641, 642, 643, 644, 645, 646, 647, 648, 649, 650, 651, 652, 653, 654, 655, 656, 657, 658, 659, 660, 661, 662, 663, 664, 665, 666, 667, 668, 669, 670, 671, 672, 673, 674, 675, 676, 677, 678, 679, 680, 681, 682, 683, 684, 685, 686, 687, 688, 689, 690, 691, 692, 693, 694, 695, 696, 697, 698, 699, 700, 701, 702, 703, 704, 705, 706, 707, 708, 709, 710, 711, 712, 713, 714, 715, 716, 717, 718, 719, 720, 721, 722, 723, 724, 725, 726, 727, 728, 729, 730, 731, 732, 733, 734, 735, 736, 737, 738, 739, 740, 741, 742, 743, 744, 745, 746, 747, 748, 749, 750, 751, 752, 753, 754, 755, 756, 757, 758, 759, 760, 761, 762, 763, 764, 765, 766, 767, 768, 769, 770, 771, 772, 773, 774, 775, 776, 777, 778, 779, 780, 781, 782, 783, 784, 785, 786, 787, 788, 789, 790, 791, 792, 793, 794, 795, 796, 797, 798, 799, 800, 801, 802, 803, 804, 805, 806, 807, 808, 809, 810, 811, 812, 813, 814, 815, 816, 817, 818, 819, 820, 821, 822, 823, 824, 825, 826, 827, 828, 829, 830, 831, 832, 833, 834, 835, 836, 837, 838, 839, 840, 841, 842, 843, 844, 845, 846, 847, 848, 849, 850, 851, 852, 853, 854, 855, 856, 857, 858, 859, 860, 861, 862, 863, 864, 865, 866, 867, 868, 869, 870, 871, 872],
      "AcquisitionTime": ["144851.802500", "144852.262500", "144852.722500", "144853.182500", "144853.642500", "144854.102500", "144854.562500", "144855.022500", "144855.482500", "144855.942500", "144856.402500", "144856.862500", "144857.322500", "144857.782500", "144858.242500", "144858.702500", "144859.162500", "144859.622500", "144900.082500", "144900.542500", "144901.002500", "144901.462500", "144901.922500", "144902.382500", "144902.842500", "144903.302500", "144903.762500", "144904.222500", "144904.682500", "144905.142500", "144905.602500", "144906.062500", "144906.522500", "144906.982500", "144907.442500", "144907.902500", "144908.362500", "144908.822500", "144909.282500", "144909.742500", "144910.202500", "144910.662500", "144911.122500", "144911.582500", "144912.042500", "144912.502500", "144912.962500", "144913.422500", "144913.882500", "144914.342500", "144914.802500", "144915.262500", "144915.722500", "144916.182500", "144916.642500", "144917.102500", "144917.562500", "144918.022500", "144918.482500", "144918.942500", "144919.402500", "144919.862500", "144920.322500", "144920.782500", "144921.242500", "144921.702500", "144922.162500", "144922.622500", "144923.082500", "144923.542500", "144924.002500", "144924.462500", "144924.922500", "144925.382500", "144925.842500", "144926.302500", "144926.762500", "144927.222500", "144927.682500", "144928.142500", "144928.602500", "144929.062500", "144929.522500", "144929.982500", "144930.442500", "144930.902500", "144931.362500", "144931.822500", "144932.282500", "144932.742500", "144933.202500", "144933.662500", "144934.122500", "144934.582500", "144935.042500", "144935.502500", "144935.962500", "144936.422500", "144936.882500", "144937.342500", "144937.802500", "144938.262500", "144938.722500", "144939.182500", "144939.642500", "144940.102500", "144940.562500", "144941.022500", "144941.482500", "144941.942500", "144942.402500", "144942.862500", "144943.322500", "144943.782500", "144944.242500", "144944.702500", "144945.162500", "144945.622500", "144946.082500", "144946.542500", "144947.002500", "144947.462500", "144947.922500", "144948.382500", "144948.842500", "144949.302500", "144949.762500", "144950.222500", "144950.682500", "144951.142500", "144951.602500", "144952.062500", "144952.522500", "144952.982500", "144953.442500", "144953.902500", "144954.362500", "144954.822500", "144955.282500", "144955.742500", "144956.202500", "144956.662500", "144957.122500", "144957.582500", "144958.042500", "144958.502500", "144958.962500", "144959.422500", "144959.882500", "145000.342500", "145000.802500", "145001.262500", "145001.722500", "145002.182500", "145002.642500", "145003.102500", "145003.562500", "145004.022500", "145004.482500", "145004.942500", "145005.402500", "145005.862500", "145006.322500", "145006.782500", "145007.242500", "145007.702500", "145008.162500", "145008.622500", "145009.082500", "145009.542500", "145010.002500", "145010.462500", "145010.922500", "145011.382500", "145011.842500", "145012.302500", "145012.762500", "145013.222500", "145013.682500", "145014.142500", "145014.602500", "145015.062500", "145015.522500", "145015.982500", "145016.442500", "145016.902500", "145017.362500", "145017.822500", "145018.282500", "145018.742500", "145019.202500", "145019.662500", "145020.122500", "145020.582500", "145021.042500", "145021.502500", "145021.962500", "145022.422500", "145022.882500", "145023.342500", "145023.802500", "145024.262500", "145024.722500", "145025.182500", "145025.642500", "145026.102500", "145026.562500", "145027.022500", "145027.482500", "145027.942500", "145028.402500", "145028.862500", "145029.322500", "145029.782500", "145030.242500", "145030.702500", "145031.162500", "145031.622500", "145032.082500", "145032.542500", "145033.002500", "145033.462500", "145033.922500", "145034.382500", "145034.842500", "145035.302500", "145035.762500", "145036.222500", "145036.682500", "145037.142500", "145037.602500", "145038.062500", "145038.522500", "145038.982500", "145039.442500", "145039.902500", "145040.362500", "145040.822500", "145041.282500", "145041.742500", "145042.202500", "145042.662500", "145043.122500", "145043.582500", "145044.042500", "145044.502500", "145044.962500", "145045.422500", "145045.882500", "145046.342500", "145046.802500", "145047.262500", "145047.722500", "145048.182500", "145048.642500", "145049.102500", "145049.562500", "145050.022500", "145050.482500", "145050.942500", "145051.402500", "145051.862500", "145052.322500", "145052.782500", "145053.242500", "145053.702500", "145054.162500", "145054.622500", "145055.082500", "145055.542500", "145056.002500", "145056.462500", "145056.922500", "145057.382500", "145057.842500", "145058.302500", "145058.762500", "145059.222500", "145059.682500", "145100.142500", "145100.602500", "145101.062500", "145101.522500", "145101.982500", "145102.442500", "145102.902500", "145103.362500", "145103.822500", "145104.282500", "145104.742500", "145105.202500", "145105.662500", "145106.122500", "145106.582500", "145107.042500", "145107.502500", "145107.962500", "145108.422500", "145108.882500", "145109.342500", "145109.802500", "145110.262500", "145110.722500", "145111.182500", "145111.642500", "145112.102500", "145112.562500", "145113.022500", "145113.482500", "145113.942500", "145114.402500", "145114.862500", "145115.322500", "145115.782500", "145116.242500", "145116.702500", "145117.162500", "145117.622500", "145118.082500", "145118.542500", "145119.002500", "145119.462500", "145119.922500", "145120.382500", "145120.842500", "145121.302500", "145121.762500", "145122.222500", "145122.682500", "145123.142500", "145123.602500", "145124.062500", "145124.522500", "145124.982500", "145125.442500", "145125.902500", "145126.362500", "145126.822500", "145127.282500", "145127.742500", "145128.202500", "145128.662500", "145129.122500", "145129.582500", "145130.042500", "145130.502500", "145130.962500", "145131.422500", "145131.882500", "145132.342500", "145132.802500", "145133.262500", "145133.722500", "145134.182500", "145134.642500", "145135.102500", "145135.562500", "145136.022500", "145136.482500", "145136.942500", "145137.402500", "145137.862500", "145138.322500", "145138.782500", "145139.242500", "145139.702500", "145140.162500", "145140.622500", "145141.082500", "145141.542500", "145142.002500", "145142.462500", "145142.922500", "145143.382500", "145143.842500", "145144.302500", "145144.762500", "145145.222500", "145145.682500", "145146.142500", "145146.602500", "145147.062500", "145147.522500", "145147.982500", "145148.442500", "145148.902500", "145149.362500", "145149.822500", "145150.282500", "145150.742500", "145151.202500", "145151.662500", "145152.122500", "145152.582500", "145153.042500", "145153.502500", "145153.962500", "145154.422500", "145154.882500", "145155.342500", "145155.802500", "145156.262500", "145156.722500", "145157.182500", "145157.642500", "145158.102500", "145158.562500", "145159.022500", "145159.482500", "145159.942500", "145200.402500", "145200.862500", "145201.322500", "145201.782500", "145202.242500", "145202.702500", "145203.162500", "145203.622500", "145204.082500", "145204.542500", "145205.002500", "145205.462500", "145205.922500", "145206.382500", "145206.842500", "145207.302500", "145207.762500", "145208.222500", "145208.682500", "145209.142500", "145209.602500", "145210.062500", "145210.522500", "145210.982500", "145211.442500", "145211.902500", "145212.362500", "145212.822500", "145213.282500", "145213.742500", "145214.202500", "145214.662500", "145215.122500", "145215.582500", "145216.042500", "145216.502500", "145216.962500", "145217.422500", "145217.882500", "145218.342500", "145218.802500", "145219.262500", "145219.722500", "145220.182500", "145220.642500", "145221.102500", "145221.562500", "145222.022500", "145222.482500", "145222.942500", "145223.402500", "145223.862500", "145224.322500", "145224.782500", "145225.242500", "145225.702500", "145226.162500", "145226.622500", "145227.082500", "145227.542500", "145228.002500", "145228.462500", "145228.922500", "145229.382500", "145229.842500", "145230.302500", "145230.762500", "145231.222500", "145231.682500", "145232.142500", "145232.602500", "145233.062500", "145233.522500", "145233.982500", "145234.442500", "145234.902500", "145235.362500", "145235.822500", "145236.282500", "145236.742500", "145237.202500", "145237.662500", "145238.122500", "145238.582500", "145239.042500", "145239.502500", "145239.962500", "145240.422500", "145240.882500", "145241.342500", "145241.802500", "145242.262500", "145242.722500", "145243.182500", "145243.642500", "145244.102500", "145244.562500", "145245.022500", "145245.482500", "145245.942500", "145246.402500", "145246.862500", "145247.322500", "145247.782500", "145248.242500", "145248.702500", "145249.162500", "145249.622500", "145250.082500", "145250.542500", "145251.002500", "145251.462500", "145251.922500", "145252.382500", "145252.842500", "145253.302500", "145253.762500", "145254.222500", "145254.682500", "145255.142500", "145255.602500", "145256.062500", "145256.522500", "145256.982500", "145257.442500", "145257.902500", "145258.362500", "145258.822500", "145259.282500", "145259.742500", "145300.202500", "145300.662500", "145301.122500", "145301.582500", "145302.042500", "145302.502500", "145302.962500", "145303.422500", "145303.882500", "145304.342500", "145304.802500", "145305.262500", "145305.722500", "145306.182500", "145306.642500", "145307.102500", "145307.562500", "145308.022500", "145308.482500", "145308.942500", "145309.402500", "145309.862500", "145310.322500", "145310.782500", "145311.242500", "145311.702500", "145312.162500", "145312.622500", "145313.082500", "145313.542500", "145314.002500", "145314.462500", "145314.922500", "145315.382500", "145315.842500", "145316.302500", "145316.762500", "145317.222500", "145317.682500", "145318.142500", "145318.602500", "145319.062500", "145319.522500", "145319.982500", "145320.442500", "145320.902500", "145321.362500", "145321.822500", "145322.282500", "145322.742500", "145323.202500", "145323.662500", "145324.122500", "145324.582500", "145325.042500", "145325.502500", "145325.962500", "145326.422500", "145326.882500", "145327.342500", "145327.802500", "145328.262500", "145328.722500", "145329.182500", "145329.642500", "145330.102500", "145330.562500", "145331.022500", "145331.482500", "145331.942500", "145332.402500", "145332.862500", "145333.322500", "145333.782500", "145334.242500", "145334.702500", "145335.162500", "145335.622500", "145336.082500", "145336.542500", "145337.002500", "145337.462500", "145337.922500", "145338.382500", "145338.842500", "145339.302500", "145339.762500", "145340.222500", "145340.682500", "145341.142500", "145341.602500", "145342.062500", "145342.522500", "145342.982500", "145343.442500", "145343.902500", "145344.362500", "145344.822500", "145345.282500", "145345.742500", "145346.202500", "145346.662500", "145347.122500", "145347.582500", "145348.042500", "145348.502500", "145348.962500", "145349.422500", "145349.882500", "145350.342500", "145350.802500", "145351.262500", "145351.722500", "145352.182500", "145352.642500", "145353.102500", "145353.562500", "145354.022500", "145354.482500", "145354.942500", "145355.402500", "145355.862500", "145356.322500", "145356.782500", "145357.242500", "145357.702500", "145358.162500", "145358.622500", "145359.082500", "145359.542500", "145400.002500", "145400.462500", "145400.922500", "145401.382500", "145401.842500", "145402.302500", "145402.762500", "145403.222500", "145403.682500", "145404.142500", "145404.602500", "145405.062500", "145405.522500", "145405.982500", "145406.442500", "145406.902500", "145407.362500", "145407.822500", "145408.282500", "145408.742500", "145409.202500", "145409.662500", "145410.122500", "145410.582500", "145411.042500", "145411.502500", "145411.962500", "145412.422500", "145412.882500", "145413.342500", "145413.802500", "145414.262500", "145414.722500", "145415.182500", "145415.642500", "145416.102500", "145416.562500", "145417.022500", "145417.482500", "145417.942500", "145418.402500", "145418.862500", "145419.322500", "145419.782500", "145420.242500", "145420.702500", "145421.162500", "145421.622500", "145422.082500", "145422.542500", "145423.002500", "145423.462500", "145423.922500", "145424.382500", "145424.842500", "145425.302500", "145425.762500", "145426.222500", "145426.682500", "145427.142500", "145427.602500", "145428.062500", "145428.522500", "145428.982500", "145429.442500", "145429.902500", "145430.362500", "145430.822500", "145431.282500", "145431.742500", "145432.202500", "145432.662500", "145433.122500", "145433.582500", "145434.042500", "145434.502500", "145434.962500", "145435.422500", "145435.882500", "145436.342500", "145436.802500", "145437.262500", "145437.722500", "145438.182500", "145438.642500", "145439.102500", "145439.562500", "145440.022500", "145440.482500", "145440.942500", "145441.402500", "145441.862500", "145442.322500", "145442.782500", "145443.242500", "145443.702500", "145444.162500", "145444.622500", "145445.082500", "145445.542500", "145446.002500", "145446.462500", "145446.922500", "145447.382500", "145447.842500", "145448.302500", "145448.762500", "145449.222500", "145449.682500", "145450.142500", "145450.602500", "145451.062500", "145451.522500", "145451.982500", "145452.442500", "145452.902500", "145453.362500", "145453.822500", "145454.282500", "145454.742500", "145455.202500", "145455.662500", "145456.122500", "145456.582500", "145457.042500", "145457.502500", "145457.962500", "145458.422500", "145458.882500", "145459.342500", "145459.802500", "145500.262500", "145500.722500", "145501.182500", "145501.642500", "145502.102500", "145502.562500", "145503.022500", "145503.482500", "145503.942500", "145504.402500", "145504.862500", "145505.322500", "145505.782500", "145506.242500", "145506.702500", "145507.162500", "145507.622500", "145508.082500", "145508.542500", "145509.002500", "145509.462500", "145509.922500", "145510.382500", "145510.842500", "145511.302500", "145511.762500", "145512.222500", "145512.682500", "145513.142500", "145513.602500", "145514.062500", "145514.522500", "145514.982500", "145515.442500", "145515.902500", "145516.362500", "145516.822500", "145517.282500", "145517.742500", "145518.202500", "145518.662500", "145519.122500", "145519.582500", "145520.042500", "145520.502500", "145520.962500", "145521.422500", "145521.882500", "145522.342500", "145522.802500", "145523.262500", "145523.722500", "145524.182500", "145524.642500", "145525.102500", "145525.562500", "145526.022500", "145526.482500", "145526.942500", "145527.402500", "145527.862500", "145528.322500", "145528.782500", "145529.242500", "145529.702500", "145530.162500", "145530.622500", "145531.082500", "145531.542500", "145532.002500", "145532.462500"],
