{
  "AcquisitionMatrixPE": 82,
  "AcquisitionNumber": 1,
  "AcquisitionTime": "15:26:7.547500",
  "BandwidthPerPixelPhaseEncode": 24.888,
  "BaseResolution": 82,
  "BodyPartExamined": "BRAIN",
  "ConsistencyInfo": "N4_VE11E_LATEST_20181129",
  "ConversionSoftware": "dcm2niix",
  "ConversionSoftwareVersion": "v1.0.20201102",
  "DerivedVendorReportedEchoSpacing": 0.00049,
  "DeviceSerialNumber": "66112",
  "DwellTime": 2e-06,
  "EchoTime": 0.0272,
  "EchoTrainLength": 82,
  "EffectiveEchoSpacing": 0.00049,
  "FlipAngle": 44,
  "ImageComments": "Unaliased MB8/PE3",
  "ImageOrientationPatientDICOM": [0.997774, -0.0662148, 0.00797191, 0.0645231, 0.988632, 0.135805],
  "ImageType": [
    "ORIGINAL",
    "PRIMARY",
    "M",
    "MB",
    "ND",
    "NORM",
    "MOSAIC"
],
  "ImagingFrequency": 123.259,
  "InPlanePhaseEncodingDirectionDICOM": "COL",
  "InstitutionAddress": "Maynard 3,Hanover,NH,US,03755",
  "InstitutionName": "Dartmouth College - PBS",
  "InstitutionalDepartmentName": "Department",
  "MRAcquisitionType": "2D",
  "MagneticFieldStrength": 3,
  "Manufacturer": "Siemens",
  "ManufacturersModelName": "Prisma",
  "Modality": "MR",
  "MultibandAccelerationFactor": 8,
  "PartialFourier": 1,
  "PatientPosition": "HFS",
  "PercentPhaseFOV": 100,
  "PercentSampling": 100,
  "PhaseEncodingDirection": "j-",
  "PhaseEncodingSteps": 82,
  "PhaseResolution": 1,
  "PixelBandwidth": 3050,
  "ProcedureStepDescription": "Wager_Wager^1076_spacetop",
  "ProtocolName": "func_run-06_task-social_acq-ap-mb8",
  "PulseSequenceDetails": "%CustomerSeq%\\cmrr_mbep2d_bold",
  "ReceiveCoilActiveElements": "HEA;HEP",
  "ReceiveCoilName": "Head_32",
  "ReconMatrixPE": 82,
  "RepetitionTime": 0.46,
  "SAR": 0.0883897,
  "ScanOptions": "FS",
  "ScanningSequence": "EP",
  "SequenceName": "epfid2d1_82",
  "SequenceVariant": "SK\\SS",
  "SeriesDescription": "func_run-06_task-social_acq-ap-mb8",
  "SeriesNumber": 18,
  "ShimSetting": [4236, -7913, -7204, 544, -175, -258, 315, 149],
  "SliceThickness": 2.7,
  "SliceTiming": [0, 0.2525, 0.0625, 0.315, 0.125, 0.3775, 0.19, 0, 0.2525, 0.0625, 0.315, 0.125, 0.3775, 0.19, 0, 0.2525, 0.0625, 0.315, 0.125, 0.3775, 0.19, 0, 0.2525, 0.0625, 0.315, 0.125, 0.3775, 0.19, 0, 0.2525, 0.0625, 0.315, 0.125, 0.3775, 0.19, 0, 0.2525, 0.0625, 0.315, 0.125, 0.3775, 0.19, 0, 0.2525, 0.0625, 0.315, 0.125, 0.3775, 0.19, 0, 0.2525, 0.0625, 0.315, 0.125, 0.3775, 0.19],
  "SoftwareVersions": "syngo MR E11",
  "SpacingBetweenSlices": 2.7,
  "StationName": "AWP66112",
  "TaskName": "social",
  "TotalReadoutTime": 0.03969,
  "TxRefAmp": 237.882,
  "WipMemBlock": "cd3c0fa2-7dbf-4ac9-9e52-ba3be5508164||Sequence: R016 ve11e/master r/434b28f1; Aug  7 2019 18:53:46 by eja",
  "dcmmeta_affine": [
    [-2.6769535541534424, 0.17311081290245056, 0.04555869475007057, 102.24628448486328],
    [0.17764946818351746, 2.652428150177002, 0.3644682466983795, -118.98263549804688],
    [0.021388059481978416, -0.36435481905937195, 2.6748995780944824, -45.51960372924805],
    [0.0, 0.0, 0.0, 1.0]
],
  "dcmmeta_reorient_transform": [
    [0.0, -1.0, 0.0, 81.0],
    [1.0, 0.0, 0.0, 0.0],
    [0.0, 0.0, 1.0, 0.0],
    [0.0, 0.0, 0.0, 1.0]
],
  "dcmmeta_shape": [82, 82, 56, 872],
  "dcmmeta_slice_dim": 2,
  "dcmmeta_version": 0.6,
  "global": {
    "const": {
      "AccessionNumber": "A004670",
      "AcquisitionMatrix": [82, 0, 0, 82],
      "AngioFlag": "N",
      "BitsAllocated": 16,
      "BitsStored": 16,
      "BodyPartExamined": "BRAIN",
      "Columns": 656,
      "EchoNumbers": 1,
      "EchoTime": 27.2,
      "EchoTrainLength": 82,
      "FlipAngle": 44.0,
      "HighBit": 15,
      "ImageOrientationPatient": [0.99777354578042, -0.0662148015345, 0.00797191310201, 0.06452312216736, 0.98863227482522, 0.13580497737453],
      "ImagePositionPatient": [-934.2367179787, -806.12551482166, -185.74055124895],
      "ImageType": [
        "ORIGINAL",
        "PRIMARY",
        "M",
        "MB",
        "ND",
        "NORM",
        "MOSAIC"
],
      "ImagedNucleus": "1H",
      "ImagingFrequency": 123.259094,
      "InPlanePhaseEncodingDirection": "COL",
      "MRAcquisitionType": "2D",
      "MagneticFieldStrength": 3.0,
      "Manufacturer": "SIEMENS",
      "ManufacturerModelName": "Prisma",
      "Modality": "MR",
      "NumberOfAverages": 1.0,
      "NumberOfPhaseEncodingSteps": 82,
      "PercentPhaseFieldOfView": 100.0,
      "PercentSampling": 100.0,
      "PerformedProcedureStepStartTime": "141015.186000",
      "PhotometricInterpretation": "MONOCHROME2",
      "PixelBandwidth": 3050.0,
      "PixelRepresentation": 0,
      "PixelSpacing": [2.6829268932343, 2.6829268932343],
      "ProtocolName": "func_run-06_task-social_acq-ap-mb8",
      "RepetitionTime": 460.0,
      "Rows": 656,
      "SAR": 0.0883897273466,
      "SamplesPerPixel": 1,
      "ScanOptions": "FS",
      "ScanningSequence": "EP",
      "SequenceName": "epfid2d1_82",
      "SequenceVariant": [
        "SK",
        "SS"
],
      "SeriesDescription": "func_run-06_task-social_acq-ap-mb8",
      "SeriesNumber": 18,
      "SeriesTime": "152619.684000",
      "SliceLocation": -59.432424317941,
      "SliceThickness": 2.7000000476837,
      "SmallestImagePixelValue": 0,
      "SoftwareVersions": "syngo MR E11",
      "SpacingBetweenSlices": 2.7000000060619,
      "SpecificCharacterSet": "ISO_IR 100",
      "StudyID": "1",
      "StudyTime": "141015.096000",
      "TransmitCoilName": "Body",
      "VariableFlipAngleFlag": "N",
      "WindowCenterWidthExplanation": "Algo1"
    },
    "slices": {}
  },
  "time": {
    "samples": {
      "AcquisitionNumber": [1, 2, 3, 4, 5, 6, 7, 8, 9, 10, 11, 12, 13, 14, 15, 16, 17, 18, 19, 20, 21, 22, 23, 24, 25, 26, 27, 28, 29, 30, 31, 32, 33, 34, 35, 36, 37, 38, 39, 40, 41, 42, 43, 44, 45, 46, 47, 48, 49, 50, 51, 52, 53, 54, 55, 56, 57, 58, 59, 60, 61, 62, 63, 64, 65, 66, 67, 68, 69, 70, 71, 72, 73, 74, 75, 76, 77, 78, 79, 80, 81, 82, 83, 84, 85, 86, 87, 88, 89, 90, 91, 92, 93, 94, 95, 96, 97, 98, 99, 100, 101, 102, 103, 104, 105, 106, 107, 108, 109, 110, 111, 112, 113, 114, 115, 116, 117, 118, 119, 120, 121, 122, 123, 124, 125, 126, 127, 128, 129, 130, 131, 132, 133, 134, 135, 136, 137, 138, 139, 140, 141, 142, 143, 144, 145, 146, 147, 148, 149, 150, 151, 152, 153, 154, 155, 156, 157, 158, 159, 160, 161, 162, 163, 164, 165, 166, 167, 168, 169, 170, 171, 172, 173, 174, 175, 176, 177, 178, 179, 180, 181, 182, 183, 184, 185, 186, 187, 188, 189, 190, 191, 192, 193, 194, 195, 196, 197, 198, 199, 200, 201, 202, 203, 204, 205, 206, 207, 208, 209, 210, 211, 212, 213, 214, 215, 216, 217, 218, 219, 220, 221, 222, 223, 224, 225, 226, 227, 228, 229, 230, 231, 232, 233, 234, 235, 236, 237, 238, 239, 240, 241, 242, 243, 244, 245, 246, 247, 248, 249, 250, 251, 252, 253, 254, 255, 256, 257, 258, 259, 260, 261, 262, 263, 264, 265, 266, 267, 268, 269, 270, 271, 272, 273, 274, 275, 276, 277, 278, 279, 280, 281, 282, 283, 284, 285, 286, 287, 288, 289, 290, 291, 292, 293, 294, 295, 296, 297, 298, 299, 300, 301, 302, 303, 304, 305, 306, 307, 308, 309, 310, 311, 312, 313, 314, 315, 316, 317, 318, 319, 320, 321, 322, 323, 324, 325, 326, 327, 328, 329, 330, 331, 332, 333, 334, 335, 336, 337, 338, 339, 340, 341, 342, 343, 344, 345, 346, 347, 348, 349, 350, 351, 352, 353, 354, 355, 356, 357, 358, 359, 360, 361, 362, 363, 364, 365, 366, 367, 368, 369, 370, 371, 372, 373, 374, 375, 376, 377, 378, 379, 380, 381, 382, 383, 384, 385, 386, 387, 388, 389, 390, 391, 392, 393, 394, 395, 396, 397, 398, 399, 400, 401, 402, 403, 404, 405, 406, 407, 408, 409, 410, 411, 412, 413, 414, 415, 416, 417, 418, 419, 420, 421, 422, 423, 424, 425, 426, 427, 428, 429, 430, 431, 432, 433, 434, 435, 436, 437, 438, 439, 440, 441, 442, 443, 444, 445, 446, 447, 448, 449, 450, 451, 452, 453, 454, 455, 456, 457, 458, 459, 460, 461, 462, 463, 464, 465, 466, 467, 468, 469, 470, 471, 472, 473, 474, 475, 476, 477, 478, 479, 480, 481, 482, 483, 484, 485, 486, 487, 488, 489, 490, 491, 492, 493, 494, 495, 496, 497, 498, 499, 500, 501, 502, 503, 504, 505, 506, 507, 508, 509, 510, 511, 512, 513, 514, 515, 516, 517, 518, 519, 520, 521, 522, 523, 524, 525, 526, 527, 528, 529, 530, 531, 532, 533, 534, 535, 536, 537, 538, 539, 540, 541, 542, 543, 544, 545, 546, 547, 548, 549, 550, 551, 552, 553, 554, 555, 556, 557, 558, 559, 560, 561, 562, 563, 564, 565, 566, 567, 568, 569, 570, 571, 572, 573, 574, 575, 576, 577, 578, 579, 580, 581, 582, 583, 584, 585, 586, 587, 588, 589, 590, 591, 592, 593, 594, 595, 596, 597, 598, 599, 600, 601, 602, 603, 604, 605, 606, 607, 608, 609, 610, 611, 612, 613, 614, 615, 616, 617, 618, 619, 620, 621, 622, 623, 624, 625, 626, 627, 628, 629, 630, 631, 632, 633, 634, 635, 636, 637, 638, 639, 640, 641, 642, 643, 644, 645, 646, 647, 648, 649, 650, 651, 652, 653, 654, 655, 656, 657, 658, 659, 660, 661, 662, 663, 664, 665, 666, 667, 668, 669, 670, 671, 672, 673, 674, 675, 676, 677, 678, 679, 680, 681, 682, 683, 684, 685, 686, 687, 688, 689, 690, 691, 692, 693, 694, 695, 696, 697, 698, 699, 700, 701, 702, 703, 704, 705, 706, 707, 708, 709, 710, 711, 712, 713, 714, 715, 716, 717, 718, 719, 720, 721, 722, 723, 724, 725, 726, 727, 728, 729, 730, 731, 732, 733, 734, 735, 736, 737, 738, 739, 740, 741, 742, 743, 744, 745, 746, 747, 748, 749, 750, 751, 752, 753, 754, 755, 756, 757, 758, 759, 760, 761, 762, 763, 764, 765, 766, 767, 768, 769, 770, 771, 772, 773, 774, 775, 776, 777, 778, 779, 780, 781, 782, 783, 784, 785, 786, 787, 788, 789, 790, 791, 792, 793, 794, 795, 796, 797, 798, 799, 800, 801, 802, 803, 804, 805, 806, 807, 808, 809, 810, 811, 812, 813, 814, 815, 816, 817, 818, 819, 820, 821, 822, 823, 824, 825, 826, 827, 828, 829, 830, 831, 832, 833, 834, 835, 836, 837, 838, 839, 840, 841, 842, 843, 844, 845, 846, 847, 848, 849, 850, 851, 852, 853, 854, 855, 856, 857, 858, 859, 860, 861, 862, 863, 864, 865, 866, 867, 868, 869, 870, 871, 872],
      "AcquisitionTime": ["152607.547500", "152608.007500", "152608.467500", "152608.927500", "152609.387500", "152609.847500", "152610.307500", "152610.767500", "152611.227500", "152611.687500", "152612.147500", "152612.607500", "152613.067500", "152613.527500", "152613.987500", "152614.447500", "152614.907500", "152615.367500", "152615.827500", "152616.287500", "152616.747500", "152617.207500", "152617.667500", "152618.127500", "152618.587500", "152619.047500", "152619.507500", "152619.967500", "152620.427500", "152620.887500", "152621.347500", "152621.807500", "152622.267500", "152622.727500", "152623.187500", "152623.647500", "152624.107500", "152624.567500", "152625.027500", "152625.487500", "152625.947500", "152626.407500", "152626.867500", "152627.327500", "152627.787500", "152628.247500", "152628.707500", "152629.167500", "152629.627500", "152630.087500", "152630.547500", "152631.007500", "152631.467500", "152631.927500", "152632.387500", "152632.847500", "152633.307500", "152633.767500", "152634.227500", "152634.687500", "152635.147500", "152635.607500", "152636.067500", "152636.527500", "152636.987500", "152637.447500", "152637.907500", "152638.367500", "152638.827500", "152639.287500", "152639.747500", "152640.207500", "152640.667500", "152641.127500", "152641.587500", "152642.047500", "152642.507500", "152642.967500", "152643.427500", "152643.887500", "152644.347500", "152644.807500", "152645.267500", "152645.727500", "152646.187500", "152646.647500", "152647.107500", "152647.567500", "152648.027500", "152648.487500", "152648.947500", "152649.407500", "152649.867500", "152650.327500", "152650.787500", "152651.247500", "152651.707500", "152652.167500", "152652.627500", "152653.087500", "152653.547500", "152654.007500", "152654.467500", "152654.927500", "152655.387500", "152655.847500", "152656.307500", "152656.767500", "152657.227500", "152657.687500", "152658.147500", "152658.607500", "152659.067500", "152659.527500", "152659.987500", "152700.447500", "152700.907500", "152701.367500", "152701.827500", "152702.287500", "152702.747500", "152703.207500", "152703.667500", "152704.127500", "152704.587500", "152705.047500", "152705.507500", "152705.967500", "152706.427500", "152706.887500", "152707.347500", "152707.807500", "152708.267500", "152708.727500", "152709.187500", "152709.647500", "152710.107500", "152710.567500", "152711.027500", "152711.487500", "152711.947500", "152712.407500", "152712.867500", "152713.327500", "152713.787500", "152714.247500", "152714.707500", "152715.167500", "152715.627500", "152716.087500", "152716.547500", "152717.007500", "152717.467500", "152717.927500", "152718.387500", "152718.847500", "152719.307500", "152719.767500", "152720.227500", "152720.687500", "152721.147500", "152721.607500", "152722.067500", "152722.527500", "152722.987500", "152723.447500", "152723.907500", "152724.367500", "152724.827500", "152725.287500", "152725.747500", "152726.207500", "152726.667500", "152727.127500", "152727.587500", "152728.047500", "152728.507500", "152728.967500", "152729.427500", "152729.887500", "152730.347500", "152730.807500", "152731.267500", "152731.727500", "152732.187500", "152732.647500", "152733.107500", "152733.567500", "152734.027500", "152734.487500", "152734.947500", "152735.407500", "152735.867500", "152736.327500", "152736.787500", "152737.247500", "152737.707500", "152738.167500", "152738.627500", "152739.087500", "152739.547500", "152740.007500", "152740.467500", "152740.927500", "152741.387500", "152741.847500", "152742.307500", "152742.767500", "152743.227500", "152743.687500", "152744.147500", "152744.607500", "152745.067500", "152745.527500", "152745.987500", "152746.447500", "152746.907500", "152747.367500", "152747.827500", "152748.287500", "152748.747500", "152749.207500", "152749.667500", "152750.127500", "152750.587500", "152751.047500", "152751.507500", "152751.967500", "152752.427500", "152752.887500", "152753.347500", "152753.807500", "152754.267500", "152754.727500", "152755.187500", "152755.647500", "152756.107500", "152756.567500", "152757.027500", "152757.487500", "152757.947500", "152758.407500", "152758.867500", "152759.327500", "152759.787500", "152800.247500", "152800.707500", "152801.167500", "152801.627500", "152802.087500", "152802.547500", "152803.007500", "152803.467500", "152803.927500", "152804.387500", "152804.847500", "152805.307500", "152805.767500", "152806.227500", "152806.687500", "152807.147500", "152807.607500", "152808.067500", "152808.527500", "152808.987500", "152809.447500", "152809.907500", "152810.367500", "152810.827500", "152811.287500", "152811.747500", "152812.207500", "152812.667500", "152813.127500", "152813.587500", "152814.047500", "152814.507500", "152814.967500", "152815.427500", "152815.887500", "152816.347500", "152816.807500", "152817.267500", "152817.727500", "152818.187500", "152818.647500", "152819.107500", "152819.567500", "152820.027500", "152820.487500", "152820.947500", "152821.407500", "152821.867500", "152822.327500", "152822.787500", "152823.247500", "152823.707500", "152824.167500", "152824.627500", "152825.087500", "152825.547500", "152826.007500", "152826.467500", "152826.927500", "152827.387500", "152827.847500", "152828.307500", "152828.767500", "152829.227500", "152829.687500", "152830.147500", "152830.607500", "152831.067500", "152831.527500", "152831.987500", "152832.447500", "152832.907500", "152833.367500", "152833.827500", "152834.287500", "152834.747500", "152835.207500", "152835.667500", "152836.127500", "152836.587500", "152837.047500", "152837.507500", "152837.967500", "152838.427500", "152838.887500", "152839.347500", "152839.807500", "152840.267500", "152840.727500", "152841.187500", "152841.647500", "152842.107500", "152842.567500", "152843.027500", "152843.487500", "152843.947500", "152844.407500", "152844.867500", "152845.327500", "152845.787500", "152846.247500", "152846.707500", "152847.167500", "152847.627500", "152848.087500", "152848.547500", "152849.007500", "152849.467500", "152849.927500", "152850.387500", "152850.847500", "152851.307500", "152851.767500", "152852.227500", "152852.687500", "152853.147500", "152853.607500", "152854.067500", "152854.527500", "152854.987500", "152855.447500", "152855.907500", "152856.367500", "152856.827500", "152857.287500", "152857.747500", "152858.207500", "152858.667500", "152859.127500", "152859.587500", "152900.047500", "152900.507500", "152900.967500", "152901.427500", "152901.887500", "152902.347500", "152902.807500", "152903.267500", "152903.727500", "152904.187500", "152904.647500", "152905.107500", "152905.567500", "152906.027500", "152906.487500", "152906.947500", "152907.407500", "152907.867500", "152908.327500", "152908.787500", "152909.247500", "152909.707500", "152910.167500", "152910.627500", "152911.087500", "152911.547500", "152912.007500", "152912.467500", "152912.927500", "152913.387500", "152913.847500", "152914.307500", "152914.767500", "152915.227500", "152915.687500", "152916.147500", "152916.607500", "152917.067500", "152917.527500", "152917.987500", "152918.447500", "152918.907500", "152919.367500", "152919.827500", "152920.287500", "152920.747500", "152921.207500", "152921.667500", "152922.127500", "152922.587500", "152923.047500", "152923.507500", "152923.967500", "152924.427500", "152924.887500", "152925.347500", "152925.807500", "152926.267500", "152926.727500", "152927.187500", "152927.647500", "152928.107500", "152928.567500", "152929.027500", "152929.487500", "152929.947500", "152930.407500", "152930.867500", "152931.327500", "152931.787500", "152932.247500", "152932.707500", "152933.167500", "152933.627500", "152934.087500", "152934.547500", "152935.007500", "152935.467500", "152935.927500", "152936.387500", "152936.847500", "152937.307500", "152937.767500", "152938.227500", "152938.687500", "152939.147500", "152939.607500", "152940.067500", "152940.527500", "152940.987500", "152941.447500", "152941.907500", "152942.367500", "152942.827500", "152943.287500", "152943.747500", "152944.207500", "152944.667500", "152945.127500", "152945.587500", "152946.047500", "152946.507500", "152946.967500", "152947.427500", "152947.887500", "152948.347500", "152948.807500", "152949.267500", "152949.727500", "152950.187500", "152950.647500", "152951.107500", "152951.567500", "152952.027500", "152952.487500", "152952.947500", "152953.407500", "152953.867500", "152954.327500", "152954.787500", "152955.247500", "152955.707500", "152956.167500", "152956.627500", "152957.087500", "152957.547500", "152958.007500", "152958.467500", "152958.927500", "152959.387500", "152959.847500", "153000.307500", "153000.767500", "153001.227500", "153001.687500", "153002.147500", "153002.607500", "153003.067500", "153003.527500", "153003.987500", "153004.447500", "153004.907500", "153005.367500", "153005.827500", "153006.287500", "153006.747500", "153007.207500", "153007.667500", "153008.127500", "153008.587500", "153009.047500", "153009.507500", "153009.967500", "153010.427500", "153010.887500", "153011.347500", "153011.807500", "153012.267500", "153012.727500", "153013.187500", "153013.647500", "153014.107500", "153014.567500", "153015.027500", "153015.487500", "153015.947500", "153016.407500", "153016.867500", "153017.327500", "153017.787500", "153018.247500", "153018.707500", "153019.167500", "153019.627500", "153020.087500", "153020.547500", "153021.007500", "153021.467500", "153021.927500", "153022.387500", "153022.847500", "153023.307500", "153023.767500", "153024.227500", "153024.687500", "153025.147500", "153025.607500", "153026.067500", "153026.527500", "153026.987500", "153027.447500", "153027.907500", "153028.367500", "153028.827500", "153029.287500", "153029.747500", "153030.207500", "153030.667500", "153031.127500", "153031.587500", "153032.047500", "153032.507500", "153032.967500", "153033.427500", "153033.887500", "153034.347500", "153034.807500", "153035.267500", "153035.727500", "153036.187500", "153036.647500", "153037.107500", "153037.567500", "153038.027500", "153038.487500", "153038.947500", "153039.407500", "153039.867500", "153040.327500", "153040.787500", "153041.247500", "153041.707500", "153042.167500", "153042.627500", "153043.087500", "153043.547500", "153044.007500", "153044.467500", "153044.927500", "153045.387500", "153045.847500", "153046.307500", "153046.767500", "153047.227500", "153047.687500", "153048.147500", "153048.607500", "153049.067500", "153049.527500", "153049.987500", "153050.447500", "153050.907500", "153051.367500", "153051.827500", "153052.287500", "153052.747500", "153053.207500", "153053.667500", "153054.127500", "153054.587500", "153055.047500", "153055.507500", "153055.967500", "153056.427500", "153056.887500", "153057.347500", "153057.807500", "153058.267500", "153058.727500", "153059.187500", "153059.647500", "153100.107500", "153100.567500", "153101.027500", "153101.487500", "153101.947500", "153102.407500", "153102.867500", "153103.327500", "153103.787500", "153104.247500", "153104.707500", "153105.167500", "153105.627500", "153106.087500", "153106.547500", "153107.007500", "153107.467500", "153107.927500", "153108.387500", "153108.847500", "153109.307500", "153109.767500", "153110.227500", "153110.687500", "153111.147500", "153111.607500", "153112.067500", "153112.527500", "153112.987500", "153113.447500", "153113.907500", "153114.367500", "153114.827500", "153115.287500", "153115.747500", "153116.207500", "153116.667500", "153117.127500", "153117.587500", "153118.047500", "153118.507500", "153118.967500", "153119.427500", "153119.887500", "153120.347500", "153120.807500", "153121.267500", "153121.727500", "153122.187500", "153122.647500", "153123.107500", "153123.567500", "153124.027500", "153124.487500", "153124.947500", "153125.407500", "153125.867500", "153126.327500", "153126.787500", "153127.247500", "153127.707500", "153128.167500", "153128.627500", "153129.087500", "153129.547500", "153130.007500", "153130.467500", "153130.927500", "153131.387500", "153131.847500", "153132.307500", "153132.767500", "153133.227500", "153133.687500", "153134.147500", "153134.607500", "153135.067500", "153135.527500", "153135.987500", "153136.447500", "153136.907500", "153137.367500", "153137.827500", "153138.287500", "153138.747500", "153139.207500", "153139.667500", "153140.127500", "153140.587500", "153141.047500", "153141.507500", "153141.967500", "153142.427500", "153142.887500", "153143.347500", "153143.807500", "153144.267500", "153144.727500", "153145.187500", "153145.647500", "153146.107500", "153146.567500", "153147.027500", "153147.487500", "153147.947500", "153148.407500", "153148.867500", "153149.327500", "153149.787500", "153150.247500", "153150.707500", "153151.167500", "153151.627500", "153152.087500", "153152.547500", "153153.007500", "153153.467500", "153153.927500", "153154.387500", "153154.847500", "153155.307500", "153155.767500", "153156.227500", "153156.687500", "153157.147500", "153157.607500", "153158.067500", "153158.527500", "153158.987500", "153159.447500", "153159.907500", "153200.367500", "153200.827500", "153201.287500", "153201.747500", "153202.207500", "153202.667500", "153203.127500", "153203.587500", "153204.047500", "153204.507500", "153204.967500", "153205.427500", "153205.887500", "153206.347500", "153206.807500", "153207.267500", "153207.727500", "153208.187500", "153208.647500", "153209.107500", "153209.567500", "153210.027500", "153210.487500", "153210.947500", "153211.407500", "153211.867500", "153212.327500", "153212.787500", "153213.247500", "153213.707500", "153214.167500", "153214.627500", "153215.087500", "153215.547500", "153216.007500", "153216.467500", "153216.927500", "153217.387500", "153217.847500", "153218.307500", "153218.767500", "153219.227500", "153219.687500", "153220.147500", "153220.607500", "153221.067500", "153221.527500", "153221.987500", "153222.447500", "153222.907500", "153223.367500", "153223.827500", "153224.287500", "153224.747500", "153225.207500", "153225.667500", "153226.127500", "153226.587500", "153227.047500", "153227.507500", "153227.967500", "153228.427500", "153228.887500", "153229.347500", "153229.807500", "153230.267500", "153230.727500", "153231.187500", "153231.647500", "153232.107500", "153232.567500", "153233.027500", "153233.487500", "153233.947500", "153234.407500", "153234.867500", "153235.327500", "153235.787500", "153236.247500", "153236.707500", "153237.167500", "153237.627500", "153238.087500", "153238.547500", "153239.007500", "153239.467500", "153239.927500", "153240.387500", "153240.847500", "153241.307500", "153241.767500", "153242.227500", "153242.687500", "153243.147500", "153243.607500", "153244.067500", "153244.527500", "153244.987500", "153245.447500", "153245.907500", "153246.367500", "153246.827500", "153247.287500", "153247.747500", "153248.207500"],
