{
  "AcquisitionMatrixPE": 82,
  "AcquisitionNumber": 1,
  "AcquisitionTime": "15:03:8.595000",
  "BandwidthPerPixelPhaseEncode": 24.888,
  "BaseResolution": 82,
  "BodyPartExamined": "BRAIN",
  "ConsistencyInfo": "N4_VE11E_LATEST_20181129",
  "ConversionSoftware": "dcm2niix",
  "ConversionSoftwareVersion": "v1.0.20201102",
  "DerivedVendorReportedEchoSpacing": 0.00049,
  "DeviceSerialNumber": "66112",
  "DwellTime": 2e-06,
  "EchoTime": 0.0272,
  "EchoTrainLength": 82,
  "EffectiveEchoSpacing": 0.00049,
  "FlipAngle": 44,
  "ImageComments": "Unaliased MB8/PE3",
  "ImageOrientationPatientDICOM": [0.997774, -0.0662148, 0.00797191, 0.0645231, 0.988632, 0.135805],
  "ImageType": [
    "ORIGINAL",
    "PRIMARY",
    "M",
    "MB",
    "ND",
    "NORM",
    "MOSAIC"
],
  "ImagingFrequency": 123.259,
  "InPlanePhaseEncodingDirectionDICOM": "COL",
  "InstitutionAddress": "Maynard 3,Hanover,NH,US,03755",
  "InstitutionName": "Dartmouth College - PBS",
  "InstitutionalDepartmentName": "Department",
  "MRAcquisitionType": "2D",
  "MagneticFieldStrength": 3,
  "Manufacturer": "Siemens",
  "ManufacturersModelName": "Prisma",
  "Modality": "MR",
  "MultibandAccelerationFactor": 8,
  "PartialFourier": 1,
  "PatientPosition": "HFS",
  "PercentPhaseFOV": 100,
  "PercentSampling": 100,
  "PhaseEncodingDirection": "j-",
  "PhaseEncodingSteps": 82,
  "PhaseResolution": 1,
  "PixelBandwidth": 3050,
  "ProcedureStepDescription": "Wager_Wager^1076_spacetop",
  "ProtocolName": "func_run-03_task-social_acq-ap-mb8",
  "PulseSequenceDetails": "%CustomerSeq%\\cmrr_mbep2d_bold",
  "ReceiveCoilActiveElements": "HEA;HEP",
  "ReceiveCoilName": "Head_32",
  "ReconMatrixPE": 82,
  "RepetitionTime": 0.46,
  "SAR": 0.0883897,
  "ScanOptions": "FS",
  "ScanningSequence": "EP",
  "SequenceName": "epfid2d1_82",
  "SequenceVariant": "SK\\SS",
  "SeriesDescription": "func_run-03_task-social_acq-ap-mb8",
  "SeriesNumber": 12,
  "ShimSetting": [4236, -7913, -7204, 544, -175, -258, 315, 149],
  "SliceThickness": 2.7,
  "SliceTiming": [0, 0.25, 0.0625, 0.3125, 0.125, 0.3775, 0.1875, 0, 0.25, 0.0625, 0.3125, 0.125, 0.3775, 0.1875, 0, 0.25, 0.0625, 0.3125, 0.125, 0.3775, 0.1875, 0, 0.25, 0.0625, 0.3125, 0.125, 0.3775, 0.1875, 0, 0.25, 0.0625, 0.3125, 0.125, 0.3775, 0.1875, 0, 0.25, 0.0625, 0.3125, 0.125, 0.3775, 0.1875, 0, 0.25, 0.0625, 0.3125, 0.125, 0.3775, 0.1875, 0, 0.25, 0.0625, 0.3125, 0.125, 0.3775, 0.1875],
  "SoftwareVersions": "syngo MR E11",
  "SpacingBetweenSlices": 2.7,
  "StationName": "AWP66112",
  "TaskName": "social",
  "TotalReadoutTime": 0.03969,
  "TxRefAmp": 237.882,
  "WipMemBlock": "876665cc-4262-48d0-872a-4cdcb671959e||Sequence: R016 ve11e/master r/434b28f1; Aug  7 2019 18:53:46 by eja",
  "dcmmeta_affine": [
    [-2.6769535541534424, 0.17311081290245056, 0.04555869475007057, 102.24628448486328],
    [0.17764946818351746, 2.652428150177002, 0.3644682466983795, -118.98263549804688],
    [0.021388059481978416, -0.36435481905937195, 2.6748995780944824, -45.51960372924805],
    [0.0, 0.0, 0.0, 1.0]
],
  "dcmmeta_reorient_transform": [
    [0.0, -1.0, 0.0, 81.0],
    [1.0, 0.0, 0.0, 0.0],
    [0.0, 0.0, 1.0, 0.0],
    [0.0, 0.0, 0.0, 1.0]
],
  "dcmmeta_shape": [82, 82, 56, 872],
  "dcmmeta_slice_dim": 2,
  "dcmmeta_version": 0.6,
  "global": {
    "const": {
      "AccessionNumber": "A004670",
      "AcquisitionMatrix": [82, 0, 0, 82],
      "AngioFlag": "N",
      "BitsAllocated": 16,
      "BitsStored": 16,
      "BodyPartExamined": "BRAIN",
      "Columns": 656,
      "EchoNumbers": 1,
      "EchoTime": 27.2,
      "EchoTrainLength": 82,
      "FlipAngle": 44.0,
      "HighBit": 15,
      "ImageOrientationPatient": [0.99777354578042, -0.0662148015345, 0.00797191310201, 0.06452312216736, 0.98863227482522, 0.13580497737453],
      "ImagePositionPatient": [-934.2367179787, -806.12551482166, -185.74055124895],
      "ImageType": [
        "ORIGINAL",
        "PRIMARY",
        "M",
        "MB",
        "ND",
        "NORM",
        "MOSAIC"
],
      "ImagedNucleus": "1H",
      "ImagingFrequency": 123.25908,
      "InPlanePhaseEncodingDirection": "COL",
      "MRAcquisitionType": "2D",
      "MagneticFieldStrength": 3.0,
      "Manufacturer": "SIEMENS",
      "ManufacturerModelName": "Prisma",
      "Modality": "MR",
      "NumberOfAverages": 1.0,
      "NumberOfPhaseEncodingSteps": 82,
      "PercentPhaseFieldOfView": 100.0,
      "PercentSampling": 100.0,
      "PerformedProcedureStepStartTime": "141015.186000",
      "PhotometricInterpretation": "MONOCHROME2",
      "PixelBandwidth": 3050.0,
      "PixelRepresentation": 0,
      "PixelSpacing": [2.6829268932343, 2.6829268932343],
      "ProtocolName": "func_run-03_task-social_acq-ap-mb8",
      "RepetitionTime": 460.0,
      "Rows": 656,
      "SAR": 0.0883897273466,
      "SamplesPerPixel": 1,
      "ScanOptions": "FS",
      "ScanningSequence": "EP",
      "SequenceName": "epfid2d1_82",
      "SequenceVariant": [
        "SK",
        "SS"
],
      "SeriesDescription": "func_run-03_task-social_acq-ap-mb8",
      "SeriesNumber": 12,
      "SeriesTime": "150319.671000",
      "SliceLocation": -59.432424317941,
      "SliceThickness": 2.7000000476837,
      "SmallestImagePixelValue": 0,
      "SoftwareVersions": "syngo MR E11",
      "SpacingBetweenSlices": 2.7000000060619,
      "SpecificCharacterSet": "ISO_IR 100",
      "StudyID": "1",
      "StudyTime": "141015.096000",
      "TransmitCoilName": "Body",
      "VariableFlipAngleFlag": "N",
      "WindowCenterWidthExplanation": "Algo1"
    },
    "slices": {}
  },
  "time": {
    "samples": {
      "AcquisitionNumber": [1, 2, 3, 4, 5, 6, 7, 8, 9, 10, 11, 12, 13, 14, 15, 16, 17, 18, 19, 20, 21, 22, 23, 24, 25, 26, 27, 28, 29, 30, 31, 32, 33, 34, 35, 36, 37, 38, 39, 40, 41, 42, 43, 44, 45, 46, 47, 48, 49, 50, 51, 52, 53, 54, 55, 56, 57, 58, 59, 60, 61, 62, 63, 64, 65, 66, 67, 68, 69, 70, 71, 72, 73, 74, 75, 76, 77, 78, 79, 80, 81, 82, 83, 84, 85, 86, 87, 88, 89, 90, 91, 92, 93, 94, 95, 96, 97, 98, 99, 100, 101, 102, 103, 104, 105, 106, 107, 108, 109, 110, 111, 112, 113, 114, 115, 116, 117, 118, 119, 120, 121, 122, 123, 124, 125, 126, 127, 128, 129, 130, 131, 132, 133, 134, 135, 136, 137, 138, 139, 140, 141, 142, 143, 144, 145, 146, 147, 148, 149, 150, 151, 152, 153, 154, 155, 156, 157, 158, 159, 160, 161, 162, 163, 164, 165, 166, 167, 168, 169, 170, 171, 172, 173, 174, 175, 176, 177, 178, 179, 180, 181, 182, 183, 184, 185, 186, 187, 188, 189, 190, 191, 192, 193, 194, 195, 196, 197, 198, 199, 200, 201, 202, 203, 204, 205, 206, 207, 208, 209, 210, 211, 212, 213, 214, 215, 216, 217, 218, 219, 220, 221, 222, 223, 224, 225, 226, 227, 228, 229, 230, 231, 232, 233, 234, 235, 236, 237, 238, 239, 240, 241, 242, 243, 244, 245, 246, 247, 248, 249, 250, 251, 252, 253, 254, 255, 256, 257, 258, 259, 260, 261, 262, 263, 264, 265, 266, 267, 268, 269, 270, 271, 272, 273, 274, 275, 276, 277, 278, 279, 280, 281, 282, 283, 284, 285, 286, 287, 288, 289, 290, 291, 292, 293, 294, 295, 296, 297, 298, 299, 300, 301, 302, 303, 304, 305, 306, 307, 308, 309, 310, 311, 312, 313, 314, 315, 316, 317, 318, 319, 320, 321, 322, 323, 324, 325, 326, 327, 328, 329, 330, 331, 332, 333, 334, 335, 336, 337, 338, 339, 340, 341, 342, 343, 344, 345, 346, 347, 348, 349, 350, 351, 352, 353, 354, 355, 356, 357, 358, 359, 360, 361, 362, 363, 364, 365, 366, 367, 368, 369, 370, 371, 372, 373, 374, 375, 376, 377, 378, 379, 380, 381, 382, 383, 384, 385, 386, 387, 388, 389, 390, 391, 392, 393, 394, 395, 396, 397, 398, 399, 400, 401, 402, 403, 404, 405, 406, 407, 408, 409, 410, 411, 412, 413, 414, 415, 416, 417, 418, 419, 420, 421, 422, 423, 424, 425, 426, 427, 428, 429, 430, 431, 432, 433, 434, 435, 436, 437, 438, 439, 440, 441, 442, 443, 444, 445, 446, 447, 448, 449, 450, 451, 452, 453, 454, 455, 456, 457, 458, 459, 460, 461, 462, 463, 464, 465, 466, 467, 468, 469, 470, 471, 472, 473, 474, 475, 476, 477, 478, 479, 480, 481, 482, 483, 484, 485, 486, 487, 488, 489, 490, 491, 492, 493, 494, 495, 496, 497, 498, 499, 500, 501, 502, 503, 504, 505, 506, 507, 508, 509, 510, 511, 512, 513, 514, 515, 516, 517, 518, 519, 520, 521, 522, 523, 524, 525, 526, 527, 528, 529, 530, 531, 532, 533, 534, 535, 536, 537, 538, 539, 540, 541, 542, 543, 544, 545, 546, 547, 548, 549, 550, 551, 552, 553, 554, 555, 556, 557, 558, 559, 560, 561, 562, 563, 564, 565, 566, 567, 568, 569, 570, 571, 572, 573, 574, 575, 576, 577, 578, 579, 580, 581, 582, 583, 584, 585, 586, 587, 588, 589, 590, 591, 592, 593, 594, 595, 596, 597, 598, 599, 600, 601, 602, 603, 604, 605, 606, 607, 608, 609, 610, 611, 612, 613, 614, 615, 616, 617, 618, 619, 620, 621, 622, 623, 624, 625, 626, 627, 628, 629, 630, 631, 632, 633, 634, 635, 636, 637, 638, 639, 640, 641, 642, 643, 644, 645, 646, 647, 648, 649, 650, 651, 652, 653, 654, 655, 656, 657, 658, 659, 660, 661, 662, 663, 664, 665, 666, 667, 668, 669, 670, 671, 672, 673, 674, 675, 676, 677, 678, 679, 680, 681, 682, 683, 684, 685, 686, 687, 688, 689, 690, 691, 692, 693, 694, 695, 696, 697, 698, 699, 700, 701, 702, 703, 704, 705, 706, 707, 708, 709, 710, 711, 712, 713, 714, 715, 716, 717, 718, 719, 720, 721, 722, 723, 724, 725, 726, 727, 728, 729, 730, 731, 732, 733, 734, 735, 736, 737, 738, 739, 740, 741, 742, 743, 744, 745, 746, 747, 748, 749, 750, 751, 752, 753, 754, 755, 756, 757, 758, 759, 760, 761, 762, 763, 764, 765, 766, 767, 768, 769, 770, 771, 772, 773, 774, 775, 776, 777, 778, 779, 780, 781, 782, 783, 784, 785, 786, 787, 788, 789, 790, 791, 792, 793, 794, 795, 796, 797, 798, 799, 800, 801, 802, 803, 804, 805, 806, 807, 808, 809, 810, 811, 812, 813, 814, 815, 816, 817, 818, 819, 820, 821, 822, 823, 824, 825, 826, 827, 828, 829, 830, 831, 832, 833, 834, 835, 836, 837, 838, 839, 840, 841, 842, 843, 844, 845, 846, 847, 848, 849, 850, 851, 852, 853, 854, 855, 856, 857, 858, 859, 860, 861, 862, 863, 864, 865, 866, 867, 868, 869, 870, 871, 872],
      "AcquisitionTime": ["150308.595000", "150309.055000", "150309.515000", "150309.975000", "150310.435000", "150310.895000", "150311.355000", "150311.815000", "150312.275000", "150312.735000", "150313.195000", "150313.655000", "150314.115000", "150314.575000", "150315.035000", "150315.495000", "150315.955000", "150316.415000", "150316.875000", "150317.335000", "150317.795000", "150318.255000", "150318.715000", "150319.175000", "150319.635000", "150320.095000", "150320.555000", "150321.015000", "150321.475000", "150321.935000", "150322.395000", "150322.855000", "150323.315000", "150323.775000", "150324.235000", "150324.695000", "150325.155000", "150325.615000", "150326.075000", "150326.535000", "150326.995000", "150327.455000", "150327.915000", "150328.375000", "150328.835000", "150329.295000", "150329.755000", "150330.215000", "150330.675000", "150331.135000", "150331.595000", "150332.055000", "150332.515000", "150332.975000", "150333.435000", "150333.895000", "150334.355000", "150334.815000", "150335.275000", "150335.735000", "150336.195000", "150336.655000", "150337.115000", "150337.575000", "150338.035000", "150338.495000", "150338.955000", "150339.415000", "150339.875000", "150340.335000", "150340.795000", "150341.255000", "150341.715000", "150342.175000", "150342.635000", "150343.095000", "150343.555000", "150344.015000", "150344.475000", "150344.935000", "150345.395000", "150345.855000", "150346.315000", "150346.775000", "150347.235000", "150347.695000", "150348.155000", "150348.615000", "150349.075000", "150349.535000", "150349.995000", "150350.455000", "150350.915000", "150351.375000", "150351.835000", "150352.295000", "150352.755000", "150353.215000", "150353.675000", "150354.135000", "150354.595000", "150355.055000", "150355.515000", "150355.975000", "150356.435000", "150356.895000", "150357.355000", "150357.815000", "150358.275000", "150358.735000", "150359.195000", "150359.655000", "150400.115000", "150400.575000", "150401.035000", "150401.495000", "150401.955000", "150402.415000", "150402.875000", "150403.335000", "150403.795000", "150404.255000", "150404.715000", "150405.175000", "150405.635000", "150406.095000", "150406.555000", "150407.015000", "150407.475000", "150407.935000", "150408.395000", "150408.855000", "150409.315000", "150409.775000", "150410.235000", "150410.695000", "150411.155000", "150411.615000", "150412.075000", "150412.535000", "150412.995000", "150413.455000", "150413.915000", "150414.375000", "150414.835000", "150415.295000", "150415.755000", "150416.215000", "150416.675000", "150417.135000", "150417.595000", "150418.055000", "150418.515000", "150418.975000", "150419.435000", "150419.895000", "150420.355000", "150420.815000", "150421.275000", "150421.735000", "150422.195000", "150422.655000", "150423.115000", "150423.575000", "150424.035000", "150424.495000", "150424.955000", "150425.415000", "150425.875000", "150426.335000", "150426.795000", "150427.255000", "150427.715000", "150428.175000", "150428.635000", "150429.095000", "150429.555000", "150430.015000", "150430.475000", "150430.935000", "150431.395000", "150431.855000", "150432.315000", "150432.775000", "150433.235000", "150433.695000", "150434.155000", "150434.615000", "150435.075000", "150435.535000", "150435.995000", "150436.455000", "150436.915000", "150437.375000", "150437.835000", "150438.295000", "150438.755000", "150439.215000", "150439.675000", "150440.135000", "150440.595000", "150441.055000", "150441.515000", "150441.975000", "150442.435000", "150442.895000", "150443.355000", "150443.815000", "150444.275000", "150444.735000", "150445.195000", "150445.655000", "150446.115000", "150446.575000", "150447.035000", "150447.495000", "150447.955000", "150448.415000", "150448.875000", "150449.335000", "150449.795000", "150450.255000", "150450.715000", "150451.175000", "150451.635000", "150452.095000", "150452.555000", "150453.015000", "150453.475000", "150453.935000", "150454.395000", "150454.855000", "150455.315000", "150455.775000", "150456.235000", "150456.695000", "150457.155000", "150457.615000", "150458.075000", "150458.535000", "150458.995000", "150459.455000", "150459.915000", "150500.375000", "150500.835000", "150501.295000", "150501.755000", "150502.215000", "150502.675000", "150503.135000", "150503.595000", "150504.055000", "150504.515000", "150504.975000", "150505.435000", "150505.895000", "150506.355000", "150506.815000", "150507.275000", "150507.735000", "150508.195000", "150508.655000", "150509.115000", "150509.575000", "150510.035000", "150510.495000", "150510.955000", "150511.415000", "150511.875000", "150512.335000", "150512.795000", "150513.255000", "150513.715000", "150514.175000", "150514.635000", "150515.095000", "150515.555000", "150516.015000", "150516.475000", "150516.935000", "150517.395000", "150517.855000", "150518.315000", "150518.775000", "150519.235000", "150519.695000", "150520.155000", "150520.615000", "150521.075000", "150521.535000", "150521.995000", "150522.455000", "150522.915000", "150523.375000", "150523.835000", "150524.295000", "150524.755000", "150525.215000", "150525.675000", "150526.135000", "150526.595000", "150527.055000", "150527.515000", "150527.975000", "150528.435000", "150528.895000", "150529.355000", "150529.815000", "150530.275000", "150530.735000", "150531.195000", "150531.655000", "150532.115000", "150532.575000", "150533.035000", "150533.495000", "150533.955000", "150534.415000", "150534.875000", "150535.335000", "150535.795000", "150536.255000", "150536.715000", "150537.175000", "150537.635000", "150538.095000", "150538.555000", "150539.015000", "150539.475000", "150539.935000", "150540.395000", "150540.855000", "150541.315000", "150541.775000", "150542.235000", "150542.695000", "150543.155000", "150543.615000", "150544.075000", "150544.535000", "150544.995000", "150545.455000", "150545.915000", "150546.375000", "150546.835000", "150547.295000", "150547.755000", "150548.215000", "150548.675000", "150549.135000", "150549.595000", "150550.055000", "150550.515000", "150550.975000", "150551.435000", "150551.895000", "150552.355000", "150552.815000", "150553.275000", "150553.735000", "150554.195000", "150554.655000", "150555.115000", "150555.575000", "150556.035000", "150556.495000", "150556.955000", "150557.415000", "150557.875000", "150558.335000", "150558.795000", "150559.255000", "150559.715000", "150600.175000", "150600.635000", "150601.095000", "150601.555000", "150602.015000", "150602.475000", "150602.935000", "150603.395000", "150603.855000", "150604.315000", "150604.775000", "150605.235000", "150605.695000", "150606.155000", "150606.615000", "150607.075000", "150607.535000", "150607.995000", "150608.455000", "150608.915000", "150609.375000", "150609.835000", "150610.295000", "150610.755000", "150611.215000", "150611.675000", "150612.135000", "150612.595000", "150613.055000", "150613.515000", "150613.975000", "150614.435000", "150614.895000", "150615.355000", "150615.815000", "150616.275000", "150616.735000", "150617.195000", "150617.655000", "150618.115000", "150618.575000", "150619.035000", "150619.495000", "150619.955000", "150620.415000", "150620.875000", "150621.335000", "150621.795000", "150622.255000", "150622.715000", "150623.175000", "150623.635000", "150624.095000", "150624.555000", "150625.015000", "150625.475000", "150625.935000", "150626.395000", "150626.855000", "150627.315000", "150627.775000", "150628.235000", "150628.695000", "150629.155000", "150629.615000", "150630.075000", "150630.535000", "150630.995000", "150631.455000", "150631.915000", "150632.375000", "150632.835000", "150633.295000", "150633.755000", "150634.215000", "150634.675000", "150635.135000", "150635.595000", "150636.055000", "150636.515000", "150636.975000", "150637.435000", "150637.895000", "150638.355000", "150638.815000", "150639.275000", "150639.735000", "150640.195000", "150640.655000", "150641.115000", "150641.575000", "150642.035000", "150642.495000", "150642.955000", "150643.415000", "150643.875000", "150644.335000", "150644.795000", "150645.255000", "150645.715000", "150646.175000", "150646.635000", "150647.095000", "150647.555000", "150648.015000", "150648.475000", "150648.935000", "150649.395000", "150649.855000", "150650.315000", "150650.775000", "150651.235000", "150651.695000", "150652.155000", "150652.615000", "150653.075000", "150653.535000", "150653.995000", "150654.455000", "150654.915000", "150655.375000", "150655.835000", "150656.295000", "150656.755000", "150657.215000", "150657.675000", "150658.135000", "150658.595000", "150659.055000", "150659.515000", "150659.975000", "150700.435000", "150700.895000", "150701.355000", "150701.815000", "150702.275000", "150702.735000", "150703.195000", "150703.655000", "150704.115000", "150704.575000", "150705.035000", "150705.495000", "150705.955000", "150706.415000", "150706.875000", "150707.335000", "150707.795000", "150708.255000", "150708.715000", "150709.175000", "150709.635000", "150710.095000", "150710.555000", "150711.015000", "150711.475000", "150711.935000", "150712.395000", "150712.855000", "150713.315000", "150713.775000", "150714.235000", "150714.695000", "150715.155000", "150715.615000", "150716.075000", "150716.535000", "150716.995000", "150717.455000", "150717.915000", "150718.375000", "150718.835000", "150719.295000", "150719.755000", "150720.215000", "150720.675000", "150721.135000", "150721.595000", "150722.055000", "150722.515000", "150722.975000", "150723.435000", "150723.895000", "150724.355000", "150724.815000", "150725.275000", "150725.735000", "150726.195000", "150726.655000", "150727.115000", "150727.575000", "150728.035000", "150728.495000", "150728.955000", "150729.415000", "150729.875000", "150730.335000", "150730.795000", "150731.255000", "150731.715000", "150732.175000", "150732.635000", "150733.095000", "150733.555000", "150734.015000", "150734.475000", "150734.935000", "150735.395000", "150735.855000", "150736.315000", "150736.775000", "150737.235000", "150737.695000", "150738.155000", "150738.615000", "150739.075000", "150739.535000", "150739.995000", "150740.455000", "150740.915000", "150741.375000", "150741.835000", "150742.295000", "150742.755000", "150743.215000", "150743.675000", "150744.135000", "150744.595000", "150745.055000", "150745.515000", "150745.975000", "150746.435000", "150746.895000", "150747.355000", "150747.815000", "150748.275000", "150748.735000", "150749.195000", "150749.655000", "150750.115000", "150750.575000", "150751.035000", "150751.495000", "150751.955000", "150752.415000", "150752.875000", "150753.335000", "150753.795000", "150754.255000", "150754.715000", "150755.175000", "150755.635000", "150756.095000", "150756.555000", "150757.015000", "150757.475000", "150757.935000", "150758.395000", "150758.855000", "150759.315000", "150759.775000", "150800.235000", "150800.695000", "150801.155000", "150801.615000", "150802.075000", "150802.535000", "150802.995000", "150803.455000", "150803.915000", "150804.375000", "150804.835000", "150805.295000", "150805.755000", "150806.215000", "150806.675000", "150807.135000", "150807.595000", "150808.055000", "150808.515000", "150808.975000", "150809.435000", "150809.895000", "150810.355000", "150810.815000", "150811.275000", "150811.735000", "150812.195000", "150812.655000", "150813.115000", "150813.575000", "150814.035000", "150814.495000", "150814.955000", "150815.415000", "150815.875000", "150816.335000", "150816.795000", "150817.255000", "150817.715000", "150818.175000", "150818.635000", "150819.095000", "150819.555000", "150820.015000", "150820.475000", "150820.935000", "150821.395000", "150821.855000", "150822.315000", "150822.775000", "150823.235000", "150823.695000", "150824.155000", "150824.615000", "150825.075000", "150825.535000", "150825.995000", "150826.455000", "150826.915000", "150827.375000", "150827.835000", "150828.295000", "150828.755000", "150829.215000", "150829.675000", "150830.135000", "150830.595000", "150831.055000", "150831.515000", "150831.975000", "150832.435000", "150832.895000", "150833.355000", "150833.815000", "150834.275000", "150834.735000", "150835.195000", "150835.655000", "150836.115000", "150836.575000", "150837.035000", "150837.495000", "150837.955000", "150838.415000", "150838.875000", "150839.335000", "150839.795000", "150840.255000", "150840.715000", "150841.175000", "150841.635000", "150842.095000", "150842.555000", "150843.015000", "150843.475000", "150843.935000", "150844.395000", "150844.855000", "150845.315000", "150845.775000", "150846.235000", "150846.695000", "150847.155000", "150847.615000", "150848.075000", "150848.535000", "150848.995000", "150849.455000", "150849.915000", "150850.375000", "150850.835000", "150851.295000", "150851.755000", "150852.215000", "150852.675000", "150853.135000", "150853.595000", "150854.055000", "150854.515000", "150854.975000", "150855.435000", "150855.895000", "150856.355000", "150856.815000", "150857.275000", "150857.735000", "150858.195000", "150858.655000", "150859.115000", "150859.575000", "150900.035000", "150900.495000", "150900.955000", "150901.415000", "150901.875000", "150902.335000", "150902.795000", "150903.255000", "150903.715000", "150904.175000", "150904.635000", "150905.095000", "150905.555000", "150906.015000", "150906.475000", "150906.935000", "150907.395000", "150907.855000", "150908.315000", "150908.775000", "150909.235000", "150909.695000", "150910.155000", "150910.615000", "150911.075000", "150911.535000", "150911.995000", "150912.455000", "150912.915000", "150913.375000", "150913.835000", "150914.295000", "150914.755000", "150915.215000", "150915.675000", "150916.135000", "150916.595000", "150917.055000", "150917.515000", "150917.975000", "150918.435000", "150918.895000", "150919.355000", "150919.815000", "150920.275000", "150920.735000", "150921.195000", "150921.655000", "150922.115000", "150922.575000", "150923.035000", "150923.495000", "150923.955000", "150924.415000", "150924.875000", "150925.335000", "150925.795000", "150926.255000", "150926.715000", "150927.175000", "150927.635000", "150928.095000", "150928.555000", "150929.015000", "150929.475000", "150929.935000", "150930.395000", "150930.855000", "150931.315000", "150931.775000", "150932.235000", "150932.695000", "150933.155000", "150933.615000", "150934.075000", "150934.535000", "150934.995000", "150935.455000", "150935.915000", "150936.375000", "150936.835000", "150937.295000", "150937.755000", "150938.215000", "150938.675000", "150939.135000", "150939.595000", "150940.055000", "150940.515000", "150940.975000", "150941.435000", "150941.895000", "150942.355000", "150942.815000", "150943.275000", "150943.735000", "150944.195000", "150944.655000", "150945.115000", "150945.575000", "150946.035000", "150946.495000", "150946.955000", "150947.415000", "150947.875000", "150948.335000", "150948.795000", "150949.255000"],
