{
  "AcquisitionMatrixPE": 82,
  "AcquisitionNumber": 1,
  "AcquisitionTime": "15:10:29.087500",
  "BandwidthPerPixelPhaseEncode": 24.888,
  "BaseResolution": 82,
  "BodyPartExamined": "BRAIN",
  "ConsistencyInfo": "N4_VE11E_LATEST_20181129",
  "ConversionSoftware": "dcm2niix",
  "ConversionSoftwareVersion": "v1.0.20201102",
  "DerivedVendorReportedEchoSpacing": 0.00049,
  "DeviceSerialNumber": "66112",
  "DwellTime": 2e-06,
  "EchoTime": 0.0272,
  "EchoTrainLength": 82,
  "EffectiveEchoSpacing": 0.00049,
  "FlipAngle": 44,
  "ImageComments": "Unaliased MB8/PE3",
  "ImageOrientationPatientDICOM": [0.997774, -0.0662148, 0.00797191, 0.0645231, 0.988632, 0.135805],
  "ImageType": [
    "ORIGINAL",
    "PRIMARY",
    "M",
    "MB",
    "ND",
    "NORM",
    "MOSAIC"
],
  "ImagingFrequency": 123.259,
  "InPlanePhaseEncodingDirectionDICOM": "COL",
  "InstitutionAddress": "Maynard 3,Hanover,NH,US,03755",
  "InstitutionName": "Dartmouth College - PBS",
  "InstitutionalDepartmentName": "Department",
  "MRAcquisitionType": "2D",
  "MagneticFieldStrength": 3,
  "Manufacturer": "Siemens",
  "ManufacturersModelName": "Prisma",
  "Modality": "MR",
  "MultibandAccelerationFactor": 8,
  "PartialFourier": 1,
  "PatientPosition": "HFS",
  "PercentPhaseFOV": 100,
  "PercentSampling": 100,
  "PhaseEncodingDirection": "j-",
  "PhaseEncodingSteps": 82,
  "PhaseResolution": 1,
  "PixelBandwidth": 3050,
  "ProcedureStepDescription": "Wager_Wager^1076_spacetop",
  "ProtocolName": "func_run-04_task-social_acq-ap-mb8",
  "PulseSequenceDetails": "%CustomerSeq%\\cmrr_mbep2d_bold",
  "ReceiveCoilActiveElements": "HEA;HEP",
  "ReceiveCoilName": "Head_32",
  "ReconMatrixPE": 82,
  "RepetitionTime": 0.46,
  "SAR": 0.0883897,
  "ScanOptions": "FS",
  "ScanningSequence": "EP",
  "SequenceName": "epfid2d1_82",
  "SequenceVariant": "SK\\SS",
  "SeriesDescription": "func_run-04_task-social_acq-ap-mb8",
  "SeriesNumber": 14,
  "ShimSetting": [4236, -7913, -7204, 544, -175, -258, 315, 149],
  "SliceThickness": 2.7,
  "SliceTiming": [0, 0.25, 0.0625, 0.3125, 0.125, 0.375, 0.1875, 0, 0.25, 0.0625, 0.3125, 0.125, 0.375, 0.1875, 0, 0.25, 0.0625, 0.3125, 0.125, 0.375, 0.1875, 0, 0.25, 0.0625, 0.3125, 0.125, 0.375, 0.1875, 0, 0.25, 0.0625, 0.3125, 0.125, 0.375, 0.1875, 0, 0.25, 0.0625, 0.3125, 0.125, 0.375, 0.1875, 0, 0.25, 0.0625, 0.3125, 0.125, 0.375, 0.1875, 0, 0.25, 0.0625, 0.3125, 0.125, 0.375, 0.1875],
  "SoftwareVersions": "syngo MR E11",
  "SpacingBetweenSlices": 2.7,
  "StationName": "AWP66112",
  "TaskName": "social",
  "TotalReadoutTime": 0.03969,
  "TxRefAmp": 237.882,
  "WipMemBlock": "9a9625a8-8055-4e92-9ead-23ee056d3845||Sequence: R016 ve11e/master r/434b28f1; Aug  7 2019 18:53:46 by eja",
  "dcmmeta_affine": [
    [-2.6769535541534424, 0.17311081290245056, 0.04555869475007057, 102.24628448486328],
    [0.17764946818351746, 2.652428150177002, 0.3644682466983795, -118.98263549804688],
    [0.021388059481978416, -0.36435481905937195, 2.6748995780944824, -45.51960372924805],
    [0.0, 0.0, 0.0, 1.0]
],
  "dcmmeta_reorient_transform": [
    [0.0, -1.0, 0.0, 81.0],
    [1.0, 0.0, 0.0, 0.0],
    [0.0, 0.0, 1.0, 0.0],
    [0.0, 0.0, 0.0, 1.0]
],
  "dcmmeta_shape": [82, 82, 56, 872],
  "dcmmeta_slice_dim": 2,
  "dcmmeta_version": 0.6,
  "global": {
    "const": {
      "AccessionNumber": "A004670",
      "AcquisitionMatrix": [82, 0, 0, 82],
      "AngioFlag": "N",
      "BitsAllocated": 16,
      "BitsStored": 16,
      "BodyPartExamined": "BRAIN",
      "Columns": 656,
      "EchoNumbers": 1,
      "EchoTime": 27.2,
      "EchoTrainLength": 82,
      "FlipAngle": 44.0,
      "HighBit": 15,
      "ImageOrientationPatient": [0.99777354578042, -0.0662148015345, 0.00797191310201, 0.06452312216736, 0.98863227482522, 0.13580497737453],
      "ImagePositionPatient": [-934.2367179787, -806.12551482166, -185.74055124895],
      "ImageType": [
        "ORIGINAL",
        "PRIMARY",
        "M",
        "MB",
        "ND",
        "NORM",
        "MOSAIC"
],
      "ImagedNucleus": "1H",
      "ImagingFrequency": 123.259085,
      "InPlanePhaseEncodingDirection": "COL",
      "MRAcquisitionType": "2D",
      "MagneticFieldStrength": 3.0,
      "Manufacturer": "SIEMENS",
      "ManufacturerModelName": "Prisma",
      "Modality": "MR",
      "NumberOfAverages": 1.0,
      "NumberOfPhaseEncodingSteps": 82,
      "PercentPhaseFieldOfView": 100.0,
      "PercentSampling": 100.0,
      "PerformedProcedureStepStartTime": "141015.186000",
      "PhotometricInterpretation": "MONOCHROME2",
      "PixelBandwidth": 3050.0,
      "PixelRepresentation": 0,
      "PixelSpacing": [2.6829268932343, 2.6829268932343],
      "ProtocolName": "func_run-04_task-social_acq-ap-mb8",
      "RepetitionTime": 460.0,
      "Rows": 656,
      "SAR": 0.0883897273466,
      "SamplesPerPixel": 1,
      "ScanOptions": "FS",
      "ScanningSequence": "EP",
      "SequenceName": "epfid2d1_82",
      "SequenceVariant": [
        "SK",
        "SS"
],
      "SeriesDescription": "func_run-04_task-social_acq-ap-mb8",
      "SeriesNumber": 14,
      "SeriesTime": "151039.736000",
      "SliceLocation": -59.432424317941,
      "SliceThickness": 2.7000000476837,
      "SmallestImagePixelValue": 0,
      "SoftwareVersions": "syngo MR E11",
      "SpacingBetweenSlices": 2.7000000060619,
      "SpecificCharacterSet": "ISO_IR 100",
      "StudyID": "1",
      "StudyTime": "141015.096000",
      "TransmitCoilName": "Body",
      "VariableFlipAngleFlag": "N",
      "WindowCenterWidthExplanation": "Algo1"
    },
    "slices": {}
  },
  "time": {
    "samples": {
      "AcquisitionNumber": [1, 2, 3, 4, 5, 6, 7, 8, 9, 10, 11, 12, 13, 14, 15, 16, 17, 18, 19, 20, 21, 22, 23, 24, 25, 26, 27, 28, 29, 30, 31, 32, 33, 34, 35, 36, 37, 38, 39, 40, 41, 42, 43, 44, 45, 46, 47, 48, 49, 50, 51, 52, 53, 54, 55, 56, 57, 58, 59, 60, 61, 62, 63, 64, 65, 66, 67, 68, 69, 70, 71, 72, 73, 74, 75, 76, 77, 78, 79, 80, 81, 82, 83, 84, 85, 86, 87, 88, 89, 90, 91, 92, 93, 94, 95, 96, 97, 98, 99, 100, 101, 102, 103, 104, 105, 106, 107, 108, 109, 110, 111, 112, 113, 114, 115, 116, 117, 118, 119, 120, 121, 122, 123, 124, 125, 126, 127, 128, 129, 130, 131, 132, 133, 134, 135, 136, 137, 138, 139, 140, 141, 142, 143, 144, 145, 146, 147, 148, 149, 150, 151, 152, 153, 154, 155, 156, 157, 158, 159, 160, 161, 162, 163, 164, 165, 166, 167, 168, 169, 170, 171, 172, 173, 174, 175, 176, 177, 178, 179, 180, 181, 182, 183, 184, 185, 186, 187, 188, 189, 190, 191, 192, 193, 194, 195, 196, 197, 198, 199, 200, 201, 202, 203, 204, 205, 206, 207, 208, 209, 210, 211, 212, 213, 214, 215, 216, 217, 218, 219, 220, 221, 222, 223, 224, 225, 226, 227, 228, 229, 230, 231, 232, 233, 234, 235, 236, 237, 238, 239, 240, 241, 242, 243, 244, 245, 246, 247, 248, 249, 250, 251, 252, 253, 254, 255, 256, 257, 258, 259, 260, 261, 262, 263, 264, 265, 266, 267, 268, 269, 270, 271, 272, 273, 274, 275, 276, 277, 278, 279, 280, 281, 282, 283, 284, 285, 286, 287, 288, 289, 290, 291, 292, 293, 294, 295, 296, 297, 298, 299, 300, 301, 302, 303, 304, 305, 306, 307, 308, 309, 310, 311, 312, 313, 314, 315, 316, 317, 318, 319, 320, 321, 322, 323, 324, 325, 326, 327, 328, 329, 330, 331, 332, 333, 334, 335, 336, 337, 338, 339, 340, 341, 342, 343, 344, 345, 346, 347, 348, 349, 350, 351, 352, 353, 354, 355, 356, 357, 358, 359, 360, 361, 362, 363, 364, 365, 366, 367, 368, 369, 370, 371, 372, 373, 374, 375, 376, 377, 378, 379, 380, 381, 382, 383, 384, 385, 386, 387, 388, 389, 390, 391, 392, 393, 394, 395, 396, 397, 398, 399, 400, 401, 402, 403, 404, 405, 406, 407, 408, 409, 410, 411, 412, 413, 414, 415, 416, 417, 418, 419, 420, 421, 422, 423, 424, 425, 426, 427, 428, 429, 430, 431, 432, 433, 434, 435, 436, 437, 438, 439, 440, 441, 442, 443, 444, 445, 446, 447, 448, 449, 450, 451, 452, 453, 454, 455, 456, 457, 458, 459, 460, 461, 462, 463, 464, 465, 466, 467, 468, 469, 470, 471, 472, 473, 474, 475, 476, 477, 478, 479, 480, 481, 482, 483, 484, 485, 486, 487, 488, 489, 490, 491, 492, 493, 494, 495, 496, 497, 498, 499, 500, 501, 502, 503, 504, 505, 506, 507, 508, 509, 510, 511, 512, 513, 514, 515, 516, 517, 518, 519, 520, 521, 522, 523, 524, 525, 526, 527, 528, 529, 530, 531, 532, 533, 534, 535, 536, 537, 538, 539, 540, 541, 542, 543, 544, 545, 546, 547, 548, 549, 550, 551, 552, 553, 554, 555, 556, 557, 558, 559, 560, 561, 562, 563, 564, 565, 566, 567, 568, 569, 570, 571, 572, 573, 574, 575, 576, 577, 578, 579, 580, 581, 582, 583, 584, 585, 586, 587, 588, 589, 590, 591, 592, 593, 594, 595, 596, 597, 598, 599, 600, 601, 602, 603, 604, 605, 606, 607, 608, 609, 610, 611, 612, 613, 614, 615, 616, 617, 618, 619, 620, 621, 622, 623, 624, 625, 626, 627, 628, 629, 630, 631, 632, 633, 634, 635, 636, 637, 638, 639, 640, 641, 642, 643, 644, 645, 646, 647, 648, 649, 650, 651, 652, 653, 654, 655, 656, 657, 658, 659, 660, 661, 662, 663, 664, 665, 666, 667, 668, 669, 670, 671, 672, 673, 674, 675, 676, 677, 678, 679, 680, 681, 682, 683, 684, 685, 686, 687, 688, 689, 690, 691, 692, 693, 694, 695, 696, 697, 698, 699, 700, 701, 702, 703, 704, 705, 706, 707, 708, 709, 710, 711, 712, 713, 714, 715, 716, 717, 718, 719, 720, 721, 722, 723, 724, 725, 726, 727, 728, 729, 730, 731, 732, 733, 734, 735, 736, 737, 738, 739, 740, 741, 742, 743, 744, 745, 746, 747, 748, 749, 750, 751, 752, 753, 754, 755, 756, 757, 758, 759, 760, 761, 762, 763, 764, 765, 766, 767, 768, 769, 770, 771, 772, 773, 774, 775, 776, 777, 778, 779, 780, 781, 782, 783, 784, 785, 786, 787, 788, 789, 790, 791, 792, 793, 794, 795, 796, 797, 798, 799, 800, 801, 802, 803, 804, 805, 806, 807, 808, 809, 810, 811, 812, 813, 814, 815, 816, 817, 818, 819, 820, 821, 822, 823, 824, 825, 826, 827, 828, 829, 830, 831, 832, 833, 834, 835, 836, 837, 838, 839, 840, 841, 842, 843, 844, 845, 846, 847, 848, 849, 850, 851, 852, 853, 854, 855, 856, 857, 858, 859, 860, 861, 862, 863, 864, 865, 866, 867, 868, 869, 870, 871, 872],
      "AcquisitionTime": ["151029.087500", "151029.547500", "151030.007500", "151030.467500", "151030.927500", "151031.387500", "151031.847500", "151032.307500", "151032.767500", "151033.227500", "151033.687500", "151034.147500", "151034.607500", "151035.067500", "151035.527500", "151035.987500", "151036.447500", "151036.907500", "151037.367500", "151037.827500", "151038.287500", "151038.747500", "151039.207500", "151039.667500", "151040.127500", "151040.587500", "151041.047500", "151041.507500", "151041.967500", "151042.427500", "151042.887500", "151043.347500", "151043.807500", "151044.267500", "151044.727500", "151045.187500", "151045.647500", "151046.107500", "151046.567500", "151047.027500", "151047.487500", "151047.947500", "151048.407500", "151048.867500", "151049.327500", "151049.787500", "151050.247500", "151050.707500", "151051.167500", "151051.627500", "151052.087500", "151052.547500", "151053.007500", "151053.467500", "151053.927500", "151054.387500", "151054.847500", "151055.307500", "151055.767500", "151056.227500", "151056.687500", "151057.147500", "151057.607500", "151058.067500", "151058.527500", "151058.987500", "151059.447500", "151059.907500", "151100.367500", "151100.827500", "151101.287500", "151101.747500", "151102.207500", "151102.667500", "151103.127500", "151103.587500", "151104.047500", "151104.507500", "151104.967500", "151105.427500", "151105.887500", "151106.347500", "151106.807500", "151107.267500", "151107.727500", "151108.187500", "151108.647500", "151109.107500", "151109.567500", "151110.027500", "151110.487500", "151110.947500", "151111.407500", "151111.867500", "151112.327500", "151112.787500", "151113.247500", "151113.707500", "151114.167500", "151114.627500", "151115.087500", "151115.547500", "151116.007500", "151116.467500", "151116.927500", "151117.387500", "151117.847500", "151118.307500", "151118.767500", "151119.227500", "151119.687500", "151120.147500", "151120.607500", "151121.067500", "151121.527500", "151121.987500", "151122.447500", "151122.907500", "151123.367500", "151123.827500", "151124.287500", "151124.747500", "151125.207500", "151125.667500", "151126.127500", "151126.587500", "151127.047500", "151127.507500", "151127.967500", "151128.427500", "151128.887500", "151129.347500", "151129.807500", "151130.267500", "151130.727500", "151131.187500", "151131.647500", "151132.107500", "151132.567500", "151133.027500", "151133.487500", "151133.947500", "151134.407500", "151134.867500", "151135.327500", "151135.787500", "151136.247500", "151136.707500", "151137.167500", "151137.627500", "151138.087500", "151138.547500", "151139.007500", "151139.467500", "151139.927500", "151140.387500", "151140.847500", "151141.307500", "151141.767500", "151142.227500", "151142.687500", "151143.147500", "151143.607500", "151144.067500", "151144.527500", "151144.987500", "151145.447500", "151145.907500", "151146.367500", "151146.827500", "151147.287500", "151147.747500", "151148.207500", "151148.667500", "151149.127500", "151149.587500", "151150.047500", "151150.507500", "151150.967500", "151151.427500", "151151.887500", "151152.347500", "151152.807500", "151153.267500", "151153.727500", "151154.187500", "151154.647500", "151155.107500", "151155.567500", "151156.027500", "151156.487500", "151156.947500", "151157.407500", "151157.867500", "151158.327500", "151158.787500", "151159.247500", "151159.707500", "151200.167500", "151200.627500", "151201.087500", "151201.547500", "151202.007500", "151202.467500", "151202.927500", "151203.387500", "151203.847500", "151204.307500", "151204.767500", "151205.227500", "151205.687500", "151206.147500", "151206.607500", "151207.067500", "151207.527500", "151207.987500", "151208.447500", "151208.907500", "151209.367500", "151209.827500", "151210.287500", "151210.747500", "151211.207500", "151211.667500", "151212.127500", "151212.587500", "151213.047500", "151213.507500", "151213.967500", "151214.427500", "151214.887500", "151215.347500", "151215.807500", "151216.267500", "151216.727500", "151217.187500", "151217.647500", "151218.107500", "151218.567500", "151219.027500", "151219.487500", "151219.947500", "151220.407500", "151220.867500", "151221.327500", "151221.787500", "151222.247500", "151222.707500", "151223.167500", "151223.627500", "151224.087500", "151224.547500", "151225.007500", "151225.467500", "151225.927500", "151226.387500", "151226.847500", "151227.307500", "151227.767500", "151228.227500", "151228.687500", "151229.147500", "151229.607500", "151230.067500", "151230.527500", "151230.987500", "151231.447500", "151231.907500", "151232.367500", "151232.827500", "151233.287500", "151233.747500", "151234.207500", "151234.667500", "151235.127500", "151235.587500", "151236.047500", "151236.507500", "151236.967500", "151237.427500", "151237.887500", "151238.347500", "151238.807500", "151239.267500", "151239.727500", "151240.187500", "151240.647500", "151241.107500", "151241.567500", "151242.027500", "151242.487500", "151242.947500", "151243.407500", "151243.867500", "151244.327500", "151244.787500", "151245.247500", "151245.707500", "151246.167500", "151246.627500", "151247.087500", "151247.547500", "151248.007500", "151248.467500", "151248.927500", "151249.387500", "151249.847500", "151250.307500", "151250.767500", "151251.227500", "151251.687500", "151252.147500", "151252.607500", "151253.067500", "151253.527500", "151253.987500", "151254.447500", "151254.907500", "151255.367500", "151255.827500", "151256.287500", "151256.747500", "151257.207500", "151257.667500", "151258.127500", "151258.587500", "151259.047500", "151259.507500", "151259.967500", "151300.427500", "151300.887500", "151301.347500", "151301.807500", "151302.267500", "151302.727500", "151303.187500", "151303.647500", "151304.107500", "151304.567500", "151305.027500", "151305.487500", "151305.947500", "151306.407500", "151306.867500", "151307.327500", "151307.787500", "151308.247500", "151308.707500", "151309.167500", "151309.627500", "151310.087500", "151310.547500", "151311.007500", "151311.467500", "151311.927500", "151312.387500", "151312.847500", "151313.307500", "151313.767500", "151314.227500", "151314.687500", "151315.147500", "151315.607500", "151316.067500", "151316.527500", "151316.987500", "151317.447500", "151317.907500", "151318.367500", "151318.827500", "151319.287500", "151319.747500", "151320.207500", "151320.667500", "151321.127500", "151321.587500", "151322.047500", "151322.507500", "151322.967500", "151323.427500", "151323.887500", "151324.347500", "151324.807500", "151325.267500", "151325.727500", "151326.187500", "151326.647500", "151327.107500", "151327.567500", "151328.027500", "151328.487500", "151328.947500", "151329.407500", "151329.867500", "151330.327500", "151330.787500", "151331.247500", "151331.707500", "151332.167500", "151332.627500", "151333.087500", "151333.547500", "151334.007500", "151334.467500", "151334.927500", "151335.387500", "151335.847500", "151336.307500", "151336.767500", "151337.227500", "151337.687500", "151338.147500", "151338.607500", "151339.067500", "151339.527500", "151339.987500", "151340.447500", "151340.907500", "151341.367500", "151341.827500", "151342.287500", "151342.747500", "151343.207500", "151343.667500", "151344.127500", "151344.587500", "151345.047500", "151345.507500", "151345.967500", "151346.427500", "151346.887500", "151347.347500", "151347.807500", "151348.267500", "151348.727500", "151349.187500", "151349.647500", "151350.107500", "151350.567500", "151351.027500", "151351.487500", "151351.947500", "151352.407500", "151352.867500", "151353.327500", "151353.787500", "151354.247500", "151354.707500", "151355.167500", "151355.627500", "151356.087500", "151356.547500", "151357.007500", "151357.467500", "151357.927500", "151358.387500", "151358.847500", "151359.307500", "151359.767500", "151400.227500", "151400.687500", "151401.147500", "151401.607500", "151402.067500", "151402.527500", "151402.987500", "151403.447500", "151403.907500", "151404.367500", "151404.827500", "151405.287500", "151405.747500", "151406.207500", "151406.667500", "151407.127500", "151407.587500", "151408.047500", "151408.507500", "151408.967500", "151409.427500", "151409.887500", "151410.347500", "151410.807500", "151411.267500", "151411.727500", "151412.187500", "151412.647500", "151413.107500", "151413.567500", "151414.027500", "151414.487500", "151414.947500", "151415.407500", "151415.867500", "151416.327500", "151416.787500", "151417.247500", "151417.707500", "151418.167500", "151418.627500", "151419.087500", "151419.547500", "151420.007500", "151420.467500", "151420.927500", "151421.387500", "151421.847500", "151422.307500", "151422.767500", "151423.227500", "151423.687500", "151424.147500", "151424.607500", "151425.067500", "151425.527500", "151425.987500", "151426.447500", "151426.907500", "151427.367500", "151427.827500", "151428.287500", "151428.747500", "151429.207500", "151429.667500", "151430.127500", "151430.587500", "151431.047500", "151431.507500", "151431.967500", "151432.427500", "151432.887500", "151433.347500", "151433.807500", "151434.267500", "151434.727500", "151435.187500", "151435.647500", "151436.107500", "151436.567500", "151437.027500", "151437.487500", "151437.947500", "151438.407500", "151438.867500", "151439.327500", "151439.787500", "151440.247500", "151440.707500", "151441.167500", "151441.627500", "151442.087500", "151442.547500", "151443.007500", "151443.467500", "151443.927500", "151444.387500", "151444.847500", "151445.307500", "151445.767500", "151446.227500", "151446.687500", "151447.147500", "151447.607500", "151448.067500", "151448.527500", "151448.987500", "151449.447500", "151449.907500", "151450.367500", "151450.827500", "151451.287500", "151451.747500", "151452.207500", "151452.667500", "151453.127500", "151453.587500", "151454.047500", "151454.507500", "151454.967500", "151455.427500", "151455.887500", "151456.347500", "151456.807500", "151457.267500", "151457.727500", "151458.187500", "151458.647500", "151459.107500", "151459.567500", "151500.027500", "151500.487500", "151500.947500", "151501.407500", "151501.867500", "151502.327500", "151502.787500", "151503.247500", "151503.707500", "151504.167500", "151504.627500", "151505.087500", "151505.547500", "151506.007500", "151506.467500", "151506.927500", "151507.387500", "151507.847500", "151508.307500", "151508.767500", "151509.227500", "151509.687500", "151510.147500", "151510.607500", "151511.067500", "151511.527500", "151511.987500", "151512.447500", "151512.907500", "151513.367500", "151513.827500", "151514.287500", "151514.747500", "151515.207500", "151515.667500", "151516.127500", "151516.587500", "151517.047500", "151517.507500", "151517.967500", "151518.427500", "151518.887500", "151519.347500", "151519.807500", "151520.267500", "151520.727500", "151521.187500", "151521.647500", "151522.107500", "151522.567500", "151523.027500", "151523.487500", "151523.947500", "151524.407500", "151524.867500", "151525.327500", "151525.787500", "151526.247500", "151526.707500", "151527.167500", "151527.627500", "151528.087500", "151528.547500", "151529.007500", "151529.467500", "151529.927500", "151530.387500", "151530.847500", "151531.307500", "151531.767500", "151532.227500", "151532.687500", "151533.147500", "151533.607500", "151534.067500", "151534.527500", "151534.987500", "151535.447500", "151535.907500", "151536.367500", "151536.827500", "151537.287500", "151537.747500", "151538.207500", "151538.667500", "151539.127500", "151539.587500", "151540.047500", "151540.507500", "151540.967500", "151541.427500", "151541.887500", "151542.347500", "151542.807500", "151543.267500", "151543.727500", "151544.187500", "151544.647500", "151545.107500", "151545.567500", "151546.027500", "151546.487500", "151546.947500", "151547.407500", "151547.867500", "151548.327500", "151548.787500", "151549.247500", "151549.707500", "151550.167500", "151550.627500", "151551.087500", "151551.547500", "151552.007500", "151552.467500", "151552.927500", "151553.387500", "151553.847500", "151554.307500", "151554.767500", "151555.227500", "151555.687500", "151556.147500", "151556.607500", "151557.067500", "151557.527500", "151557.987500", "151558.447500", "151558.907500", "151559.367500", "151559.827500", "151600.287500", "151600.747500", "151601.207500", "151601.667500", "151602.127500", "151602.587500", "151603.047500", "151603.507500", "151603.967500", "151604.427500", "151604.887500", "151605.347500", "151605.807500", "151606.267500", "151606.727500", "151607.187500", "151607.647500", "151608.107500", "151608.567500", "151609.027500", "151609.487500", "151609.947500", "151610.407500", "151610.867500", "151611.327500", "151611.787500", "151612.247500", "151612.707500", "151613.167500", "151613.627500", "151614.087500", "151614.547500", "151615.007500", "151615.467500", "151615.927500", "151616.387500", "151616.847500", "151617.307500", "151617.767500", "151618.227500", "151618.687500", "151619.147500", "151619.607500", "151620.067500", "151620.527500", "151620.987500", "151621.447500", "151621.907500", "151622.367500", "151622.827500", "151623.287500", "151623.747500", "151624.207500", "151624.667500", "151625.127500", "151625.587500", "151626.047500", "151626.507500", "151626.967500", "151627.427500", "151627.887500", "151628.347500", "151628.807500", "151629.267500", "151629.727500", "151630.187500", "151630.647500", "151631.107500", "151631.567500", "151632.027500", "151632.487500", "151632.947500", "151633.407500", "151633.867500", "151634.327500", "151634.787500", "151635.247500", "151635.707500", "151636.167500", "151636.627500", "151637.087500", "151637.547500", "151638.007500", "151638.467500", "151638.927500", "151639.387500", "151639.847500", "151640.307500", "151640.767500", "151641.227500", "151641.687500", "151642.147500", "151642.607500", "151643.067500", "151643.527500", "151643.987500", "151644.447500", "151644.907500", "151645.367500", "151645.827500", "151646.287500", "151646.747500", "151647.207500", "151647.667500", "151648.127500", "151648.587500", "151649.047500", "151649.507500", "151649.967500", "151650.427500", "151650.887500", "151651.347500", "151651.807500", "151652.267500", "151652.727500", "151653.187500", "151653.647500", "151654.107500", "151654.567500", "151655.027500", "151655.487500", "151655.947500", "151656.407500", "151656.867500", "151657.327500", "151657.787500", "151658.247500", "151658.707500", "151659.167500", "151659.627500", "151700.087500", "151700.547500", "151701.007500", "151701.467500", "151701.927500", "151702.387500", "151702.847500", "151703.307500", "151703.767500", "151704.227500", "151704.687500", "151705.147500", "151705.607500", "151706.067500", "151706.527500", "151706.987500", "151707.447500", "151707.907500", "151708.367500", "151708.827500", "151709.287500", "151709.747500"],
