{
  "AcquisitionMatrixPE": 82,
  "AcquisitionNumber": 1,
  "AcquisitionTime": "14:57:20.260000",
  "BandwidthPerPixelPhaseEncode": 24.888,
  "BaseResolution": 82,
  "BodyPartExamined": "BRAIN",
  "ConsistencyInfo": "N4_VE11C_LATEST_20160120",
  "ConversionSoftware": "dcm2niix",
  "ConversionSoftwareVersion": "v1.0.20201102",
  "DerivedVendorReportedEchoSpacing": 0.00049,
  "DeviceSerialNumber": "66112",
  "DwellTime": 2e-06,
  "EchoTime": 0.0272,
  "EchoTrainLength": 82,
  "EffectiveEchoSpacing": 0.00049,
  "FlipAngle": 44,
  "ImageComments": "Unaliased MB8/PE3",
  "ImageOrientationPatientDICOM": [0.999758, -0.0217241, -0.00337291, 0.0214656, 0.997742, -0.0636376],
  "ImageType": [
    "ORIGINAL",
    "PRIMARY",
    "M",
    "MB",
    "ND",
    "NORM",
    "MOSAIC"
],
  "ImagingFrequency": 123.252,
  "InPlanePhaseEncodingDirectionDICOM": "COL",
  "InstitutionAddress": "Maynard 3,Hanover,NH,US,03755",
  "InstitutionName": "Dartmouth College - PBS",
  "InstitutionalDepartmentName": "Department",
  "MRAcquisitionType": "2D",
  "MagneticFieldStrength": 3,
  "Manufacturer": "Siemens",
  "ManufacturersModelName": "Prisma",
  "Modality": "MR",
  "MultibandAccelerationFactor": 8,
  "PartialFourier": 1,
  "PatientPosition": "HFS",
  "PercentPhaseFOV": 100,
  "PercentSampling": 100,
  "PhaseEncodingDirection": "j-",
  "PhaseEncodingSteps": 82,
  "PhaseResolution": 1,
  "PixelBandwidth": 3050,
  "ProcedureStepDescription": "Wager_Wager^1076_spacetop",
  "ProtocolName": "func_run-03_task-alignvideo_acq-ap-mb8",
  "PulseSequenceDetails": "%CustomerSeq%\\cmrr_mbep2d_bold",
  "ReceiveCoilActiveElements": "HEA;HEP",
  "ReceiveCoilName": "Head_32",
  "ReconMatrixPE": 82,
  "RepetitionTime": 0.46,
  "SAR": 0.100931,
  "ScanOptions": "FS",
  "ScanningSequence": "EP",
  "SequenceName": "epfid2d1_82",
  "SequenceVariant": "SK\\SS",
  "SeriesDescription": "func_run-03_task-alignvideo_acq-ap-mb8",
  "SeriesNumber": 32,
  "ShimSetting": [4144, -7761, -7249, 544, -34, -26, -38, 48],
  "SliceThickness": 2.7,
  "SliceTiming": [0, 0.25, 0.0625, 0.3125, 0.125, 0.375, 0.1875, 0, 0.25, 0.0625, 0.3125, 0.125, 0.375, 0.1875, 0, 0.25, 0.0625, 0.3125, 0.125, 0.375, 0.1875, 0, 0.25, 0.0625, 0.3125, 0.125, 0.375, 0.1875, 0, 0.25, 0.0625, 0.3125, 0.125, 0.375, 0.1875, 0, 0.25, 0.0625, 0.3125, 0.125, 0.375, 0.1875, 0, 0.25, 0.0625, 0.3125, 0.125, 0.375, 0.1875, 0, 0.25, 0.0625, 0.3125, 0.125, 0.375, 0.1875],
  "SoftwareVersions": "syngo MR E11",
  "SpacingBetweenSlices": 2.7,
  "StationName": "AWP66112",
  "TaskName": "alignvideo",
  "TotalReadoutTime": 0.03969,
  "TxRefAmp": 243.969,
  "WipMemBlock": "2c1d1cf3-bb81-4d86-8ea3-e8ef2594e4f7||Sequence: R016 ve11c/master r/e634e98; Dec 19 2017 11:00:25 by eja",
  "dcmmeta_affine": [
    [-2.6822783946990967, 0.05759061127901077, -0.012818966060876846, 111.61222839355469],
    [0.05828415974974632, 2.6768693923950195, -0.17158454656600952, -102.08257293701172],
    [-0.00904927309602499, 0.17073507606983185, 2.694511890411377, -66.4161605834961],
    [0.0, 0.0, 0.0, 1.0]
],
  "dcmmeta_reorient_transform": [
    [0.0, -1.0, 0.0, 81.0],
    [1.0, 0.0, 0.0, 0.0],
    [0.0, 0.0, 1.0, 0.0],
    [0.0, 0.0, 0.0, 1.0]
],
  "dcmmeta_shape": [82, 82, 56, 1065],
  "dcmmeta_slice_dim": 2,
  "dcmmeta_version": 0.6,
  "global": {
    "const": {
      "AccessionNumber": "A003640",
      "AcquisitionMatrix": [82, 0, 0, 82],
      "AngioFlag": "N",
      "BitsAllocated": 16,
      "BitsStored": 16,
      "BodyPartExamined": "BRAIN",
      "Columns": 656,
      "EchoNumbers": 1,
      "EchoTime": 27.2,
      "EchoTrainLength": 82,
      "FlipAngle": 44.0,
      "HighBit": 15,
      "ImageOrientationPatient": [0.99975831435651, -0.0217240960217, -0.0033729107724, 0.02146559111476, 0.99774219227112, -0.063637615921],
      "ImagePositionPatient": [-902.61949732013, -866.27779923446, -0.9885102198142],
      "ImageType": [
        "ORIGINAL",
        "PRIMARY",
        "M",
        "MB",
        "ND",
        "NORM",
        "MOSAIC"
],
      "ImagedNucleus": "1H",
      "ImagingFrequency": 123.252201,
      "InPlanePhaseEncodingDirection": "COL",
      "MRAcquisitionType": "2D",
      "MagneticFieldStrength": 3.0,
      "Manufacturer": "SIEMENS",
      "ManufacturerModelName": "Prisma",
      "Modality": "MR",
      "NumberOfAverages": 1.0,
      "NumberOfPhaseEncodingSteps": 82,
      "PercentPhaseFieldOfView": 100.0,
      "PercentSampling": 100.0,
      "PerformedProcedureStepStartTime": "131708.282000",
      "PhotometricInterpretation": "MONOCHROME2",
      "PixelBandwidth": 3050.0,
      "PixelRepresentation": 0,
      "PixelSpacing": [2.6829268932343, 2.6829268932343],
      "ProtocolName": "func_run-03_task-alignvideo_acq-ap-mb8",
      "RepetitionTime": 460.0,
      "Rows": 656,
      "SAR": 0.10093100001196,
      "SamplesPerPixel": 1,
      "ScanOptions": "FS",
      "ScanningSequence": "EP",
      "SequenceName": "epfid2d1_82",
      "SequenceVariant": [
        "SK",
        "SS"
],
      "SeriesDescription": "func_run-03_task-alignvideo_acq-ap-mb8",
      "SeriesNumber": 32,
      "SeriesTime": "145743.881000",
      "SliceLocation": -60.323736690833,
      "SliceThickness": 2.7000000476837,
      "SmallestImagePixelValue": 0,
      "SoftwareVersions": "syngo MR E11",
      "SpacingBetweenSlices": 2.6999999922226,
      "SpecificCharacterSet": "ISO_IR 100",
      "StudyID": "1",
      "StudyTime": "131708.162000",
      "TransmitCoilName": "Body",
      "VariableFlipAngleFlag": "N",
      "WindowCenterWidthExplanation": "Algo1",
      "dBdt": 0.0},
    "slices": {}
  },
  "time": {
    "samples": {
      "AcquisitionNumber": [1, 2, 3, 4, 5, 6, 7, 8, 9, 10, 11, 12, 13, 14, 15, 16, 17, 18, 19, 20, 21, 22, 23, 24, 25, 26, 27, 28, 29, 30, 31, 32, 33, 34, 35, 36, 37, 38, 39, 40, 41, 42, 43, 44, 45, 46, 47, 48, 49, 50, 51, 52, 53, 54, 55, 56, 57, 58, 59, 60, 61, 62, 63, 64, 65, 66, 67, 68, 69, 70, 71, 72, 73, 74, 75, 76, 77, 78, 79, 80, 81, 82, 83, 84, 85, 86, 87, 88, 89, 90, 91, 92, 93, 94, 95, 96, 97, 98, 99, 100, 101, 102, 103, 104, 105, 106, 107, 108, 109, 110, 111, 112, 113, 114, 115, 116, 117, 118, 119, 120, 121, 122, 123, 124, 125, 126, 127, 128, 129, 130, 131, 132, 133, 134, 135, 136, 137, 138, 139, 140, 141, 142, 143, 144, 145, 146, 147, 148, 149, 150, 151, 152, 153, 154, 155, 156, 157, 158, 159, 160, 161, 162, 163, 164, 165, 166, 167, 168, 169, 170, 171, 172, 173, 174, 175, 176, 177, 178, 179, 180, 181, 182, 183, 184, 185, 186, 187, 188, 189, 190, 191, 192, 193, 194, 195, 196, 197, 198, 199, 200, 201, 202, 203, 204, 205, 206, 207, 208, 209, 210, 211, 212, 213, 214, 215, 216, 217, 218, 219, 220, 221, 222, 223, 224, 225, 226, 227, 228, 229, 230, 231, 232, 233, 234, 235, 236, 237, 238, 239, 240, 241, 242, 243, 244, 245, 246, 247, 248, 249, 250, 251, 252, 253, 254, 255, 256, 257, 258, 259, 260, 261, 262, 263, 264, 265, 266, 267, 268, 269, 270, 271, 272, 273, 274, 275, 276, 277, 278, 279, 280, 281, 282, 283, 284, 285, 286, 287, 288, 289, 290, 291, 292, 293, 294, 295, 296, 297, 298, 299, 300, 301, 302, 303, 304, 305, 306, 307, 308, 309, 310, 311, 312, 313, 314, 315, 316, 317, 318, 319, 320, 321, 322, 323, 324, 325, 326, 327, 328, 329, 330, 331, 332, 333, 334, 335, 336, 337, 338, 339, 340, 341, 342, 343, 344, 345, 346, 347, 348, 349, 350, 351, 352, 353, 354, 355, 356, 357, 358, 359, 360, 361, 362, 363, 364, 365, 366, 367, 368, 369, 370, 371, 372, 373, 374, 375, 376, 377, 378, 379, 380, 381, 382, 383, 384, 385, 386, 387, 388, 389, 390, 391, 392, 393, 394, 395, 396, 397, 398, 399, 400, 401, 402, 403, 404, 405, 406, 407, 408, 409, 410, 411, 412, 413, 414, 415, 416, 417, 418, 419, 420, 421, 422, 423, 424, 425, 426, 427, 428, 429, 430, 431, 432, 433, 434, 435, 436, 437, 438, 439, 440, 441, 442, 443, 444, 445, 446, 447, 448, 449, 450, 451, 452, 453, 454, 455, 456, 457, 458, 459, 460, 461, 462, 463, 464, 465, 466, 467, 468, 469, 470, 471, 472, 473, 474, 475, 476, 477, 478, 479, 480, 481, 482, 483, 484, 485, 486, 487, 488, 489, 490, 491, 492, 493, 494, 495, 496, 497, 498, 499, 500, 501, 502, 503, 504, 505, 506, 507, 508, 509, 510, 511, 512, 513, 514, 515, 516, 517, 518, 519, 520, 521, 522, 523, 524, 525, 526, 527, 528, 529, 530, 531, 532, 533, 534, 535, 536, 537, 538, 539, 540, 541, 542, 543, 544, 545, 546, 547, 548, 549, 550, 551, 552, 553, 554, 555, 556, 557, 558, 559, 560, 561, 562, 563, 564, 565, 566, 567, 568, 569, 570, 571, 572, 573, 574, 575, 576, 577, 578, 579, 580, 581, 582, 583, 584, 585, 586, 587, 588, 589, 590, 591, 592, 593, 594, 595, 596, 597, 598, 599, 600, 601, 602, 603, 604, 605, 606, 607, 608, 609, 610, 611, 612, 613, 614, 615, 616, 617, 618, 619, 620, 621, 622, 623, 624, 625, 626, 627, 628, 629, 630, 631, 632, 633, 634, 635, 636, 637, 638, 639, 640, 641, 642, 643, 644, 645, 646, 647, 648, 649, 650, 651, 652, 653, 654, 655, 656, 657, 658, 659, 660, 661, 662, 663, 664, 665, 666, 667, 668, 669, 670, 671, 672, 673, 674, 675, 676, 677, 678, 679, 680, 681, 682, 683, 684, 685, 686, 687, 688, 689, 690, 691, 692, 693, 694, 695, 696, 697, 698, 699, 700, 701, 702, 703, 704, 705, 706, 707, 708, 709, 710, 711, 712, 713, 714, 715, 716, 717, 718, 719, 720, 721, 722, 723, 724, 725, 726, 727, 728, 729, 730, 731, 732, 733, 734, 735, 736, 737, 738, 739, 740, 741, 742, 743, 744, 745, 746, 747, 748, 749, 750, 751, 752, 753, 754, 755, 756, 757, 758, 759, 760, 761, 762, 763, 764, 765, 766, 767, 768, 769, 770, 771, 772, 773, 774, 775, 776, 777, 778, 779, 780, 781, 782, 783, 784, 785, 786, 787, 788, 789, 790, 791, 792, 793, 794, 795, 796, 797, 798, 799, 800, 801, 802, 803, 804, 805, 806, 807, 808, 809, 810, 811, 812, 813, 814, 815, 816, 817, 818, 819, 820, 821, 822, 823, 824, 825, 826, 827, 828, 829, 830, 831, 832, 833, 834, 835, 836, 837, 838, 839, 840, 841, 842, 843, 844, 845, 846, 847, 848, 849, 850, 851, 852, 853, 854, 855, 856, 857, 858, 859, 860, 861, 862, 863, 864, 865, 866, 867, 868, 869, 870, 871, 872, 873, 874, 875, 876, 877, 878, 879, 880, 881, 882, 883, 884, 885, 886, 887, 888, 889, 890, 891, 892, 893, 894, 895, 896, 897, 898, 899, 900, 901, 902, 903, 904, 905, 906, 907, 908, 909, 910, 911, 912, 913, 914, 915, 916, 917, 918, 919, 920, 921, 922, 923, 924, 925, 926, 927, 928, 929, 930, 931, 932, 933, 934, 935, 936, 937, 938, 939, 940, 941, 942, 943, 944, 945, 946, 947, 948, 949, 950, 951, 952, 953, 954, 955, 956, 957, 958, 959, 960, 961, 962, 963, 964, 965, 966, 967, 968, 969, 970, 971, 972, 973, 974, 975, 976, 977, 978, 979, 980, 981, 982, 983, 984, 985, 986, 987, 988, 989, 990, 991, 992, 993, 994, 995, 996, 997, 998, 999, 1000, 1001, 1002, 1003, 1004, 1005, 1006, 1007, 1008, 1009, 1010, 1011, 1012, 1013, 1014, 1015, 1016, 1017, 1018, 1019, 1020, 1021, 1022, 1023, 1024, 1025, 1026, 1027, 1028, 1029, 1030, 1031, 1032, 1033, 1034, 1035, 1036, 1037, 1038, 1039, 1040, 1041, 1042, 1043, 1044, 1045, 1046, 1047, 1048, 1049, 1050, 1051, 1052, 1053, 1054, 1055, 1056, 1057, 1058, 1059, 1060, 1061, 1062, 1063, 1064, 1065],
      "AcquisitionTime": ["145720.260000", "145720.720000", "145721.180000", "145721.640000", "145722.100000", "145722.560000", "145723.020000", "145723.480000", "145723.940000", "145724.400000", "145724.860000", "145725.320000", "145725.780000", "145726.240000", "145726.700000", "145727.160000", "145727.620000", "145728.080000", "145728.540000", "145729.000000", "145729.460000", "145729.920000", "145730.380000", "145730.840000", "145731.300000", "145731.760000", "145732.220000", "145732.680000", "145733.140000", "145733.600000", "145734.060000", "145734.520000", "145734.980000", "145735.440000", "145735.900000", "145736.360000", "145736.820000", "145737.280000", "145737.740000", "145738.200000", "145738.660000", "145739.120000", "145739.580000", "145740.040000", "145740.500000", "145740.960000", "145741.420000", "145741.880000", "145742.340000", "145742.800000", "145743.260000", "145743.720000", "145744.180000", "145744.640000", "145745.100000", "145745.560000", "145746.020000", "145746.480000", "145746.940000", "145747.400000", "145747.860000", "145748.320000", "145748.780000", "145749.240000", "145749.700000", "145750.160000", "145750.620000", "145751.080000", "145751.540000", "145752.000000", "145752.460000", "145752.920000", "145753.380000", "145753.840000", "145754.300000", "145754.760000", "145755.220000", "145755.680000", "145756.140000", "145756.600000", "145757.060000", "145757.520000", "145757.980000", "145758.440000", "145758.900000", "145759.360000", "145759.820000", "145800.280000", "145800.740000", "145801.200000", "145801.660000", "145802.120000", "145802.580000", "145803.040000", "145803.500000", "145803.960000", "145804.420000", "145804.880000", "145805.340000", "145805.800000", "145806.260000", "145806.720000", "145807.180000", "145807.640000", "145808.100000", "145808.560000", "145809.020000", "145809.480000", "145809.940000", "145810.400000", "145810.860000", "145811.320000", "145811.780000", "145812.240000", "145812.700000", "145813.160000", "145813.620000", "145814.080000", "145814.540000", "145815.000000", "145815.460000", "145815.920000", "145816.380000", "145816.840000", "145817.300000", "145817.760000", "145818.220000", "145818.680000", "145819.140000", "145819.600000", "145820.060000", "145820.520000", "145820.980000", "145821.440000", "145821.900000", "145822.360000", "145822.820000", "145823.280000", "145823.740000", "145824.200000", "145824.660000", "145825.120000", "145825.580000", "145826.040000", "145826.500000", "145826.960000", "145827.420000", "145827.880000", "145828.340000", "145828.800000", "145829.260000", "145829.720000", "145830.180000", "145830.640000", "145831.100000", "145831.560000", "145832.020000", "145832.480000", "145832.940000", "145833.400000", "145833.860000", "145834.320000", "145834.780000", "145835.240000", "145835.700000", "145836.160000", "145836.620000", "145837.080000", "145837.540000", "145838.000000", "145838.460000", "145838.920000", "145839.380000", "145839.840000", "145840.300000", "145840.760000", "145841.220000", "145841.680000", "145842.140000", "145842.600000", "145843.060000", "145843.520000", "145843.980000", "145844.440000", "145844.900000", "145845.360000", "145845.820000", "145846.280000", "145846.740000", "145847.200000", "145847.660000", "145848.120000", "145848.580000", "145849.040000", "145849.500000", "145849.960000", "145850.420000", "145850.880000", "145851.340000", "145851.800000", "145852.260000", "145852.720000", "145853.180000", "145853.640000", "145854.100000", "145854.560000", "145855.020000", "145855.480000", "145855.940000", "145856.400000", "145856.860000", "145857.320000", "145857.780000", "145858.240000", "145858.700000", "145859.160000", "145859.620000", "145900.080000", "145900.540000", "145901.000000", "145901.460000", "145901.920000", "145902.380000", "145902.840000", "145903.300000", "145903.760000", "145904.220000", "145904.680000", "145905.140000", "145905.600000", "145906.060000", "145906.520000", "145906.980000", "145907.440000", "145907.900000", "145908.360000", "145908.820000", "145909.280000", "145909.740000", "145910.200000", "145910.660000", "145911.120000", "145911.580000", "145912.040000", "145912.500000", "145912.960000", "145913.420000", "145913.880000", "145914.340000", "145914.800000", "145915.260000", "145915.720000", "145916.180000", "145916.640000", "145917.100000", "145917.560000", "145918.020000", "145918.480000", "145918.940000", "145919.400000", "145919.860000", "145920.320000", "145920.780000", "145921.240000", "145921.700000", "145922.160000", "145922.620000", "145923.080000", "145923.540000", "145924.000000", "145924.460000", "145924.920000", "145925.380000", "145925.840000", "145926.300000", "145926.760000", "145927.220000", "145927.680000", "145928.140000", "145928.600000", "145929.060000", "145929.520000", "145929.980000", "145930.440000", "145930.900000", "145931.360000", "145931.820000", "145932.280000", "145932.740000", "145933.200000", "145933.660000", "145934.120000", "145934.580000", "145935.040000", "145935.500000", "145935.960000", "145936.420000", "145936.880000", "145937.340000", "145937.800000", "145938.260000", "145938.720000", "145939.180000", "145939.640000", "145940.100000", "145940.560000", "145941.020000", "145941.480000", "145941.940000", "145942.400000", "145942.860000", "145943.320000", "145943.780000", "145944.240000", "145944.700000", "145945.160000", "145945.620000", "145946.080000", "145946.540000", "145947.000000", "145947.460000", "145947.920000", "145948.380000", "145948.840000", "145949.300000", "145949.760000", "145950.220000", "145950.680000", "145951.140000", "145951.600000", "145952.060000", "145952.520000", "145952.980000", "145953.440000", "145953.900000", "145954.360000", "145954.820000", "145955.280000", "145955.740000", "145956.200000", "145956.660000", "145957.120000", "145957.580000", "145958.040000", "145958.500000", "145958.960000", "145959.420000", "145959.880000", "150000.340000", "150000.800000", "150001.260000", "150001.720000", "150002.180000", "150002.640000", "150003.100000", "150003.560000", "150004.020000", "150004.480000", "150004.940000", "150005.400000", "150005.860000", "150006.320000", "150006.780000", "150007.240000", "150007.700000", "150008.160000", "150008.620000", "150009.080000", "150009.540000", "150010.000000", "150010.460000", "150010.920000", "150011.380000", "150011.840000", "150012.300000", "150012.760000", "150013.220000", "150013.680000", "150014.140000", "150014.600000", "150015.060000", "150015.520000", "150015.980000", "150016.440000", "150016.900000", "150017.360000", "150017.820000", "150018.280000", "150018.740000", "150019.200000", "150019.660000", "150020.120000", "150020.580000", "150021.040000", "150021.500000", "150021.960000", "150022.420000", "150022.880000", "150023.340000", "150023.800000", "150024.260000", "150024.720000", "150025.180000", "150025.640000", "150026.100000", "150026.560000", "150027.020000", "150027.480000", "150027.940000", "150028.400000", "150028.860000", "150029.320000", "150029.780000", "150030.240000", "150030.700000", "150031.160000", "150031.620000", "150032.080000", "150032.540000", "150033.000000", "150033.460000", "150033.920000", "150034.380000", "150034.840000", "150035.300000", "150035.760000", "150036.220000", "150036.680000", "150037.140000", "150037.600000", "150038.060000", "150038.520000", "150038.980000", "150039.440000", "150039.900000", "150040.360000", "150040.820000", "150041.280000", "150041.740000", "150042.200000", "150042.660000", "150043.120000", "150043.580000", "150044.040000", "150044.500000", "150044.960000", "150045.420000", "150045.880000", "150046.340000", "150046.800000", "150047.260000", "150047.720000", "150048.180000", "150048.640000", "150049.100000", "150049.560000", "150050.020000", "150050.480000", "150050.940000", "150051.400000", "150051.860000", "150052.320000", "150052.780000", "150053.240000", "150053.700000", "150054.160000", "150054.620000", "150055.080000", "150055.540000", "150056.000000", "150056.460000", "150056.920000", "150057.380000", "150057.840000", "150058.300000", "150058.760000", "150059.220000", "150059.680000", "150100.140000", "150100.600000", "150101.060000", "150101.520000", "150101.980000", "150102.440000", "150102.900000", "150103.360000", "150103.820000", "150104.280000", "150104.740000", "150105.200000", "150105.660000", "150106.120000", "150106.580000", "150107.040000", "150107.500000", "150107.960000", "150108.420000", "150108.880000", "150109.340000", "150109.800000", "150110.260000", "150110.720000", "150111.180000", "150111.640000", "150112.100000", "150112.560000", "150113.020000", "150113.480000", "150113.940000", "150114.400000", "150114.860000", "150115.320000", "150115.780000", "150116.240000", "150116.700000", "150117.160000", "150117.620000", "150118.080000", "150118.540000", "150119.000000", "150119.460000", "150119.920000", "150120.380000", "150120.840000", "150121.300000", "150121.760000", "150122.220000", "150122.680000", "150123.140000", "150123.600000", "150124.060000", "150124.520000", "150124.980000", "150125.440000", "150125.900000", "150126.360000", "150126.820000", "150127.280000", "150127.740000", "150128.200000", "150128.660000", "150129.120000", "150129.580000", "150130.040000", "150130.500000", "150130.960000", "150131.420000", "150131.880000", "150132.340000", "150132.800000", "150133.260000", "150133.720000", "150134.180000", "150134.640000", "150135.100000", "150135.560000", "150136.020000", "150136.480000", "150136.940000", "150137.400000", "150137.860000", "150138.320000", "150138.780000", "150139.240000", "150139.700000", "150140.160000", "150140.620000", "150141.080000", "150141.540000", "150142.000000", "150142.460000", "150142.920000", "150143.380000", "150143.840000", "150144.300000", "150144.760000", "150145.220000", "150145.680000", "150146.140000", "150146.600000", "150147.060000", "150147.520000", "150147.980000", "150148.440000", "150148.900000", "150149.360000", "150149.820000", "150150.280000", "150150.740000", "150151.200000", "150151.660000", "150152.120000", "150152.580000", "150153.040000", "150153.500000", "150153.960000", "150154.420000", "150154.880000", "150155.340000", "150155.800000", "150156.260000", "150156.720000", "150157.180000", "150157.640000", "150158.100000", "150158.560000", "150159.020000", "150159.480000", "150159.940000", "150200.400000", "150200.860000", "150201.320000", "150201.780000", "150202.240000", "150202.700000", "150203.160000", "150203.620000", "150204.080000", "150204.540000", "150205.000000", "150205.460000", "150205.920000", "150206.380000", "150206.840000", "150207.300000", "150207.760000", "150208.220000", "150208.680000", "150209.140000", "150209.600000", "150210.060000", "150210.520000", "150210.980000", "150211.440000", "150211.900000", "150212.360000", "150212.820000", "150213.280000", "150213.740000", "150214.200000", "150214.660000", "150215.120000", "150215.580000", "150216.040000", "150216.500000", "150216.960000", "150217.420000", "150217.880000", "150218.340000", "150218.800000", "150219.260000", "150219.720000", "150220.180000", "150220.640000", "150221.100000", "150221.560000", "150222.020000", "150222.480000", "150222.940000", "150223.400000", "150223.860000", "150224.320000", "150224.780000", "150225.240000", "150225.700000", "150226.160000", "150226.620000", "150227.080000", "150227.540000", "150228.000000", "150228.460000", "150228.920000", "150229.380000", "150229.840000", "150230.300000", "150230.760000", "150231.220000", "150231.680000", "150232.140000", "150232.600000", "150233.060000", "150233.520000", "150233.980000", "150234.440000", "150234.900000", "150235.360000", "150235.820000", "150236.280000", "150236.740000", "150237.200000", "150237.660000", "150238.120000", "150238.580000", "150239.040000", "150239.500000", "150239.960000", "150240.420000", "150240.880000", "150241.340000", "150241.800000", "150242.260000", "150242.720000", "150243.180000", "150243.640000", "150244.100000", "150244.560000", "150245.020000", "150245.480000", "150245.940000", "150246.400000", "150246.860000", "150247.320000", "150247.780000", "150248.240000", "150248.700000", "150249.160000", "150249.620000", "150250.080000", "150250.540000", "150251.000000", "150251.460000", "150251.920000", "150252.380000", "150252.840000", "150253.300000", "150253.760000", "150254.220000", "150254.680000", "150255.140000", "150255.600000", "150256.060000", "150256.520000", "150256.980000", "150257.440000", "150257.900000", "150258.360000", "150258.820000", "150259.280000", "150259.740000", "150300.200000", "150300.660000", "150301.120000", "150301.580000", "150302.040000", "150302.500000", "150302.960000", "150303.420000", "150303.880000", "150304.340000", "150304.800000", "150305.260000", "150305.720000", "150306.180000", "150306.640000", "150307.100000", "150307.560000", "150308.020000", "150308.480000", "150308.940000", "150309.400000", "150309.860000", "150310.320000", "150310.780000", "150311.240000", "150311.700000", "150312.160000", "150312.620000", "150313.080000", "150313.540000", "150314.000000", "150314.460000", "150314.920000", "150315.380000", "150315.840000", "150316.300000", "150316.760000", "150317.220000", "150317.680000", "150318.140000", "150318.600000", "150319.060000", "150319.520000", "150319.980000", "150320.440000", "150320.900000", "150321.360000", "150321.820000", "150322.280000", "150322.740000", "150323.200000", "150323.660000", "150324.120000", "150324.580000", "150325.040000", "150325.500000", "150325.960000", "150326.420000", "150326.880000", "150327.340000", "150327.800000", "150328.260000", "150328.720000", "150329.180000", "150329.640000", "150330.100000", "150330.560000", "150331.020000", "150331.480000", "150331.940000", "150332.400000", "150332.860000", "150333.320000", "150333.780000", "150334.240000", "150334.700000", "150335.160000", "150335.620000", "150336.080000", "150336.540000", "150337.000000", "150337.460000", "150337.920000", "150338.380000", "150338.840000", "150339.300000", "150339.760000", "150340.220000", "150340.680000", "150341.140000", "150341.600000", "150342.060000", "150342.520000", "150342.980000", "150343.440000", "150343.900000", "150344.360000", "150344.820000", "150345.280000", "150345.740000", "150346.200000", "150346.660000", "150347.120000", "150347.580000", "150348.040000", "150348.500000", "150348.960000", "150349.420000", "150349.880000", "150350.340000", "150350.800000", "150351.260000", "150351.720000", "150352.180000", "150352.640000", "150353.100000", "150353.560000", "150354.020000", "150354.480000", "150354.940000", "150355.400000", "150355.860000", "150356.320000", "150356.780000", "150357.240000", "150357.700000", "150358.160000", "150358.620000", "150359.080000", "150359.540000", "150400.000000", "150400.460000", "150400.920000", "150401.380000", "150401.840000", "150402.300000", "150402.760000", "150403.220000", "150403.680000", "150404.140000", "150404.600000", "150405.060000", "150405.520000", "150405.980000", "150406.440000", "150406.900000", "150407.360000", "150407.820000", "150408.280000", "150408.740000", "150409.200000", "150409.660000", "150410.120000", "150410.580000", "150411.040000", "150411.500000", "150411.960000", "150412.420000", "150412.880000", "150413.340000", "150413.800000", "150414.260000", "150414.720000", "150415.180000", "150415.640000", "150416.100000", "150416.560000", "150417.020000", "150417.480000", "150417.940000", "150418.400000", "150418.860000", "150419.320000", "150419.780000", "150420.240000", "150420.700000", "150421.160000", "150421.620000", "150422.080000", "150422.540000", "150423.000000", "150423.460000", "150423.920000", "150424.380000", "150424.840000", "150425.300000", "150425.760000", "150426.220000", "150426.680000", "150427.140000", "150427.600000", "150428.060000", "150428.520000", "150428.980000", "150429.440000", "150429.900000", "150430.360000", "150430.820000", "150431.280000", "150431.740000", "150432.200000", "150432.660000", "150433.120000", "150433.580000", "150434.040000", "150434.500000", "150434.960000", "150435.420000", "150435.880000", "150436.340000", "150436.800000", "150437.260000", "150437.720000", "150438.180000", "150438.640000", "150439.100000", "150439.560000", "150440.020000", "150440.480000", "150440.940000", "150441.400000", "150441.860000", "150442.320000", "150442.780000", "150443.240000", "150443.700000", "150444.160000", "150444.620000", "150445.080000", "150445.540000", "150446.000000", "150446.460000", "150446.920000", "150447.380000", "150447.840000", "150448.300000", "150448.760000", "150449.220000", "150449.680000", "150450.140000", "150450.600000", "150451.060000", "150451.520000", "150451.980000", "150452.440000", "150452.900000", "150453.360000", "150453.820000", "150454.280000", "150454.740000", "150455.200000", "150455.660000", "150456.120000", "150456.580000", "150457.040000", "150457.500000", "150457.960000", "150458.420000", "150458.880000", "150459.340000", "150459.800000", "150500.260000", "150500.720000", "150501.180000", "150501.640000", "150502.100000", "150502.560000", "150503.020000", "150503.480000", "150503.940000", "150504.400000", "150504.860000", "150505.320000", "150505.780000", "150506.240000", "150506.700000", "150507.160000", "150507.620000", "150508.080000", "150508.540000", "150509.000000", "150509.460000", "150509.920000", "150510.380000", "150510.840000", "150511.300000", "150511.760000", "150512.220000", "150512.680000", "150513.140000", "150513.600000", "150514.060000", "150514.520000", "150514.980000", "150515.440000", "150515.900000", "150516.360000", "150516.820000", "150517.280000", "150517.740000", "150518.200000", "150518.660000", "150519.120000", "150519.580000", "150520.040000", "150520.500000", "150520.960000", "150521.420000", "150521.880000", "150522.340000", "150522.800000", "150523.260000", "150523.720000", "150524.180000", "150524.640000", "150525.100000", "150525.560000", "150526.020000", "150526.480000", "150526.940000", "150527.400000", "150527.860000", "150528.320000", "150528.780000", "150529.240000", "150529.700000"],
