{
  "AcquisitionMatrixPE": 140,
  "AcquisitionNumber": 1,
  "AcquisitionTime": "12:33:10.065000",
  "BandwidthPerPixelPhaseEncode": 10.352,
  "BaseResolution": 140,
  "BodyPartExamined": "BRAIN",
  "ConsistencyInfo": "N4_VE11C_LATEST_20160120",
  "ConversionSoftware": "dcm2niix",
  "ConversionSoftwareVersion": "v1.0.20201102",
  "DerivedVendorReportedEchoSpacing": 0.000689998,
  "DeviceSerialNumber": "66112",
  "DiffusionScheme": "Monopolar",
  "DwellTime": 2.1e-06,
  "EchoTime": 0.088,
  "EchoTrainLength": 105,
  "EffectiveEchoSpacing": 0.000689998,
  "FlipAngle": 90,
  "ImageComments": "Unaliased MB3/PE3",
  "ImageOrientationPatientDICOM": [0.999977, 0.00605381, 0.00305171, -0.00628312, 0.996631, 0.0817766],
  "ImageType": [
    "ORIGINAL",
    "PRIMARY",
    "DIFFUSION",
    "NONE",
    "MB",
    "ND"
],
  "ImagingFrequency": 123.252,
  "InPlanePhaseEncodingDirectionDICOM": "COL",
  "InstitutionAddress": "Maynard 3,Hanover,NH,US,03755",
  "InstitutionName": "Dartmouth College - PBS",
  "InstitutionalDepartmentName": "Department",
  "MRAcquisitionType": "2D",
  "MagneticFieldStrength": 3,
  "Manufacturer": "Siemens",
  "ManufacturersModelName": "Prisma",
  "Modality": "MR",
  "MultibandAccelerationFactor": 3,
  "PartialFourier": 0.75,
  "PatientPosition": "HFS",
  "PercentPhaseFOV": 100,
  "PercentSampling": 100,
  "PhaseEncodingDirection": "j-",
  "PhaseEncodingSteps": 105,
  "PhaseResolution": 1,
  "PixelBandwidth": 1700,
  "ProcedureStepDescription": "Wager_Wager^1076_spacetop",
  "ProtocolName": "dwi_acq-discorr-AP",
  "PulseSequenceDetails": "%CustomerSeq%\\cmrr_mbep2d_diff",
  "ReceiveCoilActiveElements": "HEA;HEP",
  "ReceiveCoilName": "Head_32",
  "ReconMatrixPE": 140,
  "RepetitionTime": 4.1,
  "SAR": 0.140932,
  "ScanOptions": "PFP\\FS",
  "ScanningSequence": "EP",
  "SequenceName": "ep_b0",
  "SequenceVariant": "SK\\SS",
  "SeriesDescription": "dwi_acq-discorr-AP",
  "SeriesNumber": 7,
  "ShimSetting": [4159, -7724, -7317, 599, -44, -125, 94, 82],
  "SliceThickness": 1.7,
  "SliceTiming": [0, 2.11719, 0.15625, 2.27344, 0.30469, 2.42188, 0.45312, 2.57031, 0.60938, 2.71875, 0.75781, 2.875, 0.90625, 3.02344, 1.0625, 3.17188, 1.21094, 3.32812, 1.35938, 3.47656, 1.51562, 3.63281, 1.66406, 3.78125, 1.8125, 3.92969, 1.96875, 0, 2.11719, 0.15625, 2.27344, 0.30469, 2.42188, 0.45312, 2.57031, 0.60938, 2.71875, 0.75781, 2.875, 0.90625, 3.02344, 1.0625, 3.17188, 1.21094, 3.32812, 1.35938, 3.47656, 1.51562, 3.63281, 1.66406, 3.78125, 1.8125, 3.92969, 1.96875, 0, 2.11719, 0.15625, 2.27344, 0.30469, 2.42188, 0.45312, 2.57031, 0.60938, 2.71875, 0.75781, 2.875, 0.90625, 3.02344, 1.0625, 3.17188, 1.21094, 3.32812, 1.35938, 3.47656, 1.51562, 3.63281, 1.66406, 3.78125, 1.8125, 3.92969, 1.96875],
  "SoftwareVersions": "syngo MR E11",
  "SpacingBetweenSlices": 1.7,
  "StationName": "AWP66112",
  "TotalReadoutTime": 0.0959097,
  "TxRefAmp": 237.673,
  "WipMemBlock": "81fdbbb6-d8b3-42a6-8da3-8ec703fff770||Sequence: R016 ve11c/master r/e634e98; Dec 19 2017 11:11:25 by eja",
  "dcmmeta_affine": [
    [-1.714246392250061, -0.010771055705845356, 0.004328727722167969, 125.29612731933594],
    [-0.010377958416938782, 1.7085100412368774, 0.13904953002929688, -114.31021118164062],
    [0.0052315001375973225, -0.140188530087471, 1.694305419921875, -38.561466217041016],
    [0.0, 0.0, 0.0, 1.0]
],
  "dcmmeta_reorient_transform": [
    [0.0, -1.0, 0.0, 139.0],
    [1.0, 0.0, 0.0, 0.0],
    [0.0, 0.0, -1.0, 80.0],
    [0.0, 0.0, 0.0, 1.0]
],
  "dcmmeta_shape": [140, 140, 81],
  "dcmmeta_slice_dim": 2,
  "dcmmeta_version": 0.6,
  "global": {
    "const": {
      "AccessionNumber": "A003465",
      "AcquisitionMatrix": [140, 0, 0, 140],
      "AcquisitionNumber": 1,
      "AngioFlag": "N",
      "BitsAllocated": 16,
      "BitsStored": 16,
      "BodyPartExamined": "BRAIN",
      "Columns": 140,
      "EchoNumbers": 1,
      "EchoTime": 88.0,
      "EchoTrainLength": 105,
      "FlipAngle": 90.0,
      "HighBit": 15,
      "ImageOrientationPatient": [0.99997701897303, 0.0060538087992, 0.00305170851063, -0.0062831156354, 0.99663087610799, 0.08177664242393],
      "ImageType": [
        "ORIGINAL",
        "PRIMARY",
        "DIFFUSION",
        "NONE",
        "MB",
        "ND"
],
      "ImagedNucleus": "1H",
      "ImagingFrequency": 123.252137,
      "InPlanePhaseEncodingDirection": "COL",
      "MRAcquisitionType": "2D",
      "MagneticFieldStrength": 3.0,
      "Manufacturer": "SIEMENS",
      "ManufacturerModelName": "Prisma",
      "Modality": "MR",
      "NumberOfAverages": 1.0,
      "NumberOfPhaseEncodingSteps": 105,
      "PercentPhaseFieldOfView": 100.0,
      "PercentSampling": 100.0,
      "PerformedProcedureStepStartTime": "115019.985000",
      "PhotometricInterpretation": "MONOCHROME2",
      "PixelBandwidth": 1700.0,
      "PixelRepresentation": 0,
      "PixelSpacing": [1.7142857313156, 1.7142857313156],
      "ProtocolName": "dwi_acq-discorr-AP",
      "RepetitionTime": 4100.0,
      "Rows": 140,
      "SAR": 0.14093228766693,
      "SamplesPerPixel": 1,
      "ScanOptions": [
        "PFP",
        "FS"
],
      "ScanningSequence": "EP",
      "SequenceName": "ep_b0",
      "SequenceVariant": [
        "SK",
        "SS"
],
      "SeriesDescription": "dwi_acq-discorr-AP",
      "SeriesNumber": 7,
      "SeriesTime": "123314.936000",
      "SliceThickness": 1.7000000476837,
      "SmallestImagePixelValue": 0,
      "SoftwareVersions": "syngo MR E11",
      "SpacingBetweenSlices": 1.7,
      "SpecificCharacterSet": "ISO_IR 100",
      "StudyID": "1",
      "StudyTime": "115019.849000",
      "TransmitCoilName": "Body",
      "VariableFlipAngleFlag": "N",
      "WindowCenterWidthExplanation": "Algo1",
      "dBdt": 0.0},
    "slices": {
      "AcquisitionTime": ["123310.065000", "123312.180000", "123310.215000", "123312.332500", "123310.367500", "123312.482500", "123310.517500", "123312.632500", "123310.670000", "123312.785000", "123310.820000", "123312.935000", "123310.972500", "123313.087500", "123311.122500", "123313.237500", "123311.275000", "123313.390000", "123311.425000", "123313.540000", "123311.575000", "123313.692500", "123311.727500", "123313.842500", "123311.877500", "123313.992500", "123312.030000", "123310.065000", "123312.180000", "123310.215000", "123312.332500", "123310.367500", "123312.482500", "123310.517500", "123312.632500", "123310.670000", "123312.785000", "123310.820000", "123312.935000", "123310.972500", "123313.087500", "123311.122500", "123313.237500", "123311.275000", "123313.390000", "123311.425000", "123313.540000", "123311.575000", "123313.692500", "123311.727500", "123313.842500", "123311.877500", "123313.992500", "123312.030000", "123310.065000", "123312.180000", "123310.215000", "123312.332500", "123310.367500", "123312.482500", "123310.517500", "123312.632500", "123310.670000", "123312.785000", "123310.820000", "123312.935000", "123310.972500", "123313.087500", "123311.122500", "123313.237500", "123311.275000", "123313.390000", "123311.425000", "123313.540000", "123311.575000", "123313.692500", "123311.727500", "123313.842500", "123311.877500", "123313.992500", "123312.030000"],
      "ContentTime": ["123314.939000", "123315.042000", "123314.948000", "123315.048000", "123314.964000", "123315.055000", "123314.970000", "123315.068000", "123314.977000", "123315.075000", "123314.983000", "123315.081000", "123314.989000", "123315.087000", "123314.996000", "123315.094000", "123315.003000", "123315.100000", "123315.010000", "123315.106000", "123315.016000", "123315.113000", "123315.023000", "123315.119000", "123315.029000", "123315.125000", "123315.035000", "123314.943000", "123315.044000", "123314.951000", "123315.050000", "123314.966000", "123315.064000", "123314.972000", "123315.070000", "123314.979000", "123315.077000", "123314.985000", "123315.083000", "123314.992000", "123315.089000", "123314.998000", "123315.096000", "123315.006000", "123315.102000", "123315.012000", "123315.108000", "123315.019000", "123315.115000", "123315.025000", "123315.121000", "123315.031000", "123315.127000", "123315.038000", "123314.946000", "123315.046000", "123314.953000", "123315.052000", "123314.968000", "123315.066000", "123314.975000", "123315.073000", "123314.981000", "123315.079000", "123314.987000", "123315.085000", "123314.994000", "123315.091000", "123315.001000", "123315.098000", "123315.008000", "123315.104000", "123315.014000", "123315.111000", "123315.021000", "123315.117000", "123315.027000", "123315.123000", "123315.033000", "123315.129000", "123315.040000"],
      "CsaImage.ICE_Dims": [
        "X_1_1_1_1_1_1_1_1_1_1_1_78",
        "X_1_1_1_1_1_1_42_1_1_2_1_78",
        "X_1_1_1_1_1_1_2_1_1_3_1_78",
        "X_1_1_1_1_1_1_43_1_1_4_1_78",
        "X_1_1_1_1_1_1_3_1_1_5_1_78",
        "X_1_1_1_1_1_1_44_1_1_6_1_78",
        "X_1_1_1_1_1_1_4_1_1_7_1_78",
        "X_1_1_1_1_1_1_45_1_1_8_1_78",
        "X_1_1_1_1_1_1_5_1_1_9_1_78",
        "X_1_1_1_1_1_1_46_1_1_10_1_78",
        "X_1_1_1_1_1_1_6_1_1_11_1_78",
        "X_1_1_1_1_1_1_47_1_1_12_1_78",
        "X_1_1_1_1_1_1_7_1_1_13_1_78",
        "X_1_1_1_1_1_1_48_1_1_14_1_78",
        "X_1_1_1_1_1_1_8_1_1_15_1_78",
        "X_1_1_1_1_1_1_49_1_1_16_1_78",
        "X_1_1_1_1_1_1_9_1_1_17_1_78",
        "X_1_1_1_1_1_1_50_1_1_18_1_78",
        "X_1_1_1_1_1_1_10_1_1_19_1_78",
        "X_1_1_1_1_1_1_51_1_1_20_1_78",
        "X_1_1_1_1_1_1_11_1_1_21_1_78",
        "X_1_1_1_1_1_1_52_1_1_22_1_78",
        "X_1_1_1_1_1_1_12_1_1_23_1_78",
        "X_1_1_1_1_1_1_53_1_1_24_1_78",
        "X_1_1_1_1_1_1_13_1_1_25_1_78",
        "X_1_1_1_1_1_1_54_1_1_26_1_78",
        "X_1_1_1_1_1_1_14_1_1_27_1_78",
        "X_1_1_1_1_1_1_55_1_1_28_1_78",
        "X_1_1_1_1_1_1_15_1_1_29_1_78",
        "X_1_1_1_1_1_1_56_1_1_30_1_78",
        "X_1_1_1_1_1_1_16_1_1_31_1_78",
        "X_1_1_1_1_1_1_57_1_1_32_1_78",
        "X_1_1_1_1_1_1_17_1_1_33_1_78",
        "X_1_1_1_1_1_1_58_1_1_34_1_78",
        "X_1_1_1_1_1_1_18_1_1_35_1_78",
        "X_1_1_1_1_1_1_59_1_1_36_1_78",
        "X_1_1_1_1_1_1_19_1_1_37_1_78",
        "X_1_1_1_1_1_1_60_1_1_38_1_78",
        "X_1_1_1_1_1_1_20_1_1_39_1_78",
        "X_1_1_1_1_1_1_61_1_1_40_1_78",
        "X_1_1_1_1_1_1_21_1_1_41_1_78",
        "X_1_1_1_1_1_1_62_1_1_42_1_78",
        "X_1_1_1_1_1_1_22_1_1_43_1_78",
        "X_1_1_1_1_1_1_63_1_1_44_1_78",
        "X_1_1_1_1_1_1_23_1_1_45_1_78",
        "X_1_1_1_1_1_1_64_1_1_46_1_78",
        "X_1_1_1_1_1_1_24_1_1_47_1_78",
        "X_1_1_1_1_1_1_65_1_1_48_1_78",
        "X_1_1_1_1_1_1_25_1_1_49_1_78",
        "X_1_1_1_1_1_1_66_1_1_50_1_78",
        "X_1_1_1_1_1_1_26_1_1_51_1_78",
        "X_1_1_1_1_1_1_67_1_1_52_1_78",
        "X_1_1_1_1_1_1_27_1_1_53_1_78",
        "X_1_1_1_1_1_1_68_1_1_54_1_78",
        "X_1_1_1_1_1_1_28_1_1_55_1_78",
        "X_1_1_1_1_1_1_69_1_1_56_1_78",
        "X_1_1_1_1_1_1_29_1_1_57_1_78",
        "X_1_1_1_1_1_1_70_1_1_58_1_78",
        "X_1_1_1_1_1_1_30_1_1_59_1_78",
        "X_1_1_1_1_1_1_71_1_1_60_1_78",
        "X_1_1_1_1_1_1_31_1_1_61_1_78",
        "X_1_1_1_1_1_1_72_1_1_62_1_78",
        "X_1_1_1_1_1_1_32_1_1_63_1_78",
        "X_1_1_1_1_1_1_73_1_1_64_1_78",
        "X_1_1_1_1_1_1_33_1_1_65_1_78",
        "X_1_1_1_1_1_1_74_1_1_66_1_78",
        "X_1_1_1_1_1_1_34_1_1_67_1_78",
        "X_1_1_1_1_1_1_75_1_1_68_1_78",
        "X_1_1_1_1_1_1_35_1_1_69_1_78",
        "X_1_1_1_1_1_1_76_1_1_70_1_78",
        "X_1_1_1_1_1_1_36_1_1_71_1_78",
        "X_1_1_1_1_1_1_77_1_1_72_1_78",
        "X_1_1_1_1_1_1_37_1_1_73_1_78",
        "X_1_1_1_1_1_1_78_1_1_74_1_78",
        "X_1_1_1_1_1_1_38_1_1_75_1_78",
        "X_1_1_1_1_1_1_79_1_1_76_1_78",
        "X_1_1_1_1_1_1_39_1_1_77_1_78",
        "X_1_1_1_1_1_1_80_1_1_78_1_78",
        "X_1_1_1_1_1_1_40_1_1_79_1_78",
        "X_1_1_1_1_1_1_81_1_1_80_1_78",
        "X_1_1_1_1_1_1_41_1_1_81_1_78"
],
      "CsaImage.ProtocolSliceNumber": [0, 1, 2, 3, 4, 5, 6, 7, 8, 9, 10, 11, 12, 13, 14, 15, 16, 17, 18, 19, 20, 21, 22, 23, 24, 25, 26, 27, 28, 29, 30, 31, 32, 33, 34, 35, 36, 37, 38, 39, 40, 41, 42, 43, 44, 45, 46, 47, 48, 49, 50, 51, 52, 53, 54, 55, 56, 57, 58, 59, 60, 61, 62, 63, 64, 65, 66, 67, 68, 69, 70, 71, 72, 73, 74, 75, 76, 77, 78, 79, 80],
      "CsaImage.RFSWDDataType": [
        "predicted",
        "predicted",
        "predicted",
        "predicted",
        "predicted",
        "predicted",
        "predicted",
        "predicted",
        "predicted",
        "predicted",
        "predicted",
        "predicted",
        "predicted",
        "predicted",
        "predicted",
        "predicted",
        "predicted",
        "predicted",
        "predicted",
        "predicted",
        "predicted",
        "predicted",
        "predicted",
        "predicted",
        "predicted",
        "measured",
        "predicted",
        "predicted",
        "predicted",
        "predicted",
        "predicted",
        "predicted",
        "predicted",
        "predicted",
        "predicted",
        "predicted",
        "predicted",
        "predicted",
        "predicted",
        "predicted",
        "predicted",
        "predicted",
        "predicted",
        "predicted",
        "predicted",
        "predicted",
        "predicted",
        "predicted",
        "predicted",
        "predicted",
        "predicted",
        "predicted",
        "measured",
        "predicted",
        "predicted",
        "predicted",
        "predicted",
        "predicted",
        "predicted",
        "predicted",
        "predicted",
        "predicted",
        "predicted",
        "predicted",
        "predicted",
        "predicted",
        "predicted",
        "predicted",
        "predicted",
        "predicted",
        "predicted",
        "predicted",
        "predicted",
        "predicted",
        "predicted",
        "predicted",
        "predicted",
        "predicted",
        "predicted",
        "measured",
        "predicted"
],
      "CsaImage.SlicePosition_PCS": [
        [-123.79894366, -123.17267923, -58.04710088],
        [-123.80327239, -123.311729, -56.35280309],
        [-123.80760159, -123.45077876, -54.6585053],
        [-123.81193032, -123.58982829, -52.96420751],
        [-123.81625905, -123.72887806, -51.26990591],
        [-123.82058778, -123.86792783, -49.57560812],
        [-123.8249165, -124.0069776, -47.88131032],
        [-123.82924571, -124.14602713, -46.18701253],
        [-123.83357444, -124.2850769, -44.49271474],
        [-123.83790316, -124.42412643, -42.79841695],
        [-123.84223189, -124.56317643, -41.10411916],
        [-123.84656062, -124.70222596, -39.40981946],
        [-123.85088982, -124.84127549, -37.71552167],
        [-123.85521855, -124.9803255, -36.02122388],
        [-123.85954728, -125.11937503, -34.32692609],
        [-123.86387601, -125.25842456, -32.6326264],
        [-123.86820474, -125.39747457, -30.9383286],
        [-123.87253394, -125.5365241, -29.24403081],
        [-123.87686267, -125.67557363, -27.54973302],
        [-123.8811914, -125.81462364, -25.85543428],
        [-123.88552012, -125.95367317, -24.16113649],
        [-123.88984933, -126.0927227, -22.46683774],
        [-123.89417806, -126.2317727, -20.77253995],
        [-123.89850678, -126.37082223, -19.07824121],
        [-123.90283551, -126.50987176, -17.38394342],
        [-123.90716424, -126.64892177, -15.68964515],
        [-123.91149344, -126.7879713, -13.99534688],
        [-123.91582217, -126.92702083, -12.30104862],
        [-123.9201509, -127.06607084, -10.60675047],
        [-123.92447963, -127.20512037, -8.9124522],
        [-123.92880835, -127.3441699, -7.21815405],
        [-123.93313756, -127.4832199, -5.52385602],
        [-123.93746629, -127.62226943, -3.82955776],
        [-123.94179501, -127.76131896, -2.13525949],
        [-123.94612374, -127.90036897, -0.44096075],
        [-123.95045247, -128.0394185, 1.25333704],
        [-123.95478167, -128.17846803, 2.94763484],
        [-123.9591104, -128.31751804, 4.64193358],
        [-123.96343913, -128.45656757, 6.33623232],
        [-123.96776786, -128.5956171, 8.03053011],
        [-123.97209658, -128.73466663, 9.7248279],
        [-123.97642579, -128.87371711, 11.4191257],
        [-123.98075452, -129.01276664, 13.11342539],
        [-123.98508324, -129.15181617, 14.80772318],
        [-123.98941197, -129.2908657, 16.50202097],
        [-123.9937407, -129.42991523, 18.19631876],
        [-123.9980699, -129.56896476, 19.89061656],
        [-124.00239863, -129.70801524, 21.58491625],
        [-124.00672736, -129.84706477, 23.27921214],
        [-124.01105609, -129.9861143, 24.97351374],
        [-124.01538529, -130.12516383, 26.66781153],
        [-124.01971402, -130.26421336, 28.36210932],
        [-124.02404275, -130.40326289, 30.05640711],
        [-124.02837148, -130.54231338, 31.7507049],
        [-124.0327002, -130.68136291, 33.44500269],
        [-124.03702941, -130.82041244, 35.13930048],
        [-124.04135814, -130.95946197, 36.83359828],
        [-124.04568686, -131.0985115, 38.52789607],
        [-124.05001559, -131.23756103, 40.22219767],
        [-124.05434432, -131.37661151, 41.91649546],
        [-124.05867352, -131.51566104, 43.61079325],
        [-124.06300225, -131.65471057, 45.30509104],
        [-124.06733098, -131.7937601, 46.99938883],
        [-124.07165971, -131.93280963, 48.69368662],
        [-124.07598843, -132.07185916, 50.38798441],
        [-124.08031764, -132.21090965, 52.0822822],
        [-124.08464637, -132.34995918, 53.77657999],
        [-124.08897509, -132.48900871, 55.4708816],
        [-124.09330382, -132.62805824, 57.16517939],
        [-124.09763255, -132.76710777, 58.85947718],
        [-124.10196175, -132.9061573, 60.55377497],
        [-124.10629048, -133.04520778, 62.24807276],
        [-124.11061921, -133.18425731, 63.94237055],
        [-124.11494794, -133.32330684, 65.63666834],
        [-124.11927667, -133.46235637, 67.33096613],
        [-124.12360587, -133.6014059, 69.02526392],
        [-124.1279346, -133.74045543, 70.71956171],
        [-124.13226333, -133.87950591, 72.41385951],
        [-124.13659205, -134.01855544, 74.1081573],
        [-124.14092126, -134.15760497, 75.80245509],
        [-124.14524999, -134.2966545, 77.49676051]
],
      "CsaImage.TimeAfterStart": [16.4, 18.515, 16.55, 18.665, 16.7025, 18.8175, 16.8525, 18.9675, 17.005, 19.12, 17.155, 19.27, 17.305, 19.4225, 17.4575, 19.5725, 17.6075, 19.725, 17.76, 19.875, 17.91, 20.025, 18.0625, 20.1775, 18.2125, 20.3275, 18.365, 16.4, 18.515, 16.55, 18.665, 16.7025, 18.8175, 16.8525, 18.9675, 17.005, 19.12, 17.155, 19.27, 17.305, 19.4225, 17.4575, 19.5725, 17.6075, 19.725, 17.76, 19.875, 17.91, 20.025, 18.0625, 20.1775, 18.2125, 20.3275, 18.365, 16.4, 18.515, 16.55, 18.665, 16.7025, 18.8175, 16.8525, 18.9675, 17.005, 19.12, 17.155, 19.27, 17.305, 19.4225, 17.4575, 19.5725, 17.6075, 19.725, 17.76, 19.875, 17.91, 20.025, 18.0625, 20.1775, 18.2125, 20.3275, 18.365],
      "ImagePositionPatient": [
        [-123.79894366117, -123.17267922659, -58.047100882704],
        [-123.80327238889, -123.31172899504, -56.352803092177],
        [-123.80760159345, -123.45077876349, -54.65850530165],
        [-123.81193032117, -123.58982829352, -52.964207511122],
        [-123.81625904889, -123.72887806197, -51.269905905898],
        [-123.82058777661, -123.86792783041, -49.57560811537],
        [-123.82491650434, -124.00697759886, -47.881310324843],
        [-123.8292457089, -124.14602712889, -46.187012534316],
        [-123.83357443662, -124.28507689734, -44.492714743788],
        [-123.83790316434, -124.42412642737, -42.798416953261],
        [-123.84223189206, -124.56317643424, -41.104119162734],
        [-123.84656061978, -124.70222596426, -39.409819464858],
        [-123.85088982434, -124.84127549429, -37.71552167433],
        [-123.85521855207, -124.98032550116, -36.021223883803],
        [-123.85954727979, -125.11937503119, -34.326926093276],
        [-123.86387600751, -125.25842456122, -32.6326263954],
        [-123.86820473523, -125.39747456809, -30.938328604872],
        [-123.87253393979, -125.53652409811, -29.244030814345],
        [-123.87686266751, -125.67557362814, -27.549733023818],
        [-123.88119139524, -125.81462363501, -25.855434279616],
        [-123.88552012296, -125.95367316504, -24.161136489089],
        [-123.88984932752, -126.09272269507, -22.466837744887],
        [-123.89417805524, -126.23177270194, -20.77253995436],
        [-123.89850678296, -126.37082223196, -19.078241210158],
        [-123.90283551068, -126.50987176199, -17.383943419631],
        [-123.90716423841, -126.64892176886, -15.689645152266],
        [-123.91149344297, -126.78797129889, -13.995346884902],
        [-123.91582217069, -126.92702082892, -12.301048617537],
        [-123.92015089841, -127.06607083579, -10.606750469382],
        [-123.92447962613, -127.20512036581, -8.9124522020174],
        [-123.92880835385, -127.34416989584, -7.2181540538621],
        [-123.93313755841, -127.48321990271, -5.5238560249162],
        [-123.93746628614, -127.62226943274, -3.8295577575517],
        [-123.94179501386, -127.76131896277, -2.1352594901872],
        [-123.94612374158, -127.90036896964, -0.4409607459856],
        [-123.9504524693, -128.03941849966, 1.2533370445418],
        [-123.95478167386, -128.17846802969, 2.9476348350691],
        [-123.95911040158, -128.31751803656, 4.6419335792708],
        [-123.96343912931, -128.45656756659, 6.3362323234724],
        [-123.96776785703, -128.59561709662, 8.0305301139998],
        [-123.97209658475, -128.73466662665, 9.7248279045271],
        [-123.97642578931, -128.87371711035, 11.419125695054],
        [-123.98075451703, -129.01276664038, 13.11342539293],
        [-123.98508324475, -129.15181617041, 14.807723183458],
        [-123.98941197248, -129.29086570044, 16.502020973985],
        [-123.9937407002, -129.42991523047, 18.196318764512],
        [-123.99806990476, -129.5689647605, 19.89061655504],
        [-124.00239863248, -129.7080152442, 21.584916252916],
        [-124.0067273602, -129.84706477423, 23.279212136095],
        [-124.01105608792, -129.98611430426, 24.973513741319],
        [-124.01538529248, -130.12516383429, 26.667811531846],
        [-124.01971402021, -130.26421336432, 28.362109322374],
        [-124.02404274793, -130.40326289435, 30.056407112901],
        [-124.02837147565, -130.54231337805, 31.750704903429],
        [-124.03270020337, -130.68136290808, 33.445002693956],
        [-124.03702940793, -130.82041243811, 35.139300484483],
        [-124.04135813565, -130.95946196814, 36.833598275011],
        [-124.04568686338, -131.09851149817, 38.527896065538],
        [-124.0500155911, -131.2375610282, 40.222197670762],
        [-124.05434431882, -131.3766115119, 41.91649546129],
        [-124.05867352338, -131.51566104193, 43.610793251817],
        [-124.0630022511, -131.65471057196, 45.305091042345],
        [-124.06733097882, -131.79376010199, 46.999388832872],
        [-124.07165970655, -131.93280963202, 48.693686623399],
        [-124.07598843427, -132.07185916205, 50.387984413927],
        [-124.08031763883, -132.21090964575, 52.082282204454],
        [-124.08464636655, -132.34995917578, 53.776579994981],
        [-124.08897509427, -132.48900870581, 55.470881600206],
        [-124.09330382199, -132.62805823584, 57.165179390733],
        [-124.09763254972, -132.76710776587, 58.859477181261],
        [-124.10196175428, -132.9061572959, 60.553774971788],
        [-124.106290482, -133.0452077796, 62.248072762315],
        [-124.11061920972, -133.18425730963, 63.942370552843],
        [-124.11494793744, -133.32330683966, 65.63666834337],
        [-124.11927666516, -133.46235636969, 67.330966133897],
        [-124.12360586972, -133.60140589972, 69.025263924425],
        [-124.12793459745, -133.74045542975, 70.719561714952],
        [-124.13226332517, -133.87950591345, 72.413859505479],
        [-124.13659205289, -134.01855544348, 74.108157296007],
        [-124.14092125745, -134.15760497351, 75.802455086534],
        [-124.14524998517, -134.29665450354, 77.496760506456]
],
      "InstanceCreationTime": ["123314.939000", "123315.042000", "123314.948000", "123315.048000", "123314.964000", "123315.055000", "123314.970000", "123315.068000", "123314.977000", "123315.075000", "123314.983000", "123315.081000", "123314.989000", "123315.087000", "123314.996000", "123315.094000", "123315.003000", "123315.100000", "123315.010000", "123315.106000", "123315.016000", "123315.113000", "123315.023000", "123315.119000", "123315.029000", "123315.125000", "123315.035000", "123314.943000", "123315.044000", "123314.951000", "123315.050000", "123314.966000", "123315.064000", "123314.972000", "123315.070000", "123314.979000", "123315.077000", "123314.985000", "123315.083000", "123314.992000", "123315.089000", "123314.998000", "123315.096000", "123315.006000", "123315.102000", "123315.012000", "123315.108000", "123315.019000", "123315.115000", "123315.025000", "123315.121000", "123315.031000", "123315.127000", "123315.038000", "123314.946000", "123315.046000", "123314.953000", "123315.052000", "123314.968000", "123315.066000", "123314.975000", "123315.073000", "123314.981000", "123315.079000", "123314.987000", "123315.085000", "123314.994000", "123315.091000", "123315.001000", "123315.098000", "123315.008000", "123315.104000", "123315.014000", "123315.111000", "123315.021000", "123315.117000", "123315.027000", "123315.123000", "123315.033000", "123315.129000", "123315.040000"],
      "InstanceNumber": [1, 2, 3, 4, 5, 6, 7, 8, 9, 10, 11, 12, 13, 14, 15, 16, 17, 18, 19, 20, 21, 22, 23, 24, 25, 26, 27, 28, 29, 30, 31, 32, 33, 34, 35, 36, 37, 38, 39, 40, 41, 42, 43, 44, 45, 46, 47, 48, 49, 50, 51, 52, 53, 54, 55, 56, 57, 58, 59, 60, 61, 62, 63, 64, 65, 66, 67, 68, 69, 70, 71, 72, 73, 74, 75, 76, 77, 78, 79, 80, 81],
      "LargestImagePixelValue": [34952, 21545, 22270, 23697, 30961, 20519, 22479, 29961, 25168, 21851, 23149, 19539, 20475, 25616, 34893, 38806, 48797, 47714, 35629, 51348, 46608, 43502, 45278, 43406, 52804, 51215, 38740, 35794, 56737, 48145, 43249, 45884, 52314, 48460, 38449, 35404, 37873, 37765, 47917, 32028, 56048, 44476, 43119, 43245, 49193, 45313, 42126, 41580, 38781, 45065, 48202, 49090, 45698, 65084, 45791, 34878, 38167, 37291, 39860, 45093, 48995, 44362, 43781, 40711, 44595, 46539, 65535, 56893, 60370, 65535, 65535, 65535, 55256, 16988, 20233, 18894, 24679, 19051, 4417, 981, 1014],
      "SliceLocation": [-47.462395521365, -45.762395939314, -44.062396356048, -42.362396793498, -40.662393409544, -38.962393827493, -37.262394245441, -35.562394681677, -33.862395099625, -32.162395537075, -30.462395935523, -28.762394472021, -27.062394908257, -25.362395306704, -23.662395744154, -21.962394280652, -20.2623946791, -18.562395115335, -16.862395552785, -15.162395000757, -13.462395438207, -11.762394923966, -10.062395322414, -8.362394809388, -6.6623952468378, -4.9623951700473, -3.2623951310451, -1.562395093257, 0.13760486472397, 1.837604902512, 3.5376048214906, 5.2376046618763, 6.9376046996644, 8.6376047374524, 10.337605289481, 12.037604852031, 13.737604415795, 15.437604967824, 17.13760548085, 18.8376050434, 20.53760460595, 22.237604247719, 23.937605711221, 25.637605273771, 27.337604836321, 29.037604398871, 30.737603962636, 32.437605504142, 34.137603165741, 35.837606530194, 37.537606093958, 39.237605656508, 40.937605219059, 42.637604859614, 44.337604422164, 46.037603985928, 47.737603548478, 49.437603111029, 51.137606475482, 52.837606116037, 54.537605679801, 56.237605242351, 57.937604804901, 59.637604367452, 61.337603930002, 63.037603571771, 64.737603134321, 66.437606498774, 68.137606061324, 69.837605623875, 71.537605187639, 73.237604828194, 74.937604390744, 76.637603953294, 78.337603515845, 80.037603079609, 81.737602642159, 83.437602282714, 85.137601845264, 86.837601409029, 88.537608575385],
      "WindowCenter": [5931.0, 5396.0, 5553.0, 5791.0, 6197.0, 5806.0, 5822.0, 6223.0, 6435.0, 6605.0, 6793.0, 6717.0, 6752.0, 7059.0, 7406.0, 7698.0, 7930.0, 8033.0, 7785.0, 8084.0, 8116.0, 8312.0, 8603.0, 8833.0, 9066.0, 9077.0, 9211.0, 9040.0, 9175.0, 9205.0, 9234.0, 9377.0, 9608.0, 9718.0, 9707.0, 9708.0, 9850.0, 10114.0, 10328.0, 10267.0, 10503.0, 10576.0, 10576.0, 10488.0, 10451.0, 10417.0, 10397.0, 10530.0, 10504.0, 10595.0, 10649.0, 10715.0, 10565.0, 10702.0, 10110.0, 9942.0, 9994.0, 9962.0, 9946.0, 9947.0, 9976.0, 9912.0, 9977.0, 9933.0, 10016.0, 10016.0, 10205.0, 10007.0, 9774.0, 9624.0, 9908.0, 8499.0, 7251.0, 5051.0, 5544.0, 5903.0, 6178.0, 4606.0, 1327.0, 1011.0, 1013.0],
      "WindowWidth": [13009.0, 11995.0, 12297.0, 12760.0, 13247.0, 12713.0, 12906.0, 13563.0, 13950.0, 14281.0, 14596.0, 14538.0, 14849.0, 15649.0, 16765.0, 17717.0, 18267.0, 18429.0, 17532.0, 17881.0, 18037.0, 18285.0, 18885.0, 19305.0, 19655.0, 19502.0, 19820.0, 19499.0, 19896.0, 20184.0, 20278.0, 20594.0, 21180.0, 21205.0, 20775.0, 20624.0, 20913.0, 21436.0, 21914.0, 21838.0, 22720.0, 22738.0, 22663.0, 22647.0, 22491.0, 22278.0, 22362.0, 22634.0, 22588.0, 22829.0, 22968.0, 23197.0, 22941.0, 23374.0, 21794.0, 21316.0, 21504.0, 21507.0, 21606.0, 21715.0, 21722.0, 21549.0, 21764.0, 21631.0, 22000.0, 22115.0, 23197.0, 22416.0, 21754.0, 21664.0, 22846.0, 19454.0, 15717.0, 10967.0, 11631.0, 12268.0, 12523.0, 9709.0, 3562.0, 2469.0, 2473.0]
    }
  }
}