{
  "AcquisitionMatrixPE": 140,
  "AcquisitionNumber": 1,
  "AcquisitionTime": "21:43:16.075000",
  "BandwidthPerPixelPhaseEncode": 10.352,
  "BaseResolution": 140,
  "BodyPartExamined": "BRAIN",
  "ConsistencyInfo": "N4_VE11E_LATEST_20181129",
  "ConversionSoftware": "dcm2niix",
  "ConversionSoftwareVersion": "v1.0.20201102",
  "DerivedVendorReportedEchoSpacing": 0.000689998,
  "DeviceSerialNumber": "66112",
  "DiffusionScheme": "Monopolar",
  "DwellTime": 2.1e-06,
  "EchoTime": 0.0884,
  "EchoTrainLength": 105,
  "EffectiveEchoSpacing": 0.000689998,
  "FlipAngle": 90,
  "ImageComments": "Unaliased MB3/PE3 SENSE1",
  "ImageOrientationPatientDICOM": [0.996722, 0.0736789, 0.0334114, -0.0800192, 0.958656, 0.273085],
  "ImageType": [
    "ORIGINAL",
    "PRIMARY",
    "DIFFUSION",
    "NONE",
    "MB",
    "ND",
    "MOSAIC"
],
  "ImagingFrequency": 123.252,
  "InPlanePhaseEncodingDirectionDICOM": "COL",
  "InstitutionAddress": "Maynard 3,Hanover,NH,US,03755",
  "InstitutionName": "Dartmouth College - PBS",
  "InstitutionalDepartmentName": "Department",
  "MRAcquisitionType": "2D",
  "MagneticFieldStrength": 3,
  "Manufacturer": "Siemens",
  "ManufacturersModelName": "Prisma",
  "Modality": "MR",
  "MultibandAccelerationFactor": 3,
  "PartialFourier": 0.75,
  "PatientPosition": "HFS",
  "PercentPhaseFOV": 100,
  "PercentSampling": 100,
  "PhaseEncodingDirection": "j-",
  "PhaseEncodingSteps": 105,
  "PhaseResolution": 1,
  "PixelBandwidth": 1700,
  "ProcedureStepDescription": "Wager_Wager^1076_spacetop",
  "ProtocolName": "dwi_acq-96dir-6b0-mb",
  "PulseSequenceDetails": "%CustomerSeq%\\cmrr_mbep2d_diff",
  "ReceiveCoilActiveElements": "HEA;HEP",
  "ReceiveCoilName": "Head_32",
  "ReconMatrixPE": 140,
  "RepetitionTime": 4.11,
  "SAR": 0.281523,
  "ScanOptions": "PFP\\FS",
  "ScanningSequence": "EP",
  "SequenceName": "ep_b5#1",
  "SequenceVariant": "SK\\SS",
  "SeriesDescription": "dwi_acq-96dir-6b0-mb",
  "SeriesNumber": 8,
  "ShimSetting": [4168, -7773, -7210, 598, -8, -284, 170, 11],
  "SliceThickness": 1.7,
  "SliceTiming": [0, 2.12, 0.15, 2.2725, 0.3025, 2.4225, 0.455, 2.575, 0.605, 2.7275, 0.7575, 2.8775, 0.9075, 3.03, 1.06, 3.18, 1.2125, 3.3325, 1.3625, 3.485, 1.515, 3.635, 1.665, 3.7875, 1.8175, 3.9375, 1.97, 0, 2.12, 0.15, 2.2725, 0.3025, 2.4225, 0.455, 2.575, 0.605, 2.7275, 0.7575, 2.8775, 0.9075, 3.03, 1.06, 3.18, 1.2125, 3.3325, 1.3625, 3.485, 1.515, 3.635, 1.665, 3.7875, 1.8175, 3.9375, 1.97, 0, 2.12, 0.15, 2.2725, 0.3025, 2.4225, 0.455, 2.575, 0.605, 2.7275, 0.7575, 2.8775, 0.9075, 3.03, 1.06, 3.18, 1.2125, 3.3325, 1.3625, 3.485, 1.515, 3.635, 1.665, 3.7875, 1.8175, 3.9375, 1.97],
  "SoftwareVersions": "syngo MR E11",
  "SpacingBetweenSlices": 1.7,
  "StationName": "AWP66112",
  "TotalReadoutTime": 0.0959097,
  "TxRefAmp": 252.803,
  "WipMemBlock": "fe7419fc-87a2-4375-9aea-778c8ea04017||Sequence: R016 ve11e/master r/434b28f1; Aug  7 2019 19:06:17 by eja",
  "dcmmeta_affine": [
    [-1.7086665630340576, -0.13717582821846008, 0.020246028900146484, 130.4610595703125],
    [-0.12630677223205566, 1.643410325050354, 0.4672684967517853, -88.77853393554688],
    [0.05727675184607506, -0.468146413564682, 1.634395956993103, -30.730762481689453],
    [0.0, 0.0, 0.0, 1.0]
],
  "dcmmeta_reorient_transform": [
    [0.0, -1.0, 0.0, 139.0],
    [1.0, 0.0, 0.0, 0.0],
    [0.0, 0.0, 1.0, 0.0],
    [0.0, 0.0, 0.0, 1.0]
],
  "dcmmeta_shape": [140, 140, 81, 103],
  "dcmmeta_slice_dim": 2,
  "dcmmeta_version": 0.6,
  "global": {
    "const": {
      "AccessionNumber": "A004080",
      "AcquisitionMatrix": [140, 0, 0, 140],
      "AngioFlag": "N",
      "BitsAllocated": 16,
      "BitsStored": 16,
      "BodyPartExamined": "BRAIN",
      "Columns": 1260,
      "EchoNumbers": 1,
      "EchoTime": 88.4,
      "EchoTrainLength": 105,
      "FlipAngle": 90.0,
      "HighBit": 15,
      "ImageOrientationPatient": [0.99672217203197, 0.07367894978525, 0.03341143723953, -0.0800192307446, 0.95865597961908, 0.27308539955779],
      "ImagePositionPatient": [-991.42845232046, -1130.6970319973, -390.04007793522],
      "ImageType": [
        "ORIGINAL",
        "PRIMARY",
        "DIFFUSION",
        "NONE",
        "MB",
        "ND",
        "MOSAIC"
],
      "ImagedNucleus": "1H",
      "ImagingFrequency": 123.252159,
      "InPlanePhaseEncodingDirection": "COL",
      "MRAcquisitionType": "2D",
      "MagneticFieldStrength": 3.0,
      "Manufacturer": "SIEMENS",
      "ManufacturerModelName": "Prisma",
      "Modality": "MR",
      "NumberOfAverages": 1.0,
      "NumberOfPhaseEncodingSteps": 105,
      "PercentPhaseFieldOfView": 100.0,
      "PercentSampling": 100.0,
      "PerformedProcedureStepStartTime": "213338.133000",
      "PhotometricInterpretation": "MONOCHROME2",
      "PixelBandwidth": 1700.0,
      "PixelRepresentation": 0,
      "PixelSpacing": [1.7142857313156, 1.7142857313156],
      "ProtocolName": "dwi_acq-96dir-6b0-mb",
      "RepetitionTime": 4110.0,
      "Rows": 1260,
      "SAR": 0.28152345273276,
      "SamplesPerPixel": 1,
      "ScanOptions": [
        "PFP",
        "FS"
],
      "ScanningSequence": "EP",
      "SequenceVariant": [
        "SK",
        "SS"
],
      "SeriesDescription": "dwi_acq-96dir-6b0-mb",
      "SeriesNumber": 8,
      "SeriesTime": "214449.356000",
      "SliceLocation": -52.393135199012,
      "SliceThickness": 1.7000000476837,
      "SmallestImagePixelValue": 0,
      "SoftwareVersions": "syngo MR E11",
      "SpacingBetweenSlices": 1.6999999898699,
      "SpecificCharacterSet": "ISO_IR 100",
      "StudyID": "1",
      "StudyTime": "213338.068000",
      "TransmitCoilName": "Body",
      "VariableFlipAngleFlag": "N",
      "WindowCenterWidthExplanation": "Algo1"
    },
    "slices": {}
  },
  "time": {
    "samples": {
      "AcquisitionNumber": [1, 2, 3, 4, 5, 6, 7, 8, 9, 10, 11, 12, 13, 14, 15, 16, 17, 18, 19, 20, 21, 22, 23, 24, 25, 26, 27, 28, 29, 30, 31, 32, 33, 34, 35, 36, 37, 38, 39, 40, 41, 42, 43, 44, 45, 46, 47, 48, 49, 50, 51, 52, 53, 54, 55, 56, 57, 58, 59, 60, 61, 62, 63, 64, 65, 66, 67, 68, 69, 70, 71, 72, 73, 74, 75, 76, 77, 78, 79, 80, 81, 82, 83, 84, 85, 86, 87, 88, 89, 90, 91, 92, 93, 94, 95, 96, 97, 98, 99, 100, 101, 102, 103],
      "AcquisitionTime": ["214316.075000", "214320.185000", "214324.295000", "214328.405000", "214332.515000", "214336.625000", "214340.735000", "214344.845000", "214348.955000", "214353.065000", "214357.175000", "214401.285000", "214405.395000", "214409.505000", "214413.615000", "214417.725000", "214421.835000", "214425.945000", "214430.055000", "214434.165000", "214438.275000", "214442.385000", "214446.495000", "214450.605000", "214454.715000", "214458.825000", "214502.935000", "214507.045000", "214511.155000", "214515.265000", "214519.375000", "214523.485000", "214527.595000", "214531.705000", "214535.815000", "214539.925000", "214544.035000", "214548.145000", "214552.255000", "214556.365000", "214600.475000", "214604.585000", "214608.695000", "214612.805000", "214616.915000", "214621.025000", "214625.135000", "214629.245000", "214633.355000", "214637.465000", "214641.575000", "214645.685000", "214649.795000", "214653.905000", "214658.015000", "214702.125000", "214706.235000", "214710.345000", "214714.455000", "214718.565000", "214722.675000", "214726.785000", "214730.895000", "214735.005000", "214739.115000", "214743.225000", "214747.335000", "214751.445000", "214755.555000", "214759.665000", "214803.775000", "214807.885000", "214811.995000", "214816.105000", "214820.215000", "214824.325000", "214828.435000", "214832.545000", "214836.655000", "214840.765000", "214844.875000", "214848.985000", "214853.095000", "214857.205000", "214901.315000", "214905.425000", "214909.535000", "214913.645000", "214917.755000", "214921.865000", "214925.975000", "214930.085000", "214934.195000", "214938.305000", "214942.415000", "214946.525000", "214950.635000", "214954.745000", "214958.855000", "215002.965000", "215007.075000", "215011.185000", "215015.295000"],
      "ContentTime": ["214449.360000", "214449.364000", "214449.367000", "214449.370000", "214449.373000", "214449.376000", "214449.379000", "214449.382000", "214449.385000", "214449.397000", "214449.400000", "214449.403000", "214449.406000", "214449.409000", "214449.412000", "214449.416000", "214449.419000", "214449.431000", "214449.434000", "214449.437000", "214449.440000", "214449.443000", "214609.356000", "214609.359000", "214609.362000", "214609.365000", "214609.368000", "214609.371000", "214609.374000", "214609.377000", "214609.380000", "214609.383000", "214609.386000", "214609.389000", "214609.392000", "214609.395000", "214609.398000", "214609.401000", "214609.404000", "214609.407000", "214609.409000", "214609.412000", "214749.356000", "214749.359000", "214749.367000", "214749.370000", "214749.373000", "214749.376000", "214749.379000", "214749.383000", "214749.386000", "214749.389000", "214749.393000", "214749.396000", "214749.399000", "214749.402000", "214749.405000", "214749.408000", "214749.411000", "214749.414000", "214749.417000", "214749.420000", "214749.423000", "214749.426000", "214749.429000", "214749.432000", "214929.356000", "214929.359000", "214929.362000", "214929.365000", "214929.368000", "214929.371000", "214929.374000", "214929.377000", "214929.380000", "214929.383000", "214929.386000", "214929.389000", "214929.392000", "214929.395000", "214929.398000", "214929.401000", "214929.404000", "214929.407000", "214929.410000", "214929.413000", "214929.422000", "214929.425000", "214929.428000", "214929.431000", "215019.745000", "215019.749000", "215019.752000", "215019.755000", "215019.758000", "215019.761000", "215019.764000", "215019.767000", "215019.770000", "215019.773000", "215019.776000", "215019.779000", "215019.782000"],
      "InstanceCreationTime": ["214449.360000", "214449.364000", "214449.367000", "214449.370000", "214449.373000", "214449.376000", "214449.379000", "214449.382000", "214449.385000", "214449.397000", "214449.400000", "214449.403000", "214449.406000", "214449.409000", "214449.412000", "214449.416000", "214449.419000", "214449.431000", "214449.434000", "214449.437000", "214449.440000", "214449.443000", "214609.356000", "214609.359000", "214609.362000", "214609.365000", "214609.368000", "214609.371000", "214609.374000", "214609.377000", "214609.380000", "214609.383000", "214609.386000", "214609.389000", "214609.392000", "214609.395000", "214609.398000", "214609.401000", "214609.404000", "214609.407000", "214609.409000", "214609.412000", "214749.356000", "214749.359000", "214749.367000", "214749.370000", "214749.373000", "214749.376000", "214749.379000", "214749.383000", "214749.386000", "214749.389000", "214749.393000", "214749.396000", "214749.399000", "214749.402000", "214749.405000", "214749.408000", "214749.411000", "214749.414000", "214749.417000", "214749.420000", "214749.423000", "214749.426000", "214749.429000", "214749.432000", "214929.356000", "214929.359000", "214929.362000", "214929.365000", "214929.368000", "214929.371000", "214929.374000", "214929.377000", "214929.380000", "214929.383000", "214929.386000", "214929.389000", "214929.392000", "214929.395000", "214929.398000", "214929.401000", "214929.404000", "214929.407000", "214929.410000", "214929.413000", "214929.422000", "214929.425000", "214929.428000", "214929.431000", "215019.745000", "215019.749000", "215019.752000", "215019.755000", "215019.758000", "215019.761000", "215019.764000", "215019.767000", "215019.770000", "215019.773000", "215019.776000", "215019.779000", "215019.782000"],
      "InstanceNumber": [1, 2, 3, 4, 5, 6, 7, 8, 9, 10, 11, 12, 13, 14, 15, 16, 17, 18, 19, 20, 21, 22, 23, 24, 25, 26, 27, 28, 29, 30, 31, 32, 33, 34, 35, 36, 37, 38, 39, 40, 41, 42, 43, 44, 45, 46, 47, 48, 49, 50, 51, 52, 53, 54, 55, 56, 57, 58, 59, 60, 61, 62, 63, 64, 65, 66, 67, 68, 69, 70, 71, 72, 73, 74, 75, 76, 77, 78, 79, 80, 81, 82, 83, 84, 85, 86, 87, 88, 89, 90, 91, 92, 93, 94, 95, 96, 97, 98, 99, 100, 101, 102, 103],
      "LargestImagePixelValue": [65535, 65535, 52349, 50687, 51573, 52868, 51269, 51580, 65535, 37214, 35504, 34794, 38754, 35421, 35766, 36822, 36800, 36885, 33779, 35697, 35972, 36139, 36524, 34859, 65535, 18270, 18830, 19367, 18063, 19218, 19441, 17943, 20940, 19462, 19037, 18960, 19204, 18003, 17779, 17707, 65535, 10253, 11259, 11847, 12027, 10442, 10930, 10627, 11032, 10375, 11064, 10535, 11016, 12249, 11814, 10666, 11210, 10618, 11397, 11468, 10249, 11117, 10897, 11124, 9788, 11195, 11382, 11384, 11979, 11120, 10958, 10607, 10650, 65535, 12252, 11508, 11173, 10334, 11842, 11538, 11574, 13454, 10683, 11980, 11122, 10221, 12535, 10717, 10964, 11761, 11410, 11319, 12188, 10542, 11740, 11873, 9736, 11442, 11184, 11000, 10509, 11761, 65535],
      "SequenceName": [
 "ep_b5#1",
 "ep_b5#1",
 "ep_b500#2",
 "ep_b500#3",
 "ep_b500#4",
 "ep_b505#5",
 "ep_b495#6",
 "ep_b500#7",
 "ep_b5#8",
 "ep_b1000#9",
 "ep_b1005#10",
 "ep_b1000#11",
 "ep_b1005#12",
 "ep_b995#13",
 "ep_b995#14",
 "ep_b1005#15",
 "ep_b1000#16",
 "ep_b1000#17",
 "ep_b995#18",
 "ep_b1000#19",
 "ep_b995#20",
 "ep_b1000#21",
 "ep_b1005#22",
 "ep_b1005#23",
 "ep_b5#24",
 "ep_b2000#25",
 "ep_b2000#26",
 "ep_b1995#27",
 "ep_b1995#28",
 "ep_b2005#29",
 "ep_b2010#30",
 "ep_b2005#31",
 "ep_b2005#32",
 "ep_b1995#33",
 "ep_b1990#34",
 "ep_b1995#35",
 "ep_b2005#36",
 "ep_b2000#37",
 "ep_b2010#38",
 "ep_b2000#39",
 "ep_b5#40",
 "ep_b3000#41",
 "ep_b3005#42",
 "ep_b3010#43",
 "ep_b3010#44",
 "ep_b2995#45",
 "ep_b2995#46",
 "ep_b2990#47",
 "ep_b3000#48",
 "ep_b3000#49",
 "ep_b2990#50",
 "ep_b2990#51",
 "ep_b2995#52",
 "ep_b2995#53",
 "ep_b3010#54",
 "ep_b3000#55",
 "ep_b2995#56",
 "ep_b3000#57",
 "ep_b2990#58",
 "ep_b2990#59",
 "ep_b3000#60",
 "ep_b2990#61",
 "ep_b2990#62",
 "ep_b2995#63",
 "ep_b3005#64",
 "ep_b3010#65",
 "ep_b3000#66",
 "ep_b3005#67",
 "ep_b3010#68",
 "ep_b3005#69",
 "ep_b3005#70",
 "ep_b3010#71",
 "ep_b2990#72",
 "ep_b5#73",
 "ep_b3010#74",
 "ep_b3000#75",
 "ep_b3005#76",
 "ep_b3005#77",
 "ep_b2995#78",
 "ep_b3005#79",
 "ep_b3000#80",
 "ep_b3010#81",
 "ep_b3010#82",
 "ep_b3005#83",
 "ep_b3000#84",
 "ep_b3005#85",
 "ep_b3005#86",
 "ep_b3010#87",
 "ep_b2990#88",
 "ep_b3010#89",
 "ep_b2995#90",
 "ep_b2995#91",
 "ep_b2995#92",
 "ep_b2995#93",
 "ep_b3005#94",
 "ep_b3005#95",
 "ep_b2995#96",
 "ep_b3000#97",
 "ep_b2990#98",
 "ep_b3000#99",
 "ep_b3000#100",
 "ep_b2990#101",
 "ep_b5#102"
],
      "WindowCenter": [11114.0, 11107.0, 7484.0, 7536.0, 7484.0, 7428.0, 7553.0, 7533.0, 11119.0, 5541.0, 5480.0, 5525.0, 5507.0, 5523.0, 5522.0, 5485.0, 5559.0, 5535.0, 5549.0, 5520.0, 5580.0, 5536.0, 5518.0, 5527.0, 11105.0, 3553.0, 3554.0, 3543.0, 3610.0, 3529.0, 3534.0, 3539.0, 3538.0, 3585.0, 3620.0, 3601.0, 3499.0, 3521.0, 3531.0, 3513.0, 11059.0, 2464.0, 2462.0, 2539.0, 2519.0, 2461.0, 2494.0, 2528.0, 2465.0, 2435.0, 2479.0, 2466.0, 2505.0, 2560.0, 2542.0, 2456.0, 2521.0, 2454.0, 2542.0, 2525.0, 2458.0, 2526.0, 2542.0, 2525.0, 2476.0, 2495.0, 2480.0, 2492.0, 2495.0, 2459.0, 2433.0, 2499.0, 2500.0, 11070.0, 2505.0, 2488.0, 2446.0, 2460.0, 2485.0, 2464.0, 2461.0, 2508.0, 2475.0, 2449.0, 2483.0, 2451.0, 2469.0, 2423.0, 2482.0, 2477.0, 2509.0, 2476.0, 2499.0, 2475.0, 2494.0, 2527.0, 2466.0, 2444.0, 2496.0, 2436.0, 2461.0, 2525.0, 11035.0],
      "WindowWidth": [25886.0, 25865.0, 15843.0, 15952.0, 15836.0, 15738.0, 15994.0, 15955.0, 25907.0, 11880.0, 11811.0, 11876.0, 11831.0, 11894.0, 11875.0, 11797.0, 11911.0, 11892.0, 11915.0, 11848.0, 11966.0, 11875.0, 11868.0, 11854.0, 25857.0, 8022.0, 8034.0, 8013.0, 8123.0, 7977.0, 7999.0, 7999.0, 7999.0, 8076.0, 8154.0, 8137.0, 7920.0, 7961.0, 7983.0, 7955.0, 25713.0, 5936.0, 5899.0, 6065.0, 6001.0, 5925.0, 5974.0, 6041.0, 5906.0, 5872.0, 5924.0, 5902.0, 6021.0, 6127.0, 6078.0, 5901.0, 6053.0, 5894.0, 6067.0, 6023.0, 5910.0, 6034.0, 6071.0, 6039.0, 5957.0, 5973.0, 5941.0, 5963.0, 5968.0, 5914.0, 5867.0, 5988.0, 5981.0, 25744.0, 5972.0, 5949.0, 5856.0, 5918.0, 5924.0, 5907.0, 5890.0, 5960.0, 5947.0, 5867.0, 5956.0, 5915.0, 5891.0, 5819.0, 5941.0, 5917.0, 5996.0, 5920.0, 5957.0, 5952.0, 5973.0, 6051.0, 5948.0, 5858.0, 5970.0, 5848.0, 5924.0, 6038.0, 25632.0]
    },
    "slices": {}
  }
}