{
  "AcquisitionMatrixPE": 82,
  "AcquisitionNumber": 1,
  "AcquisitionTime": "11:46:26.240000",
  "BandwidthPerPixelPhaseEncode": 24.888,
  "BaseResolution": 82,
  "BodyPartExamined": "BRAIN",
  "ConsistencyInfo": "N4_VE11C_LATEST_20160120",
  "ConversionSoftware": "dcm2niix",
  "ConversionSoftwareVersion": "v1.0.20201102",
  "DerivedVendorReportedEchoSpacing": 0.00049,
  "DeviceSerialNumber": "66112",
  "DwellTime": 2e-06,
  "EchoTime": 0.0272,
  "EchoTrainLength": 82,
  "EffectiveEchoSpacing": 0.00049,
  "FlipAngle": 44,
  "ImageComments": "Unaliased MB8/PE3",
  "ImageOrientationPatientDICOM": [0.999199, -0.0339544, -0.0211742, 0.0357659, 0.995113, 0.0920324],
  "ImageType": [
    "ORIGINAL",
    "PRIMARY",
    "M",
    "MB",
    "ND",
    "NORM",
    "MOSAIC"
],
  "ImagingFrequency": 123.252,
  "InPlanePhaseEncodingDirectionDICOM": "COL",
  "InstitutionAddress": "Maynard 3,Hanover,NH,US,03755",
  "InstitutionName": "Dartmouth College - PBS",
  "InstitutionalDepartmentName": "Department",
  "MRAcquisitionType": "2D",
  "MagneticFieldStrength": 3,
  "Manufacturer": "Siemens",
  "ManufacturersModelName": "Prisma",
  "Modality": "MR",
  "MultibandAccelerationFactor": 8,
  "PartialFourier": 1,
  "PatientPosition": "HFS",
  "PercentPhaseFOV": 100,
  "PercentSampling": 100,
  "PhaseEncodingDirection": "j-",
  "PhaseEncodingSteps": 82,
  "PhaseResolution": 1,
  "PixelBandwidth": 3050,
  "ProcedureStepDescription": "Wager_Wager^1076_spacetop",
  "ProtocolName": "func_run-02_task-narratives_acq-ap-mb8",
  "PulseSequenceDetails": "%CustomerSeq%\\cmrr_mbep2d_bold",
  "ReceiveCoilActiveElements": "HEA;HEP",
  "ReceiveCoilName": "Head_32",
  "ReconMatrixPE": 82,
  "RepetitionTime": 0.46,
  "SAR": 0.122104,
  "ScanOptions": "FS",
  "ScanningSequence": "EP",
  "SequenceName": "epfid2d1_82",
  "SequenceVariant": "SK\\SS",
  "SeriesDescription": "func_run-02_task-narratives_acq-ap-mb8",
  "SeriesNumber": 10,
  "ShimSetting": [4134, -7795, -7204, 570, -35, -220, -27, 52],
  "SliceThickness": 2.7,
  "SliceTiming": [0, 0.25, 0.0625, 0.3125, 0.125, 0.3775, 0.1875, 0, 0.25, 0.0625, 0.3125, 0.125, 0.3775, 0.1875, 0, 0.25, 0.0625, 0.3125, 0.125, 0.3775, 0.1875, 0, 0.25, 0.0625, 0.3125, 0.125, 0.3775, 0.1875, 0, 0.25, 0.0625, 0.3125, 0.125, 0.3775, 0.1875, 0, 0.25, 0.0625, 0.3125, 0.125, 0.3775, 0.1875, 0, 0.25, 0.0625, 0.3125, 0.125, 0.3775, 0.1875, 0, 0.25, 0.0625, 0.3125, 0.125, 0.3775, 0.1875],
  "SoftwareVersions": "syngo MR E11",
  "SpacingBetweenSlices": 2.7,
  "StationName": "AWP66112",
  "TaskName": "narratives",
  "TotalReadoutTime": 0.03969,
  "TxRefAmp": 256.998,
  "WipMemBlock": "01766a5a-3f88-40a7-ac59-4b244a34c9e1||Sequence: R016 ve11c/master r/e634e98; Dec 19 2017 11:00:25 by eja",
  "dcmmeta_affine": [
    [-2.6807780265808105, 0.09595724940299988, -0.04845375195145607, 112.40705871582031],
    [0.09109728038311005, 2.669816732406616, 0.250333309173584, -93.83434295654297],
    [-0.05680886283516884, -0.24691632390022278, 2.6879332065582275, -24.729276657104492],
    [0.0, 0.0, 0.0, 1.0]
],
  "dcmmeta_reorient_transform": [
    [0.0, -1.0, 0.0, 81.0],
    [1.0, 0.0, 0.0, 0.0],
    [0.0, 0.0, 1.0, 0.0],
    [0.0, 0.0, 0.0, 1.0]
],
  "dcmmeta_shape": [82, 82, 56, 1098],
  "dcmmeta_slice_dim": 2,
  "dcmmeta_version": 0.6,
  "global": {
    "const": {
      "AccessionNumber": "A003746",
      "AcquisitionMatrix": [82, 0, 0, 82],
      "AngioFlag": "N",
      "BitsAllocated": 16,
      "BitsStored": 16,
      "BodyPartExamined": "BRAIN",
      "Columns": 656,
      "EchoNumbers": 1,
      "EchoTime": 27.2,
      "EchoTrainLength": 82,
      "FlipAngle": 44.0,
      "HighBit": 15,
      "ImageOrientationPatient": [0.99919905359823, -0.0339544403972, -0.021174212281, 0.03576588230584, 0.99511347628682, 0.09203244523123],
      "ImagePositionPatient": [-917.10261896526, -862.5132891621, -99.290339408922],
      "ImageType": [
        "ORIGINAL",
        "PRIMARY",
        "M",
        "MB",
        "ND",
        "NORM",
        "MOSAIC"
],
      "ImagedNucleus": "1H",
      "ImagingFrequency": 123.252235,
      "InPlanePhaseEncodingDirection": "COL",
      "MRAcquisitionType": "2D",
      "MagneticFieldStrength": 3.0,
      "Manufacturer": "SIEMENS",
      "ManufacturerModelName": "Prisma",
      "Modality": "MR",
      "NumberOfAverages": 1.0,
      "NumberOfPhaseEncodingSteps": 82,
      "PercentPhaseFieldOfView": 100.0,
      "PercentSampling": 100.0,
      "PerformedProcedureStepStartTime": "112726.357000",
      "PhotometricInterpretation": "MONOCHROME2",
      "PixelBandwidth": 3050.0,
      "PixelRepresentation": 0,
      "PixelSpacing": [2.6829268932343, 2.6829268932343],
      "ProtocolName": "func_run-02_task-narratives_acq-ap-mb8",
      "RepetitionTime": 460.0,
      "Rows": 656,
      "SAR": 0.12210384208325,
      "SamplesPerPixel": 1,
      "ScanOptions": "FS",
      "ScanningSequence": "EP",
      "SequenceName": "epfid2d1_82",
      "SequenceVariant": [
        "SK",
        "SS"
],
      "SeriesDescription": "func_run-02_task-narratives_acq-ap-mb8",
      "SeriesNumber": 10,
      "SeriesTime": "114638.678000",
      "SliceLocation": -35.335945324599,
      "SliceThickness": 2.7000000476837,
      "SmallestImagePixelValue": 0,
      "SoftwareVersions": "syngo MR E11",
      "SpacingBetweenSlices": 2.6999999750145,
      "SpecificCharacterSet": "ISO_IR 100",
      "StudyID": "2",
      "StudyTime": "112726.317000",
      "TransmitCoilName": "Body",
      "VariableFlipAngleFlag": "N",
      "WindowCenterWidthExplanation": "Algo1",
      "dBdt": 0.0},
    "slices": {}
  },
  "time": {
    "samples": {
      "AcquisitionNumber": [1, 2, 3, 4, 5, 6, 7, 8, 9, 10, 11, 12, 13, 14, 15, 16, 17, 18, 19, 20, 21, 22, 23, 24, 25, 26, 27, 28, 29, 30, 31, 32, 33, 34, 35, 36, 37, 38, 39, 40, 41, 42, 43, 44, 45, 46, 47, 48, 49, 50, 51, 52, 53, 54, 55, 56, 57, 58, 59, 60, 61, 62, 63, 64, 65, 66, 67, 68, 69, 70, 71, 72, 73, 74, 75, 76, 77, 78, 79, 80, 81, 82, 83, 84, 85, 86, 87, 88, 89, 90, 91, 92, 93, 94, 95, 96, 97, 98, 99, 100, 101, 102, 103, 104, 105, 106, 107, 108, 109, 110, 111, 112, 113, 114, 115, 116, 117, 118, 119, 120, 121, 122, 123, 124, 125, 126, 127, 128, 129, 130, 131, 132, 133, 134, 135, 136, 137, 138, 139, 140, 141, 142, 143, 144, 145, 146, 147, 148, 149, 150, 151, 152, 153, 154, 155, 156, 157, 158, 159, 160, 161, 162, 163, 164, 165, 166, 167, 168, 169, 170, 171, 172, 173, 174, 175, 176, 177, 178, 179, 180, 181, 182, 183, 184, 185, 186, 187, 188, 189, 190, 191, 192, 193, 194, 195, 196, 197, 198, 199, 200, 201, 202, 203, 204, 205, 206, 207, 208, 209, 210, 211, 212, 213, 214, 215, 216, 217, 218, 219, 220, 221, 222, 223, 224, 225, 226, 227, 228, 229, 230, 231, 232, 233, 234, 235, 236, 237, 238, 239, 240, 241, 242, 243, 244, 245, 246, 247, 248, 249, 250, 251, 252, 253, 254, 255, 256, 257, 258, 259, 260, 261, 262, 263, 264, 265, 266, 267, 268, 269, 270, 271, 272, 273, 274, 275, 276, 277, 278, 279, 280, 281, 282, 283, 284, 285, 286, 287, 288, 289, 290, 291, 292, 293, 294, 295, 296, 297, 298, 299, 300, 301, 302, 303, 304, 305, 306, 307, 308, 309, 310, 311, 312, 313, 314, 315, 316, 317, 318, 319, 320, 321, 322, 323, 324, 325, 326, 327, 328, 329, 330, 331, 332, 333, 334, 335, 336, 337, 338, 339, 340, 341, 342, 343, 344, 345, 346, 347, 348, 349, 350, 351, 352, 353, 354, 355, 356, 357, 358, 359, 360, 361, 362, 363, 364, 365, 366, 367, 368, 369, 370, 371, 372, 373, 374, 375, 376, 377, 378, 379, 380, 381, 382, 383, 384, 385, 386, 387, 388, 389, 390, 391, 392, 393, 394, 395, 396, 397, 398, 399, 400, 401, 402, 403, 404, 405, 406, 407, 408, 409, 410, 411, 412, 413, 414, 415, 416, 417, 418, 419, 420, 421, 422, 423, 424, 425, 426, 427, 428, 429, 430, 431, 432, 433, 434, 435, 436, 437, 438, 439, 440, 441, 442, 443, 444, 445, 446, 447, 448, 449, 450, 451, 452, 453, 454, 455, 456, 457, 458, 459, 460, 461, 462, 463, 464, 465, 466, 467, 468, 469, 470, 471, 472, 473, 474, 475, 476, 477, 478, 479, 480, 481, 482, 483, 484, 485, 486, 487, 488, 489, 490, 491, 492, 493, 494, 495, 496, 497, 498, 499, 500, 501, 502, 503, 504, 505, 506, 507, 508, 509, 510, 511, 512, 513, 514, 515, 516, 517, 518, 519, 520, 521, 522, 523, 524, 525, 526, 527, 528, 529, 530, 531, 532, 533, 534, 535, 536, 537, 538, 539, 540, 541, 542, 543, 544, 545, 546, 547, 548, 549, 550, 551, 552, 553, 554, 555, 556, 557, 558, 559, 560, 561, 562, 563, 564, 565, 566, 567, 568, 569, 570, 571, 572, 573, 574, 575, 576, 577, 578, 579, 580, 581, 582, 583, 584, 585, 586, 587, 588, 589, 590, 591, 592, 593, 594, 595, 596, 597, 598, 599, 600, 601, 602, 603, 604, 605, 606, 607, 608, 609, 610, 611, 612, 613, 614, 615, 616, 617, 618, 619, 620, 621, 622, 623, 624, 625, 626, 627, 628, 629, 630, 631, 632, 633, 634, 635, 636, 637, 638, 639, 640, 641, 642, 643, 644, 645, 646, 647, 648, 649, 650, 651, 652, 653, 654, 655, 656, 657, 658, 659, 660, 661, 662, 663, 664, 665, 666, 667, 668, 669, 670, 671, 672, 673, 674, 675, 676, 677, 678, 679, 680, 681, 682, 683, 684, 685, 686, 687, 688, 689, 690, 691, 692, 693, 694, 695, 696, 697, 698, 699, 700, 701, 702, 703, 704, 705, 706, 707, 708, 709, 710, 711, 712, 713, 714, 715, 716, 717, 718, 719, 720, 721, 722, 723, 724, 725, 726, 727, 728, 729, 730, 731, 732, 733, 734, 735, 736, 737, 738, 739, 740, 741, 742, 743, 744, 745, 746, 747, 748, 749, 750, 751, 752, 753, 754, 755, 756, 757, 758, 759, 760, 761, 762, 763, 764, 765, 766, 767, 768, 769, 770, 771, 772, 773, 774, 775, 776, 777, 778, 779, 780, 781, 782, 783, 784, 785, 786, 787, 788, 789, 790, 791, 792, 793, 794, 795, 796, 797, 798, 799, 800, 801, 802, 803, 804, 805, 806, 807, 808, 809, 810, 811, 812, 813, 814, 815, 816, 817, 818, 819, 820, 821, 822, 823, 824, 825, 826, 827, 828, 829, 830, 831, 832, 833, 834, 835, 836, 837, 838, 839, 840, 841, 842, 843, 844, 845, 846, 847, 848, 849, 850, 851, 852, 853, 854, 855, 856, 857, 858, 859, 860, 861, 862, 863, 864, 865, 866, 867, 868, 869, 870, 871, 872, 873, 874, 875, 876, 877, 878, 879, 880, 881, 882, 883, 884, 885, 886, 887, 888, 889, 890, 891, 892, 893, 894, 895, 896, 897, 898, 899, 900, 901, 902, 903, 904, 905, 906, 907, 908, 909, 910, 911, 912, 913, 914, 915, 916, 917, 918, 919, 920, 921, 922, 923, 924, 925, 926, 927, 928, 929, 930, 931, 932, 933, 934, 935, 936, 937, 938, 939, 940, 941, 942, 943, 944, 945, 946, 947, 948, 949, 950, 951, 952, 953, 954, 955, 956, 957, 958, 959, 960, 961, 962, 963, 964, 965, 966, 967, 968, 969, 970, 971, 972, 973, 974, 975, 976, 977, 978, 979, 980, 981, 982, 983, 984, 985, 986, 987, 988, 989, 990, 991, 992, 993, 994, 995, 996, 997, 998, 999, 1000, 1001, 1002, 1003, 1004, 1005, 1006, 1007, 1008, 1009, 1010, 1011, 1012, 1013, 1014, 1015, 1016, 1017, 1018, 1019, 1020, 1021, 1022, 1023, 1024, 1025, 1026, 1027, 1028, 1029, 1030, 1031, 1032, 1033, 1034, 1035, 1036, 1037, 1038, 1039, 1040, 1041, 1042, 1043, 1044, 1045, 1046, 1047, 1048, 1049, 1050, 1051, 1052, 1053, 1054, 1055, 1056, 1057, 1058, 1059, 1060, 1061, 1062, 1063, 1064, 1065, 1066, 1067, 1068, 1069, 1070, 1071, 1072, 1073, 1074, 1075, 1076, 1077, 1078, 1079, 1080, 1081, 1082, 1083, 1084, 1085, 1086, 1087, 1088, 1089, 1090, 1091, 1092, 1093, 1094, 1095, 1096, 1097, 1098],
      "AcquisitionTime": ["114626.240000", "114626.700000", "114627.160000", "114627.620000", "114628.080000", "114628.540000", "114629.000000", "114629.460000", "114629.920000", "114630.380000", "114630.840000", "114631.300000", "114631.760000", "114632.220000", "114632.680000", "114633.140000", "114633.600000", "114634.060000", "114634.520000", "114634.980000", "114635.440000", "114635.900000", "114636.360000", "114636.820000", "114637.280000", "114637.740000", "114638.200000", "114638.660000", "114639.120000", "114639.580000", "114640.040000", "114640.500000", "114640.960000", "114641.420000", "114641.880000", "114642.340000", "114642.800000", "114643.260000", "114643.720000", "114644.180000", "114644.640000", "114645.100000", "114645.560000", "114646.020000", "114646.480000", "114646.940000", "114647.400000", "114647.860000", "114648.320000", "114648.780000", "114649.240000", "114649.700000", "114650.160000", "114650.620000", "114651.080000", "114651.540000", "114652.000000", "114652.460000", "114652.920000", "114653.380000", "114653.840000", "114654.300000", "114654.760000", "114655.220000", "114655.680000", "114656.140000", "114656.600000", "114657.060000", "114657.520000", "114657.980000", "114658.440000", "114658.900000", "114659.360000", "114659.820000", "114700.280000", "114700.740000", "114701.200000", "114701.660000", "114702.120000", "114702.580000", "114703.040000", "114703.500000", "114703.960000", "114704.420000", "114704.880000", "114705.340000", "114705.800000", "114706.260000", "114706.720000", "114707.180000", "114707.640000", "114708.100000", "114708.560000", "114709.020000", "114709.480000", "114709.940000", "114710.400000", "114710.860000", "114711.320000", "114711.780000", "114712.240000", "114712.700000", "114713.160000", "114713.620000", "114714.080000", "114714.540000", "114715.000000", "114715.460000", "114715.920000", "114716.380000", "114716.840000", "114717.300000", "114717.760000", "114718.220000", "114718.680000", "114719.140000", "114719.600000", "114720.060000", "114720.520000", "114720.980000", "114721.440000", "114721.900000", "114722.360000", "114722.820000", "114723.280000", "114723.740000", "114724.200000", "114724.660000", "114725.120000", "114725.580000", "114726.040000", "114726.500000", "114726.960000", "114727.420000", "114727.880000", "114728.340000", "114728.800000", "114729.260000", "114729.720000", "114730.180000", "114730.640000", "114731.100000", "114731.560000", "114732.020000", "114732.480000", "114732.940000", "114733.400000", "114733.860000", "114734.320000", "114734.780000", "114735.240000", "114735.700000", "114736.160000", "114736.620000", "114737.080000", "114737.540000", "114738.000000", "114738.460000", "114738.920000", "114739.380000", "114739.840000", "114740.300000", "114740.760000", "114741.220000", "114741.680000", "114742.140000", "114742.600000", "114743.060000", "114743.520000", "114743.980000", "114744.440000", "114744.900000", "114745.360000", "114745.820000", "114746.280000", "114746.740000", "114747.200000", "114747.660000", "114748.120000", "114748.580000", "114749.040000", "114749.500000", "114749.960000", "114750.420000", "114750.880000", "114751.340000", "114751.800000", "114752.260000", "114752.720000", "114753.180000", "114753.640000", "114754.100000", "114754.560000", "114755.020000", "114755.480000", "114755.940000", "114756.400000", "114756.860000", "114757.320000", "114757.780000", "114758.240000", "114758.700000", "114759.160000", "114759.620000", "114800.080000", "114800.540000", "114801.000000", "114801.460000", "114801.920000", "114802.380000", "114802.840000", "114803.300000", "114803.760000", "114804.220000", "114804.680000", "114805.140000", "114805.600000", "114806.060000", "114806.520000", "114806.980000", "114807.440000", "114807.900000", "114808.360000", "114808.820000", "114809.280000", "114809.740000", "114810.200000", "114810.660000", "114811.120000", "114811.580000", "114812.040000", "114812.500000", "114812.960000", "114813.420000", "114813.880000", "114814.340000", "114814.800000", "114815.260000", "114815.720000", "114816.180000", "114816.640000", "114817.100000", "114817.560000", "114818.020000", "114818.480000", "114818.940000", "114819.400000", "114819.860000", "114820.320000", "114820.780000", "114821.240000", "114821.700000", "114822.160000", "114822.620000", "114823.080000", "114823.540000", "114824.000000", "114824.460000", "114824.920000", "114825.380000", "114825.840000", "114826.300000", "114826.760000", "114827.220000", "114827.680000", "114828.140000", "114828.600000", "114829.060000", "114829.520000", "114829.980000", "114830.440000", "114830.900000", "114831.360000", "114831.820000", "114832.280000", "114832.740000", "114833.200000", "114833.660000", "114834.120000", "114834.580000", "114835.040000", "114835.500000", "114835.960000", "114836.420000", "114836.880000", "114837.340000", "114837.800000", "114838.260000", "114838.720000", "114839.180000", "114839.640000", "114840.100000", "114840.560000", "114841.020000", "114841.480000", "114841.940000", "114842.400000", "114842.860000", "114843.320000", "114843.780000", "114844.240000", "114844.700000", "114845.160000", "114845.620000", "114846.080000", "114846.540000", "114847.000000", "114847.460000", "114847.920000", "114848.380000", "114848.840000", "114849.300000", "114849.760000", "114850.220000", "114850.680000", "114851.140000", "114851.600000", "114852.060000", "114852.520000", "114852.980000", "114853.440000", "114853.900000", "114854.360000", "114854.820000", "114855.280000", "114855.740000", "114856.200000", "114856.660000", "114857.120000", "114857.580000", "114858.040000", "114858.500000", "114858.960000", "114859.420000", "114859.880000", "114900.340000", "114900.800000", "114901.260000", "114901.720000", "114902.180000", "114902.640000", "114903.100000", "114903.560000", "114904.020000", "114904.480000", "114904.940000", "114905.400000", "114905.860000", "114906.320000", "114906.780000", "114907.240000", "114907.700000", "114908.160000", "114908.620000", "114909.080000", "114909.540000", "114910.000000", "114910.460000", "114910.920000", "114911.380000", "114911.840000", "114912.300000", "114912.760000", "114913.220000", "114913.680000", "114914.140000", "114914.600000", "114915.060000", "114915.520000", "114915.980000", "114916.440000", "114916.900000", "114917.360000", "114917.820000", "114918.280000", "114918.740000", "114919.200000", "114919.660000", "114920.120000", "114920.580000", "114921.040000", "114921.500000", "114921.960000", "114922.420000", "114922.880000", "114923.340000", "114923.800000", "114924.260000", "114924.720000", "114925.180000", "114925.640000", "114926.100000", "114926.560000", "114927.020000", "114927.480000", "114927.940000", "114928.400000", "114928.860000", "114929.320000", "114929.780000", "114930.240000", "114930.700000", "114931.160000", "114931.620000", "114932.080000", "114932.540000", "114933.000000", "114933.460000", "114933.920000", "114934.380000", "114934.840000", "114935.300000", "114935.760000", "114936.220000", "114936.680000", "114937.140000", "114937.600000", "114938.060000", "114938.520000", "114938.980000", "114939.440000", "114939.900000", "114940.360000", "114940.820000", "114941.280000", "114941.740000", "114942.200000", "114942.660000", "114943.120000", "114943.580000", "114944.040000", "114944.500000", "114944.960000", "114945.420000", "114945.880000", "114946.340000", "114946.800000", "114947.260000", "114947.720000", "114948.180000", "114948.640000", "114949.100000", "114949.560000", "114950.020000", "114950.480000", "114950.940000", "114951.400000", "114951.860000", "114952.320000", "114952.780000", "114953.240000", "114953.700000", "114954.160000", "114954.620000", "114955.080000", "114955.540000", "114956.000000", "114956.460000", "114956.920000", "114957.380000", "114957.840000", "114958.300000", "114958.760000", "114959.220000", "114959.680000", "115000.140000", "115000.600000", "115001.060000", "115001.520000", "115001.980000", "115002.440000", "115002.900000", "115003.360000", "115003.820000", "115004.280000", "115004.740000", "115005.200000", "115005.660000", "115006.120000", "115006.580000", "115007.040000", "115007.500000", "115007.960000", "115008.420000", "115008.880000", "115009.340000", "115009.800000", "115010.260000", "115010.720000", "115011.180000", "115011.640000", "115012.100000", "115012.560000", "115013.020000", "115013.480000", "115013.940000", "115014.400000", "115014.860000", "115015.320000", "115015.780000", "115016.240000", "115016.700000", "115017.160000", "115017.620000", "115018.080000", "115018.540000", "115019.000000", "115019.460000", "115019.920000", "115020.380000", "115020.840000", "115021.300000", "115021.760000", "115022.220000", "115022.680000", "115023.140000", "115023.600000", "115024.060000", "115024.520000", "115024.980000", "115025.440000", "115025.900000", "115026.360000", "115026.820000", "115027.280000", "115027.740000", "115028.200000", "115028.660000", "115029.120000", "115029.580000", "115030.040000", "115030.500000", "115030.960000", "115031.420000", "115031.880000", "115032.340000", "115032.800000", "115033.260000", "115033.720000", "115034.180000", "115034.640000", "115035.100000", "115035.560000", "115036.020000", "115036.480000", "115036.940000", "115037.400000", "115037.860000", "115038.320000", "115038.780000", "115039.240000", "115039.700000", "115040.160000", "115040.620000", "115041.080000", "115041.540000", "115042.000000", "115042.460000", "115042.920000", "115043.380000", "115043.840000", "115044.300000", "115044.760000", "115045.220000", "115045.680000", "115046.140000", "115046.600000", "115047.060000", "115047.520000", "115047.980000", "115048.440000", "115048.900000", "115049.360000", "115049.820000", "115050.280000", "115050.740000", "115051.200000", "115051.660000", "115052.120000", "115052.580000", "115053.040000", "115053.500000", "115053.960000", "115054.420000", "115054.880000", "115055.340000", "115055.800000", "115056.260000", "115056.720000", "115057.180000", "115057.640000", "115058.100000", "115058.560000", "115059.020000", "115059.480000", "115059.940000", "115100.400000", "115100.860000", "115101.320000", "115101.780000", "115102.240000", "115102.700000", "115103.160000", "115103.620000", "115104.080000", "115104.540000", "115105.000000", "115105.460000", "115105.920000", "115106.380000", "115106.840000", "115107.300000", "115107.760000", "115108.220000", "115108.680000", "115109.140000", "115109.600000", "115110.060000", "115110.520000", "115110.980000", "115111.440000", "115111.900000", "115112.360000", "115112.820000", "115113.280000", "115113.740000", "115114.200000", "115114.660000", "115115.120000", "115115.580000", "115116.040000", "115116.500000", "115116.960000", "115117.420000", "115117.880000", "115118.340000", "115118.800000", "115119.260000", "115119.720000", "115120.180000", "115120.640000", "115121.100000", "115121.560000", "115122.020000", "115122.480000", "115122.940000", "115123.400000", "115123.860000", "115124.320000", "115124.780000", "115125.240000", "115125.700000", "115126.160000", "115126.620000", "115127.080000", "115127.540000", "115128.000000", "115128.460000", "115128.920000", "115129.380000", "115129.840000", "115130.300000", "115130.760000", "115131.220000", "115131.680000", "115132.140000", "115132.600000", "115133.060000", "115133.520000", "115133.980000", "115134.440000", "115134.900000", "115135.360000", "115135.820000", "115136.280000", "115136.740000", "115137.200000", "115137.660000", "115138.120000", "115138.580000", "115139.040000", "115139.500000", "115139.960000", "115140.420000", "115140.880000", "115141.340000", "115141.800000", "115142.260000", "115142.720000", "115143.180000", "115143.640000", "115144.100000", "115144.560000", "115145.020000", "115145.480000", "115145.940000", "115146.400000", "115146.860000", "115147.320000", "115147.780000", "115148.240000", "115148.700000", "115149.160000", "115149.620000", "115150.080000", "115150.540000", "115151.000000", "115151.460000", "115151.920000", "115152.380000", "115152.840000", "115153.300000", "115153.760000", "115154.220000", "115154.680000", "115155.140000", "115155.600000", "115156.060000", "115156.520000", "115156.980000", "115157.440000", "115157.900000", "115158.360000", "115158.820000", "115159.280000", "115159.740000", "115200.200000", "115200.660000", "115201.120000", "115201.580000", "115202.040000", "115202.500000", "115202.960000", "115203.420000", "115203.880000", "115204.340000", "115204.800000", "115205.260000", "115205.720000", "115206.180000", "115206.640000", "115207.100000", "115207.560000", "115208.020000", "115208.480000", "115208.940000", "115209.400000", "115209.860000", "115210.320000", "115210.780000", "115211.240000", "115211.700000", "115212.160000", "115212.620000", "115213.080000", "115213.540000", "115214.000000", "115214.460000", "115214.920000", "115215.380000", "115215.840000", "115216.300000", "115216.760000", "115217.220000", "115217.680000", "115218.140000", "115218.600000", "115219.060000", "115219.520000", "115219.980000", "115220.440000", "115220.900000", "115221.360000", "115221.820000", "115222.280000", "115222.740000", "115223.200000", "115223.660000", "115224.120000", "115224.580000", "115225.040000", "115225.500000", "115225.960000", "115226.420000", "115226.880000", "115227.340000", "115227.800000", "115228.260000", "115228.720000", "115229.180000", "115229.640000", "115230.100000", "115230.560000", "115231.020000", "115231.480000", "115231.940000", "115232.400000", "115232.860000", "115233.320000", "115233.780000", "115234.240000", "115234.700000", "115235.160000", "115235.620000", "115236.080000", "115236.540000", "115237.000000", "115237.460000", "115237.920000", "115238.380000", "115238.840000", "115239.300000", "115239.760000", "115240.220000", "115240.680000", "115241.140000", "115241.600000", "115242.060000", "115242.520000", "115242.980000", "115243.440000", "115243.900000", "115244.360000", "115244.820000", "115245.280000", "115245.740000", "115246.200000", "115246.660000", "115247.120000", "115247.580000", "115248.040000", "115248.500000", "115248.960000", "115249.420000", "115249.880000", "115250.340000", "115250.800000", "115251.260000", "115251.720000", "115252.180000", "115252.640000", "115253.100000", "115253.560000", "115254.020000", "115254.480000", "115254.940000", "115255.400000", "115255.860000", "115256.320000", "115256.780000", "115257.240000", "115257.700000", "115258.160000", "115258.620000", "115259.080000", "115259.540000", "115300.000000", "115300.460000", "115300.920000", "115301.380000", "115301.840000", "115302.300000", "115302.760000", "115303.220000", "115303.680000", "115304.140000", "115304.600000", "115305.060000", "115305.520000", "115305.980000", "115306.440000", "115306.900000", "115307.360000", "115307.820000", "115308.280000", "115308.740000", "115309.200000", "115309.660000", "115310.120000", "115310.580000", "115311.040000", "115311.500000", "115311.960000", "115312.420000", "115312.880000", "115313.340000", "115313.800000", "115314.260000", "115314.720000", "115315.180000", "115315.640000", "115316.100000", "115316.560000", "115317.020000", "115317.480000", "115317.940000", "115318.400000", "115318.860000", "115319.320000", "115319.780000", "115320.240000", "115320.700000", "115321.160000", "115321.620000", "115322.080000", "115322.540000", "115323.000000", "115323.460000", "115323.920000", "115324.380000", "115324.840000", "115325.300000", "115325.760000", "115326.220000", "115326.680000", "115327.140000", "115327.600000", "115328.060000", "115328.520000", "115328.980000", "115329.440000", "115329.900000", "115330.360000", "115330.820000", "115331.280000", "115331.740000", "115332.200000", "115332.660000", "115333.120000", "115333.580000", "115334.040000", "115334.500000", "115334.960000", "115335.420000", "115335.880000", "115336.340000", "115336.800000", "115337.260000", "115337.720000", "115338.180000", "115338.640000", "115339.100000", "115339.560000", "115340.020000", "115340.480000", "115340.940000", "115341.400000", "115341.860000", "115342.320000", "115342.780000", "115343.240000", "115343.700000", "115344.160000", "115344.620000", "115345.080000", "115345.540000", "115346.000000", "115346.460000", "115346.920000", "115347.380000", "115347.840000", "115348.300000", "115348.760000", "115349.220000", "115349.680000", "115350.140000", "115350.600000", "115351.060000", "115351.520000", "115351.980000", "115352.440000", "115352.900000", "115353.360000", "115353.820000", "115354.280000", "115354.740000", "115355.200000", "115355.660000", "115356.120000", "115356.580000", "115357.040000", "115357.500000", "115357.960000", "115358.420000", "115358.880000", "115359.340000", "115359.800000", "115400.260000", "115400.720000", "115401.180000", "115401.640000", "115402.100000", "115402.560000", "115403.020000", "115403.480000", "115403.940000", "115404.400000", "115404.860000", "115405.320000", "115405.780000", "115406.240000", "115406.700000", "115407.160000", "115407.620000", "115408.080000", "115408.540000", "115409.000000", "115409.460000", "115409.920000", "115410.380000", "115410.840000", "115411.300000", "115411.760000", "115412.220000", "115412.680000", "115413.140000", "115413.600000", "115414.060000", "115414.520000", "115414.980000", "115415.440000", "115415.900000", "115416.360000", "115416.820000", "115417.280000", "115417.740000", "115418.200000", "115418.660000", "115419.120000", "115419.580000", "115420.040000", "115420.500000", "115420.960000", "115421.420000", "115421.880000", "115422.340000", "115422.800000", "115423.260000", "115423.720000", "115424.180000", "115424.640000", "115425.100000", "115425.560000", "115426.020000", "115426.480000", "115426.940000", "115427.400000", "115427.860000", "115428.320000", "115428.780000", "115429.240000", "115429.700000", "115430.160000", "115430.620000", "115431.080000", "115431.540000", "115432.000000", "115432.460000", "115432.920000", "115433.380000", "115433.840000", "115434.300000", "115434.760000", "115435.220000", "115435.680000", "115436.140000", "115436.600000", "115437.060000", "115437.520000", "115437.980000", "115438.440000", "115438.900000", "115439.360000", "115439.820000", "115440.280000", "115440.740000", "115441.200000", "115441.660000", "115442.120000", "115442.580000", "115443.040000", "115443.500000", "115443.960000", "115444.420000", "115444.880000", "115445.340000", "115445.800000", "115446.260000", "115446.720000", "115447.180000", "115447.640000", "115448.100000", "115448.560000", "115449.020000", "115449.480000", "115449.940000", "115450.400000", "115450.860000"],
