{
  "AcquisitionMatrixPE": 82,
  "AcquisitionNumber": 1,
  "AcquisitionTime": "16:50:34.595000",
  "BandwidthPerPixelPhaseEncode": 24.888,
  "BaseResolution": 82,
  "BodyPartExamined": "BRAIN",
  "ConsistencyInfo": "N4_VE11E_LATEST_20181129",
  "ConversionSoftware": "dcm2niix",
  "ConversionSoftwareVersion": "v1.0.20201102",
  "DerivedVendorReportedEchoSpacing": 0.00049,
  "DeviceSerialNumber": "66112",
  "DwellTime": 2e-06,
  "EchoTime": 0.0272,
  "EchoTrainLength": 82,
  "EffectiveEchoSpacing": 0.00049,
  "FlipAngle": 44,
  "ImageComments": "Unaliased MB8/PE3",
  "ImageOrientationPatientDICOM": [0.998967, 0.0236772, 0.0387982, -0.0299977, 0.984741, 0.171419],
  "ImageType": [
    "ORIGINAL",
    "PRIMARY",
    "M",
    "MB",
    "ND",
    "NORM",
    "MOSAIC"
],
  "ImagingFrequency": 123.252,
  "InPlanePhaseEncodingDirectionDICOM": "COL",
  "InstitutionAddress": "Maynard 3,Hanover,NH,US,03755",
  "InstitutionName": "Dartmouth College - PBS",
  "InstitutionalDepartmentName": "Department",
  "MRAcquisitionType": "2D",
  "MagneticFieldStrength": 3,
  "Manufacturer": "Siemens",
  "ManufacturersModelName": "Prisma",
  "Modality": "MR",
  "MultibandAccelerationFactor": 8,
  "PartialFourier": 1,
  "PatientPosition": "HFS",
  "PercentPhaseFOV": 100,
  "PercentSampling": 100,
  "PhaseEncodingDirection": "j-",
  "PhaseEncodingSteps": 82,
  "PhaseResolution": 1,
  "PixelBandwidth": 3050,
  "ProcedureStepDescription": "Wager_Wager^1076_spacetop",
  "ProtocolName": "func_run-01_task-social_acq-ap-mb8",
  "PulseSequenceDetails": "%CustomerSeq%\\cmrr_mbep2d_bold",
  "ReceiveCoilActiveElements": "HEA;HEP",
  "ReceiveCoilName": "Head_32",
  "ReconMatrixPE": 82,
  "RepetitionTime": 0.46,
  "SAR": 0.0852325,
  "ScanOptions": "FS",
  "ScanningSequence": "EP",
  "SequenceName": "epfid2d1_82",
  "SequenceVariant": "SK\\SS",
  "SeriesDescription": "func_run-01_task-social_acq-ap-mb8",
  "SeriesNumber": 12,
  "ShimSetting": [4154, -7777, -7255, 554, -30, -174, 3, 107],
  "SliceThickness": 2.7,
  "SliceTiming": [0, 0.25, 0.0625, 0.315, 0.125, 0.3775, 0.1875, 0, 0.25, 0.0625, 0.315, 0.125, 0.3775, 0.1875, 0, 0.25, 0.0625, 0.315, 0.125, 0.3775, 0.1875, 0, 0.25, 0.0625, 0.315, 0.125, 0.3775, 0.1875, 0, 0.25, 0.0625, 0.315, 0.125, 0.3775, 0.1875, 0, 0.25, 0.0625, 0.315, 0.125, 0.3775, 0.1875, 0, 0.25, 0.0625, 0.315, 0.125, 0.3775, 0.1875, 0, 0.25, 0.0625, 0.315, 0.125, 0.3775, 0.1875],
  "SoftwareVersions": "syngo MR E11",
  "SpacingBetweenSlices": 2.7,
  "StationName": "AWP66112",
  "TaskName": "social",
  "TotalReadoutTime": 0.03969,
  "TxRefAmp": 235.231,
  "WipMemBlock": "729e4603-1579-42ec-9d58-5bbe825944da||Sequence: R016 ve11e/master r/434b28f1; Aug  7 2019 18:53:46 by eja",
  "dcmmeta_affine": [
    [-2.6801540851593018, -0.0804816484451294, 0.09219814836978912, 112.24178314208984],
    [-0.0635242909193039, 2.641989231109619, 0.46549537777900696, -95.00112915039062],
    [0.10409272462129593, -0.45990464091300964, 2.6579718589782715, -50.743526458740234],
    [0.0, 0.0, 0.0, 1.0]
],
  "dcmmeta_reorient_transform": [
    [0.0, -1.0, 0.0, 81.0],
    [1.0, 0.0, 0.0, 0.0],
    [0.0, 0.0, 1.0, 0.0],
    [0.0, 0.0, 0.0, 1.0]
],
  "dcmmeta_shape": [82, 82, 56, 872],
  "dcmmeta_slice_dim": 2,
  "dcmmeta_version": 0.6,
  "global": {
    "const": {
      "AccessionNumber": "A003997",
      "AcquisitionMatrix": [82, 0, 0, 82],
      "AngioFlag": "N",
      "BitsAllocated": 16,
      "BitsStored": 16,
      "BodyPartExamined": "BRAIN",
      "Columns": 656,
      "EchoNumbers": 1,
      "EchoTime": 27.2,
      "EchoTrainLength": 82,
      "FlipAngle": 44.0,
      "HighBit": 15,
      "ImageOrientationPatient": [0.99896651022158, 0.02367723493589, 0.03879819585389, -0.0299977042033, 0.9847414199777, 0.17141899988865],
      "ImagePositionPatient": [-851.82876814648, -895.48238443424, -249.86304675918],
      "ImageType": [
        "ORIGINAL",
        "PRIMARY",
        "M",
        "MB",
        "ND",
        "NORM",
        "MOSAIC"
],
      "ImagedNucleus": "1H",
      "ImagingFrequency": 123.252199,
      "InPlanePhaseEncodingDirection": "COL",
      "MRAcquisitionType": "2D",
      "MagneticFieldStrength": 3.0,
      "Manufacturer": "SIEMENS",
      "ManufacturerModelName": "Prisma",
      "Modality": "MR",
      "NumberOfAverages": 1.0,
      "NumberOfPhaseEncodingSteps": 82,
      "PercentPhaseFieldOfView": 100.0,
      "PercentSampling": 100.0,
      "PerformedProcedureStepStartTime": "162258.229000",
      "PhotometricInterpretation": "MONOCHROME2",
      "PixelBandwidth": 3050.0,
      "PixelRepresentation": 0,
      "PixelSpacing": [2.6829268932343, 2.6829268932343],
      "ProtocolName": "func_run-01_task-social_acq-ap-mb8",
      "RepetitionTime": 460.0,
      "Rows": 656,
      "SAR": 0.08523250991688,
      "SamplesPerPixel": 1,
      "ScanOptions": "FS",
      "ScanningSequence": "EP",
      "SequenceName": "epfid2d1_82",
      "SequenceVariant": [
        "SK",
        "SS"
],
      "SeriesDescription": "func_run-01_task-social_acq-ap-mb8",
      "SeriesNumber": 12,
      "SeriesTime": "165049.657000",
      "SliceLocation": -62.49961368587,
      "SliceThickness": 2.7000000476837,
      "SmallestImagePixelValue": 0,
      "SoftwareVersions": "syngo MR E11",
      "SpacingBetweenSlices": 2.7000000482771,
      "SpecificCharacterSet": "ISO_IR 100",
      "StudyID": "1",
      "StudyTime": "162258.152000",
      "TransmitCoilName": "Body",
      "VariableFlipAngleFlag": "N",
      "WindowCenterWidthExplanation": "Algo1"
    },
    "slices": {}
  },
  "time": {
    "samples": {
      "AcquisitionNumber": [1, 2, 3, 4, 5, 6, 7, 8, 9, 10, 11, 12, 13, 14, 15, 16, 17, 18, 19, 20, 21, 22, 23, 24, 25, 26, 27, 28, 29, 30, 31, 32, 33, 34, 35, 36, 37, 38, 39, 40, 41, 42, 43, 44, 45, 46, 47, 48, 49, 50, 51, 52, 53, 54, 55, 56, 57, 58, 59, 60, 61, 62, 63, 64, 65, 66, 67, 68, 69, 70, 71, 72, 73, 74, 75, 76, 77, 78, 79, 80, 81, 82, 83, 84, 85, 86, 87, 88, 89, 90, 91, 92, 93, 94, 95, 96, 97, 98, 99, 100, 101, 102, 103, 104, 105, 106, 107, 108, 109, 110, 111, 112, 113, 114, 115, 116, 117, 118, 119, 120, 121, 122, 123, 124, 125, 126, 127, 128, 129, 130, 131, 132, 133, 134, 135, 136, 137, 138, 139, 140, 141, 142, 143, 144, 145, 146, 147, 148, 149, 150, 151, 152, 153, 154, 155, 156, 157, 158, 159, 160, 161, 162, 163, 164, 165, 166, 167, 168, 169, 170, 171, 172, 173, 174, 175, 176, 177, 178, 179, 180, 181, 182, 183, 184, 185, 186, 187, 188, 189, 190, 191, 192, 193, 194, 195, 196, 197, 198, 199, 200, 201, 202, 203, 204, 205, 206, 207, 208, 209, 210, 211, 212, 213, 214, 215, 216, 217, 218, 219, 220, 221, 222, 223, 224, 225, 226, 227, 228, 229, 230, 231, 232, 233, 234, 235, 236, 237, 238, 239, 240, 241, 242, 243, 244, 245, 246, 247, 248, 249, 250, 251, 252, 253, 254, 255, 256, 257, 258, 259, 260, 261, 262, 263, 264, 265, 266, 267, 268, 269, 270, 271, 272, 273, 274, 275, 276, 277, 278, 279, 280, 281, 282, 283, 284, 285, 286, 287, 288, 289, 290, 291, 292, 293, 294, 295, 296, 297, 298, 299, 300, 301, 302, 303, 304, 305, 306, 307, 308, 309, 310, 311, 312, 313, 314, 315, 316, 317, 318, 319, 320, 321, 322, 323, 324, 325, 326, 327, 328, 329, 330, 331, 332, 333, 334, 335, 336, 337, 338, 339, 340, 341, 342, 343, 344, 345, 346, 347, 348, 349, 350, 351, 352, 353, 354, 355, 356, 357, 358, 359, 360, 361, 362, 363, 364, 365, 366, 367, 368, 369, 370, 371, 372, 373, 374, 375, 376, 377, 378, 379, 380, 381, 382, 383, 384, 385, 386, 387, 388, 389, 390, 391, 392, 393, 394, 395, 396, 397, 398, 399, 400, 401, 402, 403, 404, 405, 406, 407, 408, 409, 410, 411, 412, 413, 414, 415, 416, 417, 418, 419, 420, 421, 422, 423, 424, 425, 426, 427, 428, 429, 430, 431, 432, 433, 434, 435, 436, 437, 438, 439, 440, 441, 442, 443, 444, 445, 446, 447, 448, 449, 450, 451, 452, 453, 454, 455, 456, 457, 458, 459, 460, 461, 462, 463, 464, 465, 466, 467, 468, 469, 470, 471, 472, 473, 474, 475, 476, 477, 478, 479, 480, 481, 482, 483, 484, 485, 486, 487, 488, 489, 490, 491, 492, 493, 494, 495, 496, 497, 498, 499, 500, 501, 502, 503, 504, 505, 506, 507, 508, 509, 510, 511, 512, 513, 514, 515, 516, 517, 518, 519, 520, 521, 522, 523, 524, 525, 526, 527, 528, 529, 530, 531, 532, 533, 534, 535, 536, 537, 538, 539, 540, 541, 542, 543, 544, 545, 546, 547, 548, 549, 550, 551, 552, 553, 554, 555, 556, 557, 558, 559, 560, 561, 562, 563, 564, 565, 566, 567, 568, 569, 570, 571, 572, 573, 574, 575, 576, 577, 578, 579, 580, 581, 582, 583, 584, 585, 586, 587, 588, 589, 590, 591, 592, 593, 594, 595, 596, 597, 598, 599, 600, 601, 602, 603, 604, 605, 606, 607, 608, 609, 610, 611, 612, 613, 614, 615, 616, 617, 618, 619, 620, 621, 622, 623, 624, 625, 626, 627, 628, 629, 630, 631, 632, 633, 634, 635, 636, 637, 638, 639, 640, 641, 642, 643, 644, 645, 646, 647, 648, 649, 650, 651, 652, 653, 654, 655, 656, 657, 658, 659, 660, 661, 662, 663, 664, 665, 666, 667, 668, 669, 670, 671, 672, 673, 674, 675, 676, 677, 678, 679, 680, 681, 682, 683, 684, 685, 686, 687, 688, 689, 690, 691, 692, 693, 694, 695, 696, 697, 698, 699, 700, 701, 702, 703, 704, 705, 706, 707, 708, 709, 710, 711, 712, 713, 714, 715, 716, 717, 718, 719, 720, 721, 722, 723, 724, 725, 726, 727, 728, 729, 730, 731, 732, 733, 734, 735, 736, 737, 738, 739, 740, 741, 742, 743, 744, 745, 746, 747, 748, 749, 750, 751, 752, 753, 754, 755, 756, 757, 758, 759, 760, 761, 762, 763, 764, 765, 766, 767, 768, 769, 770, 771, 772, 773, 774, 775, 776, 777, 778, 779, 780, 781, 782, 783, 784, 785, 786, 787, 788, 789, 790, 791, 792, 793, 794, 795, 796, 797, 798, 799, 800, 801, 802, 803, 804, 805, 806, 807, 808, 809, 810, 811, 812, 813, 814, 815, 816, 817, 818, 819, 820, 821, 822, 823, 824, 825, 826, 827, 828, 829, 830, 831, 832, 833, 834, 835, 836, 837, 838, 839, 840, 841, 842, 843, 844, 845, 846, 847, 848, 849, 850, 851, 852, 853, 854, 855, 856, 857, 858, 859, 860, 861, 862, 863, 864, 865, 866, 867, 868, 869, 870, 871, 872],
      "AcquisitionTime": ["165034.595000", "165035.055000", "165035.515000", "165035.975000", "165036.435000", "165036.895000", "165037.355000", "165037.815000", "165038.275000", "165038.735000", "165039.195000", "165039.655000", "165040.115000", "165040.575000", "165041.035000", "165041.495000", "165041.955000", "165042.415000", "165042.875000", "165043.335000", "165043.795000", "165044.255000", "165044.715000", "165045.175000", "165045.635000", "165046.095000", "165046.555000", "165047.015000", "165047.475000", "165047.935000", "165048.395000", "165048.855000", "165049.315000", "165049.775000", "165050.235000", "165050.695000", "165051.155000", "165051.615000", "165052.075000", "165052.535000", "165052.995000", "165053.455000", "165053.915000", "165054.375000", "165054.835000", "165055.295000", "165055.755000", "165056.215000", "165056.675000", "165057.135000", "165057.595000", "165058.055000", "165058.515000", "165058.975000", "165059.435000", "165059.895000", "165100.355000", "165100.815000", "165101.275000", "165101.735000", "165102.195000", "165102.655000", "165103.115000", "165103.575000", "165104.035000", "165104.495000", "165104.955000", "165105.415000", "165105.875000", "165106.335000", "165106.795000", "165107.255000", "165107.715000", "165108.175000", "165108.635000", "165109.095000", "165109.555000", "165110.015000", "165110.475000", "165110.935000", "165111.395000", "165111.855000", "165112.315000", "165112.775000", "165113.235000", "165113.695000", "165114.155000", "165114.615000", "165115.075000", "165115.535000", "165115.995000", "165116.455000", "165116.915000", "165117.375000", "165117.835000", "165118.295000", "165118.755000", "165119.215000", "165119.675000", "165120.135000", "165120.595000", "165121.055000", "165121.515000", "165121.975000", "165122.435000", "165122.895000", "165123.355000", "165123.815000", "165124.275000", "165124.735000", "165125.195000", "165125.655000", "165126.115000", "165126.575000", "165127.035000", "165127.495000", "165127.955000", "165128.415000", "165128.875000", "165129.335000", "165129.795000", "165130.255000", "165130.715000", "165131.175000", "165131.635000", "165132.095000", "165132.555000", "165133.015000", "165133.475000", "165133.935000", "165134.395000", "165134.855000", "165135.315000", "165135.775000", "165136.235000", "165136.695000", "165137.155000", "165137.615000", "165138.075000", "165138.535000", "165138.995000", "165139.455000", "165139.915000", "165140.375000", "165140.835000", "165141.295000", "165141.755000", "165142.215000", "165142.675000", "165143.135000", "165143.595000", "165144.055000", "165144.515000", "165144.975000", "165145.435000", "165145.895000", "165146.355000", "165146.815000", "165147.275000", "165147.735000", "165148.195000", "165148.655000", "165149.115000", "165149.575000", "165150.035000", "165150.495000", "165150.955000", "165151.415000", "165151.875000", "165152.335000", "165152.795000", "165153.255000", "165153.715000", "165154.175000", "165154.635000", "165155.095000", "165155.555000", "165156.015000", "165156.475000", "165156.935000", "165157.395000", "165157.855000", "165158.315000", "165158.775000", "165159.235000", "165159.695000", "165200.155000", "165200.615000", "165201.075000", "165201.535000", "165201.995000", "165202.455000", "165202.915000", "165203.375000", "165203.835000", "165204.295000", "165204.755000", "165205.215000", "165205.675000", "165206.135000", "165206.595000", "165207.055000", "165207.515000", "165207.975000", "165208.435000", "165208.895000", "165209.355000", "165209.815000", "165210.275000", "165210.735000", "165211.195000", "165211.655000", "165212.115000", "165212.575000", "165213.035000", "165213.495000", "165213.955000", "165214.415000", "165214.875000", "165215.335000", "165215.795000", "165216.255000", "165216.715000", "165217.175000", "165217.635000", "165218.095000", "165218.555000", "165219.015000", "165219.475000", "165219.935000", "165220.395000", "165220.855000", "165221.315000", "165221.775000", "165222.235000", "165222.695000", "165223.155000", "165223.615000", "165224.075000", "165224.535000", "165224.995000", "165225.455000", "165225.915000", "165226.375000", "165226.835000", "165227.295000", "165227.755000", "165228.215000", "165228.675000", "165229.135000", "165229.595000", "165230.055000", "165230.515000", "165230.975000", "165231.435000", "165231.895000", "165232.355000", "165232.815000", "165233.275000", "165233.735000", "165234.195000", "165234.655000", "165235.115000", "165235.575000", "165236.035000", "165236.495000", "165236.955000", "165237.415000", "165237.875000", "165238.335000", "165238.795000", "165239.255000", "165239.715000", "165240.175000", "165240.635000", "165241.095000", "165241.555000", "165242.015000", "165242.475000", "165242.935000", "165243.395000", "165243.855000", "165244.315000", "165244.775000", "165245.235000", "165245.695000", "165246.155000", "165246.615000", "165247.075000", "165247.535000", "165247.995000", "165248.455000", "165248.915000", "165249.375000", "165249.835000", "165250.295000", "165250.755000", "165251.215000", "165251.675000", "165252.135000", "165252.595000", "165253.055000", "165253.515000", "165253.975000", "165254.435000", "165254.895000", "165255.355000", "165255.815000", "165256.275000", "165256.735000", "165257.195000", "165257.655000", "165258.115000", "165258.575000", "165259.035000", "165259.495000", "165259.955000", "165300.415000", "165300.875000", "165301.335000", "165301.795000", "165302.255000", "165302.715000", "165303.175000", "165303.635000", "165304.095000", "165304.555000", "165305.015000", "165305.475000", "165305.935000", "165306.395000", "165306.855000", "165307.315000", "165307.775000", "165308.235000", "165308.695000", "165309.155000", "165309.615000", "165310.075000", "165310.535000", "165310.995000", "165311.455000", "165311.915000", "165312.375000", "165312.835000", "165313.295000", "165313.755000", "165314.215000", "165314.675000", "165315.135000", "165315.595000", "165316.055000", "165316.515000", "165316.975000", "165317.435000", "165317.895000", "165318.355000", "165318.815000", "165319.275000", "165319.735000", "165320.195000", "165320.655000", "165321.115000", "165321.575000", "165322.035000", "165322.495000", "165322.955000", "165323.415000", "165323.875000", "165324.335000", "165324.795000", "165325.255000", "165325.715000", "165326.175000", "165326.635000", "165327.095000", "165327.555000", "165328.015000", "165328.475000", "165328.935000", "165329.395000", "165329.855000", "165330.315000", "165330.775000", "165331.235000", "165331.695000", "165332.155000", "165332.615000", "165333.075000", "165333.535000", "165333.995000", "165334.455000", "165334.915000", "165335.375000", "165335.835000", "165336.295000", "165336.755000", "165337.215000", "165337.675000", "165338.135000", "165338.595000", "165339.055000", "165339.515000", "165339.975000", "165340.435000", "165340.895000", "165341.355000", "165341.815000", "165342.275000", "165342.735000", "165343.195000", "165343.655000", "165344.115000", "165344.575000", "165345.035000", "165345.495000", "165345.955000", "165346.415000", "165346.875000", "165347.335000", "165347.795000", "165348.255000", "165348.715000", "165349.175000", "165349.635000", "165350.095000", "165350.555000", "165351.015000", "165351.475000", "165351.935000", "165352.395000", "165352.855000", "165353.315000", "165353.775000", "165354.235000", "165354.695000", "165355.155000", "165355.615000", "165356.075000", "165356.535000", "165356.995000", "165357.455000", "165357.915000", "165358.375000", "165358.835000", "165359.295000", "165359.755000", "165400.215000", "165400.675000", "165401.135000", "165401.595000", "165402.055000", "165402.515000", "165402.975000", "165403.435000", "165403.895000", "165404.355000", "165404.815000", "165405.275000", "165405.735000", "165406.195000", "165406.655000", "165407.115000", "165407.575000", "165408.035000", "165408.495000", "165408.955000", "165409.415000", "165409.875000", "165410.335000", "165410.795000", "165411.255000", "165411.715000", "165412.175000", "165412.635000", "165413.095000", "165413.555000", "165414.015000", "165414.475000", "165414.935000", "165415.395000", "165415.855000", "165416.315000", "165416.775000", "165417.235000", "165417.695000", "165418.155000", "165418.615000", "165419.075000", "165419.535000", "165419.995000", "165420.455000", "165420.915000", "165421.375000", "165421.835000", "165422.295000", "165422.755000", "165423.215000", "165423.675000", "165424.135000", "165424.595000", "165425.055000", "165425.515000", "165425.975000", "165426.435000", "165426.895000", "165427.355000", "165427.815000", "165428.275000", "165428.735000", "165429.195000", "165429.655000", "165430.115000", "165430.575000", "165431.035000", "165431.495000", "165431.955000", "165432.415000", "165432.875000", "165433.335000", "165433.795000", "165434.255000", "165434.715000", "165435.175000", "165435.635000", "165436.095000", "165436.555000", "165437.015000", "165437.475000", "165437.935000", "165438.395000", "165438.855000", "165439.315000", "165439.775000", "165440.235000", "165440.695000", "165441.155000", "165441.615000", "165442.075000", "165442.535000", "165442.995000", "165443.455000", "165443.915000", "165444.375000", "165444.835000", "165445.295000", "165445.755000", "165446.215000", "165446.675000", "165447.135000", "165447.595000", "165448.055000", "165448.515000", "165448.975000", "165449.435000", "165449.895000", "165450.355000", "165450.815000", "165451.275000", "165451.735000", "165452.195000", "165452.655000", "165453.115000", "165453.575000", "165454.035000", "165454.495000", "165454.955000", "165455.415000", "165455.875000", "165456.335000", "165456.795000", "165457.255000", "165457.715000", "165458.175000", "165458.635000", "165459.095000", "165459.555000", "165500.015000", "165500.475000", "165500.935000", "165501.395000", "165501.855000", "165502.315000", "165502.775000", "165503.235000", "165503.695000", "165504.155000", "165504.615000", "165505.075000", "165505.535000", "165505.995000", "165506.455000", "165506.915000", "165507.375000", "165507.835000", "165508.295000", "165508.755000", "165509.215000", "165509.675000", "165510.135000", "165510.595000", "165511.055000", "165511.515000", "165511.975000", "165512.435000", "165512.895000", "165513.355000", "165513.815000", "165514.275000", "165514.735000", "165515.195000", "165515.655000", "165516.115000", "165516.575000", "165517.035000", "165517.495000", "165517.955000", "165518.415000", "165518.875000", "165519.335000", "165519.795000", "165520.255000", "165520.715000", "165521.175000", "165521.635000", "165522.095000", "165522.555000", "165523.015000", "165523.475000", "165523.935000", "165524.395000", "165524.855000", "165525.315000", "165525.775000", "165526.235000", "165526.695000", "165527.155000", "165527.615000", "165528.075000", "165528.535000", "165528.995000", "165529.455000", "165529.915000", "165530.375000", "165530.835000", "165531.295000", "165531.755000", "165532.215000", "165532.675000", "165533.135000", "165533.595000", "165534.055000", "165534.515000", "165534.975000", "165535.435000", "165535.895000", "165536.355000", "165536.815000", "165537.275000", "165537.735000", "165538.195000", "165538.655000", "165539.115000", "165539.575000", "165540.035000", "165540.495000", "165540.955000", "165541.415000", "165541.875000", "165542.335000", "165542.795000", "165543.255000", "165543.715000", "165544.175000", "165544.635000", "165545.095000", "165545.555000", "165546.015000", "165546.475000", "165546.935000", "165547.395000", "165547.855000", "165548.315000", "165548.775000", "165549.235000", "165549.695000", "165550.155000", "165550.615000", "165551.075000", "165551.535000", "165551.995000", "165552.455000", "165552.915000", "165553.375000", "165553.835000", "165554.295000", "165554.755000", "165555.215000", "165555.675000", "165556.135000", "165556.595000", "165557.055000", "165557.515000", "165557.975000", "165558.435000", "165558.895000", "165559.355000", "165559.815000", "165600.275000", "165600.735000", "165601.195000", "165601.655000", "165602.115000", "165602.575000", "165603.035000", "165603.495000", "165603.955000", "165604.415000", "165604.875000", "165605.335000", "165605.795000", "165606.255000", "165606.715000", "165607.175000", "165607.635000", "165608.095000", "165608.555000", "165609.015000", "165609.475000", "165609.935000", "165610.395000", "165610.855000", "165611.315000", "165611.775000", "165612.235000", "165612.695000", "165613.155000", "165613.615000", "165614.075000", "165614.535000", "165614.995000", "165615.455000", "165615.915000", "165616.375000", "165616.835000", "165617.295000", "165617.755000", "165618.215000", "165618.675000", "165619.135000", "165619.595000", "165620.055000", "165620.515000", "165620.975000", "165621.435000", "165621.895000", "165622.355000", "165622.815000", "165623.275000", "165623.735000", "165624.195000", "165624.655000", "165625.115000", "165625.575000", "165626.035000", "165626.495000", "165626.955000", "165627.415000", "165627.875000", "165628.335000", "165628.795000", "165629.255000", "165629.715000", "165630.175000", "165630.635000", "165631.095000", "165631.555000", "165632.015000", "165632.475000", "165632.935000", "165633.395000", "165633.855000", "165634.315000", "165634.775000", "165635.235000", "165635.695000", "165636.155000", "165636.615000", "165637.075000", "165637.535000", "165637.995000", "165638.455000", "165638.915000", "165639.375000", "165639.835000", "165640.295000", "165640.755000", "165641.215000", "165641.675000", "165642.135000", "165642.595000", "165643.055000", "165643.515000", "165643.975000", "165644.435000", "165644.895000", "165645.355000", "165645.815000", "165646.275000", "165646.735000", "165647.195000", "165647.655000", "165648.115000", "165648.575000", "165649.035000", "165649.495000", "165649.955000", "165650.415000", "165650.875000", "165651.335000", "165651.795000", "165652.255000", "165652.715000", "165653.175000", "165653.635000", "165654.095000", "165654.555000", "165655.015000", "165655.475000", "165655.935000", "165656.395000", "165656.855000", "165657.315000", "165657.775000", "165658.235000", "165658.695000", "165659.155000", "165659.615000", "165700.075000", "165700.535000", "165700.995000", "165701.455000", "165701.915000", "165702.375000", "165702.835000", "165703.295000", "165703.755000", "165704.215000", "165704.675000", "165705.135000", "165705.595000", "165706.055000", "165706.515000", "165706.975000", "165707.435000", "165707.895000", "165708.355000", "165708.815000", "165709.275000", "165709.735000", "165710.195000", "165710.655000", "165711.115000", "165711.575000", "165712.035000", "165712.495000", "165712.955000", "165713.415000", "165713.875000", "165714.335000", "165714.795000", "165715.255000"],
