{
  "AcquisitionMatrixPE": 82,
  "AcquisitionNumber": 1,
  "AcquisitionTime": "16:57:34.242500",
  "BandwidthPerPixelPhaseEncode": 24.888,
  "BaseResolution": 82,
  "BodyPartExamined": "BRAIN",
  "ConsistencyInfo": "N4_VE11E_LATEST_20181129",
  "ConversionSoftware": "dcm2niix",
  "ConversionSoftwareVersion": "v1.0.20201102",
  "DerivedVendorReportedEchoSpacing": 0.00049,
  "DeviceSerialNumber": "66112",
  "DwellTime": 2e-06,
  "EchoTime": 0.0272,
  "EchoTrainLength": 82,
  "EffectiveEchoSpacing": 0.00049,
  "FlipAngle": 44,
  "ImageComments": "Unaliased MB8/PE3",
  "ImageOrientationPatientDICOM": [0.998967, 0.0236772, 0.0387982, -0.0299977, 0.984741, 0.171419],
  "ImageType": [
    "ORIGINAL",
    "PRIMARY",
    "M",
    "MB",
    "ND",
    "NORM",
    "MOSAIC"
],
  "ImagingFrequency": 123.252,
  "InPlanePhaseEncodingDirectionDICOM": "COL",
  "InstitutionAddress": "Maynard 3,Hanover,NH,US,03755",
  "InstitutionName": "Dartmouth College - PBS",
  "InstitutionalDepartmentName": "Department",
  "MRAcquisitionType": "2D",
  "MagneticFieldStrength": 3,
  "Manufacturer": "Siemens",
  "ManufacturersModelName": "Prisma",
  "Modality": "MR",
  "MultibandAccelerationFactor": 8,
  "PartialFourier": 1,
  "PatientPosition": "HFS",
  "PercentPhaseFOV": 100,
  "PercentSampling": 100,
  "PhaseEncodingDirection": "j-",
  "PhaseEncodingSteps": 82,
  "PhaseResolution": 1,
  "PixelBandwidth": 3050,
  "ProcedureStepDescription": "Wager_Wager^1076_spacetop",
  "ProtocolName": "func_run-02_task-social_acq-ap-mb8",
  "PulseSequenceDetails": "%CustomerSeq%\\cmrr_mbep2d_bold",
  "ReceiveCoilActiveElements": "HEA;HEP",
  "ReceiveCoilName": "Head_32",
  "ReconMatrixPE": 82,
  "RepetitionTime": 0.46,
  "SAR": 0.0852325,
  "ScanOptions": "FS",
  "ScanningSequence": "EP",
  "SequenceName": "epfid2d1_82",
  "SequenceVariant": "SK\\SS",
  "SeriesDescription": "func_run-02_task-social_acq-ap-mb8",
  "SeriesNumber": 14,
  "ShimSetting": [4154, -7777, -7255, 554, -30, -174, 3, 107],
  "SliceThickness": 2.7,
  "SliceTiming": [0, 0.2525, 0.065, 0.315, 0.1275, 0.3775, 0.19, 0, 0.2525, 0.065, 0.315, 0.1275, 0.3775, 0.19, 0, 0.2525, 0.065, 0.315, 0.1275, 0.3775, 0.19, 0, 0.2525, 0.065, 0.315, 0.1275, 0.3775, 0.19, 0, 0.2525, 0.065, 0.315, 0.1275, 0.3775, 0.19, 0, 0.2525, 0.065, 0.315, 0.1275, 0.3775, 0.19, 0, 0.2525, 0.065, 0.315, 0.1275, 0.3775, 0.19, 0, 0.2525, 0.065, 0.315, 0.1275, 0.3775, 0.19],
  "SoftwareVersions": "syngo MR E11",
  "SpacingBetweenSlices": 2.7,
  "StationName": "AWP66112",
  "TaskName": "social",
  "TotalReadoutTime": 0.03969,
  "TxRefAmp": 235.231,
  "WipMemBlock": "c3f78ecf-abf3-4711-b6a2-9c594c537b3e||Sequence: R016 ve11e/master r/434b28f1; Aug  7 2019 18:53:46 by eja",
  "dcmmeta_affine": [
    [-2.6801540851593018, -0.0804816484451294, 0.09219814836978912, 112.24178314208984],
    [-0.0635242909193039, 2.641989231109619, 0.46549537777900696, -95.00112915039062],
    [0.10409272462129593, -0.45990464091300964, 2.6579718589782715, -50.743526458740234],
    [0.0, 0.0, 0.0, 1.0]
],
  "dcmmeta_reorient_transform": [
    [0.0, -1.0, 0.0, 81.0],
    [1.0, 0.0, 0.0, 0.0],
    [0.0, 0.0, 1.0, 0.0],
    [0.0, 0.0, 0.0, 1.0]
],
  "dcmmeta_shape": [82, 82, 56, 872],
  "dcmmeta_slice_dim": 2,
  "dcmmeta_version": 0.6,
  "global": {
    "const": {
      "AccessionNumber": "A003997",
      "AcquisitionMatrix": [82, 0, 0, 82],
      "AngioFlag": "N",
      "BitsAllocated": 16,
      "BitsStored": 16,
      "BodyPartExamined": "BRAIN",
      "Columns": 656,
      "EchoNumbers": 1,
      "EchoTime": 27.2,
      "EchoTrainLength": 82,
      "FlipAngle": 44.0,
      "HighBit": 15,
      "ImageOrientationPatient": [0.99896651022158, 0.02367723493589, 0.03879819585389, -0.0299977042033, 0.9847414199777, 0.17141899988865],
      "ImagePositionPatient": [-851.82876814648, -895.48238443424, -249.86304675918],
      "ImageType": [
        "ORIGINAL",
        "PRIMARY",
        "M",
        "MB",
        "ND",
        "NORM",
        "MOSAIC"
],
      "ImagedNucleus": "1H",
      "ImagingFrequency": 123.252203,
      "InPlanePhaseEncodingDirection": "COL",
      "MRAcquisitionType": "2D",
      "MagneticFieldStrength": 3.0,
      "Manufacturer": "SIEMENS",
      "ManufacturerModelName": "Prisma",
      "Modality": "MR",
      "NumberOfAverages": 1.0,
      "NumberOfPhaseEncodingSteps": 82,
      "PercentPhaseFieldOfView": 100.0,
      "PercentSampling": 100.0,
      "PerformedProcedureStepStartTime": "162258.229000",
      "PhotometricInterpretation": "MONOCHROME2",
      "PixelBandwidth": 3050.0,
      "PixelRepresentation": 0,
      "PixelSpacing": [2.6829268932343, 2.6829268932343],
      "ProtocolName": "func_run-02_task-social_acq-ap-mb8",
      "RepetitionTime": 460.0,
      "Rows": 656,
      "SAR": 0.08523250991688,
      "SamplesPerPixel": 1,
      "ScanOptions": "FS",
      "ScanningSequence": "EP",
      "SequenceName": "epfid2d1_82",
      "SequenceVariant": [
        "SK",
        "SS"
],
      "SeriesDescription": "func_run-02_task-social_acq-ap-mb8",
      "SeriesNumber": 14,
      "SeriesTime": "165749.469000",
      "SliceLocation": -62.49961368587,
      "SliceThickness": 2.7000000476837,
      "SmallestImagePixelValue": 0,
      "SoftwareVersions": "syngo MR E11",
      "SpacingBetweenSlices": 2.7000000482771,
      "SpecificCharacterSet": "ISO_IR 100",
      "StudyID": "1",
      "StudyTime": "162258.152000",
      "TransmitCoilName": "Body",
      "VariableFlipAngleFlag": "N",
      "WindowCenterWidthExplanation": "Algo1"
    },
    "slices": {}
  },
  "time": {
    "samples": {
      "AcquisitionNumber": [1, 2, 3, 4, 5, 6, 7, 8, 9, 10, 11, 12, 13, 14, 15, 16, 17, 18, 19, 20, 21, 22, 23, 24, 25, 26, 27, 28, 29, 30, 31, 32, 33, 34, 35, 36, 37, 38, 39, 40, 41, 42, 43, 44, 45, 46, 47, 48, 49, 50, 51, 52, 53, 54, 55, 56, 57, 58, 59, 60, 61, 62, 63, 64, 65, 66, 67, 68, 69, 70, 71, 72, 73, 74, 75, 76, 77, 78, 79, 80, 81, 82, 83, 84, 85, 86, 87, 88, 89, 90, 91, 92, 93, 94, 95, 96, 97, 98, 99, 100, 101, 102, 103, 104, 105, 106, 107, 108, 109, 110, 111, 112, 113, 114, 115, 116, 117, 118, 119, 120, 121, 122, 123, 124, 125, 126, 127, 128, 129, 130, 131, 132, 133, 134, 135, 136, 137, 138, 139, 140, 141, 142, 143, 144, 145, 146, 147, 148, 149, 150, 151, 152, 153, 154, 155, 156, 157, 158, 159, 160, 161, 162, 163, 164, 165, 166, 167, 168, 169, 170, 171, 172, 173, 174, 175, 176, 177, 178, 179, 180, 181, 182, 183, 184, 185, 186, 187, 188, 189, 190, 191, 192, 193, 194, 195, 196, 197, 198, 199, 200, 201, 202, 203, 204, 205, 206, 207, 208, 209, 210, 211, 212, 213, 214, 215, 216, 217, 218, 219, 220, 221, 222, 223, 224, 225, 226, 227, 228, 229, 230, 231, 232, 233, 234, 235, 236, 237, 238, 239, 240, 241, 242, 243, 244, 245, 246, 247, 248, 249, 250, 251, 252, 253, 254, 255, 256, 257, 258, 259, 260, 261, 262, 263, 264, 265, 266, 267, 268, 269, 270, 271, 272, 273, 274, 275, 276, 277, 278, 279, 280, 281, 282, 283, 284, 285, 286, 287, 288, 289, 290, 291, 292, 293, 294, 295, 296, 297, 298, 299, 300, 301, 302, 303, 304, 305, 306, 307, 308, 309, 310, 311, 312, 313, 314, 315, 316, 317, 318, 319, 320, 321, 322, 323, 324, 325, 326, 327, 328, 329, 330, 331, 332, 333, 334, 335, 336, 337, 338, 339, 340, 341, 342, 343, 344, 345, 346, 347, 348, 349, 350, 351, 352, 353, 354, 355, 356, 357, 358, 359, 360, 361, 362, 363, 364, 365, 366, 367, 368, 369, 370, 371, 372, 373, 374, 375, 376, 377, 378, 379, 380, 381, 382, 383, 384, 385, 386, 387, 388, 389, 390, 391, 392, 393, 394, 395, 396, 397, 398, 399, 400, 401, 402, 403, 404, 405, 406, 407, 408, 409, 410, 411, 412, 413, 414, 415, 416, 417, 418, 419, 420, 421, 422, 423, 424, 425, 426, 427, 428, 429, 430, 431, 432, 433, 434, 435, 436, 437, 438, 439, 440, 441, 442, 443, 444, 445, 446, 447, 448, 449, 450, 451, 452, 453, 454, 455, 456, 457, 458, 459, 460, 461, 462, 463, 464, 465, 466, 467, 468, 469, 470, 471, 472, 473, 474, 475, 476, 477, 478, 479, 480, 481, 482, 483, 484, 485, 486, 487, 488, 489, 490, 491, 492, 493, 494, 495, 496, 497, 498, 499, 500, 501, 502, 503, 504, 505, 506, 507, 508, 509, 510, 511, 512, 513, 514, 515, 516, 517, 518, 519, 520, 521, 522, 523, 524, 525, 526, 527, 528, 529, 530, 531, 532, 533, 534, 535, 536, 537, 538, 539, 540, 541, 542, 543, 544, 545, 546, 547, 548, 549, 550, 551, 552, 553, 554, 555, 556, 557, 558, 559, 560, 561, 562, 563, 564, 565, 566, 567, 568, 569, 570, 571, 572, 573, 574, 575, 576, 577, 578, 579, 580, 581, 582, 583, 584, 585, 586, 587, 588, 589, 590, 591, 592, 593, 594, 595, 596, 597, 598, 599, 600, 601, 602, 603, 604, 605, 606, 607, 608, 609, 610, 611, 612, 613, 614, 615, 616, 617, 618, 619, 620, 621, 622, 623, 624, 625, 626, 627, 628, 629, 630, 631, 632, 633, 634, 635, 636, 637, 638, 639, 640, 641, 642, 643, 644, 645, 646, 647, 648, 649, 650, 651, 652, 653, 654, 655, 656, 657, 658, 659, 660, 661, 662, 663, 664, 665, 666, 667, 668, 669, 670, 671, 672, 673, 674, 675, 676, 677, 678, 679, 680, 681, 682, 683, 684, 685, 686, 687, 688, 689, 690, 691, 692, 693, 694, 695, 696, 697, 698, 699, 700, 701, 702, 703, 704, 705, 706, 707, 708, 709, 710, 711, 712, 713, 714, 715, 716, 717, 718, 719, 720, 721, 722, 723, 724, 725, 726, 727, 728, 729, 730, 731, 732, 733, 734, 735, 736, 737, 738, 739, 740, 741, 742, 743, 744, 745, 746, 747, 748, 749, 750, 751, 752, 753, 754, 755, 756, 757, 758, 759, 760, 761, 762, 763, 764, 765, 766, 767, 768, 769, 770, 771, 772, 773, 774, 775, 776, 777, 778, 779, 780, 781, 782, 783, 784, 785, 786, 787, 788, 789, 790, 791, 792, 793, 794, 795, 796, 797, 798, 799, 800, 801, 802, 803, 804, 805, 806, 807, 808, 809, 810, 811, 812, 813, 814, 815, 816, 817, 818, 819, 820, 821, 822, 823, 824, 825, 826, 827, 828, 829, 830, 831, 832, 833, 834, 835, 836, 837, 838, 839, 840, 841, 842, 843, 844, 845, 846, 847, 848, 849, 850, 851, 852, 853, 854, 855, 856, 857, 858, 859, 860, 861, 862, 863, 864, 865, 866, 867, 868, 869, 870, 871, 872],
      "AcquisitionTime": ["165734.242500", "165734.702500", "165735.162500", "165735.622500", "165736.082500", "165736.542500", "165737.002500", "165737.462500", "165737.922500", "165738.382500", "165738.842500", "165739.302500", "165739.762500", "165740.222500", "165740.682500", "165741.142500", "165741.602500", "165742.062500", "165742.522500", "165742.982500", "165743.442500", "165743.902500", "165744.362500", "165744.822500", "165745.282500", "165745.742500", "165746.202500", "165746.662500", "165747.122500", "165747.582500", "165748.042500", "165748.502500", "165748.962500", "165749.422500", "165749.882500", "165750.342500", "165750.802500", "165751.262500", "165751.722500", "165752.182500", "165752.642500", "165753.102500", "165753.562500", "165754.022500", "165754.482500", "165754.942500", "165755.402500", "165755.862500", "165756.322500", "165756.782500", "165757.242500", "165757.702500", "165758.162500", "165758.622500", "165759.082500", "165759.542500", "165800.002500", "165800.462500", "165800.922500", "165801.382500", "165801.842500", "165802.302500", "165802.762500", "165803.222500", "165803.682500", "165804.142500", "165804.602500", "165805.062500", "165805.522500", "165805.982500", "165806.442500", "165806.902500", "165807.362500", "165807.822500", "165808.282500", "165808.742500", "165809.202500", "165809.662500", "165810.122500", "165810.582500", "165811.042500", "165811.502500", "165811.962500", "165812.422500", "165812.882500", "165813.342500", "165813.802500", "165814.262500", "165814.722500", "165815.182500", "165815.642500", "165816.102500", "165816.562500", "165817.022500", "165817.482500", "165817.942500", "165818.402500", "165818.862500", "165819.322500", "165819.782500", "165820.242500", "165820.702500", "165821.162500", "165821.622500", "165822.082500", "165822.542500", "165823.002500", "165823.462500", "165823.922500", "165824.382500", "165824.842500", "165825.302500", "165825.762500", "165826.222500", "165826.682500", "165827.142500", "165827.602500", "165828.062500", "165828.522500", "165828.982500", "165829.442500", "165829.902500", "165830.362500", "165830.822500", "165831.282500", "165831.742500", "165832.202500", "165832.662500", "165833.122500", "165833.582500", "165834.042500", "165834.502500", "165834.962500", "165835.422500", "165835.882500", "165836.342500", "165836.802500", "165837.262500", "165837.722500", "165838.182500", "165838.642500", "165839.102500", "165839.562500", "165840.022500", "165840.482500", "165840.942500", "165841.402500", "165841.862500", "165842.322500", "165842.782500", "165843.242500", "165843.702500", "165844.162500", "165844.622500", "165845.082500", "165845.542500", "165846.002500", "165846.462500", "165846.922500", "165847.382500", "165847.842500", "165848.302500", "165848.762500", "165849.222500", "165849.682500", "165850.142500", "165850.602500", "165851.062500", "165851.522500", "165851.982500", "165852.442500", "165852.902500", "165853.362500", "165853.822500", "165854.282500", "165854.742500", "165855.202500", "165855.662500", "165856.122500", "165856.582500", "165857.042500", "165857.502500", "165857.962500", "165858.422500", "165858.882500", "165859.342500", "165859.802500", "165900.262500", "165900.722500", "165901.182500", "165901.642500", "165902.102500", "165902.562500", "165903.022500", "165903.482500", "165903.942500", "165904.402500", "165904.862500", "165905.322500", "165905.782500", "165906.242500", "165906.702500", "165907.162500", "165907.622500", "165908.082500", "165908.542500", "165909.002500", "165909.462500", "165909.922500", "165910.382500", "165910.842500", "165911.302500", "165911.762500", "165912.222500", "165912.682500", "165913.142500", "165913.602500", "165914.062500", "165914.522500", "165914.982500", "165915.442500", "165915.902500", "165916.362500", "165916.822500", "165917.282500", "165917.742500", "165918.202500", "165918.662500", "165919.122500", "165919.582500", "165920.042500", "165920.502500", "165920.962500", "165921.422500", "165921.882500", "165922.342500", "165922.802500", "165923.262500", "165923.722500", "165924.182500", "165924.642500", "165925.102500", "165925.562500", "165926.022500", "165926.482500", "165926.942500", "165927.402500", "165927.862500", "165928.322500", "165928.782500", "165929.242500", "165929.702500", "165930.162500", "165930.622500", "165931.082500", "165931.542500", "165932.002500", "165932.462500", "165932.922500", "165933.382500", "165933.842500", "165934.302500", "165934.762500", "165935.222500", "165935.682500", "165936.142500", "165936.602500", "165937.062500", "165937.522500", "165937.982500", "165938.442500", "165938.902500", "165939.362500", "165939.822500", "165940.282500", "165940.742500", "165941.202500", "165941.662500", "165942.122500", "165942.582500", "165943.042500", "165943.502500", "165943.962500", "165944.422500", "165944.882500", "165945.342500", "165945.802500", "165946.262500", "165946.722500", "165947.182500", "165947.642500", "165948.102500", "165948.562500", "165949.022500", "165949.482500", "165949.942500", "165950.402500", "165950.862500", "165951.322500", "165951.782500", "165952.242500", "165952.702500", "165953.162500", "165953.622500", "165954.082500", "165954.542500", "165955.002500", "165955.462500", "165955.922500", "165956.382500", "165956.842500", "165957.302500", "165957.762500", "165958.222500", "165958.682500", "165959.142500", "165959.602500", "170000.062500", "170000.522500", "170000.982500", "170001.442500", "170001.902500", "170002.362500", "170002.822500", "170003.282500", "170003.742500", "170004.202500", "170004.662500", "170005.122500", "170005.582500", "170006.042500", "170006.502500", "170006.962500", "170007.422500", "170007.882500", "170008.342500", "170008.802500", "170009.262500", "170009.722500", "170010.182500", "170010.642500", "170011.102500", "170011.562500", "170012.022500", "170012.482500", "170012.942500", "170013.402500", "170013.862500", "170014.322500", "170014.782500", "170015.242500", "170015.702500", "170016.162500", "170016.622500", "170017.082500", "170017.542500", "170018.002500", "170018.462500", "170018.922500", "170019.382500", "170019.842500", "170020.302500", "170020.762500", "170021.222500", "170021.682500", "170022.142500", "170022.602500", "170023.062500", "170023.522500", "170023.982500", "170024.442500", "170024.902500", "170025.362500", "170025.822500", "170026.282500", "170026.742500", "170027.202500", "170027.662500", "170028.122500", "170028.582500", "170029.042500", "170029.502500", "170029.962500", "170030.422500", "170030.882500", "170031.342500", "170031.802500", "170032.262500", "170032.722500", "170033.182500", "170033.642500", "170034.102500", "170034.562500", "170035.022500", "170035.482500", "170035.942500", "170036.402500", "170036.862500", "170037.322500", "170037.782500", "170038.242500", "170038.702500", "170039.162500", "170039.622500", "170040.082500", "170040.542500", "170041.002500", "170041.462500", "170041.922500", "170042.382500", "170042.842500", "170043.302500", "170043.762500", "170044.222500", "170044.682500", "170045.142500", "170045.602500", "170046.062500", "170046.522500", "170046.982500", "170047.442500", "170047.902500", "170048.362500", "170048.822500", "170049.282500", "170049.742500", "170050.202500", "170050.662500", "170051.122500", "170051.582500", "170052.042500", "170052.502500", "170052.962500", "170053.422500", "170053.882500", "170054.342500", "170054.802500", "170055.262500", "170055.722500", "170056.182500", "170056.642500", "170057.102500", "170057.562500", "170058.022500", "170058.482500", "170058.942500", "170059.402500", "170059.862500", "170100.322500", "170100.782500", "170101.242500", "170101.702500", "170102.162500", "170102.622500", "170103.082500", "170103.542500", "170104.002500", "170104.462500", "170104.922500", "170105.382500", "170105.842500", "170106.302500", "170106.762500", "170107.222500", "170107.682500", "170108.142500", "170108.602500", "170109.062500", "170109.522500", "170109.982500", "170110.442500", "170110.902500", "170111.362500", "170111.822500", "170112.282500", "170112.742500", "170113.202500", "170113.662500", "170114.122500", "170114.582500", "170115.042500", "170115.502500", "170115.962500", "170116.422500", "170116.882500", "170117.342500", "170117.802500", "170118.262500", "170118.722500", "170119.182500", "170119.642500", "170120.102500", "170120.562500", "170121.022500", "170121.482500", "170121.942500", "170122.402500", "170122.862500", "170123.322500", "170123.782500", "170124.242500", "170124.702500", "170125.162500", "170125.622500", "170126.082500", "170126.542500", "170127.002500", "170127.462500", "170127.922500", "170128.382500", "170128.842500", "170129.302500", "170129.762500", "170130.222500", "170130.682500", "170131.142500", "170131.602500", "170132.062500", "170132.522500", "170132.982500", "170133.442500", "170133.902500", "170134.362500", "170134.822500", "170135.282500", "170135.742500", "170136.202500", "170136.662500", "170137.122500", "170137.582500", "170138.042500", "170138.502500", "170138.962500", "170139.422500", "170139.882500", "170140.342500", "170140.802500", "170141.262500", "170141.722500", "170142.182500", "170142.642500", "170143.102500", "170143.562500", "170144.022500", "170144.482500", "170144.942500", "170145.402500", "170145.862500", "170146.322500", "170146.782500", "170147.242500", "170147.702500", "170148.162500", "170148.622500", "170149.082500", "170149.542500", "170150.002500", "170150.462500", "170150.922500", "170151.382500", "170151.842500", "170152.302500", "170152.762500", "170153.222500", "170153.682500", "170154.142500", "170154.602500", "170155.062500", "170155.522500", "170155.982500", "170156.442500", "170156.902500", "170157.362500", "170157.822500", "170158.282500", "170158.742500", "170159.202500", "170159.662500", "170200.122500", "170200.582500", "170201.042500", "170201.502500", "170201.962500", "170202.422500", "170202.882500", "170203.342500", "170203.802500", "170204.262500", "170204.722500", "170205.182500", "170205.642500", "170206.102500", "170206.562500", "170207.022500", "170207.482500", "170207.942500", "170208.402500", "170208.862500", "170209.322500", "170209.782500", "170210.242500", "170210.702500", "170211.162500", "170211.622500", "170212.082500", "170212.542500", "170213.002500", "170213.462500", "170213.922500", "170214.382500", "170214.842500", "170215.302500", "170215.762500", "170216.222500", "170216.682500", "170217.142500", "170217.602500", "170218.062500", "170218.522500", "170218.982500", "170219.442500", "170219.902500", "170220.362500", "170220.822500", "170221.282500", "170221.742500", "170222.202500", "170222.662500", "170223.122500", "170223.582500", "170224.042500", "170224.502500", "170224.962500", "170225.422500", "170225.882500", "170226.342500", "170226.802500", "170227.262500", "170227.722500", "170228.182500", "170228.642500", "170229.102500", "170229.562500", "170230.022500", "170230.482500", "170230.942500", "170231.402500", "170231.862500", "170232.322500", "170232.782500", "170233.242500", "170233.702500", "170234.162500", "170234.622500", "170235.082500", "170235.542500", "170236.002500", "170236.462500", "170236.922500", "170237.382500", "170237.842500", "170238.302500", "170238.762500", "170239.222500", "170239.682500", "170240.142500", "170240.602500", "170241.062500", "170241.522500", "170241.982500", "170242.442500", "170242.902500", "170243.362500", "170243.822500", "170244.282500", "170244.742500", "170245.202500", "170245.662500", "170246.122500", "170246.582500", "170247.042500", "170247.502500", "170247.962500", "170248.422500", "170248.882500", "170249.342500", "170249.802500", "170250.262500", "170250.722500", "170251.182500", "170251.642500", "170252.102500", "170252.562500", "170253.022500", "170253.482500", "170253.942500", "170254.402500", "170254.862500", "170255.322500", "170255.782500", "170256.242500", "170256.702500", "170257.162500", "170257.622500", "170258.082500", "170258.542500", "170259.002500", "170259.462500", "170259.922500", "170300.382500", "170300.842500", "170301.302500", "170301.762500", "170302.222500", "170302.682500", "170303.142500", "170303.602500", "170304.062500", "170304.522500", "170304.982500", "170305.442500", "170305.902500", "170306.362500", "170306.822500", "170307.282500", "170307.742500", "170308.202500", "170308.662500", "170309.122500", "170309.582500", "170310.042500", "170310.502500", "170310.962500", "170311.422500", "170311.882500", "170312.342500", "170312.802500", "170313.262500", "170313.722500", "170314.182500", "170314.642500", "170315.102500", "170315.562500", "170316.022500", "170316.482500", "170316.942500", "170317.402500", "170317.862500", "170318.322500", "170318.782500", "170319.242500", "170319.702500", "170320.162500", "170320.622500", "170321.082500", "170321.542500", "170322.002500", "170322.462500", "170322.922500", "170323.382500", "170323.842500", "170324.302500", "170324.762500", "170325.222500", "170325.682500", "170326.142500", "170326.602500", "170327.062500", "170327.522500", "170327.982500", "170328.442500", "170328.902500", "170329.362500", "170329.822500", "170330.282500", "170330.742500", "170331.202500", "170331.662500", "170332.122500", "170332.582500", "170333.042500", "170333.502500", "170333.962500", "170334.422500", "170334.882500", "170335.342500", "170335.802500", "170336.262500", "170336.722500", "170337.182500", "170337.642500", "170338.102500", "170338.562500", "170339.022500", "170339.482500", "170339.942500", "170340.402500", "170340.862500", "170341.322500", "170341.782500", "170342.242500", "170342.702500", "170343.162500", "170343.622500", "170344.082500", "170344.542500", "170345.002500", "170345.462500", "170345.922500", "170346.382500", "170346.842500", "170347.302500", "170347.762500", "170348.222500", "170348.682500", "170349.142500", "170349.602500", "170350.062500", "170350.522500", "170350.982500", "170351.442500", "170351.902500", "170352.362500", "170352.822500", "170353.282500", "170353.742500", "170354.202500", "170354.662500", "170355.122500", "170355.582500", "170356.042500", "170356.502500", "170356.962500", "170357.422500", "170357.882500", "170358.342500", "170358.802500", "170359.262500", "170359.722500", "170400.182500", "170400.642500", "170401.102500", "170401.562500", "170402.022500", "170402.482500", "170402.942500", "170403.402500", "170403.862500", "170404.322500", "170404.782500", "170405.242500", "170405.702500", "170406.162500", "170406.622500", "170407.082500", "170407.542500", "170408.002500", "170408.462500", "170408.922500", "170409.382500", "170409.842500", "170410.302500", "170410.762500", "170411.222500", "170411.682500", "170412.142500", "170412.602500", "170413.062500", "170413.522500", "170413.982500", "170414.442500", "170414.902500"],
