{
  "AcquisitionMatrixPE": 82,
  "AcquisitionNumber": 1,
  "AcquisitionTime": "17:05:52.375000",
  "BandwidthPerPixelPhaseEncode": 24.888,
  "BaseResolution": 82,
  "BodyPartExamined": "BRAIN",
  "ConsistencyInfo": "N4_VE11E_LATEST_20181129",
  "ConversionSoftware": "dcm2niix",
  "ConversionSoftwareVersion": "v1.0.20201102",
  "DerivedVendorReportedEchoSpacing": 0.00049,
  "DeviceSerialNumber": "66112",
  "DwellTime": 2e-06,
  "EchoTime": 0.0272,
  "EchoTrainLength": 82,
  "EffectiveEchoSpacing": 0.00049,
  "FlipAngle": 44,
  "ImageComments": "Unaliased MB8/PE3",
  "ImageOrientationPatientDICOM": [0.998967, 0.0236772, 0.0387982, -0.0299977, 0.984741, 0.171419],
  "ImageType": [
    "ORIGINAL",
    "PRIMARY",
    "M",
    "MB",
    "ND",
    "NORM",
    "MOSAIC"
],
  "ImagingFrequency": 123.252,
  "InPlanePhaseEncodingDirectionDICOM": "COL",
  "InstitutionAddress": "Maynard 3,Hanover,NH,US,03755",
  "InstitutionName": "Dartmouth College - PBS",
  "InstitutionalDepartmentName": "Department",
  "MRAcquisitionType": "2D",
  "MagneticFieldStrength": 3,
  "Manufacturer": "Siemens",
  "ManufacturersModelName": "Prisma",
  "Modality": "MR",
  "MultibandAccelerationFactor": 8,
  "PartialFourier": 1,
  "PatientPosition": "HFS",
  "PercentPhaseFOV": 100,
  "PercentSampling": 100,
  "PhaseEncodingDirection": "j-",
  "PhaseEncodingSteps": 82,
  "PhaseResolution": 1,
  "PixelBandwidth": 3050,
  "ProcedureStepDescription": "Wager_Wager^1076_spacetop",
  "ProtocolName": "func_run-03_task-social_acq-ap-mb8",
  "PulseSequenceDetails": "%CustomerSeq%\\cmrr_mbep2d_bold",
  "ReceiveCoilActiveElements": "HEA;HEP",
  "ReceiveCoilName": "Head_32",
  "ReconMatrixPE": 82,
  "RepetitionTime": 0.46,
  "SAR": 0.0852325,
  "ScanOptions": "FS",
  "ScanningSequence": "EP",
  "SequenceName": "epfid2d1_82",
  "SequenceVariant": "SK\\SS",
  "SeriesDescription": "func_run-03_task-social_acq-ap-mb8",
  "SeriesNumber": 16,
  "ShimSetting": [4154, -7777, -7255, 554, -30, -174, 3, 107],
  "SliceThickness": 2.7,
  "SliceTiming": [0, 0.25, 0.0625, 0.3125, 0.125, 0.375, 0.1875, 0, 0.25, 0.0625, 0.3125, 0.125, 0.375, 0.1875, 0, 0.25, 0.0625, 0.3125, 0.125, 0.375, 0.1875, 0, 0.25, 0.0625, 0.3125, 0.125, 0.375, 0.1875, 0, 0.25, 0.0625, 0.3125, 0.125, 0.375, 0.1875, 0, 0.25, 0.0625, 0.3125, 0.125, 0.375, 0.1875, 0, 0.25, 0.0625, 0.3125, 0.125, 0.375, 0.1875, 0, 0.25, 0.0625, 0.3125, 0.125, 0.375, 0.1875],
  "SoftwareVersions": "syngo MR E11",
  "SpacingBetweenSlices": 2.7,
  "StationName": "AWP66112",
  "TaskName": "social",
  "TotalReadoutTime": 0.03969,
  "TxRefAmp": 235.231,
  "WipMemBlock": "6af98134-ace1-49e2-b4a3-cbdb7002025a||Sequence: R016 ve11e/master r/434b28f1; Aug  7 2019 18:53:46 by eja",
  "dcmmeta_affine": [
    [-2.6801540851593018, -0.0804816484451294, 0.09219814836978912, 112.24178314208984],
    [-0.0635242909193039, 2.641989231109619, 0.46549537777900696, -95.00112915039062],
    [0.10409272462129593, -0.45990464091300964, 2.6579718589782715, -50.743526458740234],
    [0.0, 0.0, 0.0, 1.0]
],
  "dcmmeta_reorient_transform": [
    [0.0, -1.0, 0.0, 81.0],
    [1.0, 0.0, 0.0, 0.0],
    [0.0, 0.0, 1.0, 0.0],
    [0.0, 0.0, 0.0, 1.0]
],
  "dcmmeta_shape": [82, 82, 56, 872],
  "dcmmeta_slice_dim": 2,
  "dcmmeta_version": 0.6,
  "global": {
    "const": {
      "AccessionNumber": "A003997",
      "AcquisitionMatrix": [82, 0, 0, 82],
      "AngioFlag": "N",
      "BitsAllocated": 16,
      "BitsStored": 16,
      "BodyPartExamined": "BRAIN",
      "Columns": 656,
      "EchoNumbers": 1,
      "EchoTime": 27.2,
      "EchoTrainLength": 82,
      "FlipAngle": 44.0,
      "HighBit": 15,
      "ImageOrientationPatient": [0.99896651022158, 0.02367723493589, 0.03879819585389, -0.0299977042033, 0.9847414199777, 0.17141899988865],
      "ImagePositionPatient": [-851.82876814648, -895.48238443424, -249.86304675918],
      "ImageType": [
        "ORIGINAL",
        "PRIMARY",
        "M",
        "MB",
        "ND",
        "NORM",
        "MOSAIC"
],
      "ImagedNucleus": "1H",
      "ImagingFrequency": 123.25221,
      "InPlanePhaseEncodingDirection": "COL",
      "MRAcquisitionType": "2D",
      "MagneticFieldStrength": 3.0,
      "Manufacturer": "SIEMENS",
      "ManufacturerModelName": "Prisma",
      "Modality": "MR",
      "NumberOfAverages": 1.0,
      "NumberOfPhaseEncodingSteps": 82,
      "PercentPhaseFieldOfView": 100.0,
      "PercentSampling": 100.0,
      "PerformedProcedureStepStartTime": "162258.229000",
      "PhotometricInterpretation": "MONOCHROME2",
      "PixelBandwidth": 3050.0,
      "PixelRepresentation": 0,
      "PixelSpacing": [2.6829268932343, 2.6829268932343],
      "ProtocolName": "func_run-03_task-social_acq-ap-mb8",
      "RepetitionTime": 460.0,
      "Rows": 656,
      "SAR": 0.08523250991688,
      "SamplesPerPixel": 1,
      "ScanOptions": "FS",
      "ScanningSequence": "EP",
      "SequenceName": "epfid2d1_82",
      "SequenceVariant": [
        "SK",
        "SS"
],
      "SeriesDescription": "func_run-03_task-social_acq-ap-mb8",
      "SeriesNumber": 16,
      "SeriesTime": "170609.570000",
      "SliceLocation": -62.49961368587,
      "SliceThickness": 2.7000000476837,
      "SmallestImagePixelValue": 0,
      "SoftwareVersions": "syngo MR E11",
      "SpacingBetweenSlices": 2.7000000482771,
      "SpecificCharacterSet": "ISO_IR 100",
      "StudyID": "1",
      "StudyTime": "162258.152000",
      "TransmitCoilName": "Body",
      "VariableFlipAngleFlag": "N",
      "WindowCenterWidthExplanation": "Algo1"
    },
    "slices": {}
  },
  "time": {
    "samples": {
      "AcquisitionNumber": [1, 2, 3, 4, 5, 6, 7, 8, 9, 10, 11, 12, 13, 14, 15, 16, 17, 18, 19, 20, 21, 22, 23, 24, 25, 26, 27, 28, 29, 30, 31, 32, 33, 34, 35, 36, 37, 38, 39, 40, 41, 42, 43, 44, 45, 46, 47, 48, 49, 50, 51, 52, 53, 54, 55, 56, 57, 58, 59, 60, 61, 62, 63, 64, 65, 66, 67, 68, 69, 70, 71, 72, 73, 74, 75, 76, 77, 78, 79, 80, 81, 82, 83, 84, 85, 86, 87, 88, 89, 90, 91, 92, 93, 94, 95, 96, 97, 98, 99, 100, 101, 102, 103, 104, 105, 106, 107, 108, 109, 110, 111, 112, 113, 114, 115, 116, 117, 118, 119, 120, 121, 122, 123, 124, 125, 126, 127, 128, 129, 130, 131, 132, 133, 134, 135, 136, 137, 138, 139, 140, 141, 142, 143, 144, 145, 146, 147, 148, 149, 150, 151, 152, 153, 154, 155, 156, 157, 158, 159, 160, 161, 162, 163, 164, 165, 166, 167, 168, 169, 170, 171, 172, 173, 174, 175, 176, 177, 178, 179, 180, 181, 182, 183, 184, 185, 186, 187, 188, 189, 190, 191, 192, 193, 194, 195, 196, 197, 198, 199, 200, 201, 202, 203, 204, 205, 206, 207, 208, 209, 210, 211, 212, 213, 214, 215, 216, 217, 218, 219, 220, 221, 222, 223, 224, 225, 226, 227, 228, 229, 230, 231, 232, 233, 234, 235, 236, 237, 238, 239, 240, 241, 242, 243, 244, 245, 246, 247, 248, 249, 250, 251, 252, 253, 254, 255, 256, 257, 258, 259, 260, 261, 262, 263, 264, 265, 266, 267, 268, 269, 270, 271, 272, 273, 274, 275, 276, 277, 278, 279, 280, 281, 282, 283, 284, 285, 286, 287, 288, 289, 290, 291, 292, 293, 294, 295, 296, 297, 298, 299, 300, 301, 302, 303, 304, 305, 306, 307, 308, 309, 310, 311, 312, 313, 314, 315, 316, 317, 318, 319, 320, 321, 322, 323, 324, 325, 326, 327, 328, 329, 330, 331, 332, 333, 334, 335, 336, 337, 338, 339, 340, 341, 342, 343, 344, 345, 346, 347, 348, 349, 350, 351, 352, 353, 354, 355, 356, 357, 358, 359, 360, 361, 362, 363, 364, 365, 366, 367, 368, 369, 370, 371, 372, 373, 374, 375, 376, 377, 378, 379, 380, 381, 382, 383, 384, 385, 386, 387, 388, 389, 390, 391, 392, 393, 394, 395, 396, 397, 398, 399, 400, 401, 402, 403, 404, 405, 406, 407, 408, 409, 410, 411, 412, 413, 414, 415, 416, 417, 418, 419, 420, 421, 422, 423, 424, 425, 426, 427, 428, 429, 430, 431, 432, 433, 434, 435, 436, 437, 438, 439, 440, 441, 442, 443, 444, 445, 446, 447, 448, 449, 450, 451, 452, 453, 454, 455, 456, 457, 458, 459, 460, 461, 462, 463, 464, 465, 466, 467, 468, 469, 470, 471, 472, 473, 474, 475, 476, 477, 478, 479, 480, 481, 482, 483, 484, 485, 486, 487, 488, 489, 490, 491, 492, 493, 494, 495, 496, 497, 498, 499, 500, 501, 502, 503, 504, 505, 506, 507, 508, 509, 510, 511, 512, 513, 514, 515, 516, 517, 518, 519, 520, 521, 522, 523, 524, 525, 526, 527, 528, 529, 530, 531, 532, 533, 534, 535, 536, 537, 538, 539, 540, 541, 542, 543, 544, 545, 546, 547, 548, 549, 550, 551, 552, 553, 554, 555, 556, 557, 558, 559, 560, 561, 562, 563, 564, 565, 566, 567, 568, 569, 570, 571, 572, 573, 574, 575, 576, 577, 578, 579, 580, 581, 582, 583, 584, 585, 586, 587, 588, 589, 590, 591, 592, 593, 594, 595, 596, 597, 598, 599, 600, 601, 602, 603, 604, 605, 606, 607, 608, 609, 610, 611, 612, 613, 614, 615, 616, 617, 618, 619, 620, 621, 622, 623, 624, 625, 626, 627, 628, 629, 630, 631, 632, 633, 634, 635, 636, 637, 638, 639, 640, 641, 642, 643, 644, 645, 646, 647, 648, 649, 650, 651, 652, 653, 654, 655, 656, 657, 658, 659, 660, 661, 662, 663, 664, 665, 666, 667, 668, 669, 670, 671, 672, 673, 674, 675, 676, 677, 678, 679, 680, 681, 682, 683, 684, 685, 686, 687, 688, 689, 690, 691, 692, 693, 694, 695, 696, 697, 698, 699, 700, 701, 702, 703, 704, 705, 706, 707, 708, 709, 710, 711, 712, 713, 714, 715, 716, 717, 718, 719, 720, 721, 722, 723, 724, 725, 726, 727, 728, 729, 730, 731, 732, 733, 734, 735, 736, 737, 738, 739, 740, 741, 742, 743, 744, 745, 746, 747, 748, 749, 750, 751, 752, 753, 754, 755, 756, 757, 758, 759, 760, 761, 762, 763, 764, 765, 766, 767, 768, 769, 770, 771, 772, 773, 774, 775, 776, 777, 778, 779, 780, 781, 782, 783, 784, 785, 786, 787, 788, 789, 790, 791, 792, 793, 794, 795, 796, 797, 798, 799, 800, 801, 802, 803, 804, 805, 806, 807, 808, 809, 810, 811, 812, 813, 814, 815, 816, 817, 818, 819, 820, 821, 822, 823, 824, 825, 826, 827, 828, 829, 830, 831, 832, 833, 834, 835, 836, 837, 838, 839, 840, 841, 842, 843, 844, 845, 846, 847, 848, 849, 850, 851, 852, 853, 854, 855, 856, 857, 858, 859, 860, 861, 862, 863, 864, 865, 866, 867, 868, 869, 870, 871, 872],
      "AcquisitionTime": ["170552.375000", "170552.835000", "170553.295000", "170553.755000", "170554.215000", "170554.675000", "170555.135000", "170555.595000", "170556.055000", "170556.515000", "170556.975000", "170557.435000", "170557.895000", "170558.355000", "170558.815000", "170559.275000", "170559.735000", "170600.195000", "170600.655000", "170601.115000", "170601.575000", "170602.035000", "170602.495000", "170602.955000", "170603.415000", "170603.875000", "170604.335000", "170604.795000", "170605.255000", "170605.715000", "170606.175000", "170606.635000", "170607.095000", "170607.555000", "170608.015000", "170608.475000", "170608.935000", "170609.395000", "170609.855000", "170610.315000", "170610.775000", "170611.235000", "170611.695000", "170612.155000", "170612.615000", "170613.075000", "170613.535000", "170613.995000", "170614.455000", "170614.915000", "170615.375000", "170615.835000", "170616.295000", "170616.755000", "170617.215000", "170617.675000", "170618.135000", "170618.595000", "170619.055000", "170619.515000", "170619.975000", "170620.435000", "170620.895000", "170621.355000", "170621.815000", "170622.275000", "170622.735000", "170623.195000", "170623.655000", "170624.115000", "170624.575000", "170625.035000", "170625.495000", "170625.955000", "170626.415000", "170626.875000", "170627.335000", "170627.795000", "170628.255000", "170628.715000", "170629.175000", "170629.635000", "170630.095000", "170630.555000", "170631.015000", "170631.475000", "170631.935000", "170632.395000", "170632.855000", "170633.315000", "170633.775000", "170634.235000", "170634.695000", "170635.155000", "170635.615000", "170636.075000", "170636.535000", "170636.995000", "170637.455000", "170637.915000", "170638.375000", "170638.835000", "170639.295000", "170639.755000", "170640.215000", "170640.675000", "170641.135000", "170641.595000", "170642.055000", "170642.515000", "170642.975000", "170643.435000", "170643.895000", "170644.355000", "170644.815000", "170645.275000", "170645.735000", "170646.195000", "170646.655000", "170647.115000", "170647.575000", "170648.035000", "170648.495000", "170648.955000", "170649.415000", "170649.875000", "170650.335000", "170650.795000", "170651.255000", "170651.715000", "170652.175000", "170652.635000", "170653.095000", "170653.555000", "170654.015000", "170654.475000", "170654.935000", "170655.395000", "170655.855000", "170656.315000", "170656.775000", "170657.235000", "170657.695000", "170658.155000", "170658.615000", "170659.075000", "170659.535000", "170659.995000", "170700.455000", "170700.915000", "170701.375000", "170701.835000", "170702.295000", "170702.755000", "170703.215000", "170703.675000", "170704.135000", "170704.595000", "170705.055000", "170705.515000", "170705.975000", "170706.435000", "170706.895000", "170707.355000", "170707.815000", "170708.275000", "170708.735000", "170709.195000", "170709.655000", "170710.115000", "170710.575000", "170711.035000", "170711.495000", "170711.955000", "170712.415000", "170712.875000", "170713.335000", "170713.795000", "170714.255000", "170714.715000", "170715.175000", "170715.635000", "170716.095000", "170716.555000", "170717.015000", "170717.475000", "170717.935000", "170718.395000", "170718.855000", "170719.315000", "170719.775000", "170720.235000", "170720.695000", "170721.155000", "170721.615000", "170722.075000", "170722.535000", "170722.995000", "170723.455000", "170723.915000", "170724.375000", "170724.835000", "170725.295000", "170725.755000", "170726.215000", "170726.675000", "170727.135000", "170727.595000", "170728.055000", "170728.515000", "170728.975000", "170729.435000", "170729.895000", "170730.355000", "170730.815000", "170731.275000", "170731.735000", "170732.195000", "170732.655000", "170733.115000", "170733.575000", "170734.035000", "170734.495000", "170734.955000", "170735.415000", "170735.875000", "170736.335000", "170736.795000", "170737.255000", "170737.715000", "170738.175000", "170738.635000", "170739.095000", "170739.555000", "170740.015000", "170740.475000", "170740.935000", "170741.395000", "170741.855000", "170742.315000", "170742.775000", "170743.235000", "170743.695000", "170744.155000", "170744.615000", "170745.075000", "170745.535000", "170745.995000", "170746.455000", "170746.915000", "170747.375000", "170747.835000", "170748.295000", "170748.755000", "170749.215000", "170749.675000", "170750.135000", "170750.595000", "170751.055000", "170751.515000", "170751.975000", "170752.435000", "170752.895000", "170753.355000", "170753.815000", "170754.275000", "170754.735000", "170755.195000", "170755.655000", "170756.115000", "170756.575000", "170757.035000", "170757.495000", "170757.955000", "170758.415000", "170758.875000", "170759.335000", "170759.795000", "170800.255000", "170800.715000", "170801.175000", "170801.635000", "170802.095000", "170802.555000", "170803.015000", "170803.475000", "170803.935000", "170804.395000", "170804.855000", "170805.315000", "170805.775000", "170806.235000", "170806.695000", "170807.155000", "170807.615000", "170808.075000", "170808.535000", "170808.995000", "170809.455000", "170809.915000", "170810.375000", "170810.835000", "170811.295000", "170811.755000", "170812.215000", "170812.675000", "170813.135000", "170813.595000", "170814.055000", "170814.515000", "170814.975000", "170815.435000", "170815.895000", "170816.355000", "170816.815000", "170817.275000", "170817.735000", "170818.195000", "170818.655000", "170819.115000", "170819.575000", "170820.035000", "170820.495000", "170820.955000", "170821.415000", "170821.875000", "170822.335000", "170822.795000", "170823.255000", "170823.715000", "170824.175000", "170824.635000", "170825.095000", "170825.555000", "170826.015000", "170826.475000", "170826.935000", "170827.395000", "170827.855000", "170828.315000", "170828.775000", "170829.235000", "170829.695000", "170830.155000", "170830.615000", "170831.075000", "170831.535000", "170831.995000", "170832.455000", "170832.915000", "170833.375000", "170833.835000", "170834.295000", "170834.755000", "170835.215000", "170835.675000", "170836.135000", "170836.595000", "170837.055000", "170837.515000", "170837.975000", "170838.435000", "170838.895000", "170839.355000", "170839.815000", "170840.275000", "170840.735000", "170841.195000", "170841.655000", "170842.115000", "170842.575000", "170843.035000", "170843.495000", "170843.955000", "170844.415000", "170844.875000", "170845.335000", "170845.795000", "170846.255000", "170846.715000", "170847.175000", "170847.635000", "170848.095000", "170848.555000", "170849.015000", "170849.475000", "170849.935000", "170850.395000", "170850.855000", "170851.315000", "170851.775000", "170852.235000", "170852.695000", "170853.155000", "170853.615000", "170854.075000", "170854.535000", "170854.995000", "170855.455000", "170855.915000", "170856.375000", "170856.835000", "170857.295000", "170857.755000", "170858.215000", "170858.675000", "170859.135000", "170859.595000", "170900.055000", "170900.515000", "170900.975000", "170901.435000", "170901.895000", "170902.355000", "170902.815000", "170903.275000", "170903.735000", "170904.195000", "170904.655000", "170905.115000", "170905.575000", "170906.035000", "170906.495000", "170906.955000", "170907.415000", "170907.875000", "170908.335000", "170908.795000", "170909.255000", "170909.715000", "170910.175000", "170910.635000", "170911.095000", "170911.555000", "170912.015000", "170912.475000", "170912.935000", "170913.395000", "170913.855000", "170914.315000", "170914.775000", "170915.235000", "170915.695000", "170916.155000", "170916.615000", "170917.075000", "170917.535000", "170917.995000", "170918.455000", "170918.915000", "170919.375000", "170919.835000", "170920.295000", "170920.755000", "170921.215000", "170921.675000", "170922.135000", "170922.595000", "170923.055000", "170923.515000", "170923.975000", "170924.435000", "170924.895000", "170925.355000", "170925.815000", "170926.275000", "170926.735000", "170927.195000", "170927.655000", "170928.115000", "170928.575000", "170929.035000", "170929.495000", "170929.955000", "170930.415000", "170930.875000", "170931.335000", "170931.795000", "170932.255000", "170932.715000", "170933.175000", "170933.635000", "170934.095000", "170934.555000", "170935.015000", "170935.475000", "170935.935000", "170936.395000", "170936.855000", "170937.315000", "170937.775000", "170938.235000", "170938.695000", "170939.155000", "170939.615000", "170940.075000", "170940.535000", "170940.995000", "170941.455000", "170941.915000", "170942.375000", "170942.835000", "170943.295000", "170943.755000", "170944.215000", "170944.675000", "170945.135000", "170945.595000", "170946.055000", "170946.515000", "170946.975000", "170947.435000", "170947.895000", "170948.355000", "170948.815000", "170949.275000", "170949.735000", "170950.195000", "170950.655000", "170951.115000", "170951.575000", "170952.035000", "170952.495000", "170952.955000", "170953.415000", "170953.875000", "170954.335000", "170954.795000", "170955.255000", "170955.715000", "170956.175000", "170956.635000", "170957.095000", "170957.555000", "170958.015000", "170958.475000", "170958.935000", "170959.395000", "170959.855000", "171000.315000", "171000.775000", "171001.235000", "171001.695000", "171002.155000", "171002.615000", "171003.075000", "171003.535000", "171003.995000", "171004.455000", "171004.915000", "171005.375000", "171005.835000", "171006.295000", "171006.755000", "171007.215000", "171007.675000", "171008.135000", "171008.595000", "171009.055000", "171009.515000", "171009.975000", "171010.435000", "171010.895000", "171011.355000", "171011.815000", "171012.275000", "171012.735000", "171013.195000", "171013.655000", "171014.115000", "171014.575000", "171015.035000", "171015.495000", "171015.955000", "171016.415000", "171016.875000", "171017.335000", "171017.795000", "171018.255000", "171018.715000", "171019.175000", "171019.635000", "171020.095000", "171020.555000", "171021.015000", "171021.475000", "171021.935000", "171022.395000", "171022.855000", "171023.315000", "171023.775000", "171024.235000", "171024.695000", "171025.155000", "171025.615000", "171026.075000", "171026.535000", "171026.995000", "171027.455000", "171027.915000", "171028.375000", "171028.835000", "171029.295000", "171029.755000", "171030.215000", "171030.675000", "171031.135000", "171031.595000", "171032.055000", "171032.515000", "171032.975000", "171033.435000", "171033.895000", "171034.355000", "171034.815000", "171035.275000", "171035.735000", "171036.195000", "171036.655000", "171037.115000", "171037.575000", "171038.035000", "171038.495000", "171038.955000", "171039.415000", "171039.875000", "171040.335000", "171040.795000", "171041.255000", "171041.715000", "171042.175000", "171042.635000", "171043.095000", "171043.555000", "171044.015000", "171044.475000", "171044.935000", "171045.395000", "171045.855000", "171046.315000", "171046.775000", "171047.235000", "171047.695000", "171048.155000", "171048.615000", "171049.075000", "171049.535000", "171049.995000", "171050.455000", "171050.915000", "171051.375000", "171051.835000", "171052.295000", "171052.755000", "171053.215000", "171053.675000", "171054.135000", "171054.595000", "171055.055000", "171055.515000", "171055.975000", "171056.435000", "171056.895000", "171057.355000", "171057.815000", "171058.275000", "171058.735000", "171059.195000", "171059.655000", "171100.115000", "171100.575000", "171101.035000", "171101.495000", "171101.955000", "171102.415000", "171102.875000", "171103.335000", "171103.795000", "171104.255000", "171104.715000", "171105.175000", "171105.635000", "171106.095000", "171106.555000", "171107.015000", "171107.475000", "171107.935000", "171108.395000", "171108.855000", "171109.315000", "171109.775000", "171110.235000", "171110.695000", "171111.155000", "171111.615000", "171112.075000", "171112.535000", "171112.995000", "171113.455000", "171113.915000", "171114.375000", "171114.835000", "171115.295000", "171115.755000", "171116.215000", "171116.675000", "171117.135000", "171117.595000", "171118.055000", "171118.515000", "171118.975000", "171119.435000", "171119.895000", "171120.355000", "171120.815000", "171121.275000", "171121.735000", "171122.195000", "171122.655000", "171123.115000", "171123.575000", "171124.035000", "171124.495000", "171124.955000", "171125.415000", "171125.875000", "171126.335000", "171126.795000", "171127.255000", "171127.715000", "171128.175000", "171128.635000", "171129.095000", "171129.555000", "171130.015000", "171130.475000", "171130.935000", "171131.395000", "171131.855000", "171132.315000", "171132.775000", "171133.235000", "171133.695000", "171134.155000", "171134.615000", "171135.075000", "171135.535000", "171135.995000", "171136.455000", "171136.915000", "171137.375000", "171137.835000", "171138.295000", "171138.755000", "171139.215000", "171139.675000", "171140.135000", "171140.595000", "171141.055000", "171141.515000", "171141.975000", "171142.435000", "171142.895000", "171143.355000", "171143.815000", "171144.275000", "171144.735000", "171145.195000", "171145.655000", "171146.115000", "171146.575000", "171147.035000", "171147.495000", "171147.955000", "171148.415000", "171148.875000", "171149.335000", "171149.795000", "171150.255000", "171150.715000", "171151.175000", "171151.635000", "171152.095000", "171152.555000", "171153.015000", "171153.475000", "171153.935000", "171154.395000", "171154.855000", "171155.315000", "171155.775000", "171156.235000", "171156.695000", "171157.155000", "171157.615000", "171158.075000", "171158.535000", "171158.995000", "171159.455000", "171159.915000", "171200.375000", "171200.835000", "171201.295000", "171201.755000", "171202.215000", "171202.675000", "171203.135000", "171203.595000", "171204.055000", "171204.515000", "171204.975000", "171205.435000", "171205.895000", "171206.355000", "171206.815000", "171207.275000", "171207.735000", "171208.195000", "171208.655000", "171209.115000", "171209.575000", "171210.035000", "171210.495000", "171210.955000", "171211.415000", "171211.875000", "171212.335000", "171212.795000", "171213.255000", "171213.715000", "171214.175000", "171214.635000", "171215.095000", "171215.555000", "171216.015000", "171216.475000", "171216.935000", "171217.395000", "171217.855000", "171218.315000", "171218.775000", "171219.235000", "171219.695000", "171220.155000", "171220.615000", "171221.075000", "171221.535000", "171221.995000", "171222.455000", "171222.915000", "171223.375000", "171223.835000", "171224.295000", "171224.755000", "171225.215000", "171225.675000", "171226.135000", "171226.595000", "171227.055000", "171227.515000", "171227.975000", "171228.435000", "171228.895000", "171229.355000", "171229.815000", "171230.275000", "171230.735000", "171231.195000", "171231.655000", "171232.115000", "171232.575000", "171233.035000"],
