{
  "AcquisitionMatrixPE": 82,
  "AcquisitionNumber": 1,
  "AcquisitionTime": "17:47:33.737500",
  "BandwidthPerPixelPhaseEncode": 24.888,
  "BaseResolution": 82,
  "BodyPartExamined": "BRAIN",
  "ConsistencyInfo": "N4_VE11E_LATEST_20181129",
  "ConversionSoftware": "dcm2niix",
  "ConversionSoftwareVersion": "v1.0.20201102",
  "DerivedVendorReportedEchoSpacing": 0.00049,
  "DeviceSerialNumber": "66112",
  "DwellTime": 2e-06,
  "EchoTime": 0.0272,
  "EchoTrainLength": 82,
  "EffectiveEchoSpacing": 0.00049,
  "FlipAngle": 44,
  "ImageComments": "Unaliased MB8/PE3",
  "ImageOrientationPatientDICOM": [0.998935, 0.0450311, -0.0100162, -0.0427411, 0.985138, 0.16636],
  "ImageType": [
    "ORIGINAL",
    "PRIMARY",
    "M",
    "MB",
    "ND",
    "NORM",
    "MOSAIC"
],
  "ImagingFrequency": 123.252,
  "InPlanePhaseEncodingDirectionDICOM": "COL",
  "InstitutionAddress": "Maynard 3,Hanover,NH,US,03755",
  "InstitutionName": "Dartmouth College - PBS",
  "InstitutionalDepartmentName": "Department",
  "MRAcquisitionType": "2D",
  "MagneticFieldStrength": 3,
  "Manufacturer": "Siemens",
  "ManufacturersModelName": "Prisma",
  "Modality": "MR",
  "MultibandAccelerationFactor": 8,
  "PartialFourier": 1,
  "PatientPosition": "HFS",
  "PercentPhaseFOV": 100,
  "PercentSampling": 100,
  "PhaseEncodingDirection": "j-",
  "PhaseEncodingSteps": 82,
  "PhaseResolution": 1,
  "PixelBandwidth": 3050,
  "ProcedureStepDescription": "Wager_Wager^1076_spacetop",
  "ProtocolName": "func_run-02_task-alignvideo_acq-ap-mb8",
  "PulseSequenceDetails": "%CustomerSeq%\\cmrr_mbep2d_bold",
  "ReceiveCoilActiveElements": "HEA;HEP",
  "ReceiveCoilName": "Head_32",
  "ReconMatrixPE": 82,
  "RepetitionTime": 0.46,
  "SAR": 0.0852634,
  "ScanOptions": "FS",
  "ScanningSequence": "EP",
  "SequenceName": "epfid2d1_82",
  "SequenceVariant": "SK\\SS",
  "SeriesDescription": "func_run-02_task-alignvideo_acq-ap-mb8",
  "SeriesNumber": 32,
  "ShimSetting": [4155, -7781, -7252, 554, -30, -188, 3, 104],
  "SliceThickness": 2.7,
  "SliceTiming": [0, 0.2525, 0.0625, 0.315, 0.1275, 0.3775, 0.19, 0, 0.2525, 0.0625, 0.315, 0.1275, 0.3775, 0.19, 0, 0.2525, 0.0625, 0.315, 0.1275, 0.3775, 0.19, 0, 0.2525, 0.0625, 0.315, 0.1275, 0.3775, 0.19, 0, 0.2525, 0.0625, 0.315, 0.1275, 0.3775, 0.19, 0, 0.2525, 0.0625, 0.315, 0.1275, 0.3775, 0.19, 0, 0.2525, 0.0625, 0.315, 0.1275, 0.3775, 0.19, 0, 0.2525, 0.0625, 0.315, 0.1275, 0.3775, 0.19],
  "SoftwareVersions": "syngo MR E11",
  "SpacingBetweenSlices": 2.7,
  "StationName": "AWP66112",
  "TaskName": "alignvideo",
  "TotalReadoutTime": 0.03969,
  "TxRefAmp": 235.231,
  "WipMemBlock": "a9ccda6f-4ab5-4c83-b886-21a1e09417fd||Sequence: R016 ve11e/master r/434b28f1; Aug  7 2019 18:53:46 by eja",
  "dcmmeta_affine": [
    [-2.680070638656616, -0.11467123031616211, -0.04686857759952545, 117.45088195800781],
    [-0.1208152174949646, 2.643054246902466, 0.4475376605987549, -93.95742797851562],
    [-0.026872774586081505, -0.4463314414024353, 2.662238597869873, -48.94621276855469],
    [0.0, 0.0, 0.0, 1.0]
],
  "dcmmeta_reorient_transform": [
    [0.0, -1.0, 0.0, 81.0],
    [1.0, 0.0, 0.0, 0.0],
    [0.0, 0.0, 1.0, 0.0],
    [0.0, 0.0, 0.0, 1.0]
],
  "dcmmeta_shape": [82, 82, 56, 926],
  "dcmmeta_slice_dim": 2,
  "dcmmeta_version": 0.6,
  "global": {
    "const": {
      "AccessionNumber": "A003997",
      "AcquisitionMatrix": [82, 0, 0, 82],
      "AngioFlag": "N",
      "BitsAllocated": 16,
      "BitsStored": 16,
      "BodyPartExamined": "BRAIN",
      "Columns": 656,
      "EchoNumbers": 1,
      "EchoTime": 27.2,
      "EchoTrainLength": 82,
      "FlipAngle": 44.0,
      "HighBit": 15,
      "ImageOrientationPatient": [0.99893536992327, 0.04503112418451, -0.0100162153999, -0.0427410946231, 0.9851383576679, 0.16635989625453],
      "ImagePositionPatient": [-844.43212127051, -913.36048356462, -205.48369517889],
      "ImageType": [
        "ORIGINAL",
        "PRIMARY",
        "M",
        "MB",
        "ND",
        "NORM",
        "MOSAIC"
],
      "ImagedNucleus": "1H",
      "ImagingFrequency": 123.252211,
      "InPlanePhaseEncodingDirection": "COL",
      "MRAcquisitionType": "2D",
      "MagneticFieldStrength": 3.0,
      "Manufacturer": "SIEMENS",
      "ManufacturerModelName": "Prisma",
      "Modality": "MR",
      "NumberOfAverages": 1.0,
      "NumberOfPhaseEncodingSteps": 82,
      "PercentPhaseFieldOfView": 100.0,
      "PercentSampling": 100.0,
      "PerformedProcedureStepStartTime": "162258.229000",
      "PhotometricInterpretation": "MONOCHROME2",
      "PixelBandwidth": 3050.0,
      "PixelRepresentation": 0,
      "PixelSpacing": [2.6829268932343, 2.6829268932343],
      "ProtocolName": "func_run-02_task-alignvideo_acq-ap-mb8",
      "RepetitionTime": 460.0,
      "Rows": 656,
      "SAR": 0.08526338416368,
      "SamplesPerPixel": 1,
      "ScanOptions": "FS",
      "ScanningSequence": "EP",
      "SequenceName": "epfid2d1_82",
      "SequenceVariant": [
        "SK",
        "SS"
],
      "SeriesDescription": "func_run-02_task-alignvideo_acq-ap-mb8",
      "SeriesNumber": 32,
      "SeriesTime": "174749.475000",
      "SliceLocation": -65.874342357953,
      "SliceThickness": 2.7000000476837,
      "SmallestImagePixelValue": 0,
      "SoftwareVersions": "syngo MR E11",
      "SpacingBetweenSlices": 2.7000000994077,
      "SpecificCharacterSet": "ISO_IR 100",
      "StudyID": "1",
      "StudyTime": "162258.152000",
      "TransmitCoilName": "Body",
      "VariableFlipAngleFlag": "N",
      "WindowCenterWidthExplanation": "Algo1"
    },
    "slices": {}
  },
  "time": {
    "samples": {
      "AcquisitionNumber": [1, 2, 3, 4, 5, 6, 7, 8, 9, 10, 11, 12, 13, 14, 15, 16, 17, 18, 19, 20, 21, 22, 23, 24, 25, 26, 27, 28, 29, 30, 31, 32, 33, 34, 35, 36, 37, 38, 39, 40, 41, 42, 43, 44, 45, 46, 47, 48, 49, 50, 51, 52, 53, 54, 55, 56, 57, 58, 59, 60, 61, 62, 63, 64, 65, 66, 67, 68, 69, 70, 71, 72, 73, 74, 75, 76, 77, 78, 79, 80, 81, 82, 83, 84, 85, 86, 87, 88, 89, 90, 91, 92, 93, 94, 95, 96, 97, 98, 99, 100, 101, 102, 103, 104, 105, 106, 107, 108, 109, 110, 111, 112, 113, 114, 115, 116, 117, 118, 119, 120, 121, 122, 123, 124, 125, 126, 127, 128, 129, 130, 131, 132, 133, 134, 135, 136, 137, 138, 139, 140, 141, 142, 143, 144, 145, 146, 147, 148, 149, 150, 151, 152, 153, 154, 155, 156, 157, 158, 159, 160, 161, 162, 163, 164, 165, 166, 167, 168, 169, 170, 171, 172, 173, 174, 175, 176, 177, 178, 179, 180, 181, 182, 183, 184, 185, 186, 187, 188, 189, 190, 191, 192, 193, 194, 195, 196, 197, 198, 199, 200, 201, 202, 203, 204, 205, 206, 207, 208, 209, 210, 211, 212, 213, 214, 215, 216, 217, 218, 219, 220, 221, 222, 223, 224, 225, 226, 227, 228, 229, 230, 231, 232, 233, 234, 235, 236, 237, 238, 239, 240, 241, 242, 243, 244, 245, 246, 247, 248, 249, 250, 251, 252, 253, 254, 255, 256, 257, 258, 259, 260, 261, 262, 263, 264, 265, 266, 267, 268, 269, 270, 271, 272, 273, 274, 275, 276, 277, 278, 279, 280, 281, 282, 283, 284, 285, 286, 287, 288, 289, 290, 291, 292, 293, 294, 295, 296, 297, 298, 299, 300, 301, 302, 303, 304, 305, 306, 307, 308, 309, 310, 311, 312, 313, 314, 315, 316, 317, 318, 319, 320, 321, 322, 323, 324, 325, 326, 327, 328, 329, 330, 331, 332, 333, 334, 335, 336, 337, 338, 339, 340, 341, 342, 343, 344, 345, 346, 347, 348, 349, 350, 351, 352, 353, 354, 355, 356, 357, 358, 359, 360, 361, 362, 363, 364, 365, 366, 367, 368, 369, 370, 371, 372, 373, 374, 375, 376, 377, 378, 379, 380, 381, 382, 383, 384, 385, 386, 387, 388, 389, 390, 391, 392, 393, 394, 395, 396, 397, 398, 399, 400, 401, 402, 403, 404, 405, 406, 407, 408, 409, 410, 411, 412, 413, 414, 415, 416, 417, 418, 419, 420, 421, 422, 423, 424, 425, 426, 427, 428, 429, 430, 431, 432, 433, 434, 435, 436, 437, 438, 439, 440, 441, 442, 443, 444, 445, 446, 447, 448, 449, 450, 451, 452, 453, 454, 455, 456, 457, 458, 459, 460, 461, 462, 463, 464, 465, 466, 467, 468, 469, 470, 471, 472, 473, 474, 475, 476, 477, 478, 479, 480, 481, 482, 483, 484, 485, 486, 487, 488, 489, 490, 491, 492, 493, 494, 495, 496, 497, 498, 499, 500, 501, 502, 503, 504, 505, 506, 507, 508, 509, 510, 511, 512, 513, 514, 515, 516, 517, 518, 519, 520, 521, 522, 523, 524, 525, 526, 527, 528, 529, 530, 531, 532, 533, 534, 535, 536, 537, 538, 539, 540, 541, 542, 543, 544, 545, 546, 547, 548, 549, 550, 551, 552, 553, 554, 555, 556, 557, 558, 559, 560, 561, 562, 563, 564, 565, 566, 567, 568, 569, 570, 571, 572, 573, 574, 575, 576, 577, 578, 579, 580, 581, 582, 583, 584, 585, 586, 587, 588, 589, 590, 591, 592, 593, 594, 595, 596, 597, 598, 599, 600, 601, 602, 603, 604, 605, 606, 607, 608, 609, 610, 611, 612, 613, 614, 615, 616, 617, 618, 619, 620, 621, 622, 623, 624, 625, 626, 627, 628, 629, 630, 631, 632, 633, 634, 635, 636, 637, 638, 639, 640, 641, 642, 643, 644, 645, 646, 647, 648, 649, 650, 651, 652, 653, 654, 655, 656, 657, 658, 659, 660, 661, 662, 663, 664, 665, 666, 667, 668, 669, 670, 671, 672, 673, 674, 675, 676, 677, 678, 679, 680, 681, 682, 683, 684, 685, 686, 687, 688, 689, 690, 691, 692, 693, 694, 695, 696, 697, 698, 699, 700, 701, 702, 703, 704, 705, 706, 707, 708, 709, 710, 711, 712, 713, 714, 715, 716, 717, 718, 719, 720, 721, 722, 723, 724, 725, 726, 727, 728, 729, 730, 731, 732, 733, 734, 735, 736, 737, 738, 739, 740, 741, 742, 743, 744, 745, 746, 747, 748, 749, 750, 751, 752, 753, 754, 755, 756, 757, 758, 759, 760, 761, 762, 763, 764, 765, 766, 767, 768, 769, 770, 771, 772, 773, 774, 775, 776, 777, 778, 779, 780, 781, 782, 783, 784, 785, 786, 787, 788, 789, 790, 791, 792, 793, 794, 795, 796, 797, 798, 799, 800, 801, 802, 803, 804, 805, 806, 807, 808, 809, 810, 811, 812, 813, 814, 815, 816, 817, 818, 819, 820, 821, 822, 823, 824, 825, 826, 827, 828, 829, 830, 831, 832, 833, 834, 835, 836, 837, 838, 839, 840, 841, 842, 843, 844, 845, 846, 847, 848, 849, 850, 851, 852, 853, 854, 855, 856, 857, 858, 859, 860, 861, 862, 863, 864, 865, 866, 867, 868, 869, 870, 871, 872, 873, 874, 875, 876, 877, 878, 879, 880, 881, 882, 883, 884, 885, 886, 887, 888, 889, 890, 891, 892, 893, 894, 895, 896, 897, 898, 899, 900, 901, 902, 903, 904, 905, 906, 907, 908, 909, 910, 911, 912, 913, 914, 915, 916, 917, 918, 919, 920, 921, 922, 923, 924, 925, 926],
      "AcquisitionTime": ["174733.737500", "174734.197500", "174734.657500", "174735.117500", "174735.577500", "174736.037500", "174736.497500", "174736.957500", "174737.417500", "174737.877500", "174738.337500", "174738.797500", "174739.257500", "174739.717500", "174740.177500", "174740.637500", "174741.097500", "174741.557500", "174742.017500", "174742.477500", "174742.937500", "174743.397500", "174743.857500", "174744.317500", "174744.777500", "174745.237500", "174745.697500", "174746.157500", "174746.617500", "174747.077500", "174747.537500", "174747.997500", "174748.457500", "174748.917500", "174749.377500", "174749.837500", "174750.297500", "174750.757500", "174751.217500", "174751.677500", "174752.137500", "174752.597500", "174753.057500", "174753.517500", "174753.977500", "174754.437500", "174754.897500", "174755.357500", "174755.817500", "174756.277500", "174756.737500", "174757.197500", "174757.657500", "174758.117500", "174758.577500", "174759.037500", "174759.497500", "174759.957500", "174800.417500", "174800.877500", "174801.337500", "174801.797500", "174802.257500", "174802.717500", "174803.177500", "174803.637500", "174804.097500", "174804.557500", "174805.017500", "174805.477500", "174805.937500", "174806.397500", "174806.857500", "174807.317500", "174807.777500", "174808.237500", "174808.697500", "174809.157500", "174809.617500", "174810.077500", "174810.537500", "174810.997500", "174811.457500", "174811.917500", "174812.377500", "174812.837500", "174813.297500", "174813.757500", "174814.217500", "174814.677500", "174815.137500", "174815.597500", "174816.057500", "174816.517500", "174816.977500", "174817.437500", "174817.897500", "174818.357500", "174818.817500", "174819.277500", "174819.737500", "174820.197500", "174820.657500", "174821.117500", "174821.577500", "174822.037500", "174822.497500", "174822.957500", "174823.417500", "174823.877500", "174824.337500", "174824.797500", "174825.257500", "174825.717500", "174826.177500", "174826.637500", "174827.097500", "174827.557500", "174828.017500", "174828.477500", "174828.937500", "174829.397500", "174829.857500", "174830.317500", "174830.777500", "174831.237500", "174831.697500", "174832.157500", "174832.617500", "174833.077500", "174833.537500", "174833.997500", "174834.457500", "174834.917500", "174835.377500", "174835.837500", "174836.297500", "174836.757500", "174837.217500", "174837.677500", "174838.137500", "174838.597500", "174839.057500", "174839.517500", "174839.977500", "174840.437500", "174840.897500", "174841.357500", "174841.817500", "174842.277500", "174842.737500", "174843.197500", "174843.657500", "174844.117500", "174844.577500", "174845.037500", "174845.497500", "174845.957500", "174846.417500", "174846.877500", "174847.337500", "174847.797500", "174848.257500", "174848.717500", "174849.177500", "174849.637500", "174850.097500", "174850.557500", "174851.017500", "174851.477500", "174851.937500", "174852.397500", "174852.857500", "174853.317500", "174853.777500", "174854.237500", "174854.697500", "174855.157500", "174855.617500", "174856.077500", "174856.537500", "174856.997500", "174857.457500", "174857.917500", "174858.377500", "174858.837500", "174859.297500", "174859.757500", "174900.217500", "174900.677500", "174901.137500", "174901.597500", "174902.057500", "174902.517500", "174902.977500", "174903.437500", "174903.897500", "174904.357500", "174904.817500", "174905.277500", "174905.737500", "174906.197500", "174906.657500", "174907.117500", "174907.577500", "174908.037500", "174908.497500", "174908.957500", "174909.417500", "174909.877500", "174910.337500", "174910.797500", "174911.257500", "174911.717500", "174912.177500", "174912.637500", "174913.097500", "174913.557500", "174914.017500", "174914.477500", "174914.937500", "174915.397500", "174915.857500", "174916.317500", "174916.777500", "174917.237500", "174917.697500", "174918.157500", "174918.617500", "174919.077500", "174919.537500", "174919.997500", "174920.457500", "174920.917500", "174921.377500", "174921.837500", "174922.297500", "174922.757500", "174923.217500", "174923.677500", "174924.137500", "174924.597500", "174925.057500", "174925.517500", "174925.977500", "174926.437500", "174926.897500", "174927.357500", "174927.817500", "174928.277500", "174928.737500", "174929.197500", "174929.657500", "174930.117500", "174930.577500", "174931.037500", "174931.497500", "174931.957500", "174932.417500", "174932.877500", "174933.337500", "174933.797500", "174934.257500", "174934.717500", "174935.177500", "174935.637500", "174936.097500", "174936.557500", "174937.017500", "174937.477500", "174937.937500", "174938.397500", "174938.857500", "174939.317500", "174939.777500", "174940.237500", "174940.697500", "174941.157500", "174941.617500", "174942.077500", "174942.537500", "174942.997500", "174943.457500", "174943.917500", "174944.377500", "174944.837500", "174945.297500", "174945.757500", "174946.217500", "174946.677500", "174947.137500", "174947.597500", "174948.057500", "174948.517500", "174948.977500", "174949.437500", "174949.897500", "174950.357500", "174950.817500", "174951.277500", "174951.737500", "174952.197500", "174952.657500", "174953.117500", "174953.577500", "174954.037500", "174954.497500", "174954.957500", "174955.417500", "174955.877500", "174956.337500", "174956.797500", "174957.257500", "174957.717500", "174958.177500", "174958.637500", "174959.097500", "174959.557500", "175000.017500", "175000.477500", "175000.937500", "175001.397500", "175001.857500", "175002.317500", "175002.777500", "175003.237500", "175003.697500", "175004.157500", "175004.617500", "175005.077500", "175005.537500", "175005.997500", "175006.457500", "175006.917500", "175007.377500", "175007.837500", "175008.297500", "175008.757500", "175009.217500", "175009.677500", "175010.137500", "175010.597500", "175011.057500", "175011.517500", "175011.977500", "175012.437500", "175012.897500", "175013.357500", "175013.817500", "175014.277500", "175014.737500", "175015.197500", "175015.657500", "175016.117500", "175016.577500", "175017.037500", "175017.497500", "175017.957500", "175018.417500", "175018.877500", "175019.337500", "175019.797500", "175020.257500", "175020.717500", "175021.177500", "175021.637500", "175022.097500", "175022.557500", "175023.017500", "175023.477500", "175023.937500", "175024.397500", "175024.857500", "175025.317500", "175025.777500", "175026.237500", "175026.697500", "175027.157500", "175027.617500", "175028.077500", "175028.537500", "175028.997500", "175029.457500", "175029.917500", "175030.377500", "175030.837500", "175031.297500", "175031.757500", "175032.217500", "175032.677500", "175033.137500", "175033.597500", "175034.057500", "175034.517500", "175034.977500", "175035.437500", "175035.897500", "175036.357500", "175036.817500", "175037.277500", "175037.737500", "175038.197500", "175038.657500", "175039.117500", "175039.577500", "175040.037500", "175040.497500", "175040.957500", "175041.417500", "175041.877500", "175042.337500", "175042.797500", "175043.257500", "175043.717500", "175044.177500", "175044.637500", "175045.097500", "175045.557500", "175046.017500", "175046.477500", "175046.937500", "175047.397500", "175047.857500", "175048.317500", "175048.777500", "175049.237500", "175049.697500", "175050.157500", "175050.617500", "175051.077500", "175051.537500", "175051.997500", "175052.457500", "175052.917500", "175053.377500", "175053.837500", "175054.297500", "175054.757500", "175055.217500", "175055.677500", "175056.137500", "175056.597500", "175057.057500", "175057.517500", "175057.977500", "175058.437500", "175058.897500", "175059.357500", "175059.817500", "175100.277500", "175100.737500", "175101.197500", "175101.657500", "175102.117500", "175102.577500", "175103.037500", "175103.497500", "175103.957500", "175104.417500", "175104.877500", "175105.337500", "175105.797500", "175106.257500", "175106.717500", "175107.177500", "175107.637500", "175108.097500", "175108.557500", "175109.017500", "175109.477500", "175109.937500", "175110.397500", "175110.857500", "175111.317500", "175111.777500", "175112.237500", "175112.697500", "175113.157500", "175113.617500", "175114.077500", "175114.537500", "175114.997500", "175115.457500", "175115.917500", "175116.377500", "175116.837500", "175117.297500", "175117.757500", "175118.217500", "175118.677500", "175119.137500", "175119.597500", "175120.057500", "175120.517500", "175120.977500", "175121.437500", "175121.897500", "175122.357500", "175122.817500", "175123.277500", "175123.737500", "175124.197500", "175124.657500", "175125.117500", "175125.577500", "175126.037500", "175126.497500", "175126.957500", "175127.417500", "175127.877500", "175128.337500", "175128.797500", "175129.257500", "175129.717500", "175130.177500", "175130.637500", "175131.097500", "175131.557500", "175132.017500", "175132.477500", "175132.937500", "175133.397500", "175133.857500", "175134.317500", "175134.777500", "175135.237500", "175135.697500", "175136.157500", "175136.617500", "175137.077500", "175137.537500", "175137.997500", "175138.457500", "175138.917500", "175139.377500", "175139.837500", "175140.297500", "175140.757500", "175141.217500", "175141.677500", "175142.137500", "175142.597500", "175143.057500", "175143.517500", "175143.977500", "175144.437500", "175144.897500", "175145.357500", "175145.817500", "175146.277500", "175146.737500", "175147.197500", "175147.657500", "175148.117500", "175148.577500", "175149.037500", "175149.497500", "175149.957500", "175150.417500", "175150.877500", "175151.337500", "175151.797500", "175152.257500", "175152.717500", "175153.177500", "175153.637500", "175154.097500", "175154.557500", "175155.017500", "175155.477500", "175155.937500", "175156.397500", "175156.857500", "175157.317500", "175157.777500", "175158.237500", "175158.697500", "175159.157500", "175159.617500", "175200.077500", "175200.537500", "175200.997500", "175201.457500", "175201.917500", "175202.377500", "175202.837500", "175203.297500", "175203.757500", "175204.217500", "175204.677500", "175205.137500", "175205.597500", "175206.057500", "175206.517500", "175206.977500", "175207.437500", "175207.897500", "175208.357500", "175208.817500", "175209.277500", "175209.737500", "175210.197500", "175210.657500", "175211.117500", "175211.577500", "175212.037500", "175212.497500", "175212.957500", "175213.417500", "175213.877500", "175214.337500", "175214.797500", "175215.257500", "175215.717500", "175216.177500", "175216.637500", "175217.097500", "175217.557500", "175218.017500", "175218.477500", "175218.937500", "175219.397500", "175219.857500", "175220.317500", "175220.777500", "175221.237500", "175221.697500", "175222.157500", "175222.617500", "175223.077500", "175223.537500", "175223.997500", "175224.457500", "175224.917500", "175225.377500", "175225.837500", "175226.297500", "175226.757500", "175227.217500", "175227.677500", "175228.137500", "175228.597500", "175229.057500", "175229.517500", "175229.977500", "175230.437500", "175230.897500", "175231.357500", "175231.817500", "175232.277500", "175232.737500", "175233.197500", "175233.657500", "175234.117500", "175234.577500", "175235.037500", "175235.497500", "175235.957500", "175236.417500", "175236.877500", "175237.337500", "175237.797500", "175238.257500", "175238.717500", "175239.177500", "175239.637500", "175240.097500", "175240.557500", "175241.017500", "175241.477500", "175241.937500", "175242.397500", "175242.857500", "175243.317500", "175243.777500", "175244.237500", "175244.697500", "175245.157500", "175245.617500", "175246.077500", "175246.537500", "175246.997500", "175247.457500", "175247.917500", "175248.377500", "175248.837500", "175249.297500", "175249.757500", "175250.217500", "175250.677500", "175251.137500", "175251.597500", "175252.057500", "175252.517500", "175252.977500", "175253.437500", "175253.897500", "175254.357500", "175254.817500", "175255.277500", "175255.737500", "175256.197500", "175256.657500", "175257.117500", "175257.577500", "175258.037500", "175258.497500", "175258.957500", "175259.417500", "175259.877500", "175300.337500", "175300.797500", "175301.257500", "175301.717500", "175302.177500", "175302.637500", "175303.097500", "175303.557500", "175304.017500", "175304.477500", "175304.937500", "175305.397500", "175305.857500", "175306.317500", "175306.777500", "175307.237500", "175307.697500", "175308.157500", "175308.617500", "175309.077500", "175309.537500", "175309.997500", "175310.457500", "175310.917500", "175311.377500", "175311.837500", "175312.297500", "175312.757500", "175313.217500", "175313.677500", "175314.137500", "175314.597500", "175315.057500", "175315.517500", "175315.977500", "175316.437500", "175316.897500", "175317.357500", "175317.817500", "175318.277500", "175318.737500", "175319.197500", "175319.657500", "175320.117500", "175320.577500", "175321.037500", "175321.497500", "175321.957500", "175322.417500", "175322.877500", "175323.337500", "175323.797500", "175324.257500", "175324.717500", "175325.177500", "175325.637500", "175326.097500", "175326.557500", "175327.017500", "175327.477500", "175327.937500", "175328.397500", "175328.857500", "175329.317500", "175329.777500", "175330.237500", "175330.697500", "175331.157500", "175331.617500", "175332.077500", "175332.537500", "175332.997500", "175333.457500", "175333.917500", "175334.377500", "175334.837500", "175335.297500", "175335.757500", "175336.217500", "175336.677500", "175337.137500", "175337.597500", "175338.057500", "175338.517500", "175338.977500", "175339.437500", "175339.897500", "175340.357500", "175340.817500", "175341.277500", "175341.737500", "175342.197500", "175342.657500", "175343.117500", "175343.577500", "175344.037500", "175344.497500", "175344.957500", "175345.417500", "175345.877500", "175346.337500", "175346.797500", "175347.257500", "175347.717500", "175348.177500", "175348.637500", "175349.097500", "175349.557500", "175350.017500", "175350.477500", "175350.937500", "175351.397500", "175351.857500", "175352.317500", "175352.777500", "175353.237500", "175353.697500", "175354.157500", "175354.617500", "175355.077500", "175355.537500", "175355.997500", "175356.457500", "175356.917500", "175357.377500", "175357.837500", "175358.297500", "175358.757500", "175359.217500", "175359.677500", "175400.137500", "175400.597500", "175401.057500", "175401.517500", "175401.977500", "175402.437500", "175402.897500", "175403.357500", "175403.817500", "175404.277500", "175404.737500", "175405.197500", "175405.657500", "175406.117500", "175406.577500", "175407.037500", "175407.497500", "175407.957500", "175408.417500", "175408.877500", "175409.337500", "175409.797500", "175410.257500", "175410.717500", "175411.177500", "175411.637500", "175412.097500", "175412.557500", "175413.017500", "175413.477500", "175413.937500", "175414.397500", "175414.857500", "175415.317500", "175415.777500", "175416.237500", "175416.697500", "175417.157500", "175417.617500", "175418.077500", "175418.537500", "175418.997500", "175419.457500", "175419.917500", "175420.377500", "175420.837500", "175421.297500", "175421.757500", "175422.217500", "175422.677500", "175423.137500", "175423.597500", "175424.057500", "175424.517500", "175424.977500", "175425.437500", "175425.897500", "175426.357500", "175426.817500", "175427.277500", "175427.737500", "175428.197500", "175428.657500", "175429.117500", "175429.577500", "175430.037500", "175430.497500", "175430.957500", "175431.417500", "175431.877500", "175432.337500", "175432.797500", "175433.257500", "175433.717500", "175434.177500", "175434.637500", "175435.097500", "175435.557500", "175436.017500", "175436.477500", "175436.937500", "175437.397500", "175437.857500", "175438.317500", "175438.777500", "175439.237500"],
