{
  "AcquisitionMatrixPE": 82,
  "AcquisitionNumber": 1,
  "AcquisitionTime": "17:13:2.500000",
  "BandwidthPerPixelPhaseEncode": 24.888,
  "BaseResolution": 82,
  "BodyPartExamined": "BRAIN",
  "ConsistencyInfo": "N4_VE11E_LATEST_20181129",
  "ConversionSoftware": "dcm2niix",
  "ConversionSoftwareVersion": "v1.0.20201102",
  "DerivedVendorReportedEchoSpacing": 0.00049,
  "DeviceSerialNumber": "66112",
  "DwellTime": 2e-06,
  "EchoTime": 0.0272,
  "EchoTrainLength": 82,
  "EffectiveEchoSpacing": 0.00049,
  "FlipAngle": 44,
  "ImageComments": "Unaliased MB8/PE3",
  "ImageOrientationPatientDICOM": [0.998967, 0.0236772, 0.0387982, -0.0299977, 0.984741, 0.171419],
  "ImageType": [
    "ORIGINAL",
    "PRIMARY",
    "M",
    "MB",
    "ND",
    "NORM",
    "MOSAIC"
],
  "ImagingFrequency": 123.252,
  "InPlanePhaseEncodingDirectionDICOM": "COL",
  "InstitutionAddress": "Maynard 3,Hanover,NH,US,03755",
  "InstitutionName": "Dartmouth College - PBS",
  "InstitutionalDepartmentName": "Department",
  "MRAcquisitionType": "2D",
  "MagneticFieldStrength": 3,
  "Manufacturer": "Siemens",
  "ManufacturersModelName": "Prisma",
  "Modality": "MR",
  "MultibandAccelerationFactor": 8,
  "PartialFourier": 1,
  "PatientPosition": "HFS",
  "PercentPhaseFOV": 100,
  "PercentSampling": 100,
  "PhaseEncodingDirection": "j-",
  "PhaseEncodingSteps": 82,
  "PhaseResolution": 1,
  "PixelBandwidth": 3050,
  "ProcedureStepDescription": "Wager_Wager^1076_spacetop",
  "ProtocolName": "func_run-04_task-social_acq-ap-mb8",
  "PulseSequenceDetails": "%CustomerSeq%\\cmrr_mbep2d_bold",
  "ReceiveCoilActiveElements": "HEA;HEP",
  "ReceiveCoilName": "Head_32",
  "ReconMatrixPE": 82,
  "RepetitionTime": 0.46,
  "SAR": 0.0852325,
  "ScanOptions": "FS",
  "ScanningSequence": "EP",
  "SequenceName": "epfid2d1_82",
  "SequenceVariant": "SK\\SS",
  "SeriesDescription": "func_run-04_task-social_acq-ap-mb8",
  "SeriesNumber": 18,
  "ShimSetting": [4154, -7777, -7255, 554, -30, -174, 3, 107],
  "SliceThickness": 2.7,
  "SliceTiming": [0, 0.2525, 0.0625, 0.315, 0.125, 0.3775, 0.1875, 0, 0.2525, 0.0625, 0.315, 0.125, 0.3775, 0.1875, 0, 0.2525, 0.0625, 0.315, 0.125, 0.3775, 0.1875, 0, 0.2525, 0.0625, 0.315, 0.125, 0.3775, 0.1875, 0, 0.2525, 0.0625, 0.315, 0.125, 0.3775, 0.1875, 0, 0.2525, 0.0625, 0.315, 0.125, 0.3775, 0.1875, 0, 0.2525, 0.0625, 0.315, 0.125, 0.3775, 0.1875, 0, 0.2525, 0.0625, 0.315, 0.125, 0.3775, 0.1875],
  "SoftwareVersions": "syngo MR E11",
  "SpacingBetweenSlices": 2.7,
  "StationName": "AWP66112",
  "TaskName": "social",
  "TotalReadoutTime": 0.03969,
  "TxRefAmp": 235.231,
  "WipMemBlock": "9c9d805c-5e97-4ebf-bf37-cbcc2e1f0f04||Sequence: R016 ve11e/master r/434b28f1; Aug  7 2019 18:53:46 by eja",
  "dcmmeta_affine": [
    [-2.6801540851593018, -0.0804816484451294, 0.09219814836978912, 112.24178314208984],
    [-0.0635242909193039, 2.641989231109619, 0.46549537777900696, -95.00112915039062],
    [0.10409272462129593, -0.45990464091300964, 2.6579718589782715, -50.743526458740234],
    [0.0, 0.0, 0.0, 1.0]
],
  "dcmmeta_reorient_transform": [
    [0.0, -1.0, 0.0, 81.0],
    [1.0, 0.0, 0.0, 0.0],
    [0.0, 0.0, 1.0, 0.0],
    [0.0, 0.0, 0.0, 1.0]
],
  "dcmmeta_shape": [82, 82, 56, 872],
  "dcmmeta_slice_dim": 2,
  "dcmmeta_version": 0.6,
  "global": {
    "const": {
      "AccessionNumber": "A003997",
      "AcquisitionMatrix": [82, 0, 0, 82],
      "AngioFlag": "N",
      "BitsAllocated": 16,
      "BitsStored": 16,
      "BodyPartExamined": "BRAIN",
      "Columns": 656,
      "EchoNumbers": 1,
      "EchoTime": 27.2,
      "EchoTrainLength": 82,
      "FlipAngle": 44.0,
      "HighBit": 15,
      "ImageOrientationPatient": [0.99896651022158, 0.02367723493589, 0.03879819585389, -0.0299977042033, 0.9847414199777, 0.17141899988865],
      "ImagePositionPatient": [-851.82876814648, -895.48238443424, -249.86304675918],
      "ImageType": [
        "ORIGINAL",
        "PRIMARY",
        "M",
        "MB",
        "ND",
        "NORM",
        "MOSAIC"
],
      "ImagedNucleus": "1H",
      "ImagingFrequency": 123.252216,
      "InPlanePhaseEncodingDirection": "COL",
      "MRAcquisitionType": "2D",
      "MagneticFieldStrength": 3.0,
      "Manufacturer": "SIEMENS",
      "ManufacturerModelName": "Prisma",
      "Modality": "MR",
      "NumberOfAverages": 1.0,
      "NumberOfPhaseEncodingSteps": 82,
      "PercentPhaseFieldOfView": 100.0,
      "PercentSampling": 100.0,
      "PerformedProcedureStepStartTime": "162258.229000",
      "PhotometricInterpretation": "MONOCHROME2",
      "PixelBandwidth": 3050.0,
      "PixelRepresentation": 0,
      "PixelSpacing": [2.6829268932343, 2.6829268932343],
      "ProtocolName": "func_run-04_task-social_acq-ap-mb8",
      "RepetitionTime": 460.0,
      "Rows": 656,
      "SAR": 0.08523250991688,
      "SamplesPerPixel": 1,
      "ScanOptions": "FS",
      "ScanningSequence": "EP",
      "SequenceName": "epfid2d1_82",
      "SequenceVariant": [
        "SK",
        "SS"
],
      "SeriesDescription": "func_run-04_task-social_acq-ap-mb8",
      "SeriesNumber": 18,
      "SeriesTime": "171329.634000",
      "SliceLocation": -62.49961368587,
      "SliceThickness": 2.7000000476837,
      "SmallestImagePixelValue": 0,
      "SoftwareVersions": "syngo MR E11",
      "SpacingBetweenSlices": 2.7000000482771,
      "SpecificCharacterSet": "ISO_IR 100",
      "StudyID": "1",
      "StudyTime": "162258.152000",
      "TransmitCoilName": "Body",
      "VariableFlipAngleFlag": "N",
      "WindowCenterWidthExplanation": "Algo1"
    },
    "slices": {}
  },
  "time": {
    "samples": {
      "AcquisitionNumber": [1, 2, 3, 4, 5, 6, 7, 8, 9, 10, 11, 12, 13, 14, 15, 16, 17, 18, 19, 20, 21, 22, 23, 24, 25, 26, 27, 28, 29, 30, 31, 32, 33, 34, 35, 36, 37, 38, 39, 40, 41, 42, 43, 44, 45, 46, 47, 48, 49, 50, 51, 52, 53, 54, 55, 56, 57, 58, 59, 60, 61, 62, 63, 64, 65, 66, 67, 68, 69, 70, 71, 72, 73, 74, 75, 76, 77, 78, 79, 80, 81, 82, 83, 84, 85, 86, 87, 88, 89, 90, 91, 92, 93, 94, 95, 96, 97, 98, 99, 100, 101, 102, 103, 104, 105, 106, 107, 108, 109, 110, 111, 112, 113, 114, 115, 116, 117, 118, 119, 120, 121, 122, 123, 124, 125, 126, 127, 128, 129, 130, 131, 132, 133, 134, 135, 136, 137, 138, 139, 140, 141, 142, 143, 144, 145, 146, 147, 148, 149, 150, 151, 152, 153, 154, 155, 156, 157, 158, 159, 160, 161, 162, 163, 164, 165, 166, 167, 168, 169, 170, 171, 172, 173, 174, 175, 176, 177, 178, 179, 180, 181, 182, 183, 184, 185, 186, 187, 188, 189, 190, 191, 192, 193, 194, 195, 196, 197, 198, 199, 200, 201, 202, 203, 204, 205, 206, 207, 208, 209, 210, 211, 212, 213, 214, 215, 216, 217, 218, 219, 220, 221, 222, 223, 224, 225, 226, 227, 228, 229, 230, 231, 232, 233, 234, 235, 236, 237, 238, 239, 240, 241, 242, 243, 244, 245, 246, 247, 248, 249, 250, 251, 252, 253, 254, 255, 256, 257, 258, 259, 260, 261, 262, 263, 264, 265, 266, 267, 268, 269, 270, 271, 272, 273, 274, 275, 276, 277, 278, 279, 280, 281, 282, 283, 284, 285, 286, 287, 288, 289, 290, 291, 292, 293, 294, 295, 296, 297, 298, 299, 300, 301, 302, 303, 304, 305, 306, 307, 308, 309, 310, 311, 312, 313, 314, 315, 316, 317, 318, 319, 320, 321, 322, 323, 324, 325, 326, 327, 328, 329, 330, 331, 332, 333, 334, 335, 336, 337, 338, 339, 340, 341, 342, 343, 344, 345, 346, 347, 348, 349, 350, 351, 352, 353, 354, 355, 356, 357, 358, 359, 360, 361, 362, 363, 364, 365, 366, 367, 368, 369, 370, 371, 372, 373, 374, 375, 376, 377, 378, 379, 380, 381, 382, 383, 384, 385, 386, 387, 388, 389, 390, 391, 392, 393, 394, 395, 396, 397, 398, 399, 400, 401, 402, 403, 404, 405, 406, 407, 408, 409, 410, 411, 412, 413, 414, 415, 416, 417, 418, 419, 420, 421, 422, 423, 424, 425, 426, 427, 428, 429, 430, 431, 432, 433, 434, 435, 436, 437, 438, 439, 440, 441, 442, 443, 444, 445, 446, 447, 448, 449, 450, 451, 452, 453, 454, 455, 456, 457, 458, 459, 460, 461, 462, 463, 464, 465, 466, 467, 468, 469, 470, 471, 472, 473, 474, 475, 476, 477, 478, 479, 480, 481, 482, 483, 484, 485, 486, 487, 488, 489, 490, 491, 492, 493, 494, 495, 496, 497, 498, 499, 500, 501, 502, 503, 504, 505, 506, 507, 508, 509, 510, 511, 512, 513, 514, 515, 516, 517, 518, 519, 520, 521, 522, 523, 524, 525, 526, 527, 528, 529, 530, 531, 532, 533, 534, 535, 536, 537, 538, 539, 540, 541, 542, 543, 544, 545, 546, 547, 548, 549, 550, 551, 552, 553, 554, 555, 556, 557, 558, 559, 560, 561, 562, 563, 564, 565, 566, 567, 568, 569, 570, 571, 572, 573, 574, 575, 576, 577, 578, 579, 580, 581, 582, 583, 584, 585, 586, 587, 588, 589, 590, 591, 592, 593, 594, 595, 596, 597, 598, 599, 600, 601, 602, 603, 604, 605, 606, 607, 608, 609, 610, 611, 612, 613, 614, 615, 616, 617, 618, 619, 620, 621, 622, 623, 624, 625, 626, 627, 628, 629, 630, 631, 632, 633, 634, 635, 636, 637, 638, 639, 640, 641, 642, 643, 644, 645, 646, 647, 648, 649, 650, 651, 652, 653, 654, 655, 656, 657, 658, 659, 660, 661, 662, 663, 664, 665, 666, 667, 668, 669, 670, 671, 672, 673, 674, 675, 676, 677, 678, 679, 680, 681, 682, 683, 684, 685, 686, 687, 688, 689, 690, 691, 692, 693, 694, 695, 696, 697, 698, 699, 700, 701, 702, 703, 704, 705, 706, 707, 708, 709, 710, 711, 712, 713, 714, 715, 716, 717, 718, 719, 720, 721, 722, 723, 724, 725, 726, 727, 728, 729, 730, 731, 732, 733, 734, 735, 736, 737, 738, 739, 740, 741, 742, 743, 744, 745, 746, 747, 748, 749, 750, 751, 752, 753, 754, 755, 756, 757, 758, 759, 760, 761, 762, 763, 764, 765, 766, 767, 768, 769, 770, 771, 772, 773, 774, 775, 776, 777, 778, 779, 780, 781, 782, 783, 784, 785, 786, 787, 788, 789, 790, 791, 792, 793, 794, 795, 796, 797, 798, 799, 800, 801, 802, 803, 804, 805, 806, 807, 808, 809, 810, 811, 812, 813, 814, 815, 816, 817, 818, 819, 820, 821, 822, 823, 824, 825, 826, 827, 828, 829, 830, 831, 832, 833, 834, 835, 836, 837, 838, 839, 840, 841, 842, 843, 844, 845, 846, 847, 848, 849, 850, 851, 852, 853, 854, 855, 856, 857, 858, 859, 860, 861, 862, 863, 864, 865, 866, 867, 868, 869, 870, 871, 872],
      "AcquisitionTime": ["171302.500000", "171302.960000", "171303.420000", "171303.880000", "171304.340000", "171304.800000", "171305.260000", "171305.720000", "171306.180000", "171306.640000", "171307.100000", "171307.560000", "171308.020000", "171308.480000", "171308.940000", "171309.400000", "171309.860000", "171310.320000", "171310.780000", "171311.240000", "171311.700000", "171312.160000", "171312.620000", "171313.080000", "171313.540000", "171314.000000", "171314.460000", "171314.920000", "171315.380000", "171315.840000", "171316.300000", "171316.760000", "171317.220000", "171317.680000", "171318.140000", "171318.600000", "171319.060000", "171319.520000", "171319.980000", "171320.440000", "171320.900000", "171321.360000", "171321.820000", "171322.280000", "171322.740000", "171323.200000", "171323.660000", "171324.120000", "171324.580000", "171325.040000", "171325.500000", "171325.960000", "171326.420000", "171326.880000", "171327.340000", "171327.800000", "171328.260000", "171328.720000", "171329.180000", "171329.640000", "171330.100000", "171330.560000", "171331.020000", "171331.480000", "171331.940000", "171332.400000", "171332.860000", "171333.320000", "171333.780000", "171334.240000", "171334.700000", "171335.160000", "171335.620000", "171336.080000", "171336.540000", "171337.000000", "171337.460000", "171337.920000", "171338.380000", "171338.840000", "171339.300000", "171339.760000", "171340.220000", "171340.680000", "171341.140000", "171341.600000", "171342.060000", "171342.520000", "171342.980000", "171343.440000", "171343.900000", "171344.360000", "171344.820000", "171345.280000", "171345.740000", "171346.200000", "171346.660000", "171347.120000", "171347.580000", "171348.040000", "171348.500000", "171348.960000", "171349.420000", "171349.880000", "171350.340000", "171350.800000", "171351.260000", "171351.720000", "171352.180000", "171352.640000", "171353.100000", "171353.560000", "171354.020000", "171354.480000", "171354.940000", "171355.400000", "171355.860000", "171356.320000", "171356.780000", "171357.240000", "171357.700000", "171358.160000", "171358.620000", "171359.080000", "171359.540000", "171400.000000", "171400.460000", "171400.920000", "171401.380000", "171401.840000", "171402.300000", "171402.760000", "171403.220000", "171403.680000", "171404.140000", "171404.600000", "171405.060000", "171405.520000", "171405.980000", "171406.440000", "171406.900000", "171407.360000", "171407.820000", "171408.280000", "171408.740000", "171409.200000", "171409.660000", "171410.120000", "171410.580000", "171411.040000", "171411.500000", "171411.960000", "171412.420000", "171412.880000", "171413.340000", "171413.800000", "171414.260000", "171414.720000", "171415.180000", "171415.640000", "171416.100000", "171416.560000", "171417.020000", "171417.480000", "171417.940000", "171418.400000", "171418.860000", "171419.320000", "171419.780000", "171420.240000", "171420.700000", "171421.160000", "171421.620000", "171422.080000", "171422.540000", "171423.000000", "171423.460000", "171423.920000", "171424.380000", "171424.840000", "171425.300000", "171425.760000", "171426.220000", "171426.680000", "171427.140000", "171427.600000", "171428.060000", "171428.520000", "171428.980000", "171429.440000", "171429.900000", "171430.360000", "171430.820000", "171431.280000", "171431.740000", "171432.200000", "171432.660000", "171433.120000", "171433.580000", "171434.040000", "171434.500000", "171434.960000", "171435.420000", "171435.880000", "171436.340000", "171436.800000", "171437.260000", "171437.720000", "171438.180000", "171438.640000", "171439.100000", "171439.560000", "171440.020000", "171440.480000", "171440.940000", "171441.400000", "171441.860000", "171442.320000", "171442.780000", "171443.240000", "171443.700000", "171444.160000", "171444.620000", "171445.080000", "171445.540000", "171446.000000", "171446.460000", "171446.920000", "171447.380000", "171447.840000", "171448.300000", "171448.760000", "171449.220000", "171449.680000", "171450.140000", "171450.600000", "171451.060000", "171451.520000", "171451.980000", "171452.440000", "171452.900000", "171453.360000", "171453.820000", "171454.280000", "171454.740000", "171455.200000", "171455.660000", "171456.120000", "171456.580000", "171457.040000", "171457.500000", "171457.960000", "171458.420000", "171458.880000", "171459.340000", "171459.800000", "171500.260000", "171500.720000", "171501.180000", "171501.640000", "171502.100000", "171502.560000", "171503.020000", "171503.480000", "171503.940000", "171504.400000", "171504.860000", "171505.320000", "171505.780000", "171506.240000", "171506.700000", "171507.160000", "171507.620000", "171508.080000", "171508.540000", "171509.000000", "171509.460000", "171509.920000", "171510.380000", "171510.840000", "171511.300000", "171511.760000", "171512.220000", "171512.680000", "171513.140000", "171513.600000", "171514.060000", "171514.520000", "171514.980000", "171515.440000", "171515.900000", "171516.360000", "171516.820000", "171517.280000", "171517.740000", "171518.200000", "171518.660000", "171519.120000", "171519.580000", "171520.040000", "171520.500000", "171520.960000", "171521.420000", "171521.880000", "171522.340000", "171522.800000", "171523.260000", "171523.720000", "171524.180000", "171524.640000", "171525.100000", "171525.560000", "171526.020000", "171526.480000", "171526.940000", "171527.400000", "171527.860000", "171528.320000", "171528.780000", "171529.240000", "171529.700000", "171530.160000", "171530.620000", "171531.080000", "171531.540000", "171532.000000", "171532.460000", "171532.920000", "171533.380000", "171533.840000", "171534.300000", "171534.760000", "171535.220000", "171535.680000", "171536.140000", "171536.600000", "171537.060000", "171537.520000", "171537.980000", "171538.440000", "171538.900000", "171539.360000", "171539.820000", "171540.280000", "171540.740000", "171541.200000", "171541.660000", "171542.120000", "171542.580000", "171543.040000", "171543.500000", "171543.960000", "171544.420000", "171544.880000", "171545.340000", "171545.800000", "171546.260000", "171546.720000", "171547.180000", "171547.640000", "171548.100000", "171548.560000", "171549.020000", "171549.480000", "171549.940000", "171550.400000", "171550.860000", "171551.320000", "171551.780000", "171552.240000", "171552.700000", "171553.160000", "171553.620000", "171554.080000", "171554.540000", "171555.000000", "171555.460000", "171555.920000", "171556.380000", "171556.840000", "171557.300000", "171557.760000", "171558.220000", "171558.680000", "171559.140000", "171559.600000", "171600.060000", "171600.520000", "171600.980000", "171601.440000", "171601.900000", "171602.360000", "171602.820000", "171603.280000", "171603.740000", "171604.200000", "171604.660000", "171605.120000", "171605.580000", "171606.040000", "171606.500000", "171606.960000", "171607.420000", "171607.880000", "171608.340000", "171608.800000", "171609.260000", "171609.720000", "171610.180000", "171610.640000", "171611.100000", "171611.560000", "171612.020000", "171612.480000", "171612.940000", "171613.400000", "171613.860000", "171614.320000", "171614.780000", "171615.240000", "171615.700000", "171616.160000", "171616.620000", "171617.080000", "171617.540000", "171618.000000", "171618.460000", "171618.920000", "171619.380000", "171619.840000", "171620.300000", "171620.760000", "171621.220000", "171621.680000", "171622.140000", "171622.600000", "171623.060000", "171623.520000", "171623.980000", "171624.440000", "171624.900000", "171625.360000", "171625.820000", "171626.280000", "171626.740000", "171627.200000", "171627.660000", "171628.120000", "171628.580000", "171629.040000", "171629.500000", "171629.960000", "171630.420000", "171630.880000", "171631.340000", "171631.800000", "171632.260000", "171632.720000", "171633.180000", "171633.640000", "171634.100000", "171634.560000", "171635.020000", "171635.480000", "171635.940000", "171636.400000", "171636.860000", "171637.320000", "171637.780000", "171638.240000", "171638.700000", "171639.160000", "171639.620000", "171640.080000", "171640.540000", "171641.000000", "171641.460000", "171641.920000", "171642.380000", "171642.840000", "171643.300000", "171643.760000", "171644.220000", "171644.680000", "171645.140000", "171645.600000", "171646.060000", "171646.520000", "171646.980000", "171647.440000", "171647.900000", "171648.360000", "171648.820000", "171649.280000", "171649.740000", "171650.200000", "171650.660000", "171651.120000", "171651.580000", "171652.040000", "171652.500000", "171652.960000", "171653.420000", "171653.880000", "171654.340000", "171654.800000", "171655.260000", "171655.720000", "171656.180000", "171656.640000", "171657.100000", "171657.560000", "171658.020000", "171658.480000", "171658.940000", "171659.400000", "171659.860000", "171700.320000", "171700.780000", "171701.240000", "171701.700000", "171702.160000", "171702.620000", "171703.080000", "171703.540000", "171704.000000", "171704.460000", "171704.920000", "171705.380000", "171705.840000", "171706.300000", "171706.760000", "171707.220000", "171707.680000", "171708.140000", "171708.600000", "171709.060000", "171709.520000", "171709.980000", "171710.440000", "171710.900000", "171711.360000", "171711.820000", "171712.280000", "171712.740000", "171713.200000", "171713.660000", "171714.120000", "171714.580000", "171715.040000", "171715.500000", "171715.960000", "171716.420000", "171716.880000", "171717.340000", "171717.800000", "171718.260000", "171718.720000", "171719.180000", "171719.640000", "171720.100000", "171720.560000", "171721.020000", "171721.480000", "171721.940000", "171722.400000", "171722.860000", "171723.320000", "171723.780000", "171724.240000", "171724.700000", "171725.160000", "171725.620000", "171726.080000", "171726.540000", "171727.000000", "171727.460000", "171727.920000", "171728.380000", "171728.840000", "171729.300000", "171729.760000", "171730.220000", "171730.680000", "171731.140000", "171731.600000", "171732.060000", "171732.520000", "171732.980000", "171733.440000", "171733.900000", "171734.360000", "171734.820000", "171735.280000", "171735.740000", "171736.200000", "171736.660000", "171737.120000", "171737.580000", "171738.040000", "171738.500000", "171738.960000", "171739.420000", "171739.880000", "171740.340000", "171740.800000", "171741.260000", "171741.720000", "171742.180000", "171742.640000", "171743.100000", "171743.560000", "171744.020000", "171744.480000", "171744.940000", "171745.400000", "171745.860000", "171746.320000", "171746.780000", "171747.240000", "171747.700000", "171748.160000", "171748.620000", "171749.080000", "171749.540000", "171750.000000", "171750.460000", "171750.920000", "171751.380000", "171751.840000", "171752.300000", "171752.760000", "171753.220000", "171753.680000", "171754.140000", "171754.600000", "171755.060000", "171755.520000", "171755.980000", "171756.440000", "171756.900000", "171757.360000", "171757.820000", "171758.280000", "171758.740000", "171759.200000", "171759.660000", "171800.120000", "171800.580000", "171801.040000", "171801.500000", "171801.960000", "171802.420000", "171802.880000", "171803.340000", "171803.800000", "171804.260000", "171804.720000", "171805.180000", "171805.640000", "171806.100000", "171806.560000", "171807.020000", "171807.480000", "171807.940000", "171808.400000", "171808.860000", "171809.320000", "171809.780000", "171810.240000", "171810.700000", "171811.160000", "171811.620000", "171812.080000", "171812.540000", "171813.000000", "171813.460000", "171813.920000", "171814.380000", "171814.840000", "171815.300000", "171815.760000", "171816.220000", "171816.680000", "171817.140000", "171817.600000", "171818.060000", "171818.520000", "171818.980000", "171819.440000", "171819.900000", "171820.360000", "171820.820000", "171821.280000", "171821.740000", "171822.200000", "171822.660000", "171823.120000", "171823.580000", "171824.040000", "171824.500000", "171824.960000", "171825.420000", "171825.880000", "171826.340000", "171826.800000", "171827.260000", "171827.720000", "171828.180000", "171828.640000", "171829.100000", "171829.560000", "171830.020000", "171830.480000", "171830.940000", "171831.400000", "171831.860000", "171832.320000", "171832.780000", "171833.240000", "171833.700000", "171834.160000", "171834.620000", "171835.080000", "171835.540000", "171836.000000", "171836.460000", "171836.920000", "171837.380000", "171837.840000", "171838.300000", "171838.760000", "171839.220000", "171839.680000", "171840.140000", "171840.600000", "171841.060000", "171841.520000", "171841.980000", "171842.440000", "171842.900000", "171843.360000", "171843.820000", "171844.280000", "171844.740000", "171845.200000", "171845.660000", "171846.120000", "171846.580000", "171847.040000", "171847.500000", "171847.960000", "171848.420000", "171848.880000", "171849.340000", "171849.800000", "171850.260000", "171850.720000", "171851.180000", "171851.640000", "171852.100000", "171852.560000", "171853.020000", "171853.480000", "171853.940000", "171854.400000", "171854.860000", "171855.320000", "171855.780000", "171856.240000", "171856.700000", "171857.160000", "171857.620000", "171858.080000", "171858.540000", "171859.000000", "171859.460000", "171859.920000", "171900.380000", "171900.840000", "171901.300000", "171901.760000", "171902.220000", "171902.680000", "171903.140000", "171903.600000", "171904.060000", "171904.520000", "171904.980000", "171905.440000", "171905.900000", "171906.360000", "171906.820000", "171907.280000", "171907.740000", "171908.200000", "171908.660000", "171909.120000", "171909.580000", "171910.040000", "171910.500000", "171910.960000", "171911.420000", "171911.880000", "171912.340000", "171912.800000", "171913.260000", "171913.720000", "171914.180000", "171914.640000", "171915.100000", "171915.560000", "171916.020000", "171916.480000", "171916.940000", "171917.400000", "171917.860000", "171918.320000", "171918.780000", "171919.240000", "171919.700000", "171920.160000", "171920.620000", "171921.080000", "171921.540000", "171922.000000", "171922.460000", "171922.920000", "171923.380000", "171923.840000", "171924.300000", "171924.760000", "171925.220000", "171925.680000", "171926.140000", "171926.600000", "171927.060000", "171927.520000", "171927.980000", "171928.440000", "171928.900000", "171929.360000", "171929.820000", "171930.280000", "171930.740000", "171931.200000", "171931.660000", "171932.120000", "171932.580000", "171933.040000", "171933.500000", "171933.960000", "171934.420000", "171934.880000", "171935.340000", "171935.800000", "171936.260000", "171936.720000", "171937.180000", "171937.640000", "171938.100000", "171938.560000", "171939.020000", "171939.480000", "171939.940000", "171940.400000", "171940.860000", "171941.320000", "171941.780000", "171942.240000", "171942.700000", "171943.160000"],
