{
  "AcquisitionMatrixPE": 82,
  "AcquisitionNumber": 1,
  "AcquisitionTime": "18:40:56.235000",
  "BandwidthPerPixelPhaseEncode": 24.888,
  "BaseResolution": 82,
  "BodyPartExamined": "BRAIN",
  "ConsistencyInfo": "N4_VE11E_LATEST_20181129",
  "ConversionSoftware": "dcm2niix",
  "ConversionSoftwareVersion": "v1.0.20201102",
  "DerivedVendorReportedEchoSpacing": 0.00049,
  "DeviceSerialNumber": "66112",
  "DwellTime": 2e-06,
  "EchoTime": 0.0272,
  "EchoTrainLength": 82,
  "EffectiveEchoSpacing": 0.00049,
  "FlipAngle": 44,
  "ImageComments": "Unaliased MB8/PE3",
  "ImageOrientationPatientDICOM": [0.99892, -0.0342017, 0.0314562, 0.0280768, 0.983648, 0.177898],
  "ImageType": [
    "ORIGINAL",
    "PRIMARY",
    "M",
    "MB",
    "ND",
    "NORM",
    "MOSAIC"
],
  "ImagingFrequency": 123.259,
  "InPlanePhaseEncodingDirectionDICOM": "COL",
  "InstitutionAddress": "Maynard 3,Hanover,NH,US,03755",
  "InstitutionName": "Dartmouth College - PBS",
  "InstitutionalDepartmentName": "Department",
  "MRAcquisitionType": "2D",
  "MagneticFieldStrength": 3,
  "Manufacturer": "Siemens",
  "ManufacturersModelName": "Prisma",
  "Modality": "MR",
  "MultibandAccelerationFactor": 8,
  "PartialFourier": 1,
  "PatientPosition": "HFS",
  "PercentPhaseFOV": 100,
  "PercentSampling": 100,
  "PhaseEncodingDirection": "j-",
  "PhaseEncodingSteps": 82,
  "PhaseResolution": 1,
  "PixelBandwidth": 3050,
  "ProcedureStepDescription": "Wager_Wager^1076_spacetop",
  "ProtocolName": "func_run-03_task-alignvideo_acq-ap-mb8",
  "PulseSequenceDetails": "%CustomerSeq%\\cmrr_mbep2d_bold",
  "ReceiveCoilActiveElements": "HEA;HEP",
  "ReceiveCoilName": "Head_32",
  "ReconMatrixPE": 82,
  "RepetitionTime": 0.46,
  "SAR": 0.114978,
  "ScanOptions": "FS",
  "ScanningSequence": "EP",
  "SequenceName": "epfid2d1_82",
  "SequenceVariant": "SK\\SS",
  "SeriesDescription": "func_run-03_task-alignvideo_acq-ap-mb8",
  "SeriesNumber": 32,
  "ShimSetting": [4223, -7816, -7217, 28, -84, -165, -33, 87],
  "SliceThickness": 2.7,
  "SliceTiming": [0, 0.25, 0.0625, 0.3125, 0.125, 0.3775, 0.1875, 0, 0.25, 0.0625, 0.3125, 0.125, 0.3775, 0.1875, 0, 0.25, 0.0625, 0.3125, 0.125, 0.3775, 0.1875, 0, 0.25, 0.0625, 0.3125, 0.125, 0.3775, 0.1875, 0, 0.25, 0.0625, 0.3125, 0.125, 0.3775, 0.1875, 0, 0.25, 0.0625, 0.3125, 0.125, 0.3775, 0.1875, 0, 0.25, 0.0625, 0.3125, 0.125, 0.3775, 0.1875, 0, 0.25, 0.0625, 0.3125, 0.125, 0.3775, 0.1875],
  "SoftwareVersions": "syngo MR E11",
  "SpacingBetweenSlices": 2.7,
  "StationName": "AWP66112",
  "TaskName": "alignvideo",
  "TotalReadoutTime": 0.03969,
  "TxRefAmp": 299.463,
  "WipMemBlock": "d4bc71ba-ea07-4e49-9db0-67caf62def76||Sequence: R016 ve11e/master r/434b28f1; Aug  7 2019 18:53:46 by eja",
  "dcmmeta_affine": [
    [-2.6800286769866943, 0.07532810419797897, 0.09997086226940155, 110.51510620117188],
    [0.0917607918381691, 2.63905668258667, 0.4774203896522522, -96.90037536621094],
    [0.0843946635723114, -0.47728657722473145, 2.6555745601654053, -55.142032623291016],
    [0.0, 0.0, 0.0, 1.0]
],
  "dcmmeta_reorient_transform": [
    [0.0, -1.0, 0.0, 81.0],
    [1.0, 0.0, 0.0, 0.0],
    [0.0, 0.0, 1.0, 0.0],
    [0.0, 0.0, 0.0, 1.0]
],
  "dcmmeta_shape": [82, 82, 56, 1065],
  "dcmmeta_slice_dim": 2,
  "dcmmeta_version": 0.6,
  "global": {
    "const": {
      "AccessionNumber": "A004849",
      "AcquisitionMatrix": [82, 0, 0, 82],
      "AngioFlag": "N",
      "BitsAllocated": 16,
      "BitsStored": 16,
      "BodyPartExamined": "BRAIN",
      "Columns": 656,
      "EchoNumbers": 1,
      "EchoTime": 27.2,
      "EchoTrainLength": 82,
      "FlipAngle": 44.0,
      "HighBit": 15,
      "ImageOrientationPatient": [0.99891979074971, -0.0342017491177, 0.03145619185216, 0.02807683845958, 0.98364835830529, 0.17789771877518],
      "ImagePositionPatient": [-907.40410873157, -847.93711971496, -255.00476117416],
      "ImageType": [
        "ORIGINAL",
        "PRIMARY",
        "M",
        "MB",
        "ND",
        "NORM",
        "MOSAIC"
],
      "ImagedNucleus": "1H",
      "ImagingFrequency": 123.259011,
      "InPlanePhaseEncodingDirection": "COL",
      "MRAcquisitionType": "2D",
      "MagneticFieldStrength": 3.0,
      "Manufacturer": "SIEMENS",
      "ManufacturerModelName": "Prisma",
      "Modality": "MR",
      "NumberOfAverages": 1.0,
      "NumberOfPhaseEncodingSteps": 82,
      "PercentPhaseFieldOfView": 100.0,
      "PercentSampling": 100.0,
      "PerformedProcedureStepStartTime": "170359.055000",
      "PhotometricInterpretation": "MONOCHROME2",
      "PixelBandwidth": 3050.0,
      "PixelRepresentation": 0,
      "PixelSpacing": [2.6829268932343, 2.6829268932343],
      "ProtocolName": "func_run-03_task-alignvideo_acq-ap-mb8",
      "RepetitionTime": 460.0,
      "Rows": 656,
      "SAR": 0.11497817126967,
      "SamplesPerPixel": 1,
      "ScanOptions": "FS",
      "ScanningSequence": "EP",
      "SequenceName": "epfid2d1_82",
      "SequenceVariant": [
        "SK",
        "SS"
],
      "SeriesDescription": "func_run-03_task-alignvideo_acq-ap-mb8",
      "SeriesNumber": 32,
      "SeriesTime": "184124.976000",
      "SliceLocation": -67.276925096514,
      "SliceThickness": 2.7000000476837,
      "SmallestImagePixelValue": 0,
      "SoftwareVersions": "syngo MR E11",
      "SpacingBetweenSlices": 2.7000000130876,
      "SpecificCharacterSet": "ISO_IR 100",
      "StudyID": "5",
      "StudyTime": "170358.989000",
      "TransmitCoilName": "Body",
      "VariableFlipAngleFlag": "N",
      "WindowCenterWidthExplanation": "Algo1"
    },
    "slices": {}
  },
  "time": {
    "samples": {
      "AcquisitionNumber": [1, 2, 3, 4, 5, 6, 7, 8, 9, 10, 11, 12, 13, 14, 15, 16, 17, 18, 19, 20, 21, 22, 23, 24, 25, 26, 27, 28, 29, 30, 31, 32, 33, 34, 35, 36, 37, 38, 39, 40, 41, 42, 43, 44, 45, 46, 47, 48, 49, 50, 51, 52, 53, 54, 55, 56, 57, 58, 59, 60, 61, 62, 63, 64, 65, 66, 67, 68, 69, 70, 71, 72, 73, 74, 75, 76, 77, 78, 79, 80, 81, 82, 83, 84, 85, 86, 87, 88, 89, 90, 91, 92, 93, 94, 95, 96, 97, 98, 99, 100, 101, 102, 103, 104, 105, 106, 107, 108, 109, 110, 111, 112, 113, 114, 115, 116, 117, 118, 119, 120, 121, 122, 123, 124, 125, 126, 127, 128, 129, 130, 131, 132, 133, 134, 135, 136, 137, 138, 139, 140, 141, 142, 143, 144, 145, 146, 147, 148, 149, 150, 151, 152, 153, 154, 155, 156, 157, 158, 159, 160, 161, 162, 163, 164, 165, 166, 167, 168, 169, 170, 171, 172, 173, 174, 175, 176, 177, 178, 179, 180, 181, 182, 183, 184, 185, 186, 187, 188, 189, 190, 191, 192, 193, 194, 195, 196, 197, 198, 199, 200, 201, 202, 203, 204, 205, 206, 207, 208, 209, 210, 211, 212, 213, 214, 215, 216, 217, 218, 219, 220, 221, 222, 223, 224, 225, 226, 227, 228, 229, 230, 231, 232, 233, 234, 235, 236, 237, 238, 239, 240, 241, 242, 243, 244, 245, 246, 247, 248, 249, 250, 251, 252, 253, 254, 255, 256, 257, 258, 259, 260, 261, 262, 263, 264, 265, 266, 267, 268, 269, 270, 271, 272, 273, 274, 275, 276, 277, 278, 279, 280, 281, 282, 283, 284, 285, 286, 287, 288, 289, 290, 291, 292, 293, 294, 295, 296, 297, 298, 299, 300, 301, 302, 303, 304, 305, 306, 307, 308, 309, 310, 311, 312, 313, 314, 315, 316, 317, 318, 319, 320, 321, 322, 323, 324, 325, 326, 327, 328, 329, 330, 331, 332, 333, 334, 335, 336, 337, 338, 339, 340, 341, 342, 343, 344, 345, 346, 347, 348, 349, 350, 351, 352, 353, 354, 355, 356, 357, 358, 359, 360, 361, 362, 363, 364, 365, 366, 367, 368, 369, 370, 371, 372, 373, 374, 375, 376, 377, 378, 379, 380, 381, 382, 383, 384, 385, 386, 387, 388, 389, 390, 391, 392, 393, 394, 395, 396, 397, 398, 399, 400, 401, 402, 403, 404, 405, 406, 407, 408, 409, 410, 411, 412, 413, 414, 415, 416, 417, 418, 419, 420, 421, 422, 423, 424, 425, 426, 427, 428, 429, 430, 431, 432, 433, 434, 435, 436, 437, 438, 439, 440, 441, 442, 443, 444, 445, 446, 447, 448, 449, 450, 451, 452, 453, 454, 455, 456, 457, 458, 459, 460, 461, 462, 463, 464, 465, 466, 467, 468, 469, 470, 471, 472, 473, 474, 475, 476, 477, 478, 479, 480, 481, 482, 483, 484, 485, 486, 487, 488, 489, 490, 491, 492, 493, 494, 495, 496, 497, 498, 499, 500, 501, 502, 503, 504, 505, 506, 507, 508, 509, 510, 511, 512, 513, 514, 515, 516, 517, 518, 519, 520, 521, 522, 523, 524, 525, 526, 527, 528, 529, 530, 531, 532, 533, 534, 535, 536, 537, 538, 539, 540, 541, 542, 543, 544, 545, 546, 547, 548, 549, 550, 551, 552, 553, 554, 555, 556, 557, 558, 559, 560, 561, 562, 563, 564, 565, 566, 567, 568, 569, 570, 571, 572, 573, 574, 575, 576, 577, 578, 579, 580, 581, 582, 583, 584, 585, 586, 587, 588, 589, 590, 591, 592, 593, 594, 595, 596, 597, 598, 599, 600, 601, 602, 603, 604, 605, 606, 607, 608, 609, 610, 611, 612, 613, 614, 615, 616, 617, 618, 619, 620, 621, 622, 623, 624, 625, 626, 627, 628, 629, 630, 631, 632, 633, 634, 635, 636, 637, 638, 639, 640, 641, 642, 643, 644, 645, 646, 647, 648, 649, 650, 651, 652, 653, 654, 655, 656, 657, 658, 659, 660, 661, 662, 663, 664, 665, 666, 667, 668, 669, 670, 671, 672, 673, 674, 675, 676, 677, 678, 679, 680, 681, 682, 683, 684, 685, 686, 687, 688, 689, 690, 691, 692, 693, 694, 695, 696, 697, 698, 699, 700, 701, 702, 703, 704, 705, 706, 707, 708, 709, 710, 711, 712, 713, 714, 715, 716, 717, 718, 719, 720, 721, 722, 723, 724, 725, 726, 727, 728, 729, 730, 731, 732, 733, 734, 735, 736, 737, 738, 739, 740, 741, 742, 743, 744, 745, 746, 747, 748, 749, 750, 751, 752, 753, 754, 755, 756, 757, 758, 759, 760, 761, 762, 763, 764, 765, 766, 767, 768, 769, 770, 771, 772, 773, 774, 775, 776, 777, 778, 779, 780, 781, 782, 783, 784, 785, 786, 787, 788, 789, 790, 791, 792, 793, 794, 795, 796, 797, 798, 799, 800, 801, 802, 803, 804, 805, 806, 807, 808, 809, 810, 811, 812, 813, 814, 815, 816, 817, 818, 819, 820, 821, 822, 823, 824, 825, 826, 827, 828, 829, 830, 831, 832, 833, 834, 835, 836, 837, 838, 839, 840, 841, 842, 843, 844, 845, 846, 847, 848, 849, 850, 851, 852, 853, 854, 855, 856, 857, 858, 859, 860, 861, 862, 863, 864, 865, 866, 867, 868, 869, 870, 871, 872, 873, 874, 875, 876, 877, 878, 879, 880, 881, 882, 883, 884, 885, 886, 887, 888, 889, 890, 891, 892, 893, 894, 895, 896, 897, 898, 899, 900, 901, 902, 903, 904, 905, 906, 907, 908, 909, 910, 911, 912, 913, 914, 915, 916, 917, 918, 919, 920, 921, 922, 923, 924, 925, 926, 927, 928, 929, 930, 931, 932, 933, 934, 935, 936, 937, 938, 939, 940, 941, 942, 943, 944, 945, 946, 947, 948, 949, 950, 951, 952, 953, 954, 955, 956, 957, 958, 959, 960, 961, 962, 963, 964, 965, 966, 967, 968, 969, 970, 971, 972, 973, 974, 975, 976, 977, 978, 979, 980, 981, 982, 983, 984, 985, 986, 987, 988, 989, 990, 991, 992, 993, 994, 995, 996, 997, 998, 999, 1000, 1001, 1002, 1003, 1004, 1005, 1006, 1007, 1008, 1009, 1010, 1011, 1012, 1013, 1014, 1015, 1016, 1017, 1018, 1019, 1020, 1021, 1022, 1023, 1024, 1025, 1026, 1027, 1028, 1029, 1030, 1031, 1032, 1033, 1034, 1035, 1036, 1037, 1038, 1039, 1040, 1041, 1042, 1043, 1044, 1045, 1046, 1047, 1048, 1049, 1050, 1051, 1052, 1053, 1054, 1055, 1056, 1057, 1058, 1059, 1060, 1061, 1062, 1063, 1064, 1065],
      "AcquisitionTime": ["184056.235000", "184056.695000", "184057.155000", "184057.615000", "184058.075000", "184058.535000", "184058.995000", "184059.455000", "184059.915000", "184100.375000", "184100.835000", "184101.295000", "184101.755000", "184102.215000", "184102.675000", "184103.135000", "184103.595000", "184104.055000", "184104.515000", "184104.975000", "184105.435000", "184105.895000", "184106.355000", "184106.815000", "184107.275000", "184107.735000", "184108.195000", "184108.655000", "184109.115000", "184109.575000", "184110.035000", "184110.495000", "184110.955000", "184111.415000", "184111.875000", "184112.335000", "184112.795000", "184113.255000", "184113.715000", "184114.175000", "184114.635000", "184115.095000", "184115.555000", "184116.015000", "184116.475000", "184116.935000", "184117.395000", "184117.855000", "184118.315000", "184118.775000", "184119.235000", "184119.695000", "184120.155000", "184120.615000", "184121.075000", "184121.535000", "184121.995000", "184122.455000", "184122.915000", "184123.375000", "184123.835000", "184124.295000", "184124.755000", "184125.215000", "184125.675000", "184126.135000", "184126.595000", "184127.055000", "184127.515000", "184127.975000", "184128.435000", "184128.895000", "184129.355000", "184129.815000", "184130.275000", "184130.735000", "184131.195000", "184131.655000", "184132.115000", "184132.575000", "184133.035000", "184133.495000", "184133.955000", "184134.415000", "184134.875000", "184135.335000", "184135.795000", "184136.255000", "184136.715000", "184137.175000", "184137.635000", "184138.095000", "184138.555000", "184139.015000", "184139.475000", "184139.935000", "184140.395000", "184140.855000", "184141.315000", "184141.775000", "184142.235000", "184142.695000", "184143.155000", "184143.615000", "184144.075000", "184144.535000", "184144.995000", "184145.455000", "184145.915000", "184146.375000", "184146.835000", "184147.295000", "184147.755000", "184148.215000", "184148.675000", "184149.135000", "184149.595000", "184150.055000", "184150.515000", "184150.975000", "184151.435000", "184151.895000", "184152.355000", "184152.815000", "184153.275000", "184153.735000", "184154.195000", "184154.655000", "184155.115000", "184155.575000", "184156.035000", "184156.495000", "184156.955000", "184157.415000", "184157.875000", "184158.335000", "184158.795000", "184159.255000", "184159.715000", "184200.175000", "184200.635000", "184201.095000", "184201.555000", "184202.015000", "184202.475000", "184202.935000", "184203.395000", "184203.855000", "184204.315000", "184204.775000", "184205.235000", "184205.695000", "184206.155000", "184206.615000", "184207.075000", "184207.535000", "184207.995000", "184208.455000", "184208.915000", "184209.375000", "184209.835000", "184210.295000", "184210.755000", "184211.215000", "184211.675000", "184212.135000", "184212.595000", "184213.055000", "184213.515000", "184213.975000", "184214.435000", "184214.895000", "184215.355000", "184215.815000", "184216.275000", "184216.735000", "184217.195000", "184217.655000", "184218.115000", "184218.575000", "184219.035000", "184219.495000", "184219.955000", "184220.415000", "184220.875000", "184221.335000", "184221.795000", "184222.255000", "184222.715000", "184223.175000", "184223.635000", "184224.095000", "184224.555000", "184225.015000", "184225.475000", "184225.935000", "184226.395000", "184226.855000", "184227.315000", "184227.775000", "184228.235000", "184228.695000", "184229.155000", "184229.615000", "184230.075000", "184230.535000", "184230.995000", "184231.455000", "184231.915000", "184232.375000", "184232.835000", "184233.295000", "184233.755000", "184234.215000", "184234.675000", "184235.135000", "184235.595000", "184236.055000", "184236.515000", "184236.975000", "184237.435000", "184237.895000", "184238.355000", "184238.815000", "184239.275000", "184239.735000", "184240.195000", "184240.655000", "184241.115000", "184241.575000", "184242.035000", "184242.495000", "184242.955000", "184243.415000", "184243.875000", "184244.335000", "184244.795000", "184245.255000", "184245.715000", "184246.175000", "184246.635000", "184247.095000", "184247.555000", "184248.015000", "184248.475000", "184248.935000", "184249.395000", "184249.855000", "184250.315000", "184250.775000", "184251.235000", "184251.695000", "184252.155000", "184252.615000", "184253.075000", "184253.535000", "184253.995000", "184254.455000", "184254.915000", "184255.375000", "184255.835000", "184256.295000", "184256.755000", "184257.215000", "184257.675000", "184258.135000", "184258.595000", "184259.055000", "184259.515000", "184259.975000", "184300.435000", "184300.895000", "184301.355000", "184301.815000", "184302.275000", "184302.735000", "184303.195000", "184303.655000", "184304.115000", "184304.575000", "184305.035000", "184305.495000", "184305.955000", "184306.415000", "184306.875000", "184307.335000", "184307.795000", "184308.255000", "184308.715000", "184309.175000", "184309.635000", "184310.095000", "184310.555000", "184311.015000", "184311.475000", "184311.935000", "184312.395000", "184312.855000", "184313.315000", "184313.775000", "184314.235000", "184314.695000", "184315.155000", "184315.615000", "184316.075000", "184316.535000", "184316.995000", "184317.455000", "184317.915000", "184318.375000", "184318.835000", "184319.295000", "184319.755000", "184320.215000", "184320.675000", "184321.135000", "184321.595000", "184322.055000", "184322.515000", "184322.975000", "184323.435000", "184323.895000", "184324.355000", "184324.815000", "184325.275000", "184325.735000", "184326.195000", "184326.655000", "184327.115000", "184327.575000", "184328.035000", "184328.495000", "184328.955000", "184329.415000", "184329.875000", "184330.335000", "184330.795000", "184331.255000", "184331.715000", "184332.175000", "184332.635000", "184333.095000", "184333.555000", "184334.015000", "184334.475000", "184334.935000", "184335.395000", "184335.855000", "184336.315000", "184336.775000", "184337.235000", "184337.695000", "184338.155000", "184338.615000", "184339.075000", "184339.535000", "184339.995000", "184340.455000", "184340.915000", "184341.375000", "184341.835000", "184342.295000", "184342.755000", "184343.215000", "184343.675000", "184344.135000", "184344.595000", "184345.055000", "184345.515000", "184345.975000", "184346.435000", "184346.895000", "184347.355000", "184347.815000", "184348.275000", "184348.735000", "184349.195000", "184349.655000", "184350.115000", "184350.575000", "184351.035000", "184351.495000", "184351.955000", "184352.415000", "184352.875000", "184353.335000", "184353.795000", "184354.255000", "184354.715000", "184355.175000", "184355.635000", "184356.095000", "184356.555000", "184357.015000", "184357.475000", "184357.935000", "184358.395000", "184358.855000", "184359.315000", "184359.775000", "184400.235000", "184400.695000", "184401.155000", "184401.615000", "184402.075000", "184402.535000", "184402.995000", "184403.455000", "184403.915000", "184404.375000", "184404.835000", "184405.295000", "184405.755000", "184406.215000", "184406.675000", "184407.135000", "184407.595000", "184408.055000", "184408.515000", "184408.975000", "184409.435000", "184409.895000", "184410.355000", "184410.815000", "184411.275000", "184411.735000", "184412.195000", "184412.655000", "184413.115000", "184413.575000", "184414.035000", "184414.495000", "184414.955000", "184415.415000", "184415.875000", "184416.335000", "184416.795000", "184417.255000", "184417.715000", "184418.175000", "184418.635000", "184419.095000", "184419.555000", "184420.015000", "184420.475000", "184420.935000", "184421.395000", "184421.855000", "184422.315000", "184422.775000", "184423.235000", "184423.695000", "184424.155000", "184424.615000", "184425.075000", "184425.535000", "184425.995000", "184426.455000", "184426.915000", "184427.375000", "184427.835000", "184428.295000", "184428.755000", "184429.215000", "184429.675000", "184430.135000", "184430.595000", "184431.055000", "184431.515000", "184431.975000", "184432.435000", "184432.895000", "184433.355000", "184433.815000", "184434.275000", "184434.735000", "184435.195000", "184435.655000", "184436.115000", "184436.575000", "184437.035000", "184437.495000", "184437.955000", "184438.415000", "184438.875000", "184439.335000", "184439.795000", "184440.255000", "184440.715000", "184441.175000", "184441.635000", "184442.095000", "184442.555000", "184443.015000", "184443.475000", "184443.935000", "184444.395000", "184444.855000", "184445.315000", "184445.775000", "184446.235000", "184446.695000", "184447.155000", "184447.615000", "184448.075000", "184448.535000", "184448.995000", "184449.455000", "184449.915000", "184450.375000", "184450.835000", "184451.295000", "184451.755000", "184452.215000", "184452.675000", "184453.135000", "184453.595000", "184454.055000", "184454.515000", "184454.975000", "184455.435000", "184455.895000", "184456.355000", "184456.815000", "184457.275000", "184457.735000", "184458.195000", "184458.655000", "184459.115000", "184459.575000", "184500.035000", "184500.495000", "184500.955000", "184501.415000", "184501.875000", "184502.335000", "184502.795000", "184503.255000", "184503.715000", "184504.175000", "184504.635000", "184505.095000", "184505.555000", "184506.015000", "184506.475000", "184506.935000", "184507.395000", "184507.855000", "184508.315000", "184508.775000", "184509.235000", "184509.695000", "184510.155000", "184510.615000", "184511.075000", "184511.535000", "184511.995000", "184512.455000", "184512.915000", "184513.375000", "184513.835000", "184514.295000", "184514.755000", "184515.215000", "184515.675000", "184516.135000", "184516.595000", "184517.055000", "184517.515000", "184517.975000", "184518.435000", "184518.895000", "184519.355000", "184519.815000", "184520.275000", "184520.735000", "184521.195000", "184521.655000", "184522.115000", "184522.575000", "184523.035000", "184523.495000", "184523.955000", "184524.415000", "184524.875000", "184525.335000", "184525.795000", "184526.255000", "184526.715000", "184527.175000", "184527.635000", "184528.095000", "184528.555000", "184529.015000", "184529.475000", "184529.935000", "184530.395000", "184530.855000", "184531.315000", "184531.775000", "184532.235000", "184532.695000", "184533.155000", "184533.615000", "184534.075000", "184534.535000", "184534.995000", "184535.455000", "184535.915000", "184536.375000", "184536.835000", "184537.295000", "184537.755000", "184538.215000", "184538.675000", "184539.135000", "184539.595000", "184540.055000", "184540.515000", "184540.975000", "184541.435000", "184541.895000", "184542.355000", "184542.815000", "184543.275000", "184543.735000", "184544.195000", "184544.655000", "184545.115000", "184545.575000", "184546.035000", "184546.495000", "184546.955000", "184547.415000", "184547.875000", "184548.335000", "184548.795000", "184549.255000", "184549.715000", "184550.175000", "184550.635000", "184551.095000", "184551.555000", "184552.015000", "184552.475000", "184552.935000", "184553.395000", "184553.855000", "184554.315000", "184554.775000", "184555.235000", "184555.695000", "184556.155000", "184556.615000", "184557.075000", "184557.535000", "184557.995000", "184558.455000", "184558.915000", "184559.375000", "184559.835000", "184600.295000", "184600.755000", "184601.215000", "184601.675000", "184602.135000", "184602.595000", "184603.055000", "184603.515000", "184603.975000", "184604.435000", "184604.895000", "184605.355000", "184605.815000", "184606.275000", "184606.735000", "184607.195000", "184607.655000", "184608.115000", "184608.575000", "184609.035000", "184609.495000", "184609.955000", "184610.415000", "184610.875000", "184611.335000", "184611.795000", "184612.255000", "184612.715000", "184613.175000", "184613.635000", "184614.095000", "184614.555000", "184615.015000", "184615.475000", "184615.935000", "184616.395000", "184616.855000", "184617.315000", "184617.775000", "184618.235000", "184618.695000", "184619.155000", "184619.615000", "184620.075000", "184620.535000", "184620.995000", "184621.455000", "184621.915000", "184622.375000", "184622.835000", "184623.295000", "184623.755000", "184624.215000", "184624.675000", "184625.135000", "184625.595000", "184626.055000", "184626.515000", "184626.975000", "184627.435000", "184627.895000", "184628.355000", "184628.815000", "184629.275000", "184629.735000", "184630.195000", "184630.655000", "184631.115000", "184631.575000", "184632.035000", "184632.495000", "184632.955000", "184633.415000", "184633.875000", "184634.335000", "184634.795000", "184635.255000", "184635.715000", "184636.175000", "184636.635000", "184637.095000", "184637.555000", "184638.015000", "184638.475000", "184638.935000", "184639.395000", "184639.855000", "184640.315000", "184640.775000", "184641.235000", "184641.695000", "184642.155000", "184642.615000", "184643.075000", "184643.535000", "184643.995000", "184644.455000", "184644.915000", "184645.375000", "184645.835000", "184646.295000", "184646.755000", "184647.215000", "184647.675000", "184648.135000", "184648.595000", "184649.055000", "184649.515000", "184649.975000", "184650.435000", "184650.895000", "184651.355000", "184651.815000", "184652.275000", "184652.735000", "184653.195000", "184653.655000", "184654.115000", "184654.575000", "184655.035000", "184655.495000", "184655.955000", "184656.415000", "184656.875000", "184657.335000", "184657.795000", "184658.255000", "184658.715000", "184659.175000", "184659.635000", "184700.095000", "184700.555000", "184701.015000", "184701.475000", "184701.935000", "184702.395000", "184702.855000", "184703.315000", "184703.775000", "184704.235000", "184704.695000", "184705.155000", "184705.615000", "184706.075000", "184706.535000", "184706.995000", "184707.455000", "184707.915000", "184708.375000", "184708.835000", "184709.295000", "184709.755000", "184710.215000", "184710.675000", "184711.135000", "184711.595000", "184712.055000", "184712.515000", "184712.975000", "184713.435000", "184713.895000", "184714.355000", "184714.815000", "184715.275000", "184715.735000", "184716.195000", "184716.655000", "184717.115000", "184717.575000", "184718.035000", "184718.495000", "184718.955000", "184719.415000", "184719.875000", "184720.335000", "184720.795000", "184721.255000", "184721.715000", "184722.175000", "184722.635000", "184723.095000", "184723.555000", "184724.015000", "184724.475000", "184724.935000", "184725.395000", "184725.855000", "184726.315000", "184726.775000", "184727.235000", "184727.695000", "184728.155000", "184728.615000", "184729.075000", "184729.535000", "184729.995000", "184730.455000", "184730.915000", "184731.375000", "184731.835000", "184732.295000", "184732.755000", "184733.215000", "184733.675000", "184734.135000", "184734.595000", "184735.055000", "184735.515000", "184735.975000", "184736.435000", "184736.895000", "184737.355000", "184737.815000", "184738.275000", "184738.735000", "184739.195000", "184739.655000", "184740.115000", "184740.575000", "184741.035000", "184741.495000", "184741.955000", "184742.415000", "184742.875000", "184743.335000", "184743.795000", "184744.255000", "184744.715000", "184745.175000", "184745.635000", "184746.095000", "184746.555000", "184747.015000", "184747.475000", "184747.935000", "184748.395000", "184748.855000", "184749.315000", "184749.775000", "184750.235000", "184750.695000", "184751.155000", "184751.615000", "184752.075000", "184752.535000", "184752.995000", "184753.455000", "184753.915000", "184754.375000", "184754.835000", "184755.295000", "184755.755000", "184756.215000", "184756.675000", "184757.135000", "184757.595000", "184758.055000", "184758.515000", "184758.975000", "184759.435000", "184759.895000", "184800.355000", "184800.815000", "184801.275000", "184801.735000", "184802.195000", "184802.655000", "184803.115000", "184803.575000", "184804.035000", "184804.495000", "184804.955000", "184805.415000", "184805.875000", "184806.335000", "184806.795000", "184807.255000", "184807.715000", "184808.175000", "184808.635000", "184809.095000", "184809.555000", "184810.015000", "184810.475000", "184810.935000", "184811.395000", "184811.855000", "184812.315000", "184812.775000", "184813.235000", "184813.695000", "184814.155000", "184814.615000", "184815.075000", "184815.535000", "184815.995000", "184816.455000", "184816.915000", "184817.375000", "184817.835000", "184818.295000", "184818.755000", "184819.215000", "184819.675000", "184820.135000", "184820.595000", "184821.055000", "184821.515000", "184821.975000", "184822.435000", "184822.895000", "184823.355000", "184823.815000", "184824.275000", "184824.735000", "184825.195000", "184825.655000", "184826.115000", "184826.575000", "184827.035000", "184827.495000", "184827.955000", "184828.415000", "184828.875000", "184829.335000", "184829.795000", "184830.255000", "184830.715000", "184831.175000", "184831.635000", "184832.095000", "184832.555000", "184833.015000", "184833.475000", "184833.935000", "184834.395000", "184834.855000", "184835.315000", "184835.775000", "184836.235000", "184836.695000", "184837.155000", "184837.615000", "184838.075000", "184838.535000", "184838.995000", "184839.455000", "184839.915000", "184840.375000", "184840.835000", "184841.295000", "184841.755000", "184842.215000", "184842.675000", "184843.135000", "184843.595000", "184844.055000", "184844.515000", "184844.975000", "184845.435000", "184845.895000", "184846.355000", "184846.815000", "184847.275000", "184847.735000", "184848.195000", "184848.655000", "184849.115000", "184849.575000", "184850.035000", "184850.495000", "184850.955000", "184851.415000", "184851.875000", "184852.335000", "184852.795000", "184853.255000", "184853.715000", "184854.175000", "184854.635000", "184855.095000", "184855.555000", "184856.015000", "184856.475000", "184856.935000", "184857.395000", "184857.855000", "184858.315000", "184858.775000", "184859.235000", "184859.695000", "184900.155000", "184900.615000", "184901.075000", "184901.535000", "184901.995000", "184902.455000", "184902.915000", "184903.375000", "184903.835000", "184904.295000", "184904.755000", "184905.215000", "184905.675000"],
