{
  "AcquisitionMatrixPE": 82,
  "AcquisitionNumber": 1,
  "AcquisitionTime": "17:41:44.500000",
  "BandwidthPerPixelPhaseEncode": 24.888,
  "BaseResolution": 82,
  "BodyPartExamined": "BRAIN",
  "ConsistencyInfo": "N4_VE11E_LATEST_20181129",
  "ConversionSoftware": "dcm2niix",
  "ConversionSoftwareVersion": "v1.0.20201102",
  "DerivedVendorReportedEchoSpacing": 0.00049,
  "DeviceSerialNumber": "66112",
  "DwellTime": 2e-06,
  "EchoTime": 0.0272,
  "EchoTrainLength": 82,
  "EffectiveEchoSpacing": 0.00049,
  "FlipAngle": 44,
  "ImageComments": "Unaliased MB8/PE3",
  "ImageOrientationPatientDICOM": [0.999965, 0.00178383, 0.00822859, -0.00279247, 0.992248, 0.124246],
  "ImageType": [
    "ORIGINAL",
    "PRIMARY",
    "M",
    "MB",
    "ND",
    "NORM",
    "MOSAIC"
],
  "ImagingFrequency": 123.259,
  "InPlanePhaseEncodingDirectionDICOM": "COL",
  "InstitutionAddress": "Maynard 3,Hanover,NH,US,03755",
  "InstitutionName": "Dartmouth College - PBS",
  "InstitutionalDepartmentName": "Department",
  "MRAcquisitionType": "2D",
  "MagneticFieldStrength": 3,
  "Manufacturer": "Siemens",
  "ManufacturersModelName": "Prisma",
  "Modality": "MR",
  "MultibandAccelerationFactor": 8,
  "PartialFourier": 1,
  "PatientPosition": "HFS",
  "PercentPhaseFOV": 100,
  "PercentSampling": 100,
  "PhaseEncodingDirection": "j-",
  "PhaseEncodingSteps": 82,
  "PhaseResolution": 1,
  "PixelBandwidth": 3050,
  "ProcedureStepDescription": "Wager_Wager^1076_spacetop",
  "ProtocolName": "func_run-04_task-social_acq-ap-mb8",
  "PulseSequenceDetails": "%CustomerSeq%\\cmrr_mbep2d_bold",
  "ReceiveCoilActiveElements": "HEA;HEP",
  "ReceiveCoilName": "Head_32",
  "ReconMatrixPE": 82,
  "RepetitionTime": 0.46,
  "SAR": 0.114849,
  "ScanOptions": "FS",
  "ScanningSequence": "EP",
  "SequenceName": "epfid2d1_82",
  "SequenceVariant": "SK\\SS",
  "SeriesDescription": "func_run-04_task-social_acq-ap-mb8",
  "SeriesNumber": 14,
  "ShimSetting": [4224, -7817, -7218, 26, -85, -149, -31, 83],
  "SliceThickness": 2.7,
  "SliceTiming": [0, 0.2525, 0.065, 0.315, 0.1275, 0.3775, 0.19, 0, 0.2525, 0.065, 0.315, 0.1275, 0.3775, 0.19, 0, 0.2525, 0.065, 0.315, 0.1275, 0.3775, 0.19, 0, 0.2525, 0.065, 0.315, 0.1275, 0.3775, 0.19, 0, 0.2525, 0.065, 0.315, 0.1275, 0.3775, 0.19, 0, 0.2525, 0.065, 0.315, 0.1275, 0.3775, 0.19, 0, 0.2525, 0.065, 0.315, 0.1275, 0.3775, 0.19, 0, 0.2525, 0.065, 0.315, 0.1275, 0.3775, 0.19],
  "SoftwareVersions": "syngo MR E11",
  "SpacingBetweenSlices": 2.7,
  "StationName": "AWP66112",
  "TaskName": "social",
  "TotalReadoutTime": 0.03969,
  "TxRefAmp": 299.463,
  "WipMemBlock": "216dd158-38f9-4fd8-9259-0b4000a35755||Sequence: R016 ve11e/master r/434b28f1; Aug  7 2019 18:53:46 by eja",
  "dcmmeta_affine": [
    [-2.6828317642211914, -0.007491999305784702, 0.02144654653966427, 115.59239959716797],
    [-0.004785897675901651, 2.6621274948120117, 0.3355138599872589, -90.55131530761719],
    [0.02207670919597149, -0.33334246277809143, 2.6789867877960205, -57.74661636352539],
    [0.0, 0.0, 0.0, 1.0]
],
  "dcmmeta_reorient_transform": [
    [0.0, -1.0, 0.0, 81.0],
    [1.0, 0.0, 0.0, 0.0],
    [0.0, 0.0, 1.0, 0.0],
    [0.0, 0.0, 0.0, 1.0]
],
  "dcmmeta_shape": [82, 82, 56, 872],
  "dcmmeta_slice_dim": 2,
  "dcmmeta_version": 0.6,
  "global": {
    "const": {
      "AccessionNumber": "A004849",
      "AcquisitionMatrix": [82, 0, 0, 82],
      "AngioFlag": "N",
      "BitsAllocated": 16,
      "BitsStored": 16,
      "BodyPartExamined": "BRAIN",
      "Columns": 656,
      "EchoNumbers": 1,
      "EchoTime": 27.2,
      "EchoTrainLength": 82,
      "FlipAngle": 44.0,
      "HighBit": 15,
      "ImageOrientationPatient": [0.99996455348236, 0.00178383447402, 0.00822859121511, -0.0027924724027, 0.99224753898784, 0.12424581872424],
      "ImagePositionPatient": [-882.80806977954, -890.48519835733, -186.75265442449],
      "ImageType": [
        "ORIGINAL",
        "PRIMARY",
        "M",
        "MB",
        "ND",
        "NORM",
        "MOSAIC"
],
      "ImagedNucleus": "1H",
      "ImagingFrequency": 123.258994,
      "InPlanePhaseEncodingDirection": "COL",
      "MRAcquisitionType": "2D",
      "MagneticFieldStrength": 3.0,
      "Manufacturer": "SIEMENS",
      "ManufacturerModelName": "Prisma",
      "Modality": "MR",
      "NumberOfAverages": 1.0,
      "NumberOfPhaseEncodingSteps": 82,
      "PercentPhaseFieldOfView": 100.0,
      "PercentSampling": 100.0,
      "PerformedProcedureStepStartTime": "170359.055000",
      "PhotometricInterpretation": "MONOCHROME2",
      "PixelBandwidth": 3050.0,
      "PixelRepresentation": 0,
      "PixelSpacing": [2.6829268932343, 2.6829268932343],
      "ProtocolName": "func_run-04_task-social_acq-ap-mb8",
      "RepetitionTime": 460.0,
      "Rows": 656,
      "SAR": 0.11484861500298,
      "SamplesPerPixel": 1,
      "ScanOptions": "FS",
      "ScanningSequence": "EP",
      "SequenceName": "epfid2d1_82",
      "SequenceVariant": [
        "SK",
        "SS"
],
      "SeriesDescription": "func_run-04_task-social_acq-ap-mb8",
      "SeriesNumber": 14,
      "SeriesTime": "174204.978000",
      "SliceLocation": -67.631330658516,
      "SliceThickness": 2.7000000476837,
      "SmallestImagePixelValue": 0,
      "SoftwareVersions": "syngo MR E11",
      "SpacingBetweenSlices": 2.7000000008433,
      "SpecificCharacterSet": "ISO_IR 100",
      "StudyID": "5",
      "StudyTime": "170358.989000",
      "TransmitCoilName": "Body",
      "VariableFlipAngleFlag": "N",
      "WindowCenterWidthExplanation": "Algo1"
    },
    "slices": {}
  },
  "time": {
    "samples": {
      "AcquisitionNumber": [1, 2, 3, 4, 5, 6, 7, 8, 9, 10, 11, 12, 13, 14, 15, 16, 17, 18, 19, 20, 21, 22, 23, 24, 25, 26, 27, 28, 29, 30, 31, 32, 33, 34, 35, 36, 37, 38, 39, 40, 41, 42, 43, 44, 45, 46, 47, 48, 49, 50, 51, 52, 53, 54, 55, 56, 57, 58, 59, 60, 61, 62, 63, 64, 65, 66, 67, 68, 69, 70, 71, 72, 73, 74, 75, 76, 77, 78, 79, 80, 81, 82, 83, 84, 85, 86, 87, 88, 89, 90, 91, 92, 93, 94, 95, 96, 97, 98, 99, 100, 101, 102, 103, 104, 105, 106, 107, 108, 109, 110, 111, 112, 113, 114, 115, 116, 117, 118, 119, 120, 121, 122, 123, 124, 125, 126, 127, 128, 129, 130, 131, 132, 133, 134, 135, 136, 137, 138, 139, 140, 141, 142, 143, 144, 145, 146, 147, 148, 149, 150, 151, 152, 153, 154, 155, 156, 157, 158, 159, 160, 161, 162, 163, 164, 165, 166, 167, 168, 169, 170, 171, 172, 173, 174, 175, 176, 177, 178, 179, 180, 181, 182, 183, 184, 185, 186, 187, 188, 189, 190, 191, 192, 193, 194, 195, 196, 197, 198, 199, 200, 201, 202, 203, 204, 205, 206, 207, 208, 209, 210, 211, 212, 213, 214, 215, 216, 217, 218, 219, 220, 221, 222, 223, 224, 225, 226, 227, 228, 229, 230, 231, 232, 233, 234, 235, 236, 237, 238, 239, 240, 241, 242, 243, 244, 245, 246, 247, 248, 249, 250, 251, 252, 253, 254, 255, 256, 257, 258, 259, 260, 261, 262, 263, 264, 265, 266, 267, 268, 269, 270, 271, 272, 273, 274, 275, 276, 277, 278, 279, 280, 281, 282, 283, 284, 285, 286, 287, 288, 289, 290, 291, 292, 293, 294, 295, 296, 297, 298, 299, 300, 301, 302, 303, 304, 305, 306, 307, 308, 309, 310, 311, 312, 313, 314, 315, 316, 317, 318, 319, 320, 321, 322, 323, 324, 325, 326, 327, 328, 329, 330, 331, 332, 333, 334, 335, 336, 337, 338, 339, 340, 341, 342, 343, 344, 345, 346, 347, 348, 349, 350, 351, 352, 353, 354, 355, 356, 357, 358, 359, 360, 361, 362, 363, 364, 365, 366, 367, 368, 369, 370, 371, 372, 373, 374, 375, 376, 377, 378, 379, 380, 381, 382, 383, 384, 385, 386, 387, 388, 389, 390, 391, 392, 393, 394, 395, 396, 397, 398, 399, 400, 401, 402, 403, 404, 405, 406, 407, 408, 409, 410, 411, 412, 413, 414, 415, 416, 417, 418, 419, 420, 421, 422, 423, 424, 425, 426, 427, 428, 429, 430, 431, 432, 433, 434, 435, 436, 437, 438, 439, 440, 441, 442, 443, 444, 445, 446, 447, 448, 449, 450, 451, 452, 453, 454, 455, 456, 457, 458, 459, 460, 461, 462, 463, 464, 465, 466, 467, 468, 469, 470, 471, 472, 473, 474, 475, 476, 477, 478, 479, 480, 481, 482, 483, 484, 485, 486, 487, 488, 489, 490, 491, 492, 493, 494, 495, 496, 497, 498, 499, 500, 501, 502, 503, 504, 505, 506, 507, 508, 509, 510, 511, 512, 513, 514, 515, 516, 517, 518, 519, 520, 521, 522, 523, 524, 525, 526, 527, 528, 529, 530, 531, 532, 533, 534, 535, 536, 537, 538, 539, 540, 541, 542, 543, 544, 545, 546, 547, 548, 549, 550, 551, 552, 553, 554, 555, 556, 557, 558, 559, 560, 561, 562, 563, 564, 565, 566, 567, 568, 569, 570, 571, 572, 573, 574, 575, 576, 577, 578, 579, 580, 581, 582, 583, 584, 585, 586, 587, 588, 589, 590, 591, 592, 593, 594, 595, 596, 597, 598, 599, 600, 601, 602, 603, 604, 605, 606, 607, 608, 609, 610, 611, 612, 613, 614, 615, 616, 617, 618, 619, 620, 621, 622, 623, 624, 625, 626, 627, 628, 629, 630, 631, 632, 633, 634, 635, 636, 637, 638, 639, 640, 641, 642, 643, 644, 645, 646, 647, 648, 649, 650, 651, 652, 653, 654, 655, 656, 657, 658, 659, 660, 661, 662, 663, 664, 665, 666, 667, 668, 669, 670, 671, 672, 673, 674, 675, 676, 677, 678, 679, 680, 681, 682, 683, 684, 685, 686, 687, 688, 689, 690, 691, 692, 693, 694, 695, 696, 697, 698, 699, 700, 701, 702, 703, 704, 705, 706, 707, 708, 709, 710, 711, 712, 713, 714, 715, 716, 717, 718, 719, 720, 721, 722, 723, 724, 725, 726, 727, 728, 729, 730, 731, 732, 733, 734, 735, 736, 737, 738, 739, 740, 741, 742, 743, 744, 745, 746, 747, 748, 749, 750, 751, 752, 753, 754, 755, 756, 757, 758, 759, 760, 761, 762, 763, 764, 765, 766, 767, 768, 769, 770, 771, 772, 773, 774, 775, 776, 777, 778, 779, 780, 781, 782, 783, 784, 785, 786, 787, 788, 789, 790, 791, 792, 793, 794, 795, 796, 797, 798, 799, 800, 801, 802, 803, 804, 805, 806, 807, 808, 809, 810, 811, 812, 813, 814, 815, 816, 817, 818, 819, 820, 821, 822, 823, 824, 825, 826, 827, 828, 829, 830, 831, 832, 833, 834, 835, 836, 837, 838, 839, 840, 841, 842, 843, 844, 845, 846, 847, 848, 849, 850, 851, 852, 853, 854, 855, 856, 857, 858, 859, 860, 861, 862, 863, 864, 865, 866, 867, 868, 869, 870, 871, 872],
      "AcquisitionTime": ["174144.500000", "174144.960000", "174145.420000", "174145.880000", "174146.340000", "174146.800000", "174147.260000", "174147.720000", "174148.180000", "174148.640000", "174149.100000", "174149.560000", "174150.020000", "174150.480000", "174150.940000", "174151.400000", "174151.860000", "174152.320000", "174152.780000", "174153.240000", "174153.700000", "174154.160000", "174154.620000", "174155.080000", "174155.540000", "174156.000000", "174156.460000", "174156.920000", "174157.380000", "174157.840000", "174158.300000", "174158.760000", "174159.220000", "174159.680000", "174200.140000", "174200.600000", "174201.060000", "174201.520000", "174201.980000", "174202.440000", "174202.900000", "174203.360000", "174203.820000", "174204.280000", "174204.740000", "174205.200000", "174205.660000", "174206.120000", "174206.580000", "174207.040000", "174207.500000", "174207.960000", "174208.420000", "174208.880000", "174209.340000", "174209.800000", "174210.260000", "174210.720000", "174211.180000", "174211.640000", "174212.100000", "174212.560000", "174213.020000", "174213.480000", "174213.940000", "174214.400000", "174214.860000", "174215.320000", "174215.780000", "174216.240000", "174216.700000", "174217.160000", "174217.620000", "174218.080000", "174218.540000", "174219.000000", "174219.460000", "174219.920000", "174220.380000", "174220.840000", "174221.300000", "174221.760000", "174222.220000", "174222.680000", "174223.140000", "174223.600000", "174224.060000", "174224.520000", "174224.980000", "174225.440000", "174225.900000", "174226.360000", "174226.820000", "174227.280000", "174227.740000", "174228.200000", "174228.660000", "174229.120000", "174229.580000", "174230.040000", "174230.500000", "174230.960000", "174231.420000", "174231.880000", "174232.340000", "174232.800000", "174233.260000", "174233.720000", "174234.180000", "174234.640000", "174235.100000", "174235.560000", "174236.020000", "174236.480000", "174236.940000", "174237.400000", "174237.860000", "174238.320000", "174238.780000", "174239.240000", "174239.700000", "174240.160000", "174240.620000", "174241.080000", "174241.540000", "174242.000000", "174242.460000", "174242.920000", "174243.380000", "174243.840000", "174244.300000", "174244.760000", "174245.220000", "174245.680000", "174246.140000", "174246.600000", "174247.060000", "174247.520000", "174247.980000", "174248.440000", "174248.900000", "174249.360000", "174249.820000", "174250.280000", "174250.740000", "174251.200000", "174251.660000", "174252.120000", "174252.580000", "174253.040000", "174253.500000", "174253.960000", "174254.420000", "174254.880000", "174255.340000", "174255.800000", "174256.260000", "174256.720000", "174257.180000", "174257.640000", "174258.100000", "174258.560000", "174259.020000", "174259.480000", "174259.940000", "174300.400000", "174300.860000", "174301.320000", "174301.780000", "174302.240000", "174302.700000", "174303.160000", "174303.620000", "174304.080000", "174304.540000", "174305.000000", "174305.460000", "174305.920000", "174306.380000", "174306.840000", "174307.300000", "174307.760000", "174308.220000", "174308.680000", "174309.140000", "174309.600000", "174310.060000", "174310.520000", "174310.980000", "174311.440000", "174311.900000", "174312.360000", "174312.820000", "174313.280000", "174313.740000", "174314.200000", "174314.660000", "174315.120000", "174315.580000", "174316.040000", "174316.500000", "174316.960000", "174317.420000", "174317.880000", "174318.340000", "174318.800000", "174319.260000", "174319.720000", "174320.180000", "174320.640000", "174321.100000", "174321.560000", "174322.020000", "174322.480000", "174322.940000", "174323.400000", "174323.860000", "174324.320000", "174324.780000", "174325.240000", "174325.700000", "174326.160000", "174326.620000", "174327.080000", "174327.540000", "174328.000000", "174328.460000", "174328.920000", "174329.380000", "174329.840000", "174330.300000", "174330.760000", "174331.220000", "174331.680000", "174332.140000", "174332.600000", "174333.060000", "174333.520000", "174333.980000", "174334.440000", "174334.900000", "174335.360000", "174335.820000", "174336.280000", "174336.740000", "174337.200000", "174337.660000", "174338.120000", "174338.580000", "174339.040000", "174339.500000", "174339.960000", "174340.420000", "174340.880000", "174341.340000", "174341.800000", "174342.260000", "174342.720000", "174343.180000", "174343.640000", "174344.100000", "174344.560000", "174345.020000", "174345.480000", "174345.940000", "174346.400000", "174346.860000", "174347.320000", "174347.780000", "174348.240000", "174348.700000", "174349.160000", "174349.620000", "174350.080000", "174350.540000", "174351.000000", "174351.460000", "174351.920000", "174352.380000", "174352.840000", "174353.300000", "174353.760000", "174354.220000", "174354.680000", "174355.140000", "174355.600000", "174356.060000", "174356.520000", "174356.980000", "174357.440000", "174357.900000", "174358.360000", "174358.820000", "174359.280000", "174359.740000", "174400.200000", "174400.660000", "174401.120000", "174401.580000", "174402.040000", "174402.500000", "174402.960000", "174403.420000", "174403.880000", "174404.340000", "174404.800000", "174405.260000", "174405.720000", "174406.180000", "174406.640000", "174407.100000", "174407.560000", "174408.020000", "174408.480000", "174408.940000", "174409.400000", "174409.860000", "174410.320000", "174410.780000", "174411.240000", "174411.700000", "174412.160000", "174412.620000", "174413.080000", "174413.540000", "174414.000000", "174414.460000", "174414.920000", "174415.380000", "174415.840000", "174416.300000", "174416.760000", "174417.220000", "174417.680000", "174418.140000", "174418.600000", "174419.060000", "174419.520000", "174419.980000", "174420.440000", "174420.900000", "174421.360000", "174421.820000", "174422.280000", "174422.740000", "174423.200000", "174423.660000", "174424.120000", "174424.580000", "174425.040000", "174425.500000", "174425.960000", "174426.420000", "174426.880000", "174427.340000", "174427.800000", "174428.260000", "174428.720000", "174429.180000", "174429.640000", "174430.100000", "174430.560000", "174431.020000", "174431.480000", "174431.940000", "174432.400000", "174432.860000", "174433.320000", "174433.780000", "174434.240000", "174434.700000", "174435.160000", "174435.620000", "174436.080000", "174436.540000", "174437.000000", "174437.460000", "174437.920000", "174438.380000", "174438.840000", "174439.300000", "174439.760000", "174440.220000", "174440.680000", "174441.140000", "174441.600000", "174442.060000", "174442.520000", "174442.980000", "174443.440000", "174443.900000", "174444.360000", "174444.820000", "174445.280000", "174445.740000", "174446.200000", "174446.660000", "174447.120000", "174447.580000", "174448.040000", "174448.500000", "174448.960000", "174449.420000", "174449.880000", "174450.340000", "174450.800000", "174451.260000", "174451.720000", "174452.180000", "174452.640000", "174453.100000", "174453.560000", "174454.020000", "174454.480000", "174454.940000", "174455.400000", "174455.860000", "174456.320000", "174456.780000", "174457.240000", "174457.700000", "174458.160000", "174458.620000", "174459.080000", "174459.540000", "174500.000000", "174500.460000", "174500.920000", "174501.380000", "174501.840000", "174502.300000", "174502.760000", "174503.220000", "174503.680000", "174504.140000", "174504.600000", "174505.060000", "174505.520000", "174505.980000", "174506.440000", "174506.900000", "174507.360000", "174507.820000", "174508.280000", "174508.740000", "174509.200000", "174509.660000", "174510.120000", "174510.580000", "174511.040000", "174511.500000", "174511.960000", "174512.420000", "174512.880000", "174513.340000", "174513.800000", "174514.260000", "174514.720000", "174515.180000", "174515.640000", "174516.100000", "174516.560000", "174517.020000", "174517.480000", "174517.940000", "174518.400000", "174518.860000", "174519.320000", "174519.780000", "174520.240000", "174520.700000", "174521.160000", "174521.620000", "174522.080000", "174522.540000", "174523.000000", "174523.460000", "174523.920000", "174524.380000", "174524.840000", "174525.300000", "174525.760000", "174526.220000", "174526.680000", "174527.140000", "174527.600000", "174528.060000", "174528.520000", "174528.980000", "174529.440000", "174529.900000", "174530.360000", "174530.820000", "174531.280000", "174531.740000", "174532.200000", "174532.660000", "174533.120000", "174533.580000", "174534.040000", "174534.500000", "174534.960000", "174535.420000", "174535.880000", "174536.340000", "174536.800000", "174537.260000", "174537.720000", "174538.180000", "174538.640000", "174539.100000", "174539.560000", "174540.020000", "174540.480000", "174540.940000", "174541.400000", "174541.860000", "174542.320000", "174542.780000", "174543.240000", "174543.700000", "174544.160000", "174544.620000", "174545.080000", "174545.540000", "174546.000000", "174546.460000", "174546.920000", "174547.380000", "174547.840000", "174548.300000", "174548.760000", "174549.220000", "174549.680000", "174550.140000", "174550.600000", "174551.060000", "174551.520000", "174551.980000", "174552.440000", "174552.900000", "174553.360000", "174553.820000", "174554.280000", "174554.740000", "174555.200000", "174555.660000", "174556.120000", "174556.580000", "174557.040000", "174557.500000", "174557.960000", "174558.420000", "174558.880000", "174559.340000", "174559.800000", "174600.260000", "174600.720000", "174601.180000", "174601.640000", "174602.100000", "174602.560000", "174603.020000", "174603.480000", "174603.940000", "174604.400000", "174604.860000", "174605.320000", "174605.780000", "174606.240000", "174606.700000", "174607.160000", "174607.620000", "174608.080000", "174608.540000", "174609.000000", "174609.460000", "174609.920000", "174610.380000", "174610.840000", "174611.300000", "174611.760000", "174612.220000", "174612.680000", "174613.140000", "174613.600000", "174614.060000", "174614.520000", "174614.980000", "174615.440000", "174615.900000", "174616.360000", "174616.820000", "174617.280000", "174617.740000", "174618.200000", "174618.660000", "174619.120000", "174619.580000", "174620.040000", "174620.500000", "174620.960000", "174621.420000", "174621.880000", "174622.340000", "174622.800000", "174623.260000", "174623.720000", "174624.180000", "174624.640000", "174625.100000", "174625.560000", "174626.020000", "174626.480000", "174626.940000", "174627.400000", "174627.860000", "174628.320000", "174628.780000", "174629.240000", "174629.700000", "174630.160000", "174630.620000", "174631.080000", "174631.540000", "174632.000000", "174632.460000", "174632.920000", "174633.380000", "174633.840000", "174634.300000", "174634.760000", "174635.220000", "174635.680000", "174636.140000", "174636.600000", "174637.060000", "174637.520000", "174637.980000", "174638.440000", "174638.900000", "174639.360000", "174639.820000", "174640.280000", "174640.740000", "174641.200000", "174641.660000", "174642.120000", "174642.580000", "174643.040000", "174643.500000", "174643.960000", "174644.420000", "174644.880000", "174645.340000", "174645.800000", "174646.260000", "174646.720000", "174647.180000", "174647.640000", "174648.100000", "174648.560000", "174649.020000", "174649.480000", "174649.940000", "174650.400000", "174650.860000", "174651.320000", "174651.780000", "174652.240000", "174652.700000", "174653.160000", "174653.620000", "174654.080000", "174654.540000", "174655.000000", "174655.460000", "174655.920000", "174656.380000", "174656.840000", "174657.300000", "174657.760000", "174658.220000", "174658.680000", "174659.140000", "174659.600000", "174700.060000", "174700.520000", "174700.980000", "174701.440000", "174701.900000", "174702.360000", "174702.820000", "174703.280000", "174703.740000", "174704.200000", "174704.660000", "174705.120000", "174705.580000", "174706.040000", "174706.500000", "174706.960000", "174707.420000", "174707.880000", "174708.340000", "174708.800000", "174709.260000", "174709.720000", "174710.180000", "174710.640000", "174711.100000", "174711.560000", "174712.020000", "174712.480000", "174712.940000", "174713.400000", "174713.860000", "174714.320000", "174714.780000", "174715.240000", "174715.700000", "174716.160000", "174716.620000", "174717.080000", "174717.540000", "174718.000000", "174718.460000", "174718.920000", "174719.380000", "174719.840000", "174720.300000", "174720.760000", "174721.220000", "174721.680000", "174722.140000", "174722.600000", "174723.060000", "174723.520000", "174723.980000", "174724.440000", "174724.900000", "174725.360000", "174725.820000", "174726.280000", "174726.740000", "174727.200000", "174727.660000", "174728.120000", "174728.580000", "174729.040000", "174729.500000", "174729.960000", "174730.420000", "174730.880000", "174731.340000", "174731.800000", "174732.260000", "174732.720000", "174733.180000", "174733.640000", "174734.100000", "174734.560000", "174735.020000", "174735.480000", "174735.940000", "174736.400000", "174736.860000", "174737.320000", "174737.780000", "174738.240000", "174738.700000", "174739.160000", "174739.620000", "174740.080000", "174740.540000", "174741.000000", "174741.460000", "174741.920000", "174742.380000", "174742.840000", "174743.300000", "174743.760000", "174744.220000", "174744.680000", "174745.140000", "174745.600000", "174746.060000", "174746.520000", "174746.980000", "174747.440000", "174747.900000", "174748.360000", "174748.820000", "174749.280000", "174749.740000", "174750.200000", "174750.660000", "174751.120000", "174751.580000", "174752.040000", "174752.500000", "174752.960000", "174753.420000", "174753.880000", "174754.340000", "174754.800000", "174755.260000", "174755.720000", "174756.180000", "174756.640000", "174757.100000", "174757.560000", "174758.020000", "174758.480000", "174758.940000", "174759.400000", "174759.860000", "174800.320000", "174800.780000", "174801.240000", "174801.700000", "174802.160000", "174802.620000", "174803.080000", "174803.540000", "174804.000000", "174804.460000", "174804.920000", "174805.380000", "174805.840000", "174806.300000", "174806.760000", "174807.220000", "174807.680000", "174808.140000", "174808.600000", "174809.060000", "174809.520000", "174809.980000", "174810.440000", "174810.900000", "174811.360000", "174811.820000", "174812.280000", "174812.740000", "174813.200000", "174813.660000", "174814.120000", "174814.580000", "174815.040000", "174815.500000", "174815.960000", "174816.420000", "174816.880000", "174817.340000", "174817.800000", "174818.260000", "174818.720000", "174819.180000", "174819.640000", "174820.100000", "174820.560000", "174821.020000", "174821.480000", "174821.940000", "174822.400000", "174822.860000", "174823.320000", "174823.780000", "174824.240000", "174824.700000", "174825.160000"],
