{
  "AcquisitionMatrixPE": 82,
  "AcquisitionNumber": 1,
  "AcquisitionTime": "17:50:46.490000",
  "BandwidthPerPixelPhaseEncode": 24.888,
  "BaseResolution": 82,
  "BodyPartExamined": "BRAIN",
  "ConsistencyInfo": "N4_VE11E_LATEST_20181129",
  "ConversionSoftware": "dcm2niix",
  "ConversionSoftwareVersion": "v1.0.20201102",
  "DerivedVendorReportedEchoSpacing": 0.00049,
  "DeviceSerialNumber": "66112",
  "DwellTime": 2e-06,
  "EchoTime": 0.0272,
  "EchoTrainLength": 82,
  "EffectiveEchoSpacing": 0.00049,
  "FlipAngle": 44,
  "ImageComments": "Unaliased MB8/PE3",
  "ImageOrientationPatientDICOM": [0.999965, 0.00178383, 0.00822859, -0.00279247, 0.992248, 0.124246],
  "ImageType": [
    "ORIGINAL",
    "PRIMARY",
    "M",
    "MB",
    "ND",
    "NORM",
    "MOSAIC"
],
  "ImagingFrequency": 123.259,
  "InPlanePhaseEncodingDirectionDICOM": "COL",
  "InstitutionAddress": "Maynard 3,Hanover,NH,US,03755",
  "InstitutionName": "Dartmouth College - PBS",
  "InstitutionalDepartmentName": "Department",
  "MRAcquisitionType": "2D",
  "MagneticFieldStrength": 3,
  "Manufacturer": "Siemens",
  "ManufacturersModelName": "Prisma",
  "Modality": "MR",
  "MultibandAccelerationFactor": 8,
  "PartialFourier": 1,
  "PatientPosition": "HFS",
  "PercentPhaseFOV": 100,
  "PercentSampling": 100,
  "PhaseEncodingDirection": "j-",
  "PhaseEncodingSteps": 82,
  "PhaseResolution": 1,
  "PixelBandwidth": 3050,
  "ProcedureStepDescription": "Wager_Wager^1076_spacetop",
  "ProtocolName": "func_run-05_task-social_acq-ap-mb8",
  "PulseSequenceDetails": "%CustomerSeq%\\cmrr_mbep2d_bold",
  "ReceiveCoilActiveElements": "HEA;HEP",
  "ReceiveCoilName": "Head_32",
  "ReconMatrixPE": 82,
  "RepetitionTime": 0.46,
  "SAR": 0.114849,
  "ScanOptions": "FS",
  "ScanningSequence": "EP",
  "SequenceName": "epfid2d1_82",
  "SequenceVariant": "SK\\SS",
  "SeriesDescription": "func_run-05_task-social_acq-ap-mb8",
  "SeriesNumber": 16,
  "ShimSetting": [4224, -7817, -7218, 26, -85, -149, -31, 83],
  "SliceThickness": 2.7,
  "SliceTiming": [0, 0.2525, 0.065, 0.315, 0.1275, 0.3775, 0.19, 0, 0.2525, 0.065, 0.315, 0.1275, 0.3775, 0.19, 0, 0.2525, 0.065, 0.315, 0.1275, 0.3775, 0.19, 0, 0.2525, 0.065, 0.315, 0.1275, 0.3775, 0.19, 0, 0.2525, 0.065, 0.315, 0.1275, 0.3775, 0.19, 0, 0.2525, 0.065, 0.315, 0.1275, 0.3775, 0.19, 0, 0.2525, 0.065, 0.315, 0.1275, 0.3775, 0.19, 0, 0.2525, 0.065, 0.315, 0.1275, 0.3775, 0.19],
  "SoftwareVersions": "syngo MR E11",
  "SpacingBetweenSlices": 2.7,
  "StationName": "AWP66112",
  "TaskName": "social",
  "TotalReadoutTime": 0.03969,
  "TxRefAmp": 299.463,
  "WipMemBlock": "f8e3f8ec-074c-4c03-ac30-1ba4914cdc98||Sequence: R016 ve11e/master r/434b28f1; Aug  7 2019 18:53:46 by eja",
  "dcmmeta_affine": [
    [-2.6828317642211914, -0.007491999305784702, 0.02144654653966427, 115.59239959716797],
    [-0.004785897675901651, 2.6621274948120117, 0.3355138599872589, -90.55131530761719],
    [0.02207670919597149, -0.33334246277809143, 2.6789867877960205, -57.74661636352539],
    [0.0, 0.0, 0.0, 1.0]
],
  "dcmmeta_reorient_transform": [
    [0.0, -1.0, 0.0, 81.0],
    [1.0, 0.0, 0.0, 0.0],
    [0.0, 0.0, 1.0, 0.0],
    [0.0, 0.0, 0.0, 1.0]
],
  "dcmmeta_shape": [82, 82, 56, 872],
  "dcmmeta_slice_dim": 2,
  "dcmmeta_version": 0.6,
  "global": {
    "const": {
      "AccessionNumber": "A004849",
      "AcquisitionMatrix": [82, 0, 0, 82],
      "AngioFlag": "N",
      "BitsAllocated": 16,
      "BitsStored": 16,
      "BodyPartExamined": "BRAIN",
      "Columns": 656,
      "EchoNumbers": 1,
      "EchoTime": 27.2,
      "EchoTrainLength": 82,
      "FlipAngle": 44.0,
      "HighBit": 15,
      "ImageOrientationPatient": [0.99996455348236, 0.00178383447402, 0.00822859121511, -0.0027924724027, 0.99224753898784, 0.12424581872424],
      "ImagePositionPatient": [-882.80806977954, -890.48519835733, -186.75265442449],
      "ImageType": [
        "ORIGINAL",
        "PRIMARY",
        "M",
        "MB",
        "ND",
        "NORM",
        "MOSAIC"
],
      "ImagedNucleus": "1H",
      "ImagingFrequency": 123.258998,
      "InPlanePhaseEncodingDirection": "COL",
      "MRAcquisitionType": "2D",
      "MagneticFieldStrength": 3.0,
      "Manufacturer": "SIEMENS",
      "ManufacturerModelName": "Prisma",
      "Modality": "MR",
      "NumberOfAverages": 1.0,
      "NumberOfPhaseEncodingSteps": 82,
      "PercentPhaseFieldOfView": 100.0,
      "PercentSampling": 100.0,
      "PerformedProcedureStepStartTime": "170359.055000",
      "PhotometricInterpretation": "MONOCHROME2",
      "PixelBandwidth": 3050.0,
      "PixelRepresentation": 0,
      "PixelSpacing": [2.6829268932343, 2.6829268932343],
      "ProtocolName": "func_run-05_task-social_acq-ap-mb8",
      "RepetitionTime": 460.0,
      "Rows": 656,
      "SAR": 0.11484861500298,
      "SamplesPerPixel": 1,
      "ScanOptions": "FS",
      "ScanningSequence": "EP",
      "SequenceName": "epfid2d1_82",
      "SequenceVariant": [
        "SK",
        "SS"
],
      "SeriesDescription": "func_run-05_task-social_acq-ap-mb8",
      "SeriesNumber": 16,
      "SeriesTime": "175104.803000",
      "SliceLocation": -67.631330658516,
      "SliceThickness": 2.7000000476837,
      "SmallestImagePixelValue": 0,
      "SoftwareVersions": "syngo MR E11",
      "SpacingBetweenSlices": 2.7000000008433,
      "SpecificCharacterSet": "ISO_IR 100",
      "StudyID": "5",
      "StudyTime": "170358.989000",
      "TransmitCoilName": "Body",
      "VariableFlipAngleFlag": "N",
      "WindowCenterWidthExplanation": "Algo1"
    },
    "slices": {}
  },
  "time": {
    "samples": {
      "AcquisitionNumber": [1, 2, 3, 4, 5, 6, 7, 8, 9, 10, 11, 12, 13, 14, 15, 16, 17, 18, 19, 20, 21, 22, 23, 24, 25, 26, 27, 28, 29, 30, 31, 32, 33, 34, 35, 36, 37, 38, 39, 40, 41, 42, 43, 44, 45, 46, 47, 48, 49, 50, 51, 52, 53, 54, 55, 56, 57, 58, 59, 60, 61, 62, 63, 64, 65, 66, 67, 68, 69, 70, 71, 72, 73, 74, 75, 76, 77, 78, 79, 80, 81, 82, 83, 84, 85, 86, 87, 88, 89, 90, 91, 92, 93, 94, 95, 96, 97, 98, 99, 100, 101, 102, 103, 104, 105, 106, 107, 108, 109, 110, 111, 112, 113, 114, 115, 116, 117, 118, 119, 120, 121, 122, 123, 124, 125, 126, 127, 128, 129, 130, 131, 132, 133, 134, 135, 136, 137, 138, 139, 140, 141, 142, 143, 144, 145, 146, 147, 148, 149, 150, 151, 152, 153, 154, 155, 156, 157, 158, 159, 160, 161, 162, 163, 164, 165, 166, 167, 168, 169, 170, 171, 172, 173, 174, 175, 176, 177, 178, 179, 180, 181, 182, 183, 184, 185, 186, 187, 188, 189, 190, 191, 192, 193, 194, 195, 196, 197, 198, 199, 200, 201, 202, 203, 204, 205, 206, 207, 208, 209, 210, 211, 212, 213, 214, 215, 216, 217, 218, 219, 220, 221, 222, 223, 224, 225, 226, 227, 228, 229, 230, 231, 232, 233, 234, 235, 236, 237, 238, 239, 240, 241, 242, 243, 244, 245, 246, 247, 248, 249, 250, 251, 252, 253, 254, 255, 256, 257, 258, 259, 260, 261, 262, 263, 264, 265, 266, 267, 268, 269, 270, 271, 272, 273, 274, 275, 276, 277, 278, 279, 280, 281, 282, 283, 284, 285, 286, 287, 288, 289, 290, 291, 292, 293, 294, 295, 296, 297, 298, 299, 300, 301, 302, 303, 304, 305, 306, 307, 308, 309, 310, 311, 312, 313, 314, 315, 316, 317, 318, 319, 320, 321, 322, 323, 324, 325, 326, 327, 328, 329, 330, 331, 332, 333, 334, 335, 336, 337, 338, 339, 340, 341, 342, 343, 344, 345, 346, 347, 348, 349, 350, 351, 352, 353, 354, 355, 356, 357, 358, 359, 360, 361, 362, 363, 364, 365, 366, 367, 368, 369, 370, 371, 372, 373, 374, 375, 376, 377, 378, 379, 380, 381, 382, 383, 384, 385, 386, 387, 388, 389, 390, 391, 392, 393, 394, 395, 396, 397, 398, 399, 400, 401, 402, 403, 404, 405, 406, 407, 408, 409, 410, 411, 412, 413, 414, 415, 416, 417, 418, 419, 420, 421, 422, 423, 424, 425, 426, 427, 428, 429, 430, 431, 432, 433, 434, 435, 436, 437, 438, 439, 440, 441, 442, 443, 444, 445, 446, 447, 448, 449, 450, 451, 452, 453, 454, 455, 456, 457, 458, 459, 460, 461, 462, 463, 464, 465, 466, 467, 468, 469, 470, 471, 472, 473, 474, 475, 476, 477, 478, 479, 480, 481, 482, 483, 484, 485, 486, 487, 488, 489, 490, 491, 492, 493, 494, 495, 496, 497, 498, 499, 500, 501, 502, 503, 504, 505, 506, 507, 508, 509, 510, 511, 512, 513, 514, 515, 516, 517, 518, 519, 520, 521, 522, 523, 524, 525, 526, 527, 528, 529, 530, 531, 532, 533, 534, 535, 536, 537, 538, 539, 540, 541, 542, 543, 544, 545, 546, 547, 548, 549, 550, 551, 552, 553, 554, 555, 556, 557, 558, 559, 560, 561, 562, 563, 564, 565, 566, 567, 568, 569, 570, 571, 572, 573, 574, 575, 576, 577, 578, 579, 580, 581, 582, 583, 584, 585, 586, 587, 588, 589, 590, 591, 592, 593, 594, 595, 596, 597, 598, 599, 600, 601, 602, 603, 604, 605, 606, 607, 608, 609, 610, 611, 612, 613, 614, 615, 616, 617, 618, 619, 620, 621, 622, 623, 624, 625, 626, 627, 628, 629, 630, 631, 632, 633, 634, 635, 636, 637, 638, 639, 640, 641, 642, 643, 644, 645, 646, 647, 648, 649, 650, 651, 652, 653, 654, 655, 656, 657, 658, 659, 660, 661, 662, 663, 664, 665, 666, 667, 668, 669, 670, 671, 672, 673, 674, 675, 676, 677, 678, 679, 680, 681, 682, 683, 684, 685, 686, 687, 688, 689, 690, 691, 692, 693, 694, 695, 696, 697, 698, 699, 700, 701, 702, 703, 704, 705, 706, 707, 708, 709, 710, 711, 712, 713, 714, 715, 716, 717, 718, 719, 720, 721, 722, 723, 724, 725, 726, 727, 728, 729, 730, 731, 732, 733, 734, 735, 736, 737, 738, 739, 740, 741, 742, 743, 744, 745, 746, 747, 748, 749, 750, 751, 752, 753, 754, 755, 756, 757, 758, 759, 760, 761, 762, 763, 764, 765, 766, 767, 768, 769, 770, 771, 772, 773, 774, 775, 776, 777, 778, 779, 780, 781, 782, 783, 784, 785, 786, 787, 788, 789, 790, 791, 792, 793, 794, 795, 796, 797, 798, 799, 800, 801, 802, 803, 804, 805, 806, 807, 808, 809, 810, 811, 812, 813, 814, 815, 816, 817, 818, 819, 820, 821, 822, 823, 824, 825, 826, 827, 828, 829, 830, 831, 832, 833, 834, 835, 836, 837, 838, 839, 840, 841, 842, 843, 844, 845, 846, 847, 848, 849, 850, 851, 852, 853, 854, 855, 856, 857, 858, 859, 860, 861, 862, 863, 864, 865, 866, 867, 868, 869, 870, 871, 872],
      "AcquisitionTime": ["175046.490000", "175046.950000", "175047.410000", "175047.870000", "175048.330000", "175048.790000", "175049.250000", "175049.710000", "175050.170000", "175050.630000", "175051.090000", "175051.550000", "175052.010000", "175052.470000", "175052.930000", "175053.390000", "175053.850000", "175054.310000", "175054.770000", "175055.230000", "175055.690000", "175056.150000", "175056.610000", "175057.070000", "175057.530000", "175057.990000", "175058.450000", "175058.910000", "175059.370000", "175059.830000", "175100.290000", "175100.750000", "175101.210000", "175101.670000", "175102.130000", "175102.590000", "175103.050000", "175103.510000", "175103.970000", "175104.430000", "175104.890000", "175105.350000", "175105.810000", "175106.270000", "175106.730000", "175107.190000", "175107.650000", "175108.110000", "175108.570000", "175109.030000", "175109.490000", "175109.950000", "175110.410000", "175110.870000", "175111.330000", "175111.790000", "175112.250000", "175112.710000", "175113.170000", "175113.630000", "175114.090000", "175114.550000", "175115.010000", "175115.470000", "175115.930000", "175116.390000", "175116.850000", "175117.310000", "175117.770000", "175118.230000", "175118.690000", "175119.150000", "175119.610000", "175120.070000", "175120.530000", "175120.990000", "175121.450000", "175121.910000", "175122.370000", "175122.830000", "175123.290000", "175123.750000", "175124.210000", "175124.670000", "175125.130000", "175125.590000", "175126.050000", "175126.510000", "175126.970000", "175127.430000", "175127.890000", "175128.350000", "175128.810000", "175129.270000", "175129.730000", "175130.190000", "175130.650000", "175131.110000", "175131.570000", "175132.030000", "175132.490000", "175132.950000", "175133.410000", "175133.870000", "175134.330000", "175134.790000", "175135.250000", "175135.710000", "175136.170000", "175136.630000", "175137.090000", "175137.550000", "175138.010000", "175138.470000", "175138.930000", "175139.390000", "175139.850000", "175140.310000", "175140.770000", "175141.230000", "175141.690000", "175142.150000", "175142.610000", "175143.070000", "175143.530000", "175143.990000", "175144.450000", "175144.910000", "175145.370000", "175145.830000", "175146.290000", "175146.750000", "175147.210000", "175147.670000", "175148.130000", "175148.590000", "175149.050000", "175149.510000", "175149.970000", "175150.430000", "175150.890000", "175151.350000", "175151.810000", "175152.270000", "175152.730000", "175153.190000", "175153.650000", "175154.110000", "175154.570000", "175155.030000", "175155.490000", "175155.950000", "175156.410000", "175156.870000", "175157.330000", "175157.790000", "175158.250000", "175158.710000", "175159.170000", "175159.630000", "175200.090000", "175200.550000", "175201.010000", "175201.470000", "175201.930000", "175202.390000", "175202.850000", "175203.310000", "175203.770000", "175204.230000", "175204.690000", "175205.150000", "175205.610000", "175206.070000", "175206.530000", "175206.990000", "175207.450000", "175207.910000", "175208.370000", "175208.830000", "175209.290000", "175209.750000", "175210.210000", "175210.670000", "175211.130000", "175211.590000", "175212.050000", "175212.510000", "175212.970000", "175213.430000", "175213.890000", "175214.350000", "175214.810000", "175215.270000", "175215.730000", "175216.190000", "175216.650000", "175217.110000", "175217.570000", "175218.030000", "175218.490000", "175218.950000", "175219.410000", "175219.870000", "175220.330000", "175220.790000", "175221.250000", "175221.710000", "175222.170000", "175222.630000", "175223.090000", "175223.550000", "175224.010000", "175224.470000", "175224.930000", "175225.390000", "175225.850000", "175226.310000", "175226.770000", "175227.230000", "175227.690000", "175228.150000", "175228.610000", "175229.070000", "175229.530000", "175229.990000", "175230.450000", "175230.910000", "175231.370000", "175231.830000", "175232.290000", "175232.750000", "175233.210000", "175233.670000", "175234.130000", "175234.590000", "175235.050000", "175235.510000", "175235.970000", "175236.430000", "175236.890000", "175237.350000", "175237.810000", "175238.270000", "175238.730000", "175239.190000", "175239.650000", "175240.110000", "175240.570000", "175241.030000", "175241.490000", "175241.950000", "175242.410000", "175242.870000", "175243.330000", "175243.790000", "175244.250000", "175244.710000", "175245.170000", "175245.630000", "175246.090000", "175246.550000", "175247.010000", "175247.470000", "175247.930000", "175248.390000", "175248.850000", "175249.310000", "175249.770000", "175250.230000", "175250.690000", "175251.150000", "175251.610000", "175252.070000", "175252.530000", "175252.990000", "175253.450000", "175253.910000", "175254.370000", "175254.830000", "175255.290000", "175255.750000", "175256.210000", "175256.670000", "175257.130000", "175257.590000", "175258.050000", "175258.510000", "175258.970000", "175259.430000", "175259.890000", "175300.350000", "175300.810000", "175301.270000", "175301.730000", "175302.190000", "175302.650000", "175303.110000", "175303.570000", "175304.030000", "175304.490000", "175304.950000", "175305.410000", "175305.870000", "175306.330000", "175306.790000", "175307.250000", "175307.710000", "175308.170000", "175308.630000", "175309.090000", "175309.550000", "175310.010000", "175310.470000", "175310.930000", "175311.390000", "175311.850000", "175312.310000", "175312.770000", "175313.230000", "175313.690000", "175314.150000", "175314.610000", "175315.070000", "175315.530000", "175315.990000", "175316.450000", "175316.910000", "175317.370000", "175317.830000", "175318.290000", "175318.750000", "175319.210000", "175319.670000", "175320.130000", "175320.590000", "175321.050000", "175321.510000", "175321.970000", "175322.430000", "175322.890000", "175323.350000", "175323.810000", "175324.270000", "175324.730000", "175325.190000", "175325.650000", "175326.110000", "175326.570000", "175327.030000", "175327.490000", "175327.950000", "175328.410000", "175328.870000", "175329.330000", "175329.790000", "175330.250000", "175330.710000", "175331.170000", "175331.630000", "175332.090000", "175332.550000", "175333.010000", "175333.470000", "175333.930000", "175334.390000", "175334.850000", "175335.310000", "175335.770000", "175336.230000", "175336.690000", "175337.150000", "175337.610000", "175338.070000", "175338.530000", "175338.990000", "175339.450000", "175339.910000", "175340.370000", "175340.830000", "175341.290000", "175341.750000", "175342.210000", "175342.670000", "175343.130000", "175343.590000", "175344.050000", "175344.510000", "175344.970000", "175345.430000", "175345.890000", "175346.350000", "175346.810000", "175347.270000", "175347.730000", "175348.190000", "175348.650000", "175349.110000", "175349.570000", "175350.030000", "175350.490000", "175350.950000", "175351.410000", "175351.870000", "175352.330000", "175352.790000", "175353.250000", "175353.710000", "175354.170000", "175354.630000", "175355.090000", "175355.550000", "175356.010000", "175356.470000", "175356.930000", "175357.390000", "175357.850000", "175358.310000", "175358.770000", "175359.230000", "175359.690000", "175400.150000", "175400.610000", "175401.070000", "175401.530000", "175401.990000", "175402.450000", "175402.910000", "175403.370000", "175403.830000", "175404.290000", "175404.750000", "175405.210000", "175405.670000", "175406.130000", "175406.590000", "175407.050000", "175407.510000", "175407.970000", "175408.430000", "175408.890000", "175409.350000", "175409.810000", "175410.270000", "175410.730000", "175411.190000", "175411.650000", "175412.110000", "175412.570000", "175413.030000", "175413.490000", "175413.950000", "175414.410000", "175414.870000", "175415.330000", "175415.790000", "175416.250000", "175416.710000", "175417.170000", "175417.630000", "175418.090000", "175418.550000", "175419.010000", "175419.470000", "175419.930000", "175420.390000", "175420.850000", "175421.310000", "175421.770000", "175422.230000", "175422.690000", "175423.150000", "175423.610000", "175424.070000", "175424.530000", "175424.990000", "175425.450000", "175425.910000", "175426.370000", "175426.830000", "175427.290000", "175427.750000", "175428.210000", "175428.670000", "175429.130000", "175429.590000", "175430.050000", "175430.510000", "175430.970000", "175431.430000", "175431.890000", "175432.350000", "175432.810000", "175433.270000", "175433.730000", "175434.190000", "175434.650000", "175435.110000", "175435.570000", "175436.030000", "175436.490000", "175436.950000", "175437.410000", "175437.870000", "175438.330000", "175438.790000", "175439.250000", "175439.710000", "175440.170000", "175440.630000", "175441.090000", "175441.550000", "175442.010000", "175442.470000", "175442.930000", "175443.390000", "175443.850000", "175444.310000", "175444.770000", "175445.230000", "175445.690000", "175446.150000", "175446.610000", "175447.070000", "175447.530000", "175447.990000", "175448.450000", "175448.910000", "175449.370000", "175449.830000", "175450.290000", "175450.750000", "175451.210000", "175451.670000", "175452.130000", "175452.590000", "175453.050000", "175453.510000", "175453.970000", "175454.430000", "175454.890000", "175455.350000", "175455.810000", "175456.270000", "175456.730000", "175457.190000", "175457.650000", "175458.110000", "175458.570000", "175459.030000", "175459.490000", "175459.950000", "175500.410000", "175500.870000", "175501.330000", "175501.790000", "175502.250000", "175502.710000", "175503.170000", "175503.630000", "175504.090000", "175504.550000", "175505.010000", "175505.470000", "175505.930000", "175506.390000", "175506.850000", "175507.310000", "175507.770000", "175508.230000", "175508.690000", "175509.150000", "175509.610000", "175510.070000", "175510.530000", "175510.990000", "175511.450000", "175511.910000", "175512.370000", "175512.830000", "175513.290000", "175513.750000", "175514.210000", "175514.670000", "175515.130000", "175515.590000", "175516.050000", "175516.510000", "175516.970000", "175517.430000", "175517.890000", "175518.350000", "175518.810000", "175519.270000", "175519.730000", "175520.190000", "175520.650000", "175521.110000", "175521.570000", "175522.030000", "175522.490000", "175522.950000", "175523.410000", "175523.870000", "175524.330000", "175524.790000", "175525.250000", "175525.710000", "175526.170000", "175526.630000", "175527.090000", "175527.550000", "175528.010000", "175528.470000", "175528.930000", "175529.390000", "175529.850000", "175530.310000", "175530.770000", "175531.230000", "175531.690000", "175532.150000", "175532.610000", "175533.070000", "175533.530000", "175533.990000", "175534.450000", "175534.910000", "175535.370000", "175535.830000", "175536.290000", "175536.750000", "175537.210000", "175537.670000", "175538.130000", "175538.590000", "175539.050000", "175539.510000", "175539.970000", "175540.430000", "175540.890000", "175541.350000", "175541.810000", "175542.270000", "175542.730000", "175543.190000", "175543.650000", "175544.110000", "175544.570000", "175545.030000", "175545.490000", "175545.950000", "175546.410000", "175546.870000", "175547.330000", "175547.790000", "175548.250000", "175548.710000", "175549.170000", "175549.630000", "175550.090000", "175550.550000", "175551.010000", "175551.470000", "175551.930000", "175552.390000", "175552.850000", "175553.310000", "175553.770000", "175554.230000", "175554.690000", "175555.150000", "175555.610000", "175556.070000", "175556.530000", "175556.990000", "175557.450000", "175557.910000", "175558.370000", "175558.830000", "175559.290000", "175559.750000", "175600.210000", "175600.670000", "175601.130000", "175601.590000", "175602.050000", "175602.510000", "175602.970000", "175603.430000", "175603.890000", "175604.350000", "175604.810000", "175605.270000", "175605.730000", "175606.190000", "175606.650000", "175607.110000", "175607.570000", "175608.030000", "175608.490000", "175608.950000", "175609.410000", "175609.870000", "175610.330000", "175610.790000", "175611.250000", "175611.710000", "175612.170000", "175612.630000", "175613.090000", "175613.550000", "175614.010000", "175614.470000", "175614.930000", "175615.390000", "175615.850000", "175616.310000", "175616.770000", "175617.230000", "175617.690000", "175618.150000", "175618.610000", "175619.070000", "175619.530000", "175619.990000", "175620.450000", "175620.910000", "175621.370000", "175621.830000", "175622.290000", "175622.750000", "175623.210000", "175623.670000", "175624.130000", "175624.590000", "175625.050000", "175625.510000", "175625.970000", "175626.430000", "175626.890000", "175627.350000", "175627.810000", "175628.270000", "175628.730000", "175629.190000", "175629.650000", "175630.110000", "175630.570000", "175631.030000", "175631.490000", "175631.950000", "175632.410000", "175632.870000", "175633.330000", "175633.790000", "175634.250000", "175634.710000", "175635.170000", "175635.630000", "175636.090000", "175636.550000", "175637.010000", "175637.470000", "175637.930000", "175638.390000", "175638.850000", "175639.310000", "175639.770000", "175640.230000", "175640.690000", "175641.150000", "175641.610000", "175642.070000", "175642.530000", "175642.990000", "175643.450000", "175643.910000", "175644.370000", "175644.830000", "175645.290000", "175645.750000", "175646.210000", "175646.670000", "175647.130000", "175647.590000", "175648.050000", "175648.510000", "175648.970000", "175649.430000", "175649.890000", "175650.350000", "175650.810000", "175651.270000", "175651.730000", "175652.190000", "175652.650000", "175653.110000", "175653.570000", "175654.030000", "175654.490000", "175654.950000", "175655.410000", "175655.870000", "175656.330000", "175656.790000", "175657.250000", "175657.710000", "175658.170000", "175658.630000", "175659.090000", "175659.550000", "175700.010000", "175700.470000", "175700.930000", "175701.390000", "175701.850000", "175702.310000", "175702.770000", "175703.230000", "175703.690000", "175704.150000", "175704.610000", "175705.070000", "175705.530000", "175705.990000", "175706.450000", "175706.910000", "175707.370000", "175707.830000", "175708.290000", "175708.750000", "175709.210000", "175709.670000", "175710.130000", "175710.590000", "175711.050000", "175711.510000", "175711.970000", "175712.430000", "175712.890000", "175713.350000", "175713.810000", "175714.270000", "175714.730000", "175715.190000", "175715.650000", "175716.110000", "175716.570000", "175717.030000", "175717.490000", "175717.950000", "175718.410000", "175718.870000", "175719.330000", "175719.790000", "175720.250000", "175720.710000", "175721.170000", "175721.630000", "175722.090000", "175722.550000", "175723.010000", "175723.470000", "175723.930000", "175724.390000", "175724.850000", "175725.310000", "175725.770000", "175726.230000", "175726.690000", "175727.150000"],
