{
  "AcquisitionMatrixPE": 82,
  "AcquisitionNumber": 1,
  "AcquisitionTime": "17:16:36.950000",
  "BandwidthPerPixelPhaseEncode": 24.888,
  "BaseResolution": 82,
  "BodyPartExamined": "BRAIN",
  "ConsistencyInfo": "N4_VE11E_LATEST_20181129",
  "ConversionSoftware": "dcm2niix",
  "ConversionSoftwareVersion": "v1.0.20201102",
  "DerivedVendorReportedEchoSpacing": 0.00049,
  "DeviceSerialNumber": "66112",
  "DwellTime": 2e-06,
  "EchoTime": 0.0272,
  "EchoTrainLength": 82,
  "EffectiveEchoSpacing": 0.00049,
  "FlipAngle": 44,
  "ImageComments": "Unaliased MB8/PE3",
  "ImageOrientationPatientDICOM": [0.999965, 0.00178383, 0.00822859, -0.00279247, 0.992248, 0.124246],
  "ImageType": [
    "ORIGINAL",
    "PRIMARY",
    "M",
    "MB",
    "ND",
    "NORM",
    "MOSAIC"
],
  "ImagingFrequency": 123.259,
  "InPlanePhaseEncodingDirectionDICOM": "COL",
  "InstitutionAddress": "Maynard 3,Hanover,NH,US,03755",
  "InstitutionName": "Dartmouth College - PBS",
  "InstitutionalDepartmentName": "Department",
  "MRAcquisitionType": "2D",
  "MagneticFieldStrength": 3,
  "Manufacturer": "Siemens",
  "ManufacturersModelName": "Prisma",
  "Modality": "MR",
  "MultibandAccelerationFactor": 8,
  "PartialFourier": 1,
  "PatientPosition": "HFS",
  "PercentPhaseFOV": 100,
  "PercentSampling": 100,
  "PhaseEncodingDirection": "j-",
  "PhaseEncodingSteps": 82,
  "PhaseResolution": 1,
  "PixelBandwidth": 3050,
  "ProcedureStepDescription": "Wager_Wager^1076_spacetop",
  "ProtocolName": "func_run-01_task-social_acq-ap-mb8",
  "PulseSequenceDetails": "%CustomerSeq%\\cmrr_mbep2d_bold",
  "ReceiveCoilActiveElements": "HEA;HEP",
  "ReceiveCoilName": "Head_32",
  "ReconMatrixPE": 82,
  "RepetitionTime": 0.46,
  "SAR": 0.114849,
  "ScanOptions": "FS",
  "ScanningSequence": "EP",
  "SequenceName": "epfid2d1_82",
  "SequenceVariant": "SK\\SS",
  "SeriesDescription": "func_run-01_task-social_acq-ap-mb8",
  "SeriesNumber": 8,
  "ShimSetting": [4224, -7817, -7218, 26, -85, -149, -31, 83],
  "SliceThickness": 2.7,
  "SliceTiming": [0, 0.25, 0.0625, 0.3125, 0.125, 0.3775, 0.1875, 0, 0.25, 0.0625, 0.3125, 0.125, 0.3775, 0.1875, 0, 0.25, 0.0625, 0.3125, 0.125, 0.3775, 0.1875, 0, 0.25, 0.0625, 0.3125, 0.125, 0.3775, 0.1875, 0, 0.25, 0.0625, 0.3125, 0.125, 0.3775, 0.1875, 0, 0.25, 0.0625, 0.3125, 0.125, 0.3775, 0.1875, 0, 0.25, 0.0625, 0.3125, 0.125, 0.3775, 0.1875, 0, 0.25, 0.0625, 0.3125, 0.125, 0.3775, 0.1875],
  "SoftwareVersions": "syngo MR E11",
  "SpacingBetweenSlices": 2.7,
  "StationName": "AWP66112",
  "TaskName": "social",
  "TotalReadoutTime": 0.03969,
  "TxRefAmp": 299.463,
  "WipMemBlock": "952c1923-4598-4317-8eab-43f815fa3f4b||Sequence: R016 ve11e/master r/434b28f1; Aug  7 2019 18:53:46 by eja",
  "dcmmeta_affine": [
    [-2.6828317642211914, -0.007491999305784702, 0.02144654653966427, 115.59239959716797],
    [-0.004785897675901651, 2.6621274948120117, 0.3355138599872589, -90.55131530761719],
    [0.02207670919597149, -0.33334246277809143, 2.6789867877960205, -57.74661636352539],
    [0.0, 0.0, 0.0, 1.0]
],
  "dcmmeta_reorient_transform": [
    [0.0, -1.0, 0.0, 81.0],
    [1.0, 0.0, 0.0, 0.0],
    [0.0, 0.0, 1.0, 0.0],
    [0.0, 0.0, 0.0, 1.0]
],
  "dcmmeta_shape": [82, 82, 56, 872],
  "dcmmeta_slice_dim": 2,
  "dcmmeta_version": 0.6,
  "global": {
    "const": {
      "AccessionNumber": "A004849",
      "AcquisitionMatrix": [82, 0, 0, 82],
      "AngioFlag": "N",
      "BitsAllocated": 16,
      "BitsStored": 16,
      "BodyPartExamined": "BRAIN",
      "Columns": 656,
      "EchoNumbers": 1,
      "EchoTime": 27.2,
      "EchoTrainLength": 82,
      "FlipAngle": 44.0,
      "HighBit": 15,
      "ImageOrientationPatient": [0.99996455348236, 0.00178383447402, 0.00822859121511, -0.0027924724027, 0.99224753898784, 0.12424581872424],
      "ImagePositionPatient": [-882.80806977954, -890.48519835733, -186.75265442449],
      "ImageType": [
        "ORIGINAL",
        "PRIMARY",
        "M",
        "MB",
        "ND",
        "NORM",
        "MOSAIC"
],
      "ImagedNucleus": "1H",
      "ImagingFrequency": 123.258975,
      "InPlanePhaseEncodingDirection": "COL",
      "MRAcquisitionType": "2D",
      "MagneticFieldStrength": 3.0,
      "Manufacturer": "SIEMENS",
      "ManufacturerModelName": "Prisma",
      "Modality": "MR",
      "NumberOfAverages": 1.0,
      "NumberOfPhaseEncodingSteps": 82,
      "PercentPhaseFieldOfView": 100.0,
      "PercentSampling": 100.0,
      "PerformedProcedureStepStartTime": "170359.055000",
      "PhotometricInterpretation": "MONOCHROME2",
      "PixelBandwidth": 3050.0,
      "PixelRepresentation": 0,
      "PixelSpacing": [2.6829268932343, 2.6829268932343],
      "ProtocolName": "func_run-01_task-social_acq-ap-mb8",
      "RepetitionTime": 460.0,
      "Rows": 656,
      "SAR": 0.11484861500298,
      "SamplesPerPixel": 1,
      "ScanOptions": "FS",
      "ScanningSequence": "EP",
      "SequenceName": "epfid2d1_82",
      "SequenceVariant": [
        "SK",
        "SS"
],
      "SeriesDescription": "func_run-01_task-social_acq-ap-mb8",
      "SeriesNumber": 8,
      "SeriesTime": "171704.975000",
      "SliceLocation": -67.631330658516,
      "SliceThickness": 2.7000000476837,
      "SmallestImagePixelValue": 0,
      "SoftwareVersions": "syngo MR E11",
      "SpacingBetweenSlices": 2.7000000008433,
      "SpecificCharacterSet": "ISO_IR 100",
      "StudyID": "5",
      "StudyTime": "170358.989000",
      "TransmitCoilName": "Body",
      "VariableFlipAngleFlag": "N",
      "WindowCenterWidthExplanation": "Algo1"
    },
    "slices": {}
  },
  "time": {
    "samples": {
      "AcquisitionNumber": [1, 2, 3, 4, 5, 6, 7, 8, 9, 10, 11, 12, 13, 14, 15, 16, 17, 18, 19, 20, 21, 22, 23, 24, 25, 26, 27, 28, 29, 30, 31, 32, 33, 34, 35, 36, 37, 38, 39, 40, 41, 42, 43, 44, 45, 46, 47, 48, 49, 50, 51, 52, 53, 54, 55, 56, 57, 58, 59, 60, 61, 62, 63, 64, 65, 66, 67, 68, 69, 70, 71, 72, 73, 74, 75, 76, 77, 78, 79, 80, 81, 82, 83, 84, 85, 86, 87, 88, 89, 90, 91, 92, 93, 94, 95, 96, 97, 98, 99, 100, 101, 102, 103, 104, 105, 106, 107, 108, 109, 110, 111, 112, 113, 114, 115, 116, 117, 118, 119, 120, 121, 122, 123, 124, 125, 126, 127, 128, 129, 130, 131, 132, 133, 134, 135, 136, 137, 138, 139, 140, 141, 142, 143, 144, 145, 146, 147, 148, 149, 150, 151, 152, 153, 154, 155, 156, 157, 158, 159, 160, 161, 162, 163, 164, 165, 166, 167, 168, 169, 170, 171, 172, 173, 174, 175, 176, 177, 178, 179, 180, 181, 182, 183, 184, 185, 186, 187, 188, 189, 190, 191, 192, 193, 194, 195, 196, 197, 198, 199, 200, 201, 202, 203, 204, 205, 206, 207, 208, 209, 210, 211, 212, 213, 214, 215, 216, 217, 218, 219, 220, 221, 222, 223, 224, 225, 226, 227, 228, 229, 230, 231, 232, 233, 234, 235, 236, 237, 238, 239, 240, 241, 242, 243, 244, 245, 246, 247, 248, 249, 250, 251, 252, 253, 254, 255, 256, 257, 258, 259, 260, 261, 262, 263, 264, 265, 266, 267, 268, 269, 270, 271, 272, 273, 274, 275, 276, 277, 278, 279, 280, 281, 282, 283, 284, 285, 286, 287, 288, 289, 290, 291, 292, 293, 294, 295, 296, 297, 298, 299, 300, 301, 302, 303, 304, 305, 306, 307, 308, 309, 310, 311, 312, 313, 314, 315, 316, 317, 318, 319, 320, 321, 322, 323, 324, 325, 326, 327, 328, 329, 330, 331, 332, 333, 334, 335, 336, 337, 338, 339, 340, 341, 342, 343, 344, 345, 346, 347, 348, 349, 350, 351, 352, 353, 354, 355, 356, 357, 358, 359, 360, 361, 362, 363, 364, 365, 366, 367, 368, 369, 370, 371, 372, 373, 374, 375, 376, 377, 378, 379, 380, 381, 382, 383, 384, 385, 386, 387, 388, 389, 390, 391, 392, 393, 394, 395, 396, 397, 398, 399, 400, 401, 402, 403, 404, 405, 406, 407, 408, 409, 410, 411, 412, 413, 414, 415, 416, 417, 418, 419, 420, 421, 422, 423, 424, 425, 426, 427, 428, 429, 430, 431, 432, 433, 434, 435, 436, 437, 438, 439, 440, 441, 442, 443, 444, 445, 446, 447, 448, 449, 450, 451, 452, 453, 454, 455, 456, 457, 458, 459, 460, 461, 462, 463, 464, 465, 466, 467, 468, 469, 470, 471, 472, 473, 474, 475, 476, 477, 478, 479, 480, 481, 482, 483, 484, 485, 486, 487, 488, 489, 490, 491, 492, 493, 494, 495, 496, 497, 498, 499, 500, 501, 502, 503, 504, 505, 506, 507, 508, 509, 510, 511, 512, 513, 514, 515, 516, 517, 518, 519, 520, 521, 522, 523, 524, 525, 526, 527, 528, 529, 530, 531, 532, 533, 534, 535, 536, 537, 538, 539, 540, 541, 542, 543, 544, 545, 546, 547, 548, 549, 550, 551, 552, 553, 554, 555, 556, 557, 558, 559, 560, 561, 562, 563, 564, 565, 566, 567, 568, 569, 570, 571, 572, 573, 574, 575, 576, 577, 578, 579, 580, 581, 582, 583, 584, 585, 586, 587, 588, 589, 590, 591, 592, 593, 594, 595, 596, 597, 598, 599, 600, 601, 602, 603, 604, 605, 606, 607, 608, 609, 610, 611, 612, 613, 614, 615, 616, 617, 618, 619, 620, 621, 622, 623, 624, 625, 626, 627, 628, 629, 630, 631, 632, 633, 634, 635, 636, 637, 638, 639, 640, 641, 642, 643, 644, 645, 646, 647, 648, 649, 650, 651, 652, 653, 654, 655, 656, 657, 658, 659, 660, 661, 662, 663, 664, 665, 666, 667, 668, 669, 670, 671, 672, 673, 674, 675, 676, 677, 678, 679, 680, 681, 682, 683, 684, 685, 686, 687, 688, 689, 690, 691, 692, 693, 694, 695, 696, 697, 698, 699, 700, 701, 702, 703, 704, 705, 706, 707, 708, 709, 710, 711, 712, 713, 714, 715, 716, 717, 718, 719, 720, 721, 722, 723, 724, 725, 726, 727, 728, 729, 730, 731, 732, 733, 734, 735, 736, 737, 738, 739, 740, 741, 742, 743, 744, 745, 746, 747, 748, 749, 750, 751, 752, 753, 754, 755, 756, 757, 758, 759, 760, 761, 762, 763, 764, 765, 766, 767, 768, 769, 770, 771, 772, 773, 774, 775, 776, 777, 778, 779, 780, 781, 782, 783, 784, 785, 786, 787, 788, 789, 790, 791, 792, 793, 794, 795, 796, 797, 798, 799, 800, 801, 802, 803, 804, 805, 806, 807, 808, 809, 810, 811, 812, 813, 814, 815, 816, 817, 818, 819, 820, 821, 822, 823, 824, 825, 826, 827, 828, 829, 830, 831, 832, 833, 834, 835, 836, 837, 838, 839, 840, 841, 842, 843, 844, 845, 846, 847, 848, 849, 850, 851, 852, 853, 854, 855, 856, 857, 858, 859, 860, 861, 862, 863, 864, 865, 866, 867, 868, 869, 870, 871, 872],
      "AcquisitionTime": ["171636.950000", "171637.410000", "171637.870000", "171638.330000", "171638.790000", "171639.250000", "171639.710000", "171640.170000", "171640.630000", "171641.090000", "171641.550000", "171642.010000", "171642.470000", "171642.930000", "171643.390000", "171643.850000", "171644.310000", "171644.770000", "171645.230000", "171645.690000", "171646.150000", "171646.610000", "171647.070000", "171647.530000", "171647.990000", "171648.450000", "171648.910000", "171649.370000", "171649.830000", "171650.290000", "171650.750000", "171651.210000", "171651.670000", "171652.130000", "171652.590000", "171653.050000", "171653.510000", "171653.970000", "171654.430000", "171654.890000", "171655.350000", "171655.810000", "171656.270000", "171656.730000", "171657.190000", "171657.650000", "171658.110000", "171658.570000", "171659.030000", "171659.490000", "171659.950000", "171700.410000", "171700.870000", "171701.330000", "171701.790000", "171702.250000", "171702.710000", "171703.170000", "171703.630000", "171704.090000", "171704.550000", "171705.010000", "171705.470000", "171705.930000", "171706.390000", "171706.850000", "171707.310000", "171707.770000", "171708.230000", "171708.690000", "171709.150000", "171709.610000", "171710.070000", "171710.530000", "171710.990000", "171711.450000", "171711.910000", "171712.370000", "171712.830000", "171713.290000", "171713.750000", "171714.210000", "171714.670000", "171715.130000", "171715.590000", "171716.050000", "171716.510000", "171716.970000", "171717.430000", "171717.890000", "171718.350000", "171718.810000", "171719.270000", "171719.730000", "171720.190000", "171720.650000", "171721.110000", "171721.570000", "171722.030000", "171722.490000", "171722.950000", "171723.410000", "171723.870000", "171724.330000", "171724.790000", "171725.250000", "171725.710000", "171726.170000", "171726.630000", "171727.090000", "171727.550000", "171728.010000", "171728.470000", "171728.930000", "171729.390000", "171729.850000", "171730.310000", "171730.770000", "171731.230000", "171731.690000", "171732.150000", "171732.610000", "171733.070000", "171733.530000", "171733.990000", "171734.450000", "171734.910000", "171735.370000", "171735.830000", "171736.290000", "171736.750000", "171737.210000", "171737.670000", "171738.130000", "171738.590000", "171739.050000", "171739.510000", "171739.970000", "171740.430000", "171740.890000", "171741.350000", "171741.810000", "171742.270000", "171742.730000", "171743.190000", "171743.650000", "171744.110000", "171744.570000", "171745.030000", "171745.490000", "171745.950000", "171746.410000", "171746.870000", "171747.330000", "171747.790000", "171748.250000", "171748.710000", "171749.170000", "171749.630000", "171750.090000", "171750.550000", "171751.010000", "171751.470000", "171751.930000", "171752.390000", "171752.850000", "171753.310000", "171753.770000", "171754.230000", "171754.690000", "171755.150000", "171755.610000", "171756.070000", "171756.530000", "171756.990000", "171757.450000", "171757.910000", "171758.370000", "171758.830000", "171759.290000", "171759.750000", "171800.210000", "171800.670000", "171801.130000", "171801.590000", "171802.050000", "171802.510000", "171802.970000", "171803.430000", "171803.890000", "171804.350000", "171804.810000", "171805.270000", "171805.730000", "171806.190000", "171806.650000", "171807.110000", "171807.570000", "171808.030000", "171808.490000", "171808.950000", "171809.410000", "171809.870000", "171810.330000", "171810.790000", "171811.250000", "171811.710000", "171812.170000", "171812.630000", "171813.090000", "171813.550000", "171814.010000", "171814.470000", "171814.930000", "171815.390000", "171815.850000", "171816.310000", "171816.770000", "171817.230000", "171817.690000", "171818.150000", "171818.610000", "171819.070000", "171819.530000", "171819.990000", "171820.450000", "171820.910000", "171821.370000", "171821.830000", "171822.290000", "171822.750000", "171823.210000", "171823.670000", "171824.130000", "171824.590000", "171825.050000", "171825.510000", "171825.970000", "171826.430000", "171826.890000", "171827.350000", "171827.810000", "171828.270000", "171828.730000", "171829.190000", "171829.650000", "171830.110000", "171830.570000", "171831.030000", "171831.490000", "171831.950000", "171832.410000", "171832.870000", "171833.330000", "171833.790000", "171834.250000", "171834.710000", "171835.170000", "171835.630000", "171836.090000", "171836.550000", "171837.010000", "171837.470000", "171837.930000", "171838.390000", "171838.850000", "171839.310000", "171839.770000", "171840.230000", "171840.690000", "171841.150000", "171841.610000", "171842.070000", "171842.530000", "171842.990000", "171843.450000", "171843.910000", "171844.370000", "171844.830000", "171845.290000", "171845.750000", "171846.210000", "171846.670000", "171847.130000", "171847.590000", "171848.050000", "171848.510000", "171848.970000", "171849.430000", "171849.890000", "171850.350000", "171850.810000", "171851.270000", "171851.730000", "171852.190000", "171852.650000", "171853.110000", "171853.570000", "171854.030000", "171854.490000", "171854.950000", "171855.410000", "171855.870000", "171856.330000", "171856.790000", "171857.250000", "171857.710000", "171858.170000", "171858.630000", "171859.090000", "171859.550000", "171900.010000", "171900.470000", "171900.930000", "171901.390000", "171901.850000", "171902.310000", "171902.770000", "171903.230000", "171903.690000", "171904.150000", "171904.610000", "171905.070000", "171905.530000", "171905.990000", "171906.450000", "171906.910000", "171907.370000", "171907.830000", "171908.290000", "171908.750000", "171909.210000", "171909.670000", "171910.130000", "171910.590000", "171911.050000", "171911.510000", "171911.970000", "171912.430000", "171912.890000", "171913.350000", "171913.810000", "171914.270000", "171914.730000", "171915.190000", "171915.650000", "171916.110000", "171916.570000", "171917.030000", "171917.490000", "171917.950000", "171918.410000", "171918.870000", "171919.330000", "171919.790000", "171920.250000", "171920.710000", "171921.170000", "171921.630000", "171922.090000", "171922.550000", "171923.010000", "171923.470000", "171923.930000", "171924.390000", "171924.850000", "171925.310000", "171925.770000", "171926.230000", "171926.690000", "171927.150000", "171927.610000", "171928.070000", "171928.530000", "171928.990000", "171929.450000", "171929.910000", "171930.370000", "171930.830000", "171931.290000", "171931.750000", "171932.210000", "171932.670000", "171933.130000", "171933.590000", "171934.050000", "171934.510000", "171934.970000", "171935.430000", "171935.890000", "171936.350000", "171936.810000", "171937.270000", "171937.730000", "171938.190000", "171938.650000", "171939.110000", "171939.570000", "171940.030000", "171940.490000", "171940.950000", "171941.410000", "171941.870000", "171942.330000", "171942.790000", "171943.250000", "171943.710000", "171944.170000", "171944.630000", "171945.090000", "171945.550000", "171946.010000", "171946.470000", "171946.930000", "171947.390000", "171947.850000", "171948.310000", "171948.770000", "171949.230000", "171949.690000", "171950.150000", "171950.610000", "171951.070000", "171951.530000", "171951.990000", "171952.450000", "171952.910000", "171953.370000", "171953.830000", "171954.290000", "171954.750000", "171955.210000", "171955.670000", "171956.130000", "171956.590000", "171957.050000", "171957.510000", "171957.970000", "171958.430000", "171958.890000", "171959.350000", "171959.810000", "172000.270000", "172000.730000", "172001.190000", "172001.650000", "172002.110000", "172002.570000", "172003.030000", "172003.490000", "172003.950000", "172004.410000", "172004.870000", "172005.330000", "172005.790000", "172006.250000", "172006.710000", "172007.170000", "172007.630000", "172008.090000", "172008.550000", "172009.010000", "172009.470000", "172009.930000", "172010.390000", "172010.850000", "172011.310000", "172011.770000", "172012.230000", "172012.690000", "172013.150000", "172013.610000", "172014.070000", "172014.530000", "172014.990000", "172015.450000", "172015.910000", "172016.370000", "172016.830000", "172017.290000", "172017.750000", "172018.210000", "172018.670000", "172019.130000", "172019.590000", "172020.050000", "172020.510000", "172020.970000", "172021.430000", "172021.890000", "172022.350000", "172022.810000", "172023.270000", "172023.730000", "172024.190000", "172024.650000", "172025.110000", "172025.570000", "172026.030000", "172026.490000", "172026.950000", "172027.410000", "172027.870000", "172028.330000", "172028.790000", "172029.250000", "172029.710000", "172030.170000", "172030.630000", "172031.090000", "172031.550000", "172032.010000", "172032.470000", "172032.930000", "172033.390000", "172033.850000", "172034.310000", "172034.770000", "172035.230000", "172035.690000", "172036.150000", "172036.610000", "172037.070000", "172037.530000", "172037.990000", "172038.450000", "172038.910000", "172039.370000", "172039.830000", "172040.290000", "172040.750000", "172041.210000", "172041.670000", "172042.130000", "172042.590000", "172043.050000", "172043.510000", "172043.970000", "172044.430000", "172044.890000", "172045.350000", "172045.810000", "172046.270000", "172046.730000", "172047.190000", "172047.650000", "172048.110000", "172048.570000", "172049.030000", "172049.490000", "172049.950000", "172050.410000", "172050.870000", "172051.330000", "172051.790000", "172052.250000", "172052.710000", "172053.170000", "172053.630000", "172054.090000", "172054.550000", "172055.010000", "172055.470000", "172055.930000", "172056.390000", "172056.850000", "172057.310000", "172057.770000", "172058.230000", "172058.690000", "172059.150000", "172059.610000", "172100.070000", "172100.530000", "172100.990000", "172101.450000", "172101.910000", "172102.370000", "172102.830000", "172103.290000", "172103.750000", "172104.210000", "172104.670000", "172105.130000", "172105.590000", "172106.050000", "172106.510000", "172106.970000", "172107.430000", "172107.890000", "172108.350000", "172108.810000", "172109.270000", "172109.730000", "172110.190000", "172110.650000", "172111.110000", "172111.570000", "172112.030000", "172112.490000", "172112.950000", "172113.410000", "172113.870000", "172114.330000", "172114.790000", "172115.250000", "172115.710000", "172116.170000", "172116.630000", "172117.090000", "172117.550000", "172118.010000", "172118.470000", "172118.930000", "172119.390000", "172119.850000", "172120.310000", "172120.770000", "172121.230000", "172121.690000", "172122.150000", "172122.610000", "172123.070000", "172123.530000", "172123.990000", "172124.450000", "172124.910000", "172125.370000", "172125.830000", "172126.290000", "172126.750000", "172127.210000", "172127.670000", "172128.130000", "172128.590000", "172129.050000", "172129.510000", "172129.970000", "172130.430000", "172130.890000", "172131.350000", "172131.810000", "172132.270000", "172132.730000", "172133.190000", "172133.650000", "172134.110000", "172134.570000", "172135.030000", "172135.490000", "172135.950000", "172136.410000", "172136.870000", "172137.330000", "172137.790000", "172138.250000", "172138.710000", "172139.170000", "172139.630000", "172140.090000", "172140.550000", "172141.010000", "172141.470000", "172141.930000", "172142.390000", "172142.850000", "172143.310000", "172143.770000", "172144.230000", "172144.690000", "172145.150000", "172145.610000", "172146.070000", "172146.530000", "172146.990000", "172147.450000", "172147.910000", "172148.370000", "172148.830000", "172149.290000", "172149.750000", "172150.210000", "172150.670000", "172151.130000", "172151.590000", "172152.050000", "172152.510000", "172152.970000", "172153.430000", "172153.890000", "172154.350000", "172154.810000", "172155.270000", "172155.730000", "172156.190000", "172156.650000", "172157.110000", "172157.570000", "172158.030000", "172158.490000", "172158.950000", "172159.410000", "172159.870000", "172200.330000", "172200.790000", "172201.250000", "172201.710000", "172202.170000", "172202.630000", "172203.090000", "172203.550000", "172204.010000", "172204.470000", "172204.930000", "172205.390000", "172205.850000", "172206.310000", "172206.770000", "172207.230000", "172207.690000", "172208.150000", "172208.610000", "172209.070000", "172209.530000", "172209.990000", "172210.450000", "172210.910000", "172211.370000", "172211.830000", "172212.290000", "172212.750000", "172213.210000", "172213.670000", "172214.130000", "172214.590000", "172215.050000", "172215.510000", "172215.970000", "172216.430000", "172216.890000", "172217.350000", "172217.810000", "172218.270000", "172218.730000", "172219.190000", "172219.650000", "172220.110000", "172220.570000", "172221.030000", "172221.490000", "172221.950000", "172222.410000", "172222.870000", "172223.330000", "172223.790000", "172224.250000", "172224.710000", "172225.170000", "172225.630000", "172226.090000", "172226.550000", "172227.010000", "172227.470000", "172227.930000", "172228.390000", "172228.850000", "172229.310000", "172229.770000", "172230.230000", "172230.690000", "172231.150000", "172231.610000", "172232.070000", "172232.530000", "172232.990000", "172233.450000", "172233.910000", "172234.370000", "172234.830000", "172235.290000", "172235.750000", "172236.210000", "172236.670000", "172237.130000", "172237.590000", "172238.050000", "172238.510000", "172238.970000", "172239.430000", "172239.890000", "172240.350000", "172240.810000", "172241.270000", "172241.730000", "172242.190000", "172242.650000", "172243.110000", "172243.570000", "172244.030000", "172244.490000", "172244.950000", "172245.410000", "172245.870000", "172246.330000", "172246.790000", "172247.250000", "172247.710000", "172248.170000", "172248.630000", "172249.090000", "172249.550000", "172250.010000", "172250.470000", "172250.930000", "172251.390000", "172251.850000", "172252.310000", "172252.770000", "172253.230000", "172253.690000", "172254.150000", "172254.610000", "172255.070000", "172255.530000", "172255.990000", "172256.450000", "172256.910000", "172257.370000", "172257.830000", "172258.290000", "172258.750000", "172259.210000", "172259.670000", "172300.130000", "172300.590000", "172301.050000", "172301.510000", "172301.970000", "172302.430000", "172302.890000", "172303.350000", "172303.810000", "172304.270000", "172304.730000", "172305.190000", "172305.650000", "172306.110000", "172306.570000", "172307.030000", "172307.490000", "172307.950000", "172308.410000", "172308.870000", "172309.330000", "172309.790000", "172310.250000", "172310.710000", "172311.170000", "172311.630000", "172312.090000", "172312.550000", "172313.010000", "172313.470000", "172313.930000", "172314.390000", "172314.850000", "172315.310000", "172315.770000", "172316.230000", "172316.690000", "172317.150000", "172317.610000"],
