{
  "AcquisitionMatrixPE": 82,
  "AcquisitionNumber": 1,
  "AcquisitionTime": "17:58:36.485000",
  "BandwidthPerPixelPhaseEncode": 24.888,
  "BaseResolution": 82,
  "BodyPartExamined": "BRAIN",
  "ConsistencyInfo": "N4_VE11E_LATEST_20181129",
  "ConversionSoftware": "dcm2niix",
  "ConversionSoftwareVersion": "v1.0.20201102",
  "DerivedVendorReportedEchoSpacing": 0.00049,
  "DeviceSerialNumber": "66112",
  "DwellTime": 2e-06,
  "EchoTime": 0.0272,
  "EchoTrainLength": 82,
  "EffectiveEchoSpacing": 0.00049,
  "FlipAngle": 44,
  "ImageComments": "Unaliased MB8/PE3",
  "ImageOrientationPatientDICOM": [0.999965, 0.00178383, 0.00822859, -0.00279247, 0.992248, 0.124246],
  "ImageType": [
    "ORIGINAL",
    "PRIMARY",
    "M",
    "MB",
    "ND",
    "NORM",
    "MOSAIC"
],
  "ImagingFrequency": 123.259,
  "InPlanePhaseEncodingDirectionDICOM": "COL",
  "InstitutionAddress": "Maynard 3,Hanover,NH,US,03755",
  "InstitutionName": "Dartmouth College - PBS",
  "InstitutionalDepartmentName": "Department",
  "MRAcquisitionType": "2D",
  "MagneticFieldStrength": 3,
  "Manufacturer": "Siemens",
  "ManufacturersModelName": "Prisma",
  "Modality": "MR",
  "MultibandAccelerationFactor": 8,
  "PartialFourier": 1,
  "PatientPosition": "HFS",
  "PercentPhaseFOV": 100,
  "PercentSampling": 100,
  "PhaseEncodingDirection": "j-",
  "PhaseEncodingSteps": 82,
  "PhaseResolution": 1,
  "PixelBandwidth": 3050,
  "ProcedureStepDescription": "Wager_Wager^1076_spacetop",
  "ProtocolName": "func_run-06_task-social_acq-ap-mb8",
  "PulseSequenceDetails": "%CustomerSeq%\\cmrr_mbep2d_bold",
  "ReceiveCoilActiveElements": "HEA;HEP",
  "ReceiveCoilName": "Head_32",
  "ReconMatrixPE": 82,
  "RepetitionTime": 0.46,
  "SAR": 0.114849,
  "ScanOptions": "FS",
  "ScanningSequence": "EP",
  "SequenceName": "epfid2d1_82",
  "SequenceVariant": "SK\\SS",
  "SeriesDescription": "func_run-06_task-social_acq-ap-mb8",
  "SeriesNumber": 18,
  "ShimSetting": [4224, -7817, -7218, 26, -85, -149, -31, 83],
  "SliceThickness": 2.7,
  "SliceTiming": [0, 0.2525, 0.065, 0.315, 0.1275, 0.3775, 0.19, 0, 0.2525, 0.065, 0.315, 0.1275, 0.3775, 0.19, 0, 0.2525, 0.065, 0.315, 0.1275, 0.3775, 0.19, 0, 0.2525, 0.065, 0.315, 0.1275, 0.3775, 0.19, 0, 0.2525, 0.065, 0.315, 0.1275, 0.3775, 0.19, 0, 0.2525, 0.065, 0.315, 0.1275, 0.3775, 0.19, 0, 0.2525, 0.065, 0.315, 0.1275, 0.3775, 0.19, 0, 0.2525, 0.065, 0.315, 0.1275, 0.3775, 0.19],
  "SoftwareVersions": "syngo MR E11",
  "SpacingBetweenSlices": 2.7,
  "StationName": "AWP66112",
  "TaskName": "social",
  "TotalReadoutTime": 0.03969,
  "TxRefAmp": 299.463,
  "WipMemBlock": "5de5a88e-5842-40af-92ed-faad70cb9878||Sequence: R016 ve11e/master r/434b28f1; Aug  7 2019 18:53:46 by eja",
  "dcmmeta_affine": [
    [-2.6828317642211914, -0.007491999305784702, 0.02144654653966427, 115.59239959716797],
    [-0.004785897675901651, 2.6621274948120117, 0.3355138599872589, -90.55131530761719],
    [0.02207670919597149, -0.33334246277809143, 2.6789867877960205, -57.74661636352539],
    [0.0, 0.0, 0.0, 1.0]
],
  "dcmmeta_reorient_transform": [
    [0.0, -1.0, 0.0, 81.0],
    [1.0, 0.0, 0.0, 0.0],
    [0.0, 0.0, 1.0, 0.0],
    [0.0, 0.0, 0.0, 1.0]
],
  "dcmmeta_shape": [82, 82, 56, 872],
  "dcmmeta_slice_dim": 2,
  "dcmmeta_version": 0.6,
  "global": {
    "const": {
      "AccessionNumber": "A004849",
      "AcquisitionMatrix": [82, 0, 0, 82],
      "AngioFlag": "N",
      "BitsAllocated": 16,
      "BitsStored": 16,
      "BodyPartExamined": "BRAIN",
      "Columns": 656,
      "EchoNumbers": 1,
      "EchoTime": 27.2,
      "EchoTrainLength": 82,
      "FlipAngle": 44.0,
      "HighBit": 15,
      "ImageOrientationPatient": [0.99996455348236, 0.00178383447402, 0.00822859121511, -0.0027924724027, 0.99224753898784, 0.12424581872424],
      "ImagePositionPatient": [-882.80806977954, -890.48519835733, -186.75265442449],
      "ImageType": [
        "ORIGINAL",
        "PRIMARY",
        "M",
        "MB",
        "ND",
        "NORM",
        "MOSAIC"
],
      "ImagedNucleus": "1H",
      "ImagingFrequency": 123.259001,
      "InPlanePhaseEncodingDirection": "COL",
      "MRAcquisitionType": "2D",
      "MagneticFieldStrength": 3.0,
      "Manufacturer": "SIEMENS",
      "ManufacturerModelName": "Prisma",
      "Modality": "MR",
      "NumberOfAverages": 1.0,
      "NumberOfPhaseEncodingSteps": 82,
      "PercentPhaseFieldOfView": 100.0,
      "PercentSampling": 100.0,
      "PerformedProcedureStepStartTime": "170359.055000",
      "PhotometricInterpretation": "MONOCHROME2",
      "PixelBandwidth": 3050.0,
      "PixelRepresentation": 0,
      "PixelSpacing": [2.6829268932343, 2.6829268932343],
      "ProtocolName": "func_run-06_task-social_acq-ap-mb8",
      "RepetitionTime": 460.0,
      "Rows": 656,
      "SAR": 0.11484861500298,
      "SamplesPerPixel": 1,
      "ScanOptions": "FS",
      "ScanningSequence": "EP",
      "SequenceName": "epfid2d1_82",
      "SequenceVariant": [
        "SK",
        "SS"
],
      "SeriesDescription": "func_run-06_task-social_acq-ap-mb8",
      "SeriesNumber": 18,
      "SeriesTime": "175844.905000",
      "SliceLocation": -67.631330658516,
      "SliceThickness": 2.7000000476837,
      "SmallestImagePixelValue": 0,
      "SoftwareVersions": "syngo MR E11",
      "SpacingBetweenSlices": 2.7000000008433,
      "SpecificCharacterSet": "ISO_IR 100",
      "StudyID": "5",
      "StudyTime": "170358.989000",
      "TransmitCoilName": "Body",
      "VariableFlipAngleFlag": "N",
      "WindowCenterWidthExplanation": "Algo1"
    },
    "slices": {}
  },
  "time": {
    "samples": {
      "AcquisitionNumber": [1, 2, 3, 4, 5, 6, 7, 8, 9, 10, 11, 12, 13, 14, 15, 16, 17, 18, 19, 20, 21, 22, 23, 24, 25, 26, 27, 28, 29, 30, 31, 32, 33, 34, 35, 36, 37, 38, 39, 40, 41, 42, 43, 44, 45, 46, 47, 48, 49, 50, 51, 52, 53, 54, 55, 56, 57, 58, 59, 60, 61, 62, 63, 64, 65, 66, 67, 68, 69, 70, 71, 72, 73, 74, 75, 76, 77, 78, 79, 80, 81, 82, 83, 84, 85, 86, 87, 88, 89, 90, 91, 92, 93, 94, 95, 96, 97, 98, 99, 100, 101, 102, 103, 104, 105, 106, 107, 108, 109, 110, 111, 112, 113, 114, 115, 116, 117, 118, 119, 120, 121, 122, 123, 124, 125, 126, 127, 128, 129, 130, 131, 132, 133, 134, 135, 136, 137, 138, 139, 140, 141, 142, 143, 144, 145, 146, 147, 148, 149, 150, 151, 152, 153, 154, 155, 156, 157, 158, 159, 160, 161, 162, 163, 164, 165, 166, 167, 168, 169, 170, 171, 172, 173, 174, 175, 176, 177, 178, 179, 180, 181, 182, 183, 184, 185, 186, 187, 188, 189, 190, 191, 192, 193, 194, 195, 196, 197, 198, 199, 200, 201, 202, 203, 204, 205, 206, 207, 208, 209, 210, 211, 212, 213, 214, 215, 216, 217, 218, 219, 220, 221, 222, 223, 224, 225, 226, 227, 228, 229, 230, 231, 232, 233, 234, 235, 236, 237, 238, 239, 240, 241, 242, 243, 244, 245, 246, 247, 248, 249, 250, 251, 252, 253, 254, 255, 256, 257, 258, 259, 260, 261, 262, 263, 264, 265, 266, 267, 268, 269, 270, 271, 272, 273, 274, 275, 276, 277, 278, 279, 280, 281, 282, 283, 284, 285, 286, 287, 288, 289, 290, 291, 292, 293, 294, 295, 296, 297, 298, 299, 300, 301, 302, 303, 304, 305, 306, 307, 308, 309, 310, 311, 312, 313, 314, 315, 316, 317, 318, 319, 320, 321, 322, 323, 324, 325, 326, 327, 328, 329, 330, 331, 332, 333, 334, 335, 336, 337, 338, 339, 340, 341, 342, 343, 344, 345, 346, 347, 348, 349, 350, 351, 352, 353, 354, 355, 356, 357, 358, 359, 360, 361, 362, 363, 364, 365, 366, 367, 368, 369, 370, 371, 372, 373, 374, 375, 376, 377, 378, 379, 380, 381, 382, 383, 384, 385, 386, 387, 388, 389, 390, 391, 392, 393, 394, 395, 396, 397, 398, 399, 400, 401, 402, 403, 404, 405, 406, 407, 408, 409, 410, 411, 412, 413, 414, 415, 416, 417, 418, 419, 420, 421, 422, 423, 424, 425, 426, 427, 428, 429, 430, 431, 432, 433, 434, 435, 436, 437, 438, 439, 440, 441, 442, 443, 444, 445, 446, 447, 448, 449, 450, 451, 452, 453, 454, 455, 456, 457, 458, 459, 460, 461, 462, 463, 464, 465, 466, 467, 468, 469, 470, 471, 472, 473, 474, 475, 476, 477, 478, 479, 480, 481, 482, 483, 484, 485, 486, 487, 488, 489, 490, 491, 492, 493, 494, 495, 496, 497, 498, 499, 500, 501, 502, 503, 504, 505, 506, 507, 508, 509, 510, 511, 512, 513, 514, 515, 516, 517, 518, 519, 520, 521, 522, 523, 524, 525, 526, 527, 528, 529, 530, 531, 532, 533, 534, 535, 536, 537, 538, 539, 540, 541, 542, 543, 544, 545, 546, 547, 548, 549, 550, 551, 552, 553, 554, 555, 556, 557, 558, 559, 560, 561, 562, 563, 564, 565, 566, 567, 568, 569, 570, 571, 572, 573, 574, 575, 576, 577, 578, 579, 580, 581, 582, 583, 584, 585, 586, 587, 588, 589, 590, 591, 592, 593, 594, 595, 596, 597, 598, 599, 600, 601, 602, 603, 604, 605, 606, 607, 608, 609, 610, 611, 612, 613, 614, 615, 616, 617, 618, 619, 620, 621, 622, 623, 624, 625, 626, 627, 628, 629, 630, 631, 632, 633, 634, 635, 636, 637, 638, 639, 640, 641, 642, 643, 644, 645, 646, 647, 648, 649, 650, 651, 652, 653, 654, 655, 656, 657, 658, 659, 660, 661, 662, 663, 664, 665, 666, 667, 668, 669, 670, 671, 672, 673, 674, 675, 676, 677, 678, 679, 680, 681, 682, 683, 684, 685, 686, 687, 688, 689, 690, 691, 692, 693, 694, 695, 696, 697, 698, 699, 700, 701, 702, 703, 704, 705, 706, 707, 708, 709, 710, 711, 712, 713, 714, 715, 716, 717, 718, 719, 720, 721, 722, 723, 724, 725, 726, 727, 728, 729, 730, 731, 732, 733, 734, 735, 736, 737, 738, 739, 740, 741, 742, 743, 744, 745, 746, 747, 748, 749, 750, 751, 752, 753, 754, 755, 756, 757, 758, 759, 760, 761, 762, 763, 764, 765, 766, 767, 768, 769, 770, 771, 772, 773, 774, 775, 776, 777, 778, 779, 780, 781, 782, 783, 784, 785, 786, 787, 788, 789, 790, 791, 792, 793, 794, 795, 796, 797, 798, 799, 800, 801, 802, 803, 804, 805, 806, 807, 808, 809, 810, 811, 812, 813, 814, 815, 816, 817, 818, 819, 820, 821, 822, 823, 824, 825, 826, 827, 828, 829, 830, 831, 832, 833, 834, 835, 836, 837, 838, 839, 840, 841, 842, 843, 844, 845, 846, 847, 848, 849, 850, 851, 852, 853, 854, 855, 856, 857, 858, 859, 860, 861, 862, 863, 864, 865, 866, 867, 868, 869, 870, 871, 872],
      "AcquisitionTime": ["175836.485000", "175836.945000", "175837.405000", "175837.865000", "175838.325000", "175838.785000", "175839.245000", "175839.705000", "175840.165000", "175840.625000", "175841.085000", "175841.545000", "175842.005000", "175842.465000", "175842.925000", "175843.385000", "175843.845000", "175844.305000", "175844.765000", "175845.225000", "175845.685000", "175846.145000", "175846.605000", "175847.065000", "175847.525000", "175847.985000", "175848.445000", "175848.905000", "175849.365000", "175849.825000", "175850.285000", "175850.745000", "175851.205000", "175851.665000", "175852.125000", "175852.585000", "175853.045000", "175853.505000", "175853.965000", "175854.425000", "175854.885000", "175855.345000", "175855.805000", "175856.265000", "175856.725000", "175857.185000", "175857.645000", "175858.105000", "175858.565000", "175859.025000", "175859.485000", "175859.945000", "175900.405000", "175900.865000", "175901.325000", "175901.785000", "175902.245000", "175902.705000", "175903.165000", "175903.625000", "175904.085000", "175904.545000", "175905.005000", "175905.465000", "175905.925000", "175906.385000", "175906.845000", "175907.305000", "175907.765000", "175908.225000", "175908.685000", "175909.145000", "175909.605000", "175910.065000", "175910.525000", "175910.985000", "175911.445000", "175911.905000", "175912.365000", "175912.825000", "175913.285000", "175913.745000", "175914.205000", "175914.665000", "175915.125000", "175915.585000", "175916.045000", "175916.505000", "175916.965000", "175917.425000", "175917.885000", "175918.345000", "175918.805000", "175919.265000", "175919.725000", "175920.185000", "175920.645000", "175921.105000", "175921.565000", "175922.025000", "175922.485000", "175922.945000", "175923.405000", "175923.865000", "175924.325000", "175924.785000", "175925.245000", "175925.705000", "175926.165000", "175926.625000", "175927.085000", "175927.545000", "175928.005000", "175928.465000", "175928.925000", "175929.385000", "175929.845000", "175930.305000", "175930.765000", "175931.225000", "175931.685000", "175932.145000", "175932.605000", "175933.065000", "175933.525000", "175933.985000", "175934.445000", "175934.905000", "175935.365000", "175935.825000", "175936.285000", "175936.745000", "175937.205000", "175937.665000", "175938.125000", "175938.585000", "175939.045000", "175939.505000", "175939.965000", "175940.425000", "175940.885000", "175941.345000", "175941.805000", "175942.265000", "175942.725000", "175943.185000", "175943.645000", "175944.105000", "175944.565000", "175945.025000", "175945.485000", "175945.945000", "175946.405000", "175946.865000", "175947.325000", "175947.785000", "175948.245000", "175948.705000", "175949.165000", "175949.625000", "175950.085000", "175950.545000", "175951.005000", "175951.465000", "175951.925000", "175952.385000", "175952.845000", "175953.305000", "175953.765000", "175954.225000", "175954.685000", "175955.145000", "175955.605000", "175956.065000", "175956.525000", "175956.985000", "175957.445000", "175957.905000", "175958.365000", "175958.825000", "175959.285000", "175959.745000", "180000.205000", "180000.665000", "180001.125000", "180001.585000", "180002.045000", "180002.505000", "180002.965000", "180003.425000", "180003.885000", "180004.345000", "180004.805000", "180005.265000", "180005.725000", "180006.185000", "180006.645000", "180007.105000", "180007.565000", "180008.025000", "180008.485000", "180008.945000", "180009.405000", "180009.865000", "180010.325000", "180010.785000", "180011.245000", "180011.705000", "180012.165000", "180012.625000", "180013.085000", "180013.545000", "180014.005000", "180014.465000", "180014.925000", "180015.385000", "180015.845000", "180016.305000", "180016.765000", "180017.225000", "180017.685000", "180018.145000", "180018.605000", "180019.065000", "180019.525000", "180019.985000", "180020.445000", "180020.905000", "180021.365000", "180021.825000", "180022.285000", "180022.745000", "180023.205000", "180023.665000", "180024.125000", "180024.585000", "180025.045000", "180025.505000", "180025.965000", "180026.425000", "180026.885000", "180027.345000", "180027.805000", "180028.265000", "180028.725000", "180029.185000", "180029.645000", "180030.105000", "180030.565000", "180031.025000", "180031.485000", "180031.945000", "180032.405000", "180032.865000", "180033.325000", "180033.785000", "180034.245000", "180034.705000", "180035.165000", "180035.625000", "180036.085000", "180036.545000", "180037.005000", "180037.465000", "180037.925000", "180038.385000", "180038.845000", "180039.305000", "180039.765000", "180040.225000", "180040.685000", "180041.145000", "180041.605000", "180042.065000", "180042.525000", "180042.985000", "180043.445000", "180043.905000", "180044.365000", "180044.825000", "180045.285000", "180045.745000", "180046.205000", "180046.665000", "180047.125000", "180047.585000", "180048.045000", "180048.505000", "180048.965000", "180049.425000", "180049.885000", "180050.345000", "180050.805000", "180051.265000", "180051.725000", "180052.185000", "180052.645000", "180053.105000", "180053.565000", "180054.025000", "180054.485000", "180054.945000", "180055.405000", "180055.865000", "180056.325000", "180056.785000", "180057.245000", "180057.705000", "180058.165000", "180058.625000", "180059.085000", "180059.545000", "180100.005000", "180100.465000", "180100.925000", "180101.385000", "180101.845000", "180102.305000", "180102.765000", "180103.225000", "180103.685000", "180104.145000", "180104.605000", "180105.065000", "180105.525000", "180105.985000", "180106.445000", "180106.905000", "180107.365000", "180107.825000", "180108.285000", "180108.745000", "180109.205000", "180109.665000", "180110.125000", "180110.585000", "180111.045000", "180111.505000", "180111.965000", "180112.425000", "180112.885000", "180113.345000", "180113.805000", "180114.265000", "180114.725000", "180115.185000", "180115.645000", "180116.105000", "180116.565000", "180117.025000", "180117.485000", "180117.945000", "180118.405000", "180118.865000", "180119.325000", "180119.785000", "180120.245000", "180120.705000", "180121.165000", "180121.625000", "180122.085000", "180122.545000", "180123.005000", "180123.465000", "180123.925000", "180124.385000", "180124.845000", "180125.305000", "180125.765000", "180126.225000", "180126.685000", "180127.145000", "180127.605000", "180128.065000", "180128.525000", "180128.985000", "180129.445000", "180129.905000", "180130.365000", "180130.825000", "180131.285000", "180131.745000", "180132.205000", "180132.665000", "180133.125000", "180133.585000", "180134.045000", "180134.505000", "180134.965000", "180135.425000", "180135.885000", "180136.345000", "180136.805000", "180137.265000", "180137.725000", "180138.185000", "180138.645000", "180139.105000", "180139.565000", "180140.025000", "180140.485000", "180140.945000", "180141.405000", "180141.865000", "180142.325000", "180142.785000", "180143.245000", "180143.705000", "180144.165000", "180144.625000", "180145.085000", "180145.545000", "180146.005000", "180146.465000", "180146.925000", "180147.385000", "180147.845000", "180148.305000", "180148.765000", "180149.225000", "180149.685000", "180150.145000", "180150.605000", "180151.065000", "180151.525000", "180151.985000", "180152.445000", "180152.905000", "180153.365000", "180153.825000", "180154.285000", "180154.745000", "180155.205000", "180155.665000", "180156.125000", "180156.585000", "180157.045000", "180157.505000", "180157.965000", "180158.425000", "180158.885000", "180159.345000", "180159.805000", "180200.265000", "180200.725000", "180201.185000", "180201.645000", "180202.105000", "180202.565000", "180203.025000", "180203.485000", "180203.945000", "180204.405000", "180204.865000", "180205.325000", "180205.785000", "180206.245000", "180206.705000", "180207.165000", "180207.625000", "180208.085000", "180208.545000", "180209.005000", "180209.465000", "180209.925000", "180210.385000", "180210.845000", "180211.305000", "180211.765000", "180212.225000", "180212.685000", "180213.145000", "180213.605000", "180214.065000", "180214.525000", "180214.985000", "180215.445000", "180215.905000", "180216.365000", "180216.825000", "180217.285000", "180217.745000", "180218.205000", "180218.665000", "180219.125000", "180219.585000", "180220.045000", "180220.505000", "180220.965000", "180221.425000", "180221.885000", "180222.345000", "180222.805000", "180223.265000", "180223.725000", "180224.185000", "180224.645000", "180225.105000", "180225.565000", "180226.025000", "180226.485000", "180226.945000", "180227.405000", "180227.865000", "180228.325000", "180228.785000", "180229.245000", "180229.705000", "180230.165000", "180230.625000", "180231.085000", "180231.545000", "180232.005000", "180232.465000", "180232.925000", "180233.385000", "180233.845000", "180234.305000", "180234.765000", "180235.225000", "180235.685000", "180236.145000", "180236.605000", "180237.065000", "180237.525000", "180237.985000", "180238.445000", "180238.905000", "180239.365000", "180239.825000", "180240.285000", "180240.745000", "180241.205000", "180241.665000", "180242.125000", "180242.585000", "180243.045000", "180243.505000", "180243.965000", "180244.425000", "180244.885000", "180245.345000", "180245.805000", "180246.265000", "180246.725000", "180247.185000", "180247.645000", "180248.105000", "180248.565000", "180249.025000", "180249.485000", "180249.945000", "180250.405000", "180250.865000", "180251.325000", "180251.785000", "180252.245000", "180252.705000", "180253.165000", "180253.625000", "180254.085000", "180254.545000", "180255.005000", "180255.465000", "180255.925000", "180256.385000", "180256.845000", "180257.305000", "180257.765000", "180258.225000", "180258.685000", "180259.145000", "180259.605000", "180300.065000", "180300.525000", "180300.985000", "180301.445000", "180301.905000", "180302.365000", "180302.825000", "180303.285000", "180303.745000", "180304.205000", "180304.665000", "180305.125000", "180305.585000", "180306.045000", "180306.505000", "180306.965000", "180307.425000", "180307.885000", "180308.345000", "180308.805000", "180309.265000", "180309.725000", "180310.185000", "180310.645000", "180311.105000", "180311.565000", "180312.025000", "180312.485000", "180312.945000", "180313.405000", "180313.865000", "180314.325000", "180314.785000", "180315.245000", "180315.705000", "180316.165000", "180316.625000", "180317.085000", "180317.545000", "180318.005000", "180318.465000", "180318.925000", "180319.385000", "180319.845000", "180320.305000", "180320.765000", "180321.225000", "180321.685000", "180322.145000", "180322.605000", "180323.065000", "180323.525000", "180323.985000", "180324.445000", "180324.905000", "180325.365000", "180325.825000", "180326.285000", "180326.745000", "180327.205000", "180327.665000", "180328.125000", "180328.585000", "180329.045000", "180329.505000", "180329.965000", "180330.425000", "180330.885000", "180331.345000", "180331.805000", "180332.265000", "180332.725000", "180333.185000", "180333.645000", "180334.105000", "180334.565000", "180335.025000", "180335.485000", "180335.945000", "180336.405000", "180336.865000", "180337.325000", "180337.785000", "180338.245000", "180338.705000", "180339.165000", "180339.625000", "180340.085000", "180340.545000", "180341.005000", "180341.465000", "180341.925000", "180342.385000", "180342.845000", "180343.305000", "180343.765000", "180344.225000", "180344.685000", "180345.145000", "180345.605000", "180346.065000", "180346.525000", "180346.985000", "180347.445000", "180347.905000", "180348.365000", "180348.825000", "180349.285000", "180349.745000", "180350.205000", "180350.665000", "180351.125000", "180351.585000", "180352.045000", "180352.505000", "180352.965000", "180353.425000", "180353.885000", "180354.345000", "180354.805000", "180355.265000", "180355.725000", "180356.185000", "180356.645000", "180357.105000", "180357.565000", "180358.025000", "180358.485000", "180358.945000", "180359.405000", "180359.865000", "180400.325000", "180400.785000", "180401.245000", "180401.705000", "180402.165000", "180402.625000", "180403.085000", "180403.545000", "180404.005000", "180404.465000", "180404.925000", "180405.385000", "180405.845000", "180406.305000", "180406.765000", "180407.225000", "180407.685000", "180408.145000", "180408.605000", "180409.065000", "180409.525000", "180409.985000", "180410.445000", "180410.905000", "180411.365000", "180411.825000", "180412.285000", "180412.745000", "180413.205000", "180413.665000", "180414.125000", "180414.585000", "180415.045000", "180415.505000", "180415.965000", "180416.425000", "180416.885000", "180417.345000", "180417.805000", "180418.265000", "180418.725000", "180419.185000", "180419.645000", "180420.105000", "180420.565000", "180421.025000", "180421.485000", "180421.945000", "180422.405000", "180422.865000", "180423.325000", "180423.785000", "180424.245000", "180424.705000", "180425.165000", "180425.625000", "180426.085000", "180426.545000", "180427.005000", "180427.465000", "180427.925000", "180428.385000", "180428.845000", "180429.305000", "180429.765000", "180430.225000", "180430.685000", "180431.145000", "180431.605000", "180432.065000", "180432.525000", "180432.985000", "180433.445000", "180433.905000", "180434.365000", "180434.825000", "180435.285000", "180435.745000", "180436.205000", "180436.665000", "180437.125000", "180437.585000", "180438.045000", "180438.505000", "180438.965000", "180439.425000", "180439.885000", "180440.345000", "180440.805000", "180441.265000", "180441.725000", "180442.185000", "180442.645000", "180443.105000", "180443.565000", "180444.025000", "180444.485000", "180444.945000", "180445.405000", "180445.865000", "180446.325000", "180446.785000", "180447.245000", "180447.705000", "180448.165000", "180448.625000", "180449.085000", "180449.545000", "180450.005000", "180450.465000", "180450.925000", "180451.385000", "180451.845000", "180452.305000", "180452.765000", "180453.225000", "180453.685000", "180454.145000", "180454.605000", "180455.065000", "180455.525000", "180455.985000", "180456.445000", "180456.905000", "180457.365000", "180457.825000", "180458.285000", "180458.745000", "180459.205000", "180459.665000", "180500.125000", "180500.585000", "180501.045000", "180501.505000", "180501.965000", "180502.425000", "180502.885000", "180503.345000", "180503.805000", "180504.265000", "180504.725000", "180505.185000", "180505.645000", "180506.105000", "180506.565000", "180507.025000", "180507.485000", "180507.945000", "180508.405000", "180508.865000", "180509.325000", "180509.785000", "180510.245000", "180510.705000", "180511.165000", "180511.625000", "180512.085000", "180512.545000", "180513.005000", "180513.465000", "180513.925000", "180514.385000", "180514.845000", "180515.305000", "180515.765000", "180516.225000", "180516.685000", "180517.145000"],
