{
  "AcquisitionMatrixPE": 82,
  "AcquisitionNumber": 1,
  "AcquisitionTime": "11:04:14.755000",
  "BandwidthPerPixelPhaseEncode": 24.888,
  "BaseResolution": 82,
  "BodyPartExamined": "BRAIN",
  "ConsistencyInfo": "N4_VE11E_LATEST_20181129",
  "ConversionSoftware": "dcm2niix",
  "ConversionSoftwareVersion": "v1.0.20201102",
  "DerivedVendorReportedEchoSpacing": 0.00049,
  "DeviceSerialNumber": "66112",
  "DwellTime": 2e-06,
  "EchoTime": 0.0272,
  "EchoTrainLength": 82,
  "EffectiveEchoSpacing": 0.00049,
  "FlipAngle": 44,
  "ImageComments": "Unaliased MB8/PE3",
  "ImageOrientationPatientDICOM": [0.999912, 0.00711419, -0.0112183, -0.00575915, 0.993173, 0.116504],
  "ImageType": [
    "ORIGINAL",
    "PRIMARY",
    "M",
    "MB",
    "ND",
    "NORM",
    "MOSAIC"
],
  "ImagingFrequency": 123.252,
  "InPlanePhaseEncodingDirectionDICOM": "COL",
  "InstitutionAddress": "Maynard 3,Hanover,NH,US,03755",
  "InstitutionName": "Dartmouth College - PBS",
  "InstitutionalDepartmentName": "Department",
  "MRAcquisitionType": "2D",
  "MagneticFieldStrength": 3,
  "Manufacturer": "Siemens",
  "ManufacturersModelName": "Prisma",
  "Modality": "MR",
  "MultibandAccelerationFactor": 8,
  "PartialFourier": 1,
  "PatientPosition": "HFS",
  "PercentPhaseFOV": 100,
  "PercentSampling": 100,
  "PhaseEncodingDirection": "j-",
  "PhaseEncodingSteps": 82,
  "PhaseResolution": 1,
  "PixelBandwidth": 3050,
  "ProcedureStepDescription": "Wager_Wager^1076_spacetop",
  "ProtocolName": "func_run-04_task-social_acq-ap-mb8",
  "PulseSequenceDetails": "%CustomerSeq%\\cmrr_mbep2d_bold",
  "ReceiveCoilActiveElements": "HEA;HEP",
  "ReceiveCoilName": "Head_32",
  "ReconMatrixPE": 82,
  "RepetitionTime": 0.46,
  "SAR": 0.102269,
  "ScanOptions": "FS",
  "ScanningSequence": "EP",
  "SequenceName": "epfid2d1_82",
  "SequenceVariant": "SK\\SS",
  "SeriesDescription": "func_run-04_task-social_acq-ap-mb8",
  "SeriesNumber": 16,
  "ShimSetting": [4140, -7793, -7241, 459, -74, -231, 40, 63],
  "SliceThickness": 2.7,
  "SliceTiming": [0, 0.2525, 0.065, 0.315, 0.1275, 0.3775, 0.19, 0, 0.2525, 0.065, 0.315, 0.1275, 0.3775, 0.19, 0, 0.2525, 0.065, 0.315, 0.1275, 0.3775, 0.19, 0, 0.2525, 0.065, 0.315, 0.1275, 0.3775, 0.19, 0, 0.2525, 0.065, 0.315, 0.1275, 0.3775, 0.19, 0, 0.2525, 0.065, 0.315, 0.1275, 0.3775, 0.19, 0, 0.2525, 0.065, 0.315, 0.1275, 0.3775, 0.19, 0, 0.2525, 0.065, 0.315, 0.1275, 0.3775, 0.19],
  "SoftwareVersions": "syngo MR E11",
  "SpacingBetweenSlices": 2.7,
  "StationName": "AWP66112",
  "TaskName": "social",
  "TotalReadoutTime": 0.03969,
  "TxRefAmp": 300.696,
  "WipMemBlock": "afa2d0aa-23c1-443b-bf12-1f901be09e01||Sequence: R016 ve11e/master r/434b28f1; Aug  7 2019 18:53:46 by eja",
  "dcmmeta_affine": [
    [-2.682690143585205, -0.015451381914317608, -0.03232055902481079, 112.98542785644531],
    [-0.01908685639500618, 2.66461181640625, 0.3143594563007355, -85.07444763183594],
    [-0.030097948387265205, -0.31257256865501404, 2.6814424991607666, -45.904170989990234],
    [0.0, 0.0, 0.0, 1.0]
],
  "dcmmeta_reorient_transform": [
    [0.0, -1.0, 0.0, 81.0],
    [1.0, 0.0, 0.0, 0.0],
    [0.0, 0.0, 1.0, 0.0],
    [0.0, 0.0, 0.0, 1.0]
],
  "dcmmeta_shape": [82, 82, 56, 872],
  "dcmmeta_slice_dim": 2,
  "dcmmeta_version": 0.6,
  "global": {
    "const": {
      "AccessionNumber": "A003978",
      "AcquisitionMatrix": [82, 0, 0, 82],
      "AngioFlag": "N",
      "BitsAllocated": 16,
      "BitsStored": 16,
      "BodyPartExamined": "BRAIN",
      "Columns": 656,
      "EchoNumbers": 1,
      "EchoTime": 27.2,
      "EchoTrainLength": 82,
      "FlipAngle": 44.0,
      "HighBit": 15,
      "ImageOrientationPatient": [0.99991176483184, 0.00711419149172, -0.0112183256454, -0.0057591511788, 0.99317348762622, 0.11650431603191],
      "ImagePositionPatient": [-877.23139726024, -900.98064710126, -152.29276414215],
      "ImageType": [
        "ORIGINAL",
        "PRIMARY",
        "M",
        "MB",
        "ND",
        "NORM",
        "MOSAIC"
],
      "ImagedNucleus": "1H",
      "ImagingFrequency": 123.252125,
      "InPlanePhaseEncodingDirection": "COL",
      "MRAcquisitionType": "2D",
      "MagneticFieldStrength": 3.0,
      "Manufacturer": "SIEMENS",
      "ManufacturerModelName": "Prisma",
      "Modality": "MR",
      "NumberOfAverages": 1.0,
      "NumberOfPhaseEncodingSteps": 82,
      "PercentPhaseFieldOfView": 100.0,
      "PercentSampling": 100.0,
      "PerformedProcedureStepStartTime": "102220.227000",
      "PhotometricInterpretation": "MONOCHROME2",
      "PixelBandwidth": 3050.0,
      "PixelRepresentation": 0,
      "PixelSpacing": [2.6829268932343, 2.6829268932343],
      "ProtocolName": "func_run-04_task-social_acq-ap-mb8",
      "RepetitionTime": 460.0,
      "Rows": 656,
      "SAR": 0.10226937339999,
      "SamplesPerPixel": 1,
      "ScanOptions": "FS",
      "ScanningSequence": "EP",
      "SequenceName": "epfid2d1_82",
      "SequenceVariant": [
        "SK",
        "SS"
],
      "SeriesDescription": "func_run-04_task-social_acq-ap-mb8",
      "SeriesNumber": 16,
      "SeriesTime": "110433.682000",
      "SliceLocation": -56.8463345037,
      "SliceThickness": 2.7000000476837,
      "SmallestImagePixelValue": 0,
      "SoftwareVersions": "syngo MR E11",
      "SpacingBetweenSlices": 2.6999999681825,
      "SpecificCharacterSet": "ISO_IR 100",
      "StudyID": "1",
      "StudyTime": "102220.154000",
      "TransmitCoilName": "Body",
      "VariableFlipAngleFlag": "N",
      "WindowCenterWidthExplanation": "Algo1"
    },
    "slices": {}
  },
  "time": {
    "samples": {
      "AcquisitionNumber": [1, 2, 3, 4, 5, 6, 7, 8, 9, 10, 11, 12, 13, 14, 15, 16, 17, 18, 19, 20, 21, 22, 23, 24, 25, 26, 27, 28, 29, 30, 31, 32, 33, 34, 35, 36, 37, 38, 39, 40, 41, 42, 43, 44, 45, 46, 47, 48, 49, 50, 51, 52, 53, 54, 55, 56, 57, 58, 59, 60, 61, 62, 63, 64, 65, 66, 67, 68, 69, 70, 71, 72, 73, 74, 75, 76, 77, 78, 79, 80, 81, 82, 83, 84, 85, 86, 87, 88, 89, 90, 91, 92, 93, 94, 95, 96, 97, 98, 99, 100, 101, 102, 103, 104, 105, 106, 107, 108, 109, 110, 111, 112, 113, 114, 115, 116, 117, 118, 119, 120, 121, 122, 123, 124, 125, 126, 127, 128, 129, 130, 131, 132, 133, 134, 135, 136, 137, 138, 139, 140, 141, 142, 143, 144, 145, 146, 147, 148, 149, 150, 151, 152, 153, 154, 155, 156, 157, 158, 159, 160, 161, 162, 163, 164, 165, 166, 167, 168, 169, 170, 171, 172, 173, 174, 175, 176, 177, 178, 179, 180, 181, 182, 183, 184, 185, 186, 187, 188, 189, 190, 191, 192, 193, 194, 195, 196, 197, 198, 199, 200, 201, 202, 203, 204, 205, 206, 207, 208, 209, 210, 211, 212, 213, 214, 215, 216, 217, 218, 219, 220, 221, 222, 223, 224, 225, 226, 227, 228, 229, 230, 231, 232, 233, 234, 235, 236, 237, 238, 239, 240, 241, 242, 243, 244, 245, 246, 247, 248, 249, 250, 251, 252, 253, 254, 255, 256, 257, 258, 259, 260, 261, 262, 263, 264, 265, 266, 267, 268, 269, 270, 271, 272, 273, 274, 275, 276, 277, 278, 279, 280, 281, 282, 283, 284, 285, 286, 287, 288, 289, 290, 291, 292, 293, 294, 295, 296, 297, 298, 299, 300, 301, 302, 303, 304, 305, 306, 307, 308, 309, 310, 311, 312, 313, 314, 315, 316, 317, 318, 319, 320, 321, 322, 323, 324, 325, 326, 327, 328, 329, 330, 331, 332, 333, 334, 335, 336, 337, 338, 339, 340, 341, 342, 343, 344, 345, 346, 347, 348, 349, 350, 351, 352, 353, 354, 355, 356, 357, 358, 359, 360, 361, 362, 363, 364, 365, 366, 367, 368, 369, 370, 371, 372, 373, 374, 375, 376, 377, 378, 379, 380, 381, 382, 383, 384, 385, 386, 387, 388, 389, 390, 391, 392, 393, 394, 395, 396, 397, 398, 399, 400, 401, 402, 403, 404, 405, 406, 407, 408, 409, 410, 411, 412, 413, 414, 415, 416, 417, 418, 419, 420, 421, 422, 423, 424, 425, 426, 427, 428, 429, 430, 431, 432, 433, 434, 435, 436, 437, 438, 439, 440, 441, 442, 443, 444, 445, 446, 447, 448, 449, 450, 451, 452, 453, 454, 455, 456, 457, 458, 459, 460, 461, 462, 463, 464, 465, 466, 467, 468, 469, 470, 471, 472, 473, 474, 475, 476, 477, 478, 479, 480, 481, 482, 483, 484, 485, 486, 487, 488, 489, 490, 491, 492, 493, 494, 495, 496, 497, 498, 499, 500, 501, 502, 503, 504, 505, 506, 507, 508, 509, 510, 511, 512, 513, 514, 515, 516, 517, 518, 519, 520, 521, 522, 523, 524, 525, 526, 527, 528, 529, 530, 531, 532, 533, 534, 535, 536, 537, 538, 539, 540, 541, 542, 543, 544, 545, 546, 547, 548, 549, 550, 551, 552, 553, 554, 555, 556, 557, 558, 559, 560, 561, 562, 563, 564, 565, 566, 567, 568, 569, 570, 571, 572, 573, 574, 575, 576, 577, 578, 579, 580, 581, 582, 583, 584, 585, 586, 587, 588, 589, 590, 591, 592, 593, 594, 595, 596, 597, 598, 599, 600, 601, 602, 603, 604, 605, 606, 607, 608, 609, 610, 611, 612, 613, 614, 615, 616, 617, 618, 619, 620, 621, 622, 623, 624, 625, 626, 627, 628, 629, 630, 631, 632, 633, 634, 635, 636, 637, 638, 639, 640, 641, 642, 643, 644, 645, 646, 647, 648, 649, 650, 651, 652, 653, 654, 655, 656, 657, 658, 659, 660, 661, 662, 663, 664, 665, 666, 667, 668, 669, 670, 671, 672, 673, 674, 675, 676, 677, 678, 679, 680, 681, 682, 683, 684, 685, 686, 687, 688, 689, 690, 691, 692, 693, 694, 695, 696, 697, 698, 699, 700, 701, 702, 703, 704, 705, 706, 707, 708, 709, 710, 711, 712, 713, 714, 715, 716, 717, 718, 719, 720, 721, 722, 723, 724, 725, 726, 727, 728, 729, 730, 731, 732, 733, 734, 735, 736, 737, 738, 739, 740, 741, 742, 743, 744, 745, 746, 747, 748, 749, 750, 751, 752, 753, 754, 755, 756, 757, 758, 759, 760, 761, 762, 763, 764, 765, 766, 767, 768, 769, 770, 771, 772, 773, 774, 775, 776, 777, 778, 779, 780, 781, 782, 783, 784, 785, 786, 787, 788, 789, 790, 791, 792, 793, 794, 795, 796, 797, 798, 799, 800, 801, 802, 803, 804, 805, 806, 807, 808, 809, 810, 811, 812, 813, 814, 815, 816, 817, 818, 819, 820, 821, 822, 823, 824, 825, 826, 827, 828, 829, 830, 831, 832, 833, 834, 835, 836, 837, 838, 839, 840, 841, 842, 843, 844, 845, 846, 847, 848, 849, 850, 851, 852, 853, 854, 855, 856, 857, 858, 859, 860, 861, 862, 863, 864, 865, 866, 867, 868, 869, 870, 871, 872],
      "AcquisitionTime": ["110414.755000", "110415.215000", "110415.675000", "110416.135000", "110416.595000", "110417.055000", "110417.515000", "110417.975000", "110418.435000", "110418.895000", "110419.355000", "110419.815000", "110420.275000", "110420.735000", "110421.195000", "110421.655000", "110422.115000", "110422.575000", "110423.035000", "110423.495000", "110423.955000", "110424.415000", "110424.875000", "110425.335000", "110425.795000", "110426.255000", "110426.715000", "110427.175000", "110427.635000", "110428.095000", "110428.555000", "110429.015000", "110429.475000", "110429.935000", "110430.395000", "110430.855000", "110431.315000", "110431.775000", "110432.235000", "110432.695000", "110433.155000", "110433.615000", "110434.075000", "110434.535000", "110434.995000", "110435.455000", "110435.915000", "110436.375000", "110436.835000", "110437.295000", "110437.755000", "110438.215000", "110438.675000", "110439.135000", "110439.595000", "110440.055000", "110440.515000", "110440.975000", "110441.435000", "110441.895000", "110442.355000", "110442.815000", "110443.275000", "110443.735000", "110444.195000", "110444.655000", "110445.115000", "110445.575000", "110446.035000", "110446.495000", "110446.955000", "110447.415000", "110447.875000", "110448.335000", "110448.795000", "110449.255000", "110449.715000", "110450.175000", "110450.635000", "110451.095000", "110451.555000", "110452.015000", "110452.475000", "110452.935000", "110453.395000", "110453.855000", "110454.315000", "110454.775000", "110455.235000", "110455.695000", "110456.155000", "110456.615000", "110457.075000", "110457.535000", "110457.995000", "110458.455000", "110458.915000", "110459.375000", "110459.835000", "110500.295000", "110500.755000", "110501.215000", "110501.675000", "110502.135000", "110502.595000", "110503.055000", "110503.515000", "110503.975000", "110504.435000", "110504.895000", "110505.355000", "110505.815000", "110506.275000", "110506.735000", "110507.195000", "110507.655000", "110508.115000", "110508.575000", "110509.035000", "110509.495000", "110509.955000", "110510.415000", "110510.875000", "110511.335000", "110511.795000", "110512.255000", "110512.715000", "110513.175000", "110513.635000", "110514.095000", "110514.555000", "110515.015000", "110515.475000", "110515.935000", "110516.395000", "110516.855000", "110517.315000", "110517.775000", "110518.235000", "110518.695000", "110519.155000", "110519.615000", "110520.075000", "110520.535000", "110520.995000", "110521.455000", "110521.915000", "110522.375000", "110522.835000", "110523.295000", "110523.755000", "110524.215000", "110524.675000", "110525.135000", "110525.595000", "110526.055000", "110526.515000", "110526.975000", "110527.435000", "110527.895000", "110528.355000", "110528.815000", "110529.275000", "110529.735000", "110530.195000", "110530.655000", "110531.115000", "110531.575000", "110532.035000", "110532.495000", "110532.955000", "110533.415000", "110533.875000", "110534.335000", "110534.795000", "110535.255000", "110535.715000", "110536.175000", "110536.635000", "110537.095000", "110537.555000", "110538.015000", "110538.475000", "110538.935000", "110539.395000", "110539.855000", "110540.315000", "110540.775000", "110541.235000", "110541.695000", "110542.155000", "110542.615000", "110543.075000", "110543.535000", "110543.995000", "110544.455000", "110544.915000", "110545.375000", "110545.835000", "110546.295000", "110546.755000", "110547.215000", "110547.675000", "110548.135000", "110548.595000", "110549.055000", "110549.515000", "110549.975000", "110550.435000", "110550.895000", "110551.355000", "110551.815000", "110552.275000", "110552.735000", "110553.195000", "110553.655000", "110554.115000", "110554.575000", "110555.035000", "110555.495000", "110555.955000", "110556.415000", "110556.875000", "110557.335000", "110557.795000", "110558.255000", "110558.715000", "110559.175000", "110559.635000", "110600.095000", "110600.555000", "110601.015000", "110601.475000", "110601.935000", "110602.395000", "110602.855000", "110603.315000", "110603.775000", "110604.235000", "110604.695000", "110605.155000", "110605.615000", "110606.075000", "110606.535000", "110606.995000", "110607.455000", "110607.915000", "110608.375000", "110608.835000", "110609.295000", "110609.755000", "110610.215000", "110610.675000", "110611.135000", "110611.595000", "110612.055000", "110612.515000", "110612.975000", "110613.435000", "110613.895000", "110614.355000", "110614.815000", "110615.275000", "110615.735000", "110616.195000", "110616.655000", "110617.115000", "110617.575000", "110618.035000", "110618.495000", "110618.955000", "110619.415000", "110619.875000", "110620.335000", "110620.795000", "110621.255000", "110621.715000", "110622.175000", "110622.635000", "110623.095000", "110623.555000", "110624.015000", "110624.475000", "110624.935000", "110625.395000", "110625.855000", "110626.315000", "110626.775000", "110627.235000", "110627.695000", "110628.155000", "110628.615000", "110629.075000", "110629.535000", "110629.995000", "110630.455000", "110630.915000", "110631.375000", "110631.835000", "110632.295000", "110632.755000", "110633.215000", "110633.675000", "110634.135000", "110634.595000", "110635.055000", "110635.515000", "110635.975000", "110636.435000", "110636.895000", "110637.355000", "110637.815000", "110638.275000", "110638.735000", "110639.195000", "110639.655000", "110640.115000", "110640.575000", "110641.035000", "110641.495000", "110641.955000", "110642.415000", "110642.875000", "110643.335000", "110643.795000", "110644.255000", "110644.715000", "110645.175000", "110645.635000", "110646.095000", "110646.555000", "110647.015000", "110647.475000", "110647.935000", "110648.395000", "110648.855000", "110649.315000", "110649.775000", "110650.235000", "110650.695000", "110651.155000", "110651.615000", "110652.075000", "110652.535000", "110652.995000", "110653.455000", "110653.915000", "110654.375000", "110654.835000", "110655.295000", "110655.755000", "110656.215000", "110656.675000", "110657.135000", "110657.595000", "110658.055000", "110658.515000", "110658.975000", "110659.435000", "110659.895000", "110700.355000", "110700.815000", "110701.275000", "110701.735000", "110702.195000", "110702.655000", "110703.115000", "110703.575000", "110704.035000", "110704.495000", "110704.955000", "110705.415000", "110705.875000", "110706.335000", "110706.795000", "110707.255000", "110707.715000", "110708.175000", "110708.635000", "110709.095000", "110709.555000", "110710.015000", "110710.475000", "110710.935000", "110711.395000", "110711.855000", "110712.315000", "110712.775000", "110713.235000", "110713.695000", "110714.155000", "110714.615000", "110715.075000", "110715.535000", "110715.995000", "110716.455000", "110716.915000", "110717.375000", "110717.835000", "110718.295000", "110718.755000", "110719.215000", "110719.675000", "110720.135000", "110720.595000", "110721.055000", "110721.515000", "110721.975000", "110722.435000", "110722.895000", "110723.355000", "110723.815000", "110724.275000", "110724.735000", "110725.195000", "110725.655000", "110726.115000", "110726.575000", "110727.035000", "110727.495000", "110727.955000", "110728.415000", "110728.875000", "110729.335000", "110729.795000", "110730.255000", "110730.715000", "110731.175000", "110731.635000", "110732.095000", "110732.555000", "110733.015000", "110733.475000", "110733.935000", "110734.395000", "110734.855000", "110735.315000", "110735.775000", "110736.235000", "110736.695000", "110737.155000", "110737.615000", "110738.075000", "110738.535000", "110738.995000", "110739.455000", "110739.915000", "110740.375000", "110740.835000", "110741.295000", "110741.755000", "110742.215000", "110742.675000", "110743.135000", "110743.595000", "110744.055000", "110744.515000", "110744.975000", "110745.435000", "110745.895000", "110746.355000", "110746.815000", "110747.275000", "110747.735000", "110748.195000", "110748.655000", "110749.115000", "110749.575000", "110750.035000", "110750.495000", "110750.955000", "110751.415000", "110751.875000", "110752.335000", "110752.795000", "110753.255000", "110753.715000", "110754.175000", "110754.635000", "110755.095000", "110755.555000", "110756.015000", "110756.475000", "110756.935000", "110757.395000", "110757.855000", "110758.315000", "110758.775000", "110759.235000", "110759.695000", "110800.155000", "110800.615000", "110801.075000", "110801.535000", "110801.995000", "110802.455000", "110802.915000", "110803.375000", "110803.835000", "110804.295000", "110804.755000", "110805.215000", "110805.675000", "110806.135000", "110806.595000", "110807.055000", "110807.515000", "110807.975000", "110808.435000", "110808.895000", "110809.355000", "110809.815000", "110810.275000", "110810.735000", "110811.195000", "110811.655000", "110812.115000", "110812.575000", "110813.035000", "110813.495000", "110813.955000", "110814.415000", "110814.875000", "110815.335000", "110815.795000", "110816.255000", "110816.715000", "110817.175000", "110817.635000", "110818.095000", "110818.555000", "110819.015000", "110819.475000", "110819.935000", "110820.395000", "110820.855000", "110821.315000", "110821.775000", "110822.235000", "110822.695000", "110823.155000", "110823.615000", "110824.075000", "110824.535000", "110824.995000", "110825.455000", "110825.915000", "110826.375000", "110826.835000", "110827.295000", "110827.755000", "110828.215000", "110828.675000", "110829.135000", "110829.595000", "110830.055000", "110830.515000", "110830.975000", "110831.435000", "110831.895000", "110832.355000", "110832.815000", "110833.275000", "110833.735000", "110834.195000", "110834.655000", "110835.115000", "110835.575000", "110836.035000", "110836.495000", "110836.955000", "110837.415000", "110837.875000", "110838.335000", "110838.795000", "110839.255000", "110839.715000", "110840.175000", "110840.635000", "110841.095000", "110841.555000", "110842.015000", "110842.475000", "110842.935000", "110843.395000", "110843.855000", "110844.315000", "110844.775000", "110845.235000", "110845.695000", "110846.155000", "110846.615000", "110847.075000", "110847.535000", "110847.995000", "110848.455000", "110848.915000", "110849.375000", "110849.835000", "110850.295000", "110850.755000", "110851.215000", "110851.675000", "110852.135000", "110852.595000", "110853.055000", "110853.515000", "110853.975000", "110854.435000", "110854.895000", "110855.355000", "110855.815000", "110856.275000", "110856.735000", "110857.195000", "110857.655000", "110858.115000", "110858.575000", "110859.035000", "110859.495000", "110859.955000", "110900.415000", "110900.875000", "110901.335000", "110901.795000", "110902.255000", "110902.715000", "110903.175000", "110903.635000", "110904.095000", "110904.555000", "110905.015000", "110905.475000", "110905.935000", "110906.395000", "110906.855000", "110907.315000", "110907.775000", "110908.235000", "110908.695000", "110909.155000", "110909.615000", "110910.075000", "110910.535000", "110910.995000", "110911.455000", "110911.915000", "110912.375000", "110912.835000", "110913.295000", "110913.755000", "110914.215000", "110914.675000", "110915.135000", "110915.595000", "110916.055000", "110916.515000", "110916.975000", "110917.435000", "110917.895000", "110918.355000", "110918.815000", "110919.275000", "110919.735000", "110920.195000", "110920.655000", "110921.115000", "110921.575000", "110922.035000", "110922.495000", "110922.955000", "110923.415000", "110923.875000", "110924.335000", "110924.795000", "110925.255000", "110925.715000", "110926.175000", "110926.635000", "110927.095000", "110927.555000", "110928.015000", "110928.475000", "110928.935000", "110929.395000", "110929.855000", "110930.315000", "110930.775000", "110931.235000", "110931.695000", "110932.155000", "110932.615000", "110933.075000", "110933.535000", "110933.995000", "110934.455000", "110934.915000", "110935.375000", "110935.835000", "110936.295000", "110936.755000", "110937.215000", "110937.675000", "110938.135000", "110938.595000", "110939.055000", "110939.515000", "110939.975000", "110940.435000", "110940.895000", "110941.355000", "110941.815000", "110942.275000", "110942.735000", "110943.195000", "110943.655000", "110944.115000", "110944.575000", "110945.035000", "110945.495000", "110945.955000", "110946.415000", "110946.875000", "110947.335000", "110947.795000", "110948.255000", "110948.715000", "110949.175000", "110949.635000", "110950.095000", "110950.555000", "110951.015000", "110951.475000", "110951.935000", "110952.395000", "110952.855000", "110953.315000", "110953.775000", "110954.235000", "110954.695000", "110955.155000", "110955.615000", "110956.075000", "110956.535000", "110956.995000", "110957.455000", "110957.915000", "110958.375000", "110958.835000", "110959.295000", "110959.755000", "111000.215000", "111000.675000", "111001.135000", "111001.595000", "111002.055000", "111002.515000", "111002.975000", "111003.435000", "111003.895000", "111004.355000", "111004.815000", "111005.275000", "111005.735000", "111006.195000", "111006.655000", "111007.115000", "111007.575000", "111008.035000", "111008.495000", "111008.955000", "111009.415000", "111009.875000", "111010.335000", "111010.795000", "111011.255000", "111011.715000", "111012.175000", "111012.635000", "111013.095000", "111013.555000", "111014.015000", "111014.475000", "111014.935000", "111015.395000", "111015.855000", "111016.315000", "111016.775000", "111017.235000", "111017.695000", "111018.155000", "111018.615000", "111019.075000", "111019.535000", "111019.995000", "111020.455000", "111020.915000", "111021.375000", "111021.835000", "111022.295000", "111022.755000", "111023.215000", "111023.675000", "111024.135000", "111024.595000", "111025.055000", "111025.515000", "111025.975000", "111026.435000", "111026.895000", "111027.355000", "111027.815000", "111028.275000", "111028.735000", "111029.195000", "111029.655000", "111030.115000", "111030.575000", "111031.035000", "111031.495000", "111031.955000", "111032.415000", "111032.875000", "111033.335000", "111033.795000", "111034.255000", "111034.715000", "111035.175000", "111035.635000", "111036.095000", "111036.555000", "111037.015000", "111037.475000", "111037.935000", "111038.395000", "111038.855000", "111039.315000", "111039.775000", "111040.235000", "111040.695000", "111041.155000", "111041.615000", "111042.075000", "111042.535000", "111042.995000", "111043.455000", "111043.915000", "111044.375000", "111044.835000", "111045.295000", "111045.755000", "111046.215000", "111046.675000", "111047.135000", "111047.595000", "111048.055000", "111048.515000", "111048.975000", "111049.435000", "111049.895000", "111050.355000", "111050.815000", "111051.275000", "111051.735000", "111052.195000", "111052.655000", "111053.115000", "111053.575000", "111054.035000", "111054.495000", "111054.955000", "111055.415000"],
