{
  "AcquisitionMatrixPE": 82,
  "AcquisitionNumber": 1,
  "AcquisitionTime": "10:49:16.520000",
  "BandwidthPerPixelPhaseEncode": 24.888,
  "BaseResolution": 82,
  "BodyPartExamined": "BRAIN",
  "ConsistencyInfo": "N4_VE11E_LATEST_20181129",
  "ConversionSoftware": "dcm2niix",
  "ConversionSoftwareVersion": "v1.0.20201102",
  "DerivedVendorReportedEchoSpacing": 0.00049,
  "DeviceSerialNumber": "66112",
  "DwellTime": 2e-06,
  "EchoTime": 0.0272,
  "EchoTrainLength": 82,
  "EffectiveEchoSpacing": 0.00049,
  "FlipAngle": 44,
  "ImageComments": "Unaliased MB8/PE3",
  "ImageOrientationPatientDICOM": [0.999912, 0.00711419, -0.0112183, -0.00575915, 0.993173, 0.116504],
  "ImageType": [
    "ORIGINAL",
    "PRIMARY",
    "M",
    "MB",
    "ND",
    "NORM",
    "MOSAIC"
],
  "ImagingFrequency": 123.252,
  "InPlanePhaseEncodingDirectionDICOM": "COL",
  "InstitutionAddress": "Maynard 3,Hanover,NH,US,03755",
  "InstitutionName": "Dartmouth College - PBS",
  "InstitutionalDepartmentName": "Department",
  "MRAcquisitionType": "2D",
  "MagneticFieldStrength": 3,
  "Manufacturer": "Siemens",
  "ManufacturersModelName": "Prisma",
  "Modality": "MR",
  "MultibandAccelerationFactor": 8,
  "PartialFourier": 1,
  "PatientPosition": "HFS",
  "PercentPhaseFOV": 100,
  "PercentSampling": 100,
  "PhaseEncodingDirection": "j-",
  "PhaseEncodingSteps": 82,
  "PhaseResolution": 1,
  "PixelBandwidth": 3050,
  "ProcedureStepDescription": "Wager_Wager^1076_spacetop",
  "ProtocolName": "func_run-01_task-social_acq-ap-mb8",
  "PulseSequenceDetails": "%CustomerSeq%\\cmrr_mbep2d_bold",
  "ReceiveCoilActiveElements": "HEA;HEP",
  "ReceiveCoilName": "Head_32",
  "ReconMatrixPE": 82,
  "RepetitionTime": 0.46,
  "SAR": 0.102269,
  "ScanOptions": "FS",
  "ScanningSequence": "EP",
  "SequenceName": "epfid2d1_82",
  "SequenceVariant": "SK\\SS",
  "SeriesDescription": "func_run-01_task-social_acq-ap-mb8",
  "SeriesNumber": 12,
  "ShimSetting": [4140, -7793, -7241, 459, -74, -231, 40, 63],
  "SliceThickness": 2.7,
  "SliceTiming": [0, 0.2525, 0.0625, 0.315, 0.125, 0.3775, 0.19, 0, 0.2525, 0.0625, 0.315, 0.125, 0.3775, 0.19, 0, 0.2525, 0.0625, 0.315, 0.125, 0.3775, 0.19, 0, 0.2525, 0.0625, 0.315, 0.125, 0.3775, 0.19, 0, 0.2525, 0.0625, 0.315, 0.125, 0.3775, 0.19, 0, 0.2525, 0.0625, 0.315, 0.125, 0.3775, 0.19, 0, 0.2525, 0.0625, 0.315, 0.125, 0.3775, 0.19, 0, 0.2525, 0.0625, 0.315, 0.125, 0.3775, 0.19],
  "SoftwareVersions": "syngo MR E11",
  "SpacingBetweenSlices": 2.7,
  "StationName": "AWP66112",
  "TaskName": "social",
  "TotalReadoutTime": 0.03969,
  "TxRefAmp": 300.696,
  "WipMemBlock": "2cda771a-fd1d-4946-ad47-c8c3ac63718d||Sequence: R016 ve11e/master r/434b28f1; Aug  7 2019 18:53:46 by eja",
  "dcmmeta_affine": [
    [-2.682690143585205, -0.015451381914317608, -0.03232055902481079, 112.98542785644531],
    [-0.01908685639500618, 2.66461181640625, 0.3143594563007355, -85.07444763183594],
    [-0.030097948387265205, -0.31257256865501404, 2.6814424991607666, -45.904170989990234],
    [0.0, 0.0, 0.0, 1.0]
],
  "dcmmeta_reorient_transform": [
    [0.0, -1.0, 0.0, 81.0],
    [1.0, 0.0, 0.0, 0.0],
    [0.0, 0.0, 1.0, 0.0],
    [0.0, 0.0, 0.0, 1.0]
],
  "dcmmeta_shape": [82, 82, 56, 872],
  "dcmmeta_slice_dim": 2,
  "dcmmeta_version": 0.6,
  "global": {
    "const": {
      "AccessionNumber": "A003978",
      "AcquisitionMatrix": [82, 0, 0, 82],
      "AngioFlag": "N",
      "BitsAllocated": 16,
      "BitsStored": 16,
      "BodyPartExamined": "BRAIN",
      "Columns": 656,
      "EchoNumbers": 1,
      "EchoTime": 27.2,
      "EchoTrainLength": 82,
      "FlipAngle": 44.0,
      "HighBit": 15,
      "ImageOrientationPatient": [0.99991176483184, 0.00711419149172, -0.0112183256454, -0.0057591511788, 0.99317348762622, 0.11650431603191],
      "ImagePositionPatient": [-877.23139726024, -900.98064710126, -152.29276414215],
      "ImageType": [
        "ORIGINAL",
        "PRIMARY",
        "M",
        "MB",
        "ND",
        "NORM",
        "MOSAIC"
],
      "ImagedNucleus": "1H",
      "ImagingFrequency": 123.252118,
      "InPlanePhaseEncodingDirection": "COL",
      "MRAcquisitionType": "2D",
      "MagneticFieldStrength": 3.0,
      "Manufacturer": "SIEMENS",
      "ManufacturerModelName": "Prisma",
      "Modality": "MR",
      "NumberOfAverages": 1.0,
      "NumberOfPhaseEncodingSteps": 82,
      "PercentPhaseFieldOfView": 100.0,
      "PercentSampling": 100.0,
      "PerformedProcedureStepStartTime": "102220.227000",
      "PhotometricInterpretation": "MONOCHROME2",
      "PixelBandwidth": 3050.0,
      "PixelRepresentation": 0,
      "PixelSpacing": [2.6829268932343, 2.6829268932343],
      "ProtocolName": "func_run-01_task-social_acq-ap-mb8",
      "RepetitionTime": 460.0,
      "Rows": 656,
      "SAR": 0.10226937339999,
      "SamplesPerPixel": 1,
      "ScanOptions": "FS",
      "ScanningSequence": "EP",
      "SequenceName": "epfid2d1_82",
      "SequenceVariant": [
        "SK",
        "SS"
],
      "SeriesDescription": "func_run-01_task-social_acq-ap-mb8",
      "SeriesNumber": 12,
      "SeriesTime": "104933.690000",
      "SliceLocation": -56.8463345037,
      "SliceThickness": 2.7000000476837,
      "SmallestImagePixelValue": 0,
      "SoftwareVersions": "syngo MR E11",
      "SpacingBetweenSlices": 2.6999999681825,
      "SpecificCharacterSet": "ISO_IR 100",
      "StudyID": "1",
      "StudyTime": "102220.154000",
      "TransmitCoilName": "Body",
      "VariableFlipAngleFlag": "N",
      "WindowCenterWidthExplanation": "Algo1"
    },
    "slices": {}
  },
  "time": {
    "samples": {
      "AcquisitionNumber": [1, 2, 3, 4, 5, 6, 7, 8, 9, 10, 11, 12, 13, 14, 15, 16, 17, 18, 19, 20, 21, 22, 23, 24, 25, 26, 27, 28, 29, 30, 31, 32, 33, 34, 35, 36, 37, 38, 39, 40, 41, 42, 43, 44, 45, 46, 47, 48, 49, 50, 51, 52, 53, 54, 55, 56, 57, 58, 59, 60, 61, 62, 63, 64, 65, 66, 67, 68, 69, 70, 71, 72, 73, 74, 75, 76, 77, 78, 79, 80, 81, 82, 83, 84, 85, 86, 87, 88, 89, 90, 91, 92, 93, 94, 95, 96, 97, 98, 99, 100, 101, 102, 103, 104, 105, 106, 107, 108, 109, 110, 111, 112, 113, 114, 115, 116, 117, 118, 119, 120, 121, 122, 123, 124, 125, 126, 127, 128, 129, 130, 131, 132, 133, 134, 135, 136, 137, 138, 139, 140, 141, 142, 143, 144, 145, 146, 147, 148, 149, 150, 151, 152, 153, 154, 155, 156, 157, 158, 159, 160, 161, 162, 163, 164, 165, 166, 167, 168, 169, 170, 171, 172, 173, 174, 175, 176, 177, 178, 179, 180, 181, 182, 183, 184, 185, 186, 187, 188, 189, 190, 191, 192, 193, 194, 195, 196, 197, 198, 199, 200, 201, 202, 203, 204, 205, 206, 207, 208, 209, 210, 211, 212, 213, 214, 215, 216, 217, 218, 219, 220, 221, 222, 223, 224, 225, 226, 227, 228, 229, 230, 231, 232, 233, 234, 235, 236, 237, 238, 239, 240, 241, 242, 243, 244, 245, 246, 247, 248, 249, 250, 251, 252, 253, 254, 255, 256, 257, 258, 259, 260, 261, 262, 263, 264, 265, 266, 267, 268, 269, 270, 271, 272, 273, 274, 275, 276, 277, 278, 279, 280, 281, 282, 283, 284, 285, 286, 287, 288, 289, 290, 291, 292, 293, 294, 295, 296, 297, 298, 299, 300, 301, 302, 303, 304, 305, 306, 307, 308, 309, 310, 311, 312, 313, 314, 315, 316, 317, 318, 319, 320, 321, 322, 323, 324, 325, 326, 327, 328, 329, 330, 331, 332, 333, 334, 335, 336, 337, 338, 339, 340, 341, 342, 343, 344, 345, 346, 347, 348, 349, 350, 351, 352, 353, 354, 355, 356, 357, 358, 359, 360, 361, 362, 363, 364, 365, 366, 367, 368, 369, 370, 371, 372, 373, 374, 375, 376, 377, 378, 379, 380, 381, 382, 383, 384, 385, 386, 387, 388, 389, 390, 391, 392, 393, 394, 395, 396, 397, 398, 399, 400, 401, 402, 403, 404, 405, 406, 407, 408, 409, 410, 411, 412, 413, 414, 415, 416, 417, 418, 419, 420, 421, 422, 423, 424, 425, 426, 427, 428, 429, 430, 431, 432, 433, 434, 435, 436, 437, 438, 439, 440, 441, 442, 443, 444, 445, 446, 447, 448, 449, 450, 451, 452, 453, 454, 455, 456, 457, 458, 459, 460, 461, 462, 463, 464, 465, 466, 467, 468, 469, 470, 471, 472, 473, 474, 475, 476, 477, 478, 479, 480, 481, 482, 483, 484, 485, 486, 487, 488, 489, 490, 491, 492, 493, 494, 495, 496, 497, 498, 499, 500, 501, 502, 503, 504, 505, 506, 507, 508, 509, 510, 511, 512, 513, 514, 515, 516, 517, 518, 519, 520, 521, 522, 523, 524, 525, 526, 527, 528, 529, 530, 531, 532, 533, 534, 535, 536, 537, 538, 539, 540, 541, 542, 543, 544, 545, 546, 547, 548, 549, 550, 551, 552, 553, 554, 555, 556, 557, 558, 559, 560, 561, 562, 563, 564, 565, 566, 567, 568, 569, 570, 571, 572, 573, 574, 575, 576, 577, 578, 579, 580, 581, 582, 583, 584, 585, 586, 587, 588, 589, 590, 591, 592, 593, 594, 595, 596, 597, 598, 599, 600, 601, 602, 603, 604, 605, 606, 607, 608, 609, 610, 611, 612, 613, 614, 615, 616, 617, 618, 619, 620, 621, 622, 623, 624, 625, 626, 627, 628, 629, 630, 631, 632, 633, 634, 635, 636, 637, 638, 639, 640, 641, 642, 643, 644, 645, 646, 647, 648, 649, 650, 651, 652, 653, 654, 655, 656, 657, 658, 659, 660, 661, 662, 663, 664, 665, 666, 667, 668, 669, 670, 671, 672, 673, 674, 675, 676, 677, 678, 679, 680, 681, 682, 683, 684, 685, 686, 687, 688, 689, 690, 691, 692, 693, 694, 695, 696, 697, 698, 699, 700, 701, 702, 703, 704, 705, 706, 707, 708, 709, 710, 711, 712, 713, 714, 715, 716, 717, 718, 719, 720, 721, 722, 723, 724, 725, 726, 727, 728, 729, 730, 731, 732, 733, 734, 735, 736, 737, 738, 739, 740, 741, 742, 743, 744, 745, 746, 747, 748, 749, 750, 751, 752, 753, 754, 755, 756, 757, 758, 759, 760, 761, 762, 763, 764, 765, 766, 767, 768, 769, 770, 771, 772, 773, 774, 775, 776, 777, 778, 779, 780, 781, 782, 783, 784, 785, 786, 787, 788, 789, 790, 791, 792, 793, 794, 795, 796, 797, 798, 799, 800, 801, 802, 803, 804, 805, 806, 807, 808, 809, 810, 811, 812, 813, 814, 815, 816, 817, 818, 819, 820, 821, 822, 823, 824, 825, 826, 827, 828, 829, 830, 831, 832, 833, 834, 835, 836, 837, 838, 839, 840, 841, 842, 843, 844, 845, 846, 847, 848, 849, 850, 851, 852, 853, 854, 855, 856, 857, 858, 859, 860, 861, 862, 863, 864, 865, 866, 867, 868, 869, 870, 871, 872],
      "AcquisitionTime": ["104916.520000", "104916.980000", "104917.440000", "104917.900000", "104918.360000", "104918.820000", "104919.280000", "104919.740000", "104920.200000", "104920.660000", "104921.120000", "104921.580000", "104922.040000", "104922.500000", "104922.960000", "104923.420000", "104923.880000", "104924.340000", "104924.800000", "104925.260000", "104925.720000", "104926.180000", "104926.640000", "104927.100000", "104927.560000", "104928.020000", "104928.480000", "104928.940000", "104929.400000", "104929.860000", "104930.320000", "104930.780000", "104931.240000", "104931.700000", "104932.160000", "104932.620000", "104933.080000", "104933.540000", "104934.000000", "104934.460000", "104934.920000", "104935.380000", "104935.840000", "104936.300000", "104936.760000", "104937.220000", "104937.680000", "104938.140000", "104938.600000", "104939.060000", "104939.520000", "104939.980000", "104940.440000", "104940.900000", "104941.360000", "104941.820000", "104942.280000", "104942.740000", "104943.200000", "104943.660000", "104944.120000", "104944.580000", "104945.040000", "104945.500000", "104945.960000", "104946.420000", "104946.880000", "104947.340000", "104947.800000", "104948.260000", "104948.720000", "104949.180000", "104949.640000", "104950.100000", "104950.560000", "104951.020000", "104951.480000", "104951.940000", "104952.400000", "104952.860000", "104953.320000", "104953.780000", "104954.240000", "104954.700000", "104955.160000", "104955.620000", "104956.080000", "104956.540000", "104957.000000", "104957.460000", "104957.920000", "104958.380000", "104958.840000", "104959.300000", "104959.760000", "105000.220000", "105000.680000", "105001.140000", "105001.600000", "105002.060000", "105002.520000", "105002.980000", "105003.440000", "105003.900000", "105004.360000", "105004.820000", "105005.280000", "105005.740000", "105006.200000", "105006.660000", "105007.120000", "105007.580000", "105008.040000", "105008.500000", "105008.960000", "105009.420000", "105009.880000", "105010.340000", "105010.800000", "105011.260000", "105011.720000", "105012.180000", "105012.640000", "105013.100000", "105013.560000", "105014.020000", "105014.480000", "105014.940000", "105015.400000", "105015.860000", "105016.320000", "105016.780000", "105017.240000", "105017.700000", "105018.160000", "105018.620000", "105019.080000", "105019.540000", "105020.000000", "105020.460000", "105020.920000", "105021.380000", "105021.840000", "105022.300000", "105022.760000", "105023.220000", "105023.680000", "105024.140000", "105024.600000", "105025.060000", "105025.520000", "105025.980000", "105026.440000", "105026.900000", "105027.360000", "105027.820000", "105028.280000", "105028.740000", "105029.200000", "105029.660000", "105030.120000", "105030.580000", "105031.040000", "105031.500000", "105031.960000", "105032.420000", "105032.880000", "105033.340000", "105033.800000", "105034.260000", "105034.720000", "105035.180000", "105035.640000", "105036.100000", "105036.560000", "105037.020000", "105037.480000", "105037.940000", "105038.400000", "105038.860000", "105039.320000", "105039.780000", "105040.240000", "105040.700000", "105041.160000", "105041.620000", "105042.080000", "105042.540000", "105043.000000", "105043.460000", "105043.920000", "105044.380000", "105044.840000", "105045.300000", "105045.760000", "105046.220000", "105046.680000", "105047.140000", "105047.600000", "105048.060000", "105048.520000", "105048.980000", "105049.440000", "105049.900000", "105050.360000", "105050.820000", "105051.280000", "105051.740000", "105052.200000", "105052.660000", "105053.120000", "105053.580000", "105054.040000", "105054.500000", "105054.960000", "105055.420000", "105055.880000", "105056.340000", "105056.800000", "105057.260000", "105057.720000", "105058.180000", "105058.640000", "105059.100000", "105059.560000", "105100.020000", "105100.480000", "105100.940000", "105101.400000", "105101.860000", "105102.320000", "105102.780000", "105103.240000", "105103.700000", "105104.160000", "105104.620000", "105105.080000", "105105.540000", "105106.000000", "105106.460000", "105106.920000", "105107.380000", "105107.840000", "105108.300000", "105108.760000", "105109.220000", "105109.680000", "105110.140000", "105110.600000", "105111.060000", "105111.520000", "105111.980000", "105112.440000", "105112.900000", "105113.360000", "105113.820000", "105114.280000", "105114.740000", "105115.200000", "105115.660000", "105116.120000", "105116.580000", "105117.040000", "105117.500000", "105117.960000", "105118.420000", "105118.880000", "105119.340000", "105119.800000", "105120.260000", "105120.720000", "105121.180000", "105121.640000", "105122.100000", "105122.560000", "105123.020000", "105123.480000", "105123.940000", "105124.400000", "105124.860000", "105125.320000", "105125.780000", "105126.240000", "105126.700000", "105127.160000", "105127.620000", "105128.080000", "105128.540000", "105129.000000", "105129.460000", "105129.920000", "105130.380000", "105130.840000", "105131.300000", "105131.760000", "105132.220000", "105132.680000", "105133.140000", "105133.600000", "105134.060000", "105134.520000", "105134.980000", "105135.440000", "105135.900000", "105136.360000", "105136.820000", "105137.280000", "105137.740000", "105138.200000", "105138.660000", "105139.120000", "105139.580000", "105140.040000", "105140.500000", "105140.960000", "105141.420000", "105141.880000", "105142.340000", "105142.800000", "105143.260000", "105143.720000", "105144.180000", "105144.640000", "105145.100000", "105145.560000", "105146.020000", "105146.480000", "105146.940000", "105147.400000", "105147.860000", "105148.320000", "105148.780000", "105149.240000", "105149.700000", "105150.160000", "105150.620000", "105151.080000", "105151.540000", "105152.000000", "105152.460000", "105152.920000", "105153.380000", "105153.840000", "105154.300000", "105154.760000", "105155.220000", "105155.680000", "105156.140000", "105156.600000", "105157.060000", "105157.520000", "105157.980000", "105158.440000", "105158.900000", "105159.360000", "105159.820000", "105200.280000", "105200.740000", "105201.200000", "105201.660000", "105202.120000", "105202.580000", "105203.040000", "105203.500000", "105203.960000", "105204.420000", "105204.880000", "105205.340000", "105205.800000", "105206.260000", "105206.720000", "105207.180000", "105207.640000", "105208.100000", "105208.560000", "105209.020000", "105209.480000", "105209.940000", "105210.400000", "105210.860000", "105211.320000", "105211.780000", "105212.240000", "105212.700000", "105213.160000", "105213.620000", "105214.080000", "105214.540000", "105215.000000", "105215.460000", "105215.920000", "105216.380000", "105216.840000", "105217.300000", "105217.760000", "105218.220000", "105218.680000", "105219.140000", "105219.600000", "105220.060000", "105220.520000", "105220.980000", "105221.440000", "105221.900000", "105222.360000", "105222.820000", "105223.280000", "105223.740000", "105224.200000", "105224.660000", "105225.120000", "105225.580000", "105226.040000", "105226.500000", "105226.960000", "105227.420000", "105227.880000", "105228.340000", "105228.800000", "105229.260000", "105229.720000", "105230.180000", "105230.640000", "105231.100000", "105231.560000", "105232.020000", "105232.480000", "105232.940000", "105233.400000", "105233.860000", "105234.320000", "105234.780000", "105235.240000", "105235.700000", "105236.160000", "105236.620000", "105237.080000", "105237.540000", "105238.000000", "105238.460000", "105238.920000", "105239.380000", "105239.840000", "105240.300000", "105240.760000", "105241.220000", "105241.680000", "105242.140000", "105242.600000", "105243.060000", "105243.520000", "105243.980000", "105244.440000", "105244.900000", "105245.360000", "105245.820000", "105246.280000", "105246.740000", "105247.200000", "105247.660000", "105248.120000", "105248.580000", "105249.040000", "105249.500000", "105249.960000", "105250.420000", "105250.880000", "105251.340000", "105251.800000", "105252.260000", "105252.720000", "105253.180000", "105253.640000", "105254.100000", "105254.560000", "105255.020000", "105255.480000", "105255.940000", "105256.400000", "105256.860000", "105257.320000", "105257.780000", "105258.240000", "105258.700000", "105259.160000", "105259.620000", "105300.080000", "105300.540000", "105301.000000", "105301.460000", "105301.920000", "105302.380000", "105302.840000", "105303.300000", "105303.760000", "105304.220000", "105304.680000", "105305.140000", "105305.600000", "105306.060000", "105306.520000", "105306.980000", "105307.440000", "105307.900000", "105308.360000", "105308.820000", "105309.280000", "105309.740000", "105310.200000", "105310.660000", "105311.120000", "105311.580000", "105312.040000", "105312.500000", "105312.960000", "105313.420000", "105313.880000", "105314.340000", "105314.800000", "105315.260000", "105315.720000", "105316.180000", "105316.640000", "105317.100000", "105317.560000", "105318.020000", "105318.480000", "105318.940000", "105319.400000", "105319.860000", "105320.320000", "105320.780000", "105321.240000", "105321.700000", "105322.160000", "105322.620000", "105323.080000", "105323.540000", "105324.000000", "105324.460000", "105324.920000", "105325.380000", "105325.840000", "105326.300000", "105326.760000", "105327.220000", "105327.680000", "105328.140000", "105328.600000", "105329.060000", "105329.520000", "105329.980000", "105330.440000", "105330.900000", "105331.360000", "105331.820000", "105332.280000", "105332.740000", "105333.200000", "105333.660000", "105334.120000", "105334.580000", "105335.040000", "105335.500000", "105335.960000", "105336.420000", "105336.880000", "105337.340000", "105337.800000", "105338.260000", "105338.720000", "105339.180000", "105339.640000", "105340.100000", "105340.560000", "105341.020000", "105341.480000", "105341.940000", "105342.400000", "105342.860000", "105343.320000", "105343.780000", "105344.240000", "105344.700000", "105345.160000", "105345.620000", "105346.080000", "105346.540000", "105347.000000", "105347.460000", "105347.920000", "105348.380000", "105348.840000", "105349.300000", "105349.760000", "105350.220000", "105350.680000", "105351.140000", "105351.600000", "105352.060000", "105352.520000", "105352.980000", "105353.440000", "105353.900000", "105354.360000", "105354.820000", "105355.280000", "105355.740000", "105356.200000", "105356.660000", "105357.120000", "105357.580000", "105358.040000", "105358.500000", "105358.960000", "105359.420000", "105359.880000", "105400.340000", "105400.800000", "105401.260000", "105401.720000", "105402.180000", "105402.640000", "105403.100000", "105403.560000", "105404.020000", "105404.480000", "105404.940000", "105405.400000", "105405.860000", "105406.320000", "105406.780000", "105407.240000", "105407.700000", "105408.160000", "105408.620000", "105409.080000", "105409.540000", "105410.000000", "105410.460000", "105410.920000", "105411.380000", "105411.840000", "105412.300000", "105412.760000", "105413.220000", "105413.680000", "105414.140000", "105414.600000", "105415.060000", "105415.520000", "105415.980000", "105416.440000", "105416.900000", "105417.360000", "105417.820000", "105418.280000", "105418.740000", "105419.200000", "105419.660000", "105420.120000", "105420.580000", "105421.040000", "105421.500000", "105421.960000", "105422.420000", "105422.880000", "105423.340000", "105423.800000", "105424.260000", "105424.720000", "105425.180000", "105425.640000", "105426.100000", "105426.560000", "105427.020000", "105427.480000", "105427.940000", "105428.400000", "105428.860000", "105429.320000", "105429.780000", "105430.240000", "105430.700000", "105431.160000", "105431.620000", "105432.080000", "105432.540000", "105433.000000", "105433.460000", "105433.920000", "105434.380000", "105434.840000", "105435.300000", "105435.760000", "105436.220000", "105436.680000", "105437.140000", "105437.600000", "105438.060000", "105438.520000", "105438.980000", "105439.440000", "105439.900000", "105440.360000", "105440.820000", "105441.280000", "105441.740000", "105442.200000", "105442.660000", "105443.120000", "105443.580000", "105444.040000", "105444.500000", "105444.960000", "105445.420000", "105445.880000", "105446.340000", "105446.800000", "105447.260000", "105447.720000", "105448.180000", "105448.640000", "105449.100000", "105449.560000", "105450.020000", "105450.480000", "105450.940000", "105451.400000", "105451.860000", "105452.320000", "105452.780000", "105453.240000", "105453.700000", "105454.160000", "105454.620000", "105455.080000", "105455.540000", "105456.000000", "105456.460000", "105456.920000", "105457.380000", "105457.840000", "105458.300000", "105458.760000", "105459.220000", "105459.680000", "105500.140000", "105500.600000", "105501.060000", "105501.520000", "105501.980000", "105502.440000", "105502.900000", "105503.360000", "105503.820000", "105504.280000", "105504.740000", "105505.200000", "105505.660000", "105506.120000", "105506.580000", "105507.040000", "105507.500000", "105507.960000", "105508.420000", "105508.880000", "105509.340000", "105509.800000", "105510.260000", "105510.720000", "105511.180000", "105511.640000", "105512.100000", "105512.560000", "105513.020000", "105513.480000", "105513.940000", "105514.400000", "105514.860000", "105515.320000", "105515.780000", "105516.240000", "105516.700000", "105517.160000", "105517.620000", "105518.080000", "105518.540000", "105519.000000", "105519.460000", "105519.920000", "105520.380000", "105520.840000", "105521.300000", "105521.760000", "105522.220000", "105522.680000", "105523.140000", "105523.600000", "105524.060000", "105524.520000", "105524.980000", "105525.440000", "105525.900000", "105526.360000", "105526.820000", "105527.280000", "105527.740000", "105528.200000", "105528.660000", "105529.120000", "105529.580000", "105530.040000", "105530.500000", "105530.960000", "105531.420000", "105531.880000", "105532.340000", "105532.800000", "105533.260000", "105533.720000", "105534.180000", "105534.640000", "105535.100000", "105535.560000", "105536.020000", "105536.480000", "105536.940000", "105537.400000", "105537.860000", "105538.320000", "105538.780000", "105539.240000", "105539.700000", "105540.160000", "105540.620000", "105541.080000", "105541.540000", "105542.000000", "105542.460000", "105542.920000", "105543.380000", "105543.840000", "105544.300000", "105544.760000", "105545.220000", "105545.680000", "105546.140000", "105546.600000", "105547.060000", "105547.520000", "105547.980000", "105548.440000", "105548.900000", "105549.360000", "105549.820000", "105550.280000", "105550.740000", "105551.200000", "105551.660000", "105552.120000", "105552.580000", "105553.040000", "105553.500000", "105553.960000", "105554.420000", "105554.880000", "105555.340000", "105555.800000", "105556.260000", "105556.720000", "105557.180000"],
