{
  "AcquisitionMatrixPE": 82,
  "AcquisitionNumber": 1,
  "AcquisitionTime": "10:56:14.335000",
  "BandwidthPerPixelPhaseEncode": 24.888,
  "BaseResolution": 82,
  "BodyPartExamined": "BRAIN",
  "ConsistencyInfo": "N4_VE11E_LATEST_20181129",
  "ConversionSoftware": "dcm2niix",
  "ConversionSoftwareVersion": "v1.0.20201102",
  "DerivedVendorReportedEchoSpacing": 0.00049,
  "DeviceSerialNumber": "66112",
  "DwellTime": 2e-06,
  "EchoTime": 0.0272,
  "EchoTrainLength": 82,
  "EffectiveEchoSpacing": 0.00049,
  "FlipAngle": 44,
  "ImageComments": "Unaliased MB8/PE3",
  "ImageOrientationPatientDICOM": [0.999912, 0.00711419, -0.0112183, -0.00575915, 0.993173, 0.116504],
  "ImageType": [
    "ORIGINAL",
    "PRIMARY",
    "M",
    "MB",
    "ND",
    "NORM",
    "MOSAIC"
],
  "ImagingFrequency": 123.252,
  "InPlanePhaseEncodingDirectionDICOM": "COL",
  "InstitutionAddress": "Maynard 3,Hanover,NH,US,03755",
  "InstitutionName": "Dartmouth College - PBS",
  "InstitutionalDepartmentName": "Department",
  "MRAcquisitionType": "2D",
  "MagneticFieldStrength": 3,
  "Manufacturer": "Siemens",
  "ManufacturersModelName": "Prisma",
  "Modality": "MR",
  "MultibandAccelerationFactor": 8,
  "PartialFourier": 1,
  "PatientPosition": "HFS",
  "PercentPhaseFOV": 100,
  "PercentSampling": 100,
  "PhaseEncodingDirection": "j-",
  "PhaseEncodingSteps": 82,
  "PhaseResolution": 1,
  "PixelBandwidth": 3050,
  "ProcedureStepDescription": "Wager_Wager^1076_spacetop",
  "ProtocolName": "func_run-02_task-social_acq-ap-mb8",
  "PulseSequenceDetails": "%CustomerSeq%\\cmrr_mbep2d_bold",
  "ReceiveCoilActiveElements": "HEA;HEP",
  "ReceiveCoilName": "Head_32",
  "ReconMatrixPE": 82,
  "RepetitionTime": 0.46,
  "SAR": 0.102269,
  "ScanOptions": "FS",
  "ScanningSequence": "EP",
  "SequenceName": "epfid2d1_82",
  "SequenceVariant": "SK\\SS",
  "SeriesDescription": "func_run-02_task-social_acq-ap-mb8",
  "SeriesNumber": 14,
  "ShimSetting": [4140, -7793, -7241, 459, -74, -231, 40, 63],
  "SliceThickness": 2.7,
  "SliceTiming": [0, 0.2525, 0.0625, 0.315, 0.125, 0.3775, 0.1875, 0, 0.2525, 0.0625, 0.315, 0.125, 0.3775, 0.1875, 0, 0.2525, 0.0625, 0.315, 0.125, 0.3775, 0.1875, 0, 0.2525, 0.0625, 0.315, 0.125, 0.3775, 0.1875, 0, 0.2525, 0.0625, 0.315, 0.125, 0.3775, 0.1875, 0, 0.2525, 0.0625, 0.315, 0.125, 0.3775, 0.1875, 0, 0.2525, 0.0625, 0.315, 0.125, 0.3775, 0.1875, 0, 0.2525, 0.0625, 0.315, 0.125, 0.3775, 0.1875],
  "SoftwareVersions": "syngo MR E11",
  "SpacingBetweenSlices": 2.7,
  "StationName": "AWP66112",
  "TaskName": "social",
  "TotalReadoutTime": 0.03969,
  "TxRefAmp": 300.696,
  "WipMemBlock": "b5ddf144-4f06-4028-a5dd-d336c9d8131c||Sequence: R016 ve11e/master r/434b28f1; Aug  7 2019 18:53:46 by eja",
  "dcmmeta_affine": [
    [-2.682690143585205, -0.015451381914317608, -0.03232055902481079, 112.98542785644531],
    [-0.01908685639500618, 2.66461181640625, 0.3143594563007355, -85.07444763183594],
    [-0.030097948387265205, -0.31257256865501404, 2.6814424991607666, -45.904170989990234],
    [0.0, 0.0, 0.0, 1.0]
],
  "dcmmeta_reorient_transform": [
    [0.0, -1.0, 0.0, 81.0],
    [1.0, 0.0, 0.0, 0.0],
    [0.0, 0.0, 1.0, 0.0],
    [0.0, 0.0, 0.0, 1.0]
],
  "dcmmeta_shape": [82, 82, 56, 872],
  "dcmmeta_slice_dim": 2,
  "dcmmeta_version": 0.6,
  "global": {
    "const": {
      "AccessionNumber": "A003978",
      "AcquisitionMatrix": [82, 0, 0, 82],
      "AngioFlag": "N",
      "BitsAllocated": 16,
      "BitsStored": 16,
      "BodyPartExamined": "BRAIN",
      "Columns": 656,
      "EchoNumbers": 1,
      "EchoTime": 27.2,
      "EchoTrainLength": 82,
      "FlipAngle": 44.0,
      "HighBit": 15,
      "ImageOrientationPatient": [0.99991176483184, 0.00711419149172, -0.0112183256454, -0.0057591511788, 0.99317348762622, 0.11650431603191],
      "ImagePositionPatient": [-877.23139726024, -900.98064710126, -152.29276414215],
      "ImageType": [
        "ORIGINAL",
        "PRIMARY",
        "M",
        "MB",
        "ND",
        "NORM",
        "MOSAIC"
],
      "ImagedNucleus": "1H",
      "ImagingFrequency": 123.252124,
      "InPlanePhaseEncodingDirection": "COL",
      "MRAcquisitionType": "2D",
      "MagneticFieldStrength": 3.0,
      "Manufacturer": "SIEMENS",
      "ManufacturerModelName": "Prisma",
      "Modality": "MR",
      "NumberOfAverages": 1.0,
      "NumberOfPhaseEncodingSteps": 82,
      "PercentPhaseFieldOfView": 100.0,
      "PercentSampling": 100.0,
      "PerformedProcedureStepStartTime": "102220.227000",
      "PhotometricInterpretation": "MONOCHROME2",
      "PixelBandwidth": 3050.0,
      "PixelRepresentation": 0,
      "PixelSpacing": [2.6829268932343, 2.6829268932343],
      "ProtocolName": "func_run-02_task-social_acq-ap-mb8",
      "RepetitionTime": 460.0,
      "Rows": 656,
      "SAR": 0.10226937339999,
      "SamplesPerPixel": 1,
      "ScanOptions": "FS",
      "ScanningSequence": "EP",
      "SequenceName": "epfid2d1_82",
      "SequenceVariant": [
        "SK",
        "SS"
],
      "SeriesDescription": "func_run-02_task-social_acq-ap-mb8",
      "SeriesNumber": 14,
      "SeriesTime": "105633.496000",
      "SliceLocation": -56.8463345037,
      "SliceThickness": 2.7000000476837,
      "SmallestImagePixelValue": 0,
      "SoftwareVersions": "syngo MR E11",
      "SpacingBetweenSlices": 2.6999999681825,
      "SpecificCharacterSet": "ISO_IR 100",
      "StudyID": "1",
      "StudyTime": "102220.154000",
      "TransmitCoilName": "Body",
      "VariableFlipAngleFlag": "N",
      "WindowCenterWidthExplanation": "Algo1"
    },
    "slices": {}
  },
  "time": {
    "samples": {
      "AcquisitionNumber": [1, 2, 3, 4, 5, 6, 7, 8, 9, 10, 11, 12, 13, 14, 15, 16, 17, 18, 19, 20, 21, 22, 23, 24, 25, 26, 27, 28, 29, 30, 31, 32, 33, 34, 35, 36, 37, 38, 39, 40, 41, 42, 43, 44, 45, 46, 47, 48, 49, 50, 51, 52, 53, 54, 55, 56, 57, 58, 59, 60, 61, 62, 63, 64, 65, 66, 67, 68, 69, 70, 71, 72, 73, 74, 75, 76, 77, 78, 79, 80, 81, 82, 83, 84, 85, 86, 87, 88, 89, 90, 91, 92, 93, 94, 95, 96, 97, 98, 99, 100, 101, 102, 103, 104, 105, 106, 107, 108, 109, 110, 111, 112, 113, 114, 115, 116, 117, 118, 119, 120, 121, 122, 123, 124, 125, 126, 127, 128, 129, 130, 131, 132, 133, 134, 135, 136, 137, 138, 139, 140, 141, 142, 143, 144, 145, 146, 147, 148, 149, 150, 151, 152, 153, 154, 155, 156, 157, 158, 159, 160, 161, 162, 163, 164, 165, 166, 167, 168, 169, 170, 171, 172, 173, 174, 175, 176, 177, 178, 179, 180, 181, 182, 183, 184, 185, 186, 187, 188, 189, 190, 191, 192, 193, 194, 195, 196, 197, 198, 199, 200, 201, 202, 203, 204, 205, 206, 207, 208, 209, 210, 211, 212, 213, 214, 215, 216, 217, 218, 219, 220, 221, 222, 223, 224, 225, 226, 227, 228, 229, 230, 231, 232, 233, 234, 235, 236, 237, 238, 239, 240, 241, 242, 243, 244, 245, 246, 247, 248, 249, 250, 251, 252, 253, 254, 255, 256, 257, 258, 259, 260, 261, 262, 263, 264, 265, 266, 267, 268, 269, 270, 271, 272, 273, 274, 275, 276, 277, 278, 279, 280, 281, 282, 283, 284, 285, 286, 287, 288, 289, 290, 291, 292, 293, 294, 295, 296, 297, 298, 299, 300, 301, 302, 303, 304, 305, 306, 307, 308, 309, 310, 311, 312, 313, 314, 315, 316, 317, 318, 319, 320, 321, 322, 323, 324, 325, 326, 327, 328, 329, 330, 331, 332, 333, 334, 335, 336, 337, 338, 339, 340, 341, 342, 343, 344, 345, 346, 347, 348, 349, 350, 351, 352, 353, 354, 355, 356, 357, 358, 359, 360, 361, 362, 363, 364, 365, 366, 367, 368, 369, 370, 371, 372, 373, 374, 375, 376, 377, 378, 379, 380, 381, 382, 383, 384, 385, 386, 387, 388, 389, 390, 391, 392, 393, 394, 395, 396, 397, 398, 399, 400, 401, 402, 403, 404, 405, 406, 407, 408, 409, 410, 411, 412, 413, 414, 415, 416, 417, 418, 419, 420, 421, 422, 423, 424, 425, 426, 427, 428, 429, 430, 431, 432, 433, 434, 435, 436, 437, 438, 439, 440, 441, 442, 443, 444, 445, 446, 447, 448, 449, 450, 451, 452, 453, 454, 455, 456, 457, 458, 459, 460, 461, 462, 463, 464, 465, 466, 467, 468, 469, 470, 471, 472, 473, 474, 475, 476, 477, 478, 479, 480, 481, 482, 483, 484, 485, 486, 487, 488, 489, 490, 491, 492, 493, 494, 495, 496, 497, 498, 499, 500, 501, 502, 503, 504, 505, 506, 507, 508, 509, 510, 511, 512, 513, 514, 515, 516, 517, 518, 519, 520, 521, 522, 523, 524, 525, 526, 527, 528, 529, 530, 531, 532, 533, 534, 535, 536, 537, 538, 539, 540, 541, 542, 543, 544, 545, 546, 547, 548, 549, 550, 551, 552, 553, 554, 555, 556, 557, 558, 559, 560, 561, 562, 563, 564, 565, 566, 567, 568, 569, 570, 571, 572, 573, 574, 575, 576, 577, 578, 579, 580, 581, 582, 583, 584, 585, 586, 587, 588, 589, 590, 591, 592, 593, 594, 595, 596, 597, 598, 599, 600, 601, 602, 603, 604, 605, 606, 607, 608, 609, 610, 611, 612, 613, 614, 615, 616, 617, 618, 619, 620, 621, 622, 623, 624, 625, 626, 627, 628, 629, 630, 631, 632, 633, 634, 635, 636, 637, 638, 639, 640, 641, 642, 643, 644, 645, 646, 647, 648, 649, 650, 651, 652, 653, 654, 655, 656, 657, 658, 659, 660, 661, 662, 663, 664, 665, 666, 667, 668, 669, 670, 671, 672, 673, 674, 675, 676, 677, 678, 679, 680, 681, 682, 683, 684, 685, 686, 687, 688, 689, 690, 691, 692, 693, 694, 695, 696, 697, 698, 699, 700, 701, 702, 703, 704, 705, 706, 707, 708, 709, 710, 711, 712, 713, 714, 715, 716, 717, 718, 719, 720, 721, 722, 723, 724, 725, 726, 727, 728, 729, 730, 731, 732, 733, 734, 735, 736, 737, 738, 739, 740, 741, 742, 743, 744, 745, 746, 747, 748, 749, 750, 751, 752, 753, 754, 755, 756, 757, 758, 759, 760, 761, 762, 763, 764, 765, 766, 767, 768, 769, 770, 771, 772, 773, 774, 775, 776, 777, 778, 779, 780, 781, 782, 783, 784, 785, 786, 787, 788, 789, 790, 791, 792, 793, 794, 795, 796, 797, 798, 799, 800, 801, 802, 803, 804, 805, 806, 807, 808, 809, 810, 811, 812, 813, 814, 815, 816, 817, 818, 819, 820, 821, 822, 823, 824, 825, 826, 827, 828, 829, 830, 831, 832, 833, 834, 835, 836, 837, 838, 839, 840, 841, 842, 843, 844, 845, 846, 847, 848, 849, 850, 851, 852, 853, 854, 855, 856, 857, 858, 859, 860, 861, 862, 863, 864, 865, 866, 867, 868, 869, 870, 871, 872],
      "AcquisitionTime": ["105614.335000", "105614.795000", "105615.255000", "105615.715000", "105616.175000", "105616.635000", "105617.095000", "105617.555000", "105618.015000", "105618.475000", "105618.935000", "105619.395000", "105619.855000", "105620.315000", "105620.775000", "105621.235000", "105621.695000", "105622.155000", "105622.615000", "105623.075000", "105623.535000", "105623.995000", "105624.455000", "105624.915000", "105625.375000", "105625.835000", "105626.295000", "105626.755000", "105627.215000", "105627.675000", "105628.135000", "105628.595000", "105629.055000", "105629.515000", "105629.975000", "105630.435000", "105630.895000", "105631.355000", "105631.815000", "105632.275000", "105632.735000", "105633.195000", "105633.655000", "105634.115000", "105634.575000", "105635.035000", "105635.495000", "105635.955000", "105636.415000", "105636.875000", "105637.335000", "105637.795000", "105638.255000", "105638.715000", "105639.175000", "105639.635000", "105640.095000", "105640.555000", "105641.015000", "105641.475000", "105641.935000", "105642.395000", "105642.855000", "105643.315000", "105643.775000", "105644.235000", "105644.695000", "105645.155000", "105645.615000", "105646.075000", "105646.535000", "105646.995000", "105647.455000", "105647.915000", "105648.375000", "105648.835000", "105649.295000", "105649.755000", "105650.215000", "105650.675000", "105651.135000", "105651.595000", "105652.055000", "105652.515000", "105652.975000", "105653.435000", "105653.895000", "105654.355000", "105654.815000", "105655.275000", "105655.735000", "105656.195000", "105656.655000", "105657.115000", "105657.575000", "105658.035000", "105658.495000", "105658.955000", "105659.415000", "105659.875000", "105700.335000", "105700.795000", "105701.255000", "105701.715000", "105702.175000", "105702.635000", "105703.095000", "105703.555000", "105704.015000", "105704.475000", "105704.935000", "105705.395000", "105705.855000", "105706.315000", "105706.775000", "105707.235000", "105707.695000", "105708.155000", "105708.615000", "105709.075000", "105709.535000", "105709.995000", "105710.455000", "105710.915000", "105711.375000", "105711.835000", "105712.295000", "105712.755000", "105713.215000", "105713.675000", "105714.135000", "105714.595000", "105715.055000", "105715.515000", "105715.975000", "105716.435000", "105716.895000", "105717.355000", "105717.815000", "105718.275000", "105718.735000", "105719.195000", "105719.655000", "105720.115000", "105720.575000", "105721.035000", "105721.495000", "105721.955000", "105722.415000", "105722.875000", "105723.335000", "105723.795000", "105724.255000", "105724.715000", "105725.175000", "105725.635000", "105726.095000", "105726.555000", "105727.015000", "105727.475000", "105727.935000", "105728.395000", "105728.855000", "105729.315000", "105729.775000", "105730.235000", "105730.695000", "105731.155000", "105731.615000", "105732.075000", "105732.535000", "105732.995000", "105733.455000", "105733.915000", "105734.375000", "105734.835000", "105735.295000", "105735.755000", "105736.215000", "105736.675000", "105737.135000", "105737.595000", "105738.055000", "105738.515000", "105738.975000", "105739.435000", "105739.895000", "105740.355000", "105740.815000", "105741.275000", "105741.735000", "105742.195000", "105742.655000", "105743.115000", "105743.575000", "105744.035000", "105744.495000", "105744.955000", "105745.415000", "105745.875000", "105746.335000", "105746.795000", "105747.255000", "105747.715000", "105748.175000", "105748.635000", "105749.095000", "105749.555000", "105750.015000", "105750.475000", "105750.935000", "105751.395000", "105751.855000", "105752.315000", "105752.775000", "105753.235000", "105753.695000", "105754.155000", "105754.615000", "105755.075000", "105755.535000", "105755.995000", "105756.455000", "105756.915000", "105757.375000", "105757.835000", "105758.295000", "105758.755000", "105759.215000", "105759.675000", "105800.135000", "105800.595000", "105801.055000", "105801.515000", "105801.975000", "105802.435000", "105802.895000", "105803.355000", "105803.815000", "105804.275000", "105804.735000", "105805.195000", "105805.655000", "105806.115000", "105806.575000", "105807.035000", "105807.495000", "105807.955000", "105808.415000", "105808.875000", "105809.335000", "105809.795000", "105810.255000", "105810.715000", "105811.175000", "105811.635000", "105812.095000", "105812.555000", "105813.015000", "105813.475000", "105813.935000", "105814.395000", "105814.855000", "105815.315000", "105815.775000", "105816.235000", "105816.695000", "105817.155000", "105817.615000", "105818.075000", "105818.535000", "105818.995000", "105819.455000", "105819.915000", "105820.375000", "105820.835000", "105821.295000", "105821.755000", "105822.215000", "105822.675000", "105823.135000", "105823.595000", "105824.055000", "105824.515000", "105824.975000", "105825.435000", "105825.895000", "105826.355000", "105826.815000", "105827.275000", "105827.735000", "105828.195000", "105828.655000", "105829.115000", "105829.575000", "105830.035000", "105830.495000", "105830.955000", "105831.415000", "105831.875000", "105832.335000", "105832.795000", "105833.255000", "105833.715000", "105834.175000", "105834.635000", "105835.095000", "105835.555000", "105836.015000", "105836.475000", "105836.935000", "105837.395000", "105837.855000", "105838.315000", "105838.775000", "105839.235000", "105839.695000", "105840.155000", "105840.615000", "105841.075000", "105841.535000", "105841.995000", "105842.455000", "105842.915000", "105843.375000", "105843.835000", "105844.295000", "105844.755000", "105845.215000", "105845.675000", "105846.135000", "105846.595000", "105847.055000", "105847.515000", "105847.975000", "105848.435000", "105848.895000", "105849.355000", "105849.815000", "105850.275000", "105850.735000", "105851.195000", "105851.655000", "105852.115000", "105852.575000", "105853.035000", "105853.495000", "105853.955000", "105854.415000", "105854.875000", "105855.335000", "105855.795000", "105856.255000", "105856.715000", "105857.175000", "105857.635000", "105858.095000", "105858.555000", "105859.015000", "105859.475000", "105859.935000", "105900.395000", "105900.855000", "105901.315000", "105901.775000", "105902.235000", "105902.695000", "105903.155000", "105903.615000", "105904.075000", "105904.535000", "105904.995000", "105905.455000", "105905.915000", "105906.375000", "105906.835000", "105907.295000", "105907.755000", "105908.215000", "105908.675000", "105909.135000", "105909.595000", "105910.055000", "105910.515000", "105910.975000", "105911.435000", "105911.895000", "105912.355000", "105912.815000", "105913.275000", "105913.735000", "105914.195000", "105914.655000", "105915.115000", "105915.575000", "105916.035000", "105916.495000", "105916.955000", "105917.415000", "105917.875000", "105918.335000", "105918.795000", "105919.255000", "105919.715000", "105920.175000", "105920.635000", "105921.095000", "105921.555000", "105922.015000", "105922.475000", "105922.935000", "105923.395000", "105923.855000", "105924.315000", "105924.775000", "105925.235000", "105925.695000", "105926.155000", "105926.615000", "105927.075000", "105927.535000", "105927.995000", "105928.455000", "105928.915000", "105929.375000", "105929.835000", "105930.295000", "105930.755000", "105931.215000", "105931.675000", "105932.135000", "105932.595000", "105933.055000", "105933.515000", "105933.975000", "105934.435000", "105934.895000", "105935.355000", "105935.815000", "105936.275000", "105936.735000", "105937.195000", "105937.655000", "105938.115000", "105938.575000", "105939.035000", "105939.495000", "105939.955000", "105940.415000", "105940.875000", "105941.335000", "105941.795000", "105942.255000", "105942.715000", "105943.175000", "105943.635000", "105944.095000", "105944.555000", "105945.015000", "105945.475000", "105945.935000", "105946.395000", "105946.855000", "105947.315000", "105947.775000", "105948.235000", "105948.695000", "105949.155000", "105949.615000", "105950.075000", "105950.535000", "105950.995000", "105951.455000", "105951.915000", "105952.375000", "105952.835000", "105953.295000", "105953.755000", "105954.215000", "105954.675000", "105955.135000", "105955.595000", "105956.055000", "105956.515000", "105956.975000", "105957.435000", "105957.895000", "105958.355000", "105958.815000", "105959.275000", "105959.735000", "110000.195000", "110000.655000", "110001.115000", "110001.575000", "110002.035000", "110002.495000", "110002.955000", "110003.415000", "110003.875000", "110004.335000", "110004.795000", "110005.255000", "110005.715000", "110006.175000", "110006.635000", "110007.095000", "110007.555000", "110008.015000", "110008.475000", "110008.935000", "110009.395000", "110009.855000", "110010.315000", "110010.775000", "110011.235000", "110011.695000", "110012.155000", "110012.615000", "110013.075000", "110013.535000", "110013.995000", "110014.455000", "110014.915000", "110015.375000", "110015.835000", "110016.295000", "110016.755000", "110017.215000", "110017.675000", "110018.135000", "110018.595000", "110019.055000", "110019.515000", "110019.975000", "110020.435000", "110020.895000", "110021.355000", "110021.815000", "110022.275000", "110022.735000", "110023.195000", "110023.655000", "110024.115000", "110024.575000", "110025.035000", "110025.495000", "110025.955000", "110026.415000", "110026.875000", "110027.335000", "110027.795000", "110028.255000", "110028.715000", "110029.175000", "110029.635000", "110030.095000", "110030.555000", "110031.015000", "110031.475000", "110031.935000", "110032.395000", "110032.855000", "110033.315000", "110033.775000", "110034.235000", "110034.695000", "110035.155000", "110035.615000", "110036.075000", "110036.535000", "110036.995000", "110037.455000", "110037.915000", "110038.375000", "110038.835000", "110039.295000", "110039.755000", "110040.215000", "110040.675000", "110041.135000", "110041.595000", "110042.055000", "110042.515000", "110042.975000", "110043.435000", "110043.895000", "110044.355000", "110044.815000", "110045.275000", "110045.735000", "110046.195000", "110046.655000", "110047.115000", "110047.575000", "110048.035000", "110048.495000", "110048.955000", "110049.415000", "110049.875000", "110050.335000", "110050.795000", "110051.255000", "110051.715000", "110052.175000", "110052.635000", "110053.095000", "110053.555000", "110054.015000", "110054.475000", "110054.935000", "110055.395000", "110055.855000", "110056.315000", "110056.775000", "110057.235000", "110057.695000", "110058.155000", "110058.615000", "110059.075000", "110059.535000", "110059.995000", "110100.455000", "110100.915000", "110101.375000", "110101.835000", "110102.295000", "110102.755000", "110103.215000", "110103.675000", "110104.135000", "110104.595000", "110105.055000", "110105.515000", "110105.975000", "110106.435000", "110106.895000", "110107.355000", "110107.815000", "110108.275000", "110108.735000", "110109.195000", "110109.655000", "110110.115000", "110110.575000", "110111.035000", "110111.495000", "110111.955000", "110112.415000", "110112.875000", "110113.335000", "110113.795000", "110114.255000", "110114.715000", "110115.175000", "110115.635000", "110116.095000", "110116.555000", "110117.015000", "110117.475000", "110117.935000", "110118.395000", "110118.855000", "110119.315000", "110119.775000", "110120.235000", "110120.695000", "110121.155000", "110121.615000", "110122.075000", "110122.535000", "110122.995000", "110123.455000", "110123.915000", "110124.375000", "110124.835000", "110125.295000", "110125.755000", "110126.215000", "110126.675000", "110127.135000", "110127.595000", "110128.055000", "110128.515000", "110128.975000", "110129.435000", "110129.895000", "110130.355000", "110130.815000", "110131.275000", "110131.735000", "110132.195000", "110132.655000", "110133.115000", "110133.575000", "110134.035000", "110134.495000", "110134.955000", "110135.415000", "110135.875000", "110136.335000", "110136.795000", "110137.255000", "110137.715000", "110138.175000", "110138.635000", "110139.095000", "110139.555000", "110140.015000", "110140.475000", "110140.935000", "110141.395000", "110141.855000", "110142.315000", "110142.775000", "110143.235000", "110143.695000", "110144.155000", "110144.615000", "110145.075000", "110145.535000", "110145.995000", "110146.455000", "110146.915000", "110147.375000", "110147.835000", "110148.295000", "110148.755000", "110149.215000", "110149.675000", "110150.135000", "110150.595000", "110151.055000", "110151.515000", "110151.975000", "110152.435000", "110152.895000", "110153.355000", "110153.815000", "110154.275000", "110154.735000", "110155.195000", "110155.655000", "110156.115000", "110156.575000", "110157.035000", "110157.495000", "110157.955000", "110158.415000", "110158.875000", "110159.335000", "110159.795000", "110200.255000", "110200.715000", "110201.175000", "110201.635000", "110202.095000", "110202.555000", "110203.015000", "110203.475000", "110203.935000", "110204.395000", "110204.855000", "110205.315000", "110205.775000", "110206.235000", "110206.695000", "110207.155000", "110207.615000", "110208.075000", "110208.535000", "110208.995000", "110209.455000", "110209.915000", "110210.375000", "110210.835000", "110211.295000", "110211.755000", "110212.215000", "110212.675000", "110213.135000", "110213.595000", "110214.055000", "110214.515000", "110214.975000", "110215.435000", "110215.895000", "110216.355000", "110216.815000", "110217.275000", "110217.735000", "110218.195000", "110218.655000", "110219.115000", "110219.575000", "110220.035000", "110220.495000", "110220.955000", "110221.415000", "110221.875000", "110222.335000", "110222.795000", "110223.255000", "110223.715000", "110224.175000", "110224.635000", "110225.095000", "110225.555000", "110226.015000", "110226.475000", "110226.935000", "110227.395000", "110227.855000", "110228.315000", "110228.775000", "110229.235000", "110229.695000", "110230.155000", "110230.615000", "110231.075000", "110231.535000", "110231.995000", "110232.455000", "110232.915000", "110233.375000", "110233.835000", "110234.295000", "110234.755000", "110235.215000", "110235.675000", "110236.135000", "110236.595000", "110237.055000", "110237.515000", "110237.975000", "110238.435000", "110238.895000", "110239.355000", "110239.815000", "110240.275000", "110240.735000", "110241.195000", "110241.655000", "110242.115000", "110242.575000", "110243.035000", "110243.495000", "110243.955000", "110244.415000", "110244.875000", "110245.335000", "110245.795000", "110246.255000", "110246.715000", "110247.175000", "110247.635000", "110248.095000", "110248.555000", "110249.015000", "110249.475000", "110249.935000", "110250.395000", "110250.855000", "110251.315000", "110251.775000", "110252.235000", "110252.695000", "110253.155000", "110253.615000", "110254.075000", "110254.535000", "110254.995000"],
