{
  "AcquisitionMatrixPE": 82,
  "AcquisitionNumber": 1,
  "AcquisitionTime": "11:11:15.340000",
  "BandwidthPerPixelPhaseEncode": 24.888,
  "BaseResolution": 82,
  "BodyPartExamined": "BRAIN",
  "ConsistencyInfo": "N4_VE11E_LATEST_20181129",
  "ConversionSoftware": "dcm2niix",
  "ConversionSoftwareVersion": "v1.0.20201102",
  "DerivedVendorReportedEchoSpacing": 0.00049,
  "DeviceSerialNumber": "66112",
  "DwellTime": 2e-06,
  "EchoTime": 0.0272,
  "EchoTrainLength": 82,
  "EffectiveEchoSpacing": 0.00049,
  "FlipAngle": 44,
  "ImageComments": "Unaliased MB8/PE3",
  "ImageOrientationPatientDICOM": [0.999912, 0.00711419, -0.0112183, -0.00575915, 0.993173, 0.116504],
  "ImageType": [
    "ORIGINAL",
    "PRIMARY",
    "M",
    "MB",
    "ND",
    "NORM",
    "MOSAIC"
],
  "ImagingFrequency": 123.252,
  "InPlanePhaseEncodingDirectionDICOM": "COL",
  "InstitutionAddress": "Maynard 3,Hanover,NH,US,03755",
  "InstitutionName": "Dartmouth College - PBS",
  "InstitutionalDepartmentName": "Department",
  "MRAcquisitionType": "2D",
  "MagneticFieldStrength": 3,
  "Manufacturer": "Siemens",
  "ManufacturersModelName": "Prisma",
  "Modality": "MR",
  "MultibandAccelerationFactor": 8,
  "PartialFourier": 1,
  "PatientPosition": "HFS",
  "PercentPhaseFOV": 100,
  "PercentSampling": 100,
  "PhaseEncodingDirection": "j-",
  "PhaseEncodingSteps": 82,
  "PhaseResolution": 1,
  "PixelBandwidth": 3050,
  "ProcedureStepDescription": "Wager_Wager^1076_spacetop",
  "ProtocolName": "func_run-05_task-social_acq-ap-mb8",
  "PulseSequenceDetails": "%CustomerSeq%\\cmrr_mbep2d_bold",
  "ReceiveCoilActiveElements": "HEA;HEP",
  "ReceiveCoilName": "Head_32",
  "ReconMatrixPE": 82,
  "RepetitionTime": 0.46,
  "SAR": 0.102269,
  "ScanOptions": "FS",
  "ScanningSequence": "EP",
  "SequenceName": "epfid2d1_82",
  "SequenceVariant": "SK\\SS",
  "SeriesDescription": "func_run-05_task-social_acq-ap-mb8",
  "SeriesNumber": 18,
  "ShimSetting": [4140, -7793, -7241, 459, -74, -231, 40, 63],
  "SliceThickness": 2.7,
  "SliceTiming": [0, 0.2525, 0.0625, 0.315, 0.1275, 0.3775, 0.19, 0, 0.2525, 0.0625, 0.315, 0.1275, 0.3775, 0.19, 0, 0.2525, 0.0625, 0.315, 0.1275, 0.3775, 0.19, 0, 0.2525, 0.0625, 0.315, 0.1275, 0.3775, 0.19, 0, 0.2525, 0.0625, 0.315, 0.1275, 0.3775, 0.19, 0, 0.2525, 0.0625, 0.315, 0.1275, 0.3775, 0.19, 0, 0.2525, 0.0625, 0.315, 0.1275, 0.3775, 0.19, 0, 0.2525, 0.0625, 0.315, 0.1275, 0.3775, 0.19],
  "SoftwareVersions": "syngo MR E11",
  "SpacingBetweenSlices": 2.7,
  "StationName": "AWP66112",
  "TaskName": "social",
  "TotalReadoutTime": 0.03969,
  "TxRefAmp": 300.696,
  "WipMemBlock": "d5507f6e-0a3d-4178-b11d-16cff3dcb057||Sequence: R016 ve11e/master r/434b28f1; Aug  7 2019 18:53:46 by eja",
  "dcmmeta_affine": [
    [-2.682690143585205, -0.015451381914317608, -0.03232055902481079, 112.98542785644531],
    [-0.01908685639500618, 2.66461181640625, 0.3143594563007355, -85.07444763183594],
    [-0.030097948387265205, -0.31257256865501404, 2.6814424991607666, -45.904170989990234],
    [0.0, 0.0, 0.0, 1.0]
],
  "dcmmeta_reorient_transform": [
    [0.0, -1.0, 0.0, 81.0],
    [1.0, 0.0, 0.0, 0.0],
    [0.0, 0.0, 1.0, 0.0],
    [0.0, 0.0, 0.0, 1.0]
],
  "dcmmeta_shape": [82, 82, 56, 872],
  "dcmmeta_slice_dim": 2,
  "dcmmeta_version": 0.6,
  "global": {
    "const": {
      "AccessionNumber": "A003978",
      "AcquisitionMatrix": [82, 0, 0, 82],
      "AngioFlag": "N",
      "BitsAllocated": 16,
      "BitsStored": 16,
      "BodyPartExamined": "BRAIN",
      "Columns": 656,
      "EchoNumbers": 1,
      "EchoTime": 27.2,
      "EchoTrainLength": 82,
      "FlipAngle": 44.0,
      "HighBit": 15,
      "ImageOrientationPatient": [0.99991176483184, 0.00711419149172, -0.0112183256454, -0.0057591511788, 0.99317348762622, 0.11650431603191],
      "ImagePositionPatient": [-877.23139726024, -900.98064710126, -152.29276414215],
      "ImageType": [
        "ORIGINAL",
        "PRIMARY",
        "M",
        "MB",
        "ND",
        "NORM",
        "MOSAIC"
],
      "ImagedNucleus": "1H",
      "ImagingFrequency": 123.252127,
      "InPlanePhaseEncodingDirection": "COL",
      "MRAcquisitionType": "2D",
      "MagneticFieldStrength": 3.0,
      "Manufacturer": "SIEMENS",
      "ManufacturerModelName": "Prisma",
      "Modality": "MR",
      "NumberOfAverages": 1.0,
      "NumberOfPhaseEncodingSteps": 82,
      "PercentPhaseFieldOfView": 100.0,
      "PercentSampling": 100.0,
      "PerformedProcedureStepStartTime": "102220.227000",
      "PhotometricInterpretation": "MONOCHROME2",
      "PixelBandwidth": 3050.0,
      "PixelRepresentation": 0,
      "PixelSpacing": [2.6829268932343, 2.6829268932343],
      "ProtocolName": "func_run-05_task-social_acq-ap-mb8",
      "RepetitionTime": 460.0,
      "Rows": 656,
      "SAR": 0.10226937339999,
      "SamplesPerPixel": 1,
      "ScanOptions": "FS",
      "ScanningSequence": "EP",
      "SequenceName": "epfid2d1_82",
      "SequenceVariant": [
        "SK",
        "SS"
],
      "SeriesDescription": "func_run-05_task-social_acq-ap-mb8",
      "SeriesNumber": 18,
      "SeriesTime": "111133.498000",
      "SliceLocation": -56.8463345037,
      "SliceThickness": 2.7000000476837,
      "SmallestImagePixelValue": 0,
      "SoftwareVersions": "syngo MR E11",
      "SpacingBetweenSlices": 2.6999999681825,
      "SpecificCharacterSet": "ISO_IR 100",
      "StudyID": "1",
      "StudyTime": "102220.154000",
      "TransmitCoilName": "Body",
      "VariableFlipAngleFlag": "N",
      "WindowCenterWidthExplanation": "Algo1"
    },
    "slices": {}
  },
  "time": {
    "samples": {
      "AcquisitionNumber": [1, 2, 3, 4, 5, 6, 7, 8, 9, 10, 11, 12, 13, 14, 15, 16, 17, 18, 19, 20, 21, 22, 23, 24, 25, 26, 27, 28, 29, 30, 31, 32, 33, 34, 35, 36, 37, 38, 39, 40, 41, 42, 43, 44, 45, 46, 47, 48, 49, 50, 51, 52, 53, 54, 55, 56, 57, 58, 59, 60, 61, 62, 63, 64, 65, 66, 67, 68, 69, 70, 71, 72, 73, 74, 75, 76, 77, 78, 79, 80, 81, 82, 83, 84, 85, 86, 87, 88, 89, 90, 91, 92, 93, 94, 95, 96, 97, 98, 99, 100, 101, 102, 103, 104, 105, 106, 107, 108, 109, 110, 111, 112, 113, 114, 115, 116, 117, 118, 119, 120, 121, 122, 123, 124, 125, 126, 127, 128, 129, 130, 131, 132, 133, 134, 135, 136, 137, 138, 139, 140, 141, 142, 143, 144, 145, 146, 147, 148, 149, 150, 151, 152, 153, 154, 155, 156, 157, 158, 159, 160, 161, 162, 163, 164, 165, 166, 167, 168, 169, 170, 171, 172, 173, 174, 175, 176, 177, 178, 179, 180, 181, 182, 183, 184, 185, 186, 187, 188, 189, 190, 191, 192, 193, 194, 195, 196, 197, 198, 199, 200, 201, 202, 203, 204, 205, 206, 207, 208, 209, 210, 211, 212, 213, 214, 215, 216, 217, 218, 219, 220, 221, 222, 223, 224, 225, 226, 227, 228, 229, 230, 231, 232, 233, 234, 235, 236, 237, 238, 239, 240, 241, 242, 243, 244, 245, 246, 247, 248, 249, 250, 251, 252, 253, 254, 255, 256, 257, 258, 259, 260, 261, 262, 263, 264, 265, 266, 267, 268, 269, 270, 271, 272, 273, 274, 275, 276, 277, 278, 279, 280, 281, 282, 283, 284, 285, 286, 287, 288, 289, 290, 291, 292, 293, 294, 295, 296, 297, 298, 299, 300, 301, 302, 303, 304, 305, 306, 307, 308, 309, 310, 311, 312, 313, 314, 315, 316, 317, 318, 319, 320, 321, 322, 323, 324, 325, 326, 327, 328, 329, 330, 331, 332, 333, 334, 335, 336, 337, 338, 339, 340, 341, 342, 343, 344, 345, 346, 347, 348, 349, 350, 351, 352, 353, 354, 355, 356, 357, 358, 359, 360, 361, 362, 363, 364, 365, 366, 367, 368, 369, 370, 371, 372, 373, 374, 375, 376, 377, 378, 379, 380, 381, 382, 383, 384, 385, 386, 387, 388, 389, 390, 391, 392, 393, 394, 395, 396, 397, 398, 399, 400, 401, 402, 403, 404, 405, 406, 407, 408, 409, 410, 411, 412, 413, 414, 415, 416, 417, 418, 419, 420, 421, 422, 423, 424, 425, 426, 427, 428, 429, 430, 431, 432, 433, 434, 435, 436, 437, 438, 439, 440, 441, 442, 443, 444, 445, 446, 447, 448, 449, 450, 451, 452, 453, 454, 455, 456, 457, 458, 459, 460, 461, 462, 463, 464, 465, 466, 467, 468, 469, 470, 471, 472, 473, 474, 475, 476, 477, 478, 479, 480, 481, 482, 483, 484, 485, 486, 487, 488, 489, 490, 491, 492, 493, 494, 495, 496, 497, 498, 499, 500, 501, 502, 503, 504, 505, 506, 507, 508, 509, 510, 511, 512, 513, 514, 515, 516, 517, 518, 519, 520, 521, 522, 523, 524, 525, 526, 527, 528, 529, 530, 531, 532, 533, 534, 535, 536, 537, 538, 539, 540, 541, 542, 543, 544, 545, 546, 547, 548, 549, 550, 551, 552, 553, 554, 555, 556, 557, 558, 559, 560, 561, 562, 563, 564, 565, 566, 567, 568, 569, 570, 571, 572, 573, 574, 575, 576, 577, 578, 579, 580, 581, 582, 583, 584, 585, 586, 587, 588, 589, 590, 591, 592, 593, 594, 595, 596, 597, 598, 599, 600, 601, 602, 603, 604, 605, 606, 607, 608, 609, 610, 611, 612, 613, 614, 615, 616, 617, 618, 619, 620, 621, 622, 623, 624, 625, 626, 627, 628, 629, 630, 631, 632, 633, 634, 635, 636, 637, 638, 639, 640, 641, 642, 643, 644, 645, 646, 647, 648, 649, 650, 651, 652, 653, 654, 655, 656, 657, 658, 659, 660, 661, 662, 663, 664, 665, 666, 667, 668, 669, 670, 671, 672, 673, 674, 675, 676, 677, 678, 679, 680, 681, 682, 683, 684, 685, 686, 687, 688, 689, 690, 691, 692, 693, 694, 695, 696, 697, 698, 699, 700, 701, 702, 703, 704, 705, 706, 707, 708, 709, 710, 711, 712, 713, 714, 715, 716, 717, 718, 719, 720, 721, 722, 723, 724, 725, 726, 727, 728, 729, 730, 731, 732, 733, 734, 735, 736, 737, 738, 739, 740, 741, 742, 743, 744, 745, 746, 747, 748, 749, 750, 751, 752, 753, 754, 755, 756, 757, 758, 759, 760, 761, 762, 763, 764, 765, 766, 767, 768, 769, 770, 771, 772, 773, 774, 775, 776, 777, 778, 779, 780, 781, 782, 783, 784, 785, 786, 787, 788, 789, 790, 791, 792, 793, 794, 795, 796, 797, 798, 799, 800, 801, 802, 803, 804, 805, 806, 807, 808, 809, 810, 811, 812, 813, 814, 815, 816, 817, 818, 819, 820, 821, 822, 823, 824, 825, 826, 827, 828, 829, 830, 831, 832, 833, 834, 835, 836, 837, 838, 839, 840, 841, 842, 843, 844, 845, 846, 847, 848, 849, 850, 851, 852, 853, 854, 855, 856, 857, 858, 859, 860, 861, 862, 863, 864, 865, 866, 867, 868, 869, 870, 871, 872],
      "AcquisitionTime": ["111115.340000", "111115.800000", "111116.260000", "111116.720000", "111117.180000", "111117.640000", "111118.100000", "111118.560000", "111119.020000", "111119.480000", "111119.940000", "111120.400000", "111120.860000", "111121.320000", "111121.780000", "111122.240000", "111122.700000", "111123.160000", "111123.620000", "111124.080000", "111124.540000", "111125.000000", "111125.460000", "111125.920000", "111126.380000", "111126.840000", "111127.300000", "111127.760000", "111128.220000", "111128.680000", "111129.140000", "111129.600000", "111130.060000", "111130.520000", "111130.980000", "111131.440000", "111131.900000", "111132.360000", "111132.820000", "111133.280000", "111133.740000", "111134.200000", "111134.660000", "111135.120000", "111135.580000", "111136.040000", "111136.500000", "111136.960000", "111137.420000", "111137.880000", "111138.340000", "111138.800000", "111139.260000", "111139.720000", "111140.180000", "111140.640000", "111141.100000", "111141.560000", "111142.020000", "111142.480000", "111142.940000", "111143.400000", "111143.860000", "111144.320000", "111144.780000", "111145.240000", "111145.700000", "111146.160000", "111146.620000", "111147.080000", "111147.540000", "111148.000000", "111148.460000", "111148.920000", "111149.380000", "111149.840000", "111150.300000", "111150.760000", "111151.220000", "111151.680000", "111152.140000", "111152.600000", "111153.060000", "111153.520000", "111153.980000", "111154.440000", "111154.900000", "111155.360000", "111155.820000", "111156.280000", "111156.740000", "111157.200000", "111157.660000", "111158.120000", "111158.580000", "111159.040000", "111159.500000", "111159.960000", "111200.420000", "111200.880000", "111201.340000", "111201.800000", "111202.260000", "111202.720000", "111203.180000", "111203.640000", "111204.100000", "111204.560000", "111205.020000", "111205.480000", "111205.940000", "111206.400000", "111206.860000", "111207.320000", "111207.780000", "111208.240000", "111208.700000", "111209.160000", "111209.620000", "111210.080000", "111210.540000", "111211.000000", "111211.460000", "111211.920000", "111212.380000", "111212.840000", "111213.300000", "111213.760000", "111214.220000", "111214.680000", "111215.140000", "111215.600000", "111216.060000", "111216.520000", "111216.980000", "111217.440000", "111217.900000", "111218.360000", "111218.820000", "111219.280000", "111219.740000", "111220.200000", "111220.660000", "111221.120000", "111221.580000", "111222.040000", "111222.500000", "111222.960000", "111223.420000", "111223.880000", "111224.340000", "111224.800000", "111225.260000", "111225.720000", "111226.180000", "111226.640000", "111227.100000", "111227.560000", "111228.020000", "111228.480000", "111228.940000", "111229.400000", "111229.860000", "111230.320000", "111230.780000", "111231.240000", "111231.700000", "111232.160000", "111232.620000", "111233.080000", "111233.540000", "111234.000000", "111234.460000", "111234.920000", "111235.380000", "111235.840000", "111236.300000", "111236.760000", "111237.220000", "111237.680000", "111238.140000", "111238.600000", "111239.060000", "111239.520000", "111239.980000", "111240.440000", "111240.900000", "111241.360000", "111241.820000", "111242.280000", "111242.740000", "111243.200000", "111243.660000", "111244.120000", "111244.580000", "111245.040000", "111245.500000", "111245.960000", "111246.420000", "111246.880000", "111247.340000", "111247.800000", "111248.260000", "111248.720000", "111249.180000", "111249.640000", "111250.100000", "111250.560000", "111251.020000", "111251.480000", "111251.940000", "111252.400000", "111252.860000", "111253.320000", "111253.780000", "111254.240000", "111254.700000", "111255.160000", "111255.620000", "111256.080000", "111256.540000", "111257.000000", "111257.460000", "111257.920000", "111258.380000", "111258.840000", "111259.300000", "111259.760000", "111300.220000", "111300.680000", "111301.140000", "111301.600000", "111302.060000", "111302.520000", "111302.980000", "111303.440000", "111303.900000", "111304.360000", "111304.820000", "111305.280000", "111305.740000", "111306.200000", "111306.660000", "111307.120000", "111307.580000", "111308.040000", "111308.500000", "111308.960000", "111309.420000", "111309.880000", "111310.340000", "111310.800000", "111311.260000", "111311.720000", "111312.180000", "111312.640000", "111313.100000", "111313.560000", "111314.020000", "111314.480000", "111314.940000", "111315.400000", "111315.860000", "111316.320000", "111316.780000", "111317.240000", "111317.700000", "111318.160000", "111318.620000", "111319.080000", "111319.540000", "111320.000000", "111320.460000", "111320.920000", "111321.380000", "111321.840000", "111322.300000", "111322.760000", "111323.220000", "111323.680000", "111324.140000", "111324.600000", "111325.060000", "111325.520000", "111325.980000", "111326.440000", "111326.900000", "111327.360000", "111327.820000", "111328.280000", "111328.740000", "111329.200000", "111329.660000", "111330.120000", "111330.580000", "111331.040000", "111331.500000", "111331.960000", "111332.420000", "111332.880000", "111333.340000", "111333.800000", "111334.260000", "111334.720000", "111335.180000", "111335.640000", "111336.100000", "111336.560000", "111337.020000", "111337.480000", "111337.940000", "111338.400000", "111338.860000", "111339.320000", "111339.780000", "111340.240000", "111340.700000", "111341.160000", "111341.620000", "111342.080000", "111342.540000", "111343.000000", "111343.460000", "111343.920000", "111344.380000", "111344.840000", "111345.300000", "111345.760000", "111346.220000", "111346.680000", "111347.140000", "111347.600000", "111348.060000", "111348.520000", "111348.980000", "111349.440000", "111349.900000", "111350.360000", "111350.820000", "111351.280000", "111351.740000", "111352.200000", "111352.660000", "111353.120000", "111353.580000", "111354.040000", "111354.500000", "111354.960000", "111355.420000", "111355.880000", "111356.340000", "111356.800000", "111357.260000", "111357.720000", "111358.180000", "111358.640000", "111359.100000", "111359.560000", "111400.020000", "111400.480000", "111400.940000", "111401.400000", "111401.860000", "111402.320000", "111402.780000", "111403.240000", "111403.700000", "111404.160000", "111404.620000", "111405.080000", "111405.540000", "111406.000000", "111406.460000", "111406.920000", "111407.380000", "111407.840000", "111408.300000", "111408.760000", "111409.220000", "111409.680000", "111410.140000", "111410.600000", "111411.060000", "111411.520000", "111411.980000", "111412.440000", "111412.900000", "111413.360000", "111413.820000", "111414.280000", "111414.740000", "111415.200000", "111415.660000", "111416.120000", "111416.580000", "111417.040000", "111417.500000", "111417.960000", "111418.420000", "111418.880000", "111419.340000", "111419.800000", "111420.260000", "111420.720000", "111421.180000", "111421.640000", "111422.100000", "111422.560000", "111423.020000", "111423.480000", "111423.940000", "111424.400000", "111424.860000", "111425.320000", "111425.780000", "111426.240000", "111426.700000", "111427.160000", "111427.620000", "111428.080000", "111428.540000", "111429.000000", "111429.460000", "111429.920000", "111430.380000", "111430.840000", "111431.300000", "111431.760000", "111432.220000", "111432.680000", "111433.140000", "111433.600000", "111434.060000", "111434.520000", "111434.980000", "111435.440000", "111435.900000", "111436.360000", "111436.820000", "111437.280000", "111437.740000", "111438.200000", "111438.660000", "111439.120000", "111439.580000", "111440.040000", "111440.500000", "111440.960000", "111441.420000", "111441.880000", "111442.340000", "111442.800000", "111443.260000", "111443.720000", "111444.180000", "111444.640000", "111445.100000", "111445.560000", "111446.020000", "111446.480000", "111446.940000", "111447.400000", "111447.860000", "111448.320000", "111448.780000", "111449.240000", "111449.700000", "111450.160000", "111450.620000", "111451.080000", "111451.540000", "111452.000000", "111452.460000", "111452.920000", "111453.380000", "111453.840000", "111454.300000", "111454.760000", "111455.220000", "111455.680000", "111456.140000", "111456.600000", "111457.060000", "111457.520000", "111457.980000", "111458.440000", "111458.900000", "111459.360000", "111459.820000", "111500.280000", "111500.740000", "111501.200000", "111501.660000", "111502.120000", "111502.580000", "111503.040000", "111503.500000", "111503.960000", "111504.420000", "111504.880000", "111505.340000", "111505.800000", "111506.260000", "111506.720000", "111507.180000", "111507.640000", "111508.100000", "111508.560000", "111509.020000", "111509.480000", "111509.940000", "111510.400000", "111510.860000", "111511.320000", "111511.780000", "111512.240000", "111512.700000", "111513.160000", "111513.620000", "111514.080000", "111514.540000", "111515.000000", "111515.460000", "111515.920000", "111516.380000", "111516.840000", "111517.300000", "111517.760000", "111518.220000", "111518.680000", "111519.140000", "111519.600000", "111520.060000", "111520.520000", "111520.980000", "111521.440000", "111521.900000", "111522.360000", "111522.820000", "111523.280000", "111523.740000", "111524.200000", "111524.660000", "111525.120000", "111525.580000", "111526.040000", "111526.500000", "111526.960000", "111527.420000", "111527.880000", "111528.340000", "111528.800000", "111529.260000", "111529.720000", "111530.180000", "111530.640000", "111531.100000", "111531.560000", "111532.020000", "111532.480000", "111532.940000", "111533.400000", "111533.860000", "111534.320000", "111534.780000", "111535.240000", "111535.700000", "111536.160000", "111536.620000", "111537.080000", "111537.540000", "111538.000000", "111538.460000", "111538.920000", "111539.380000", "111539.840000", "111540.300000", "111540.760000", "111541.220000", "111541.680000", "111542.140000", "111542.600000", "111543.060000", "111543.520000", "111543.980000", "111544.440000", "111544.900000", "111545.360000", "111545.820000", "111546.280000", "111546.740000", "111547.200000", "111547.660000", "111548.120000", "111548.580000", "111549.040000", "111549.500000", "111549.960000", "111550.420000", "111550.880000", "111551.340000", "111551.800000", "111552.260000", "111552.720000", "111553.180000", "111553.640000", "111554.100000", "111554.560000", "111555.020000", "111555.480000", "111555.940000", "111556.400000", "111556.860000", "111557.320000", "111557.780000", "111558.240000", "111558.700000", "111559.160000", "111559.620000", "111600.080000", "111600.540000", "111601.000000", "111601.460000", "111601.920000", "111602.380000", "111602.840000", "111603.300000", "111603.760000", "111604.220000", "111604.680000", "111605.140000", "111605.600000", "111606.060000", "111606.520000", "111606.980000", "111607.440000", "111607.900000", "111608.360000", "111608.820000", "111609.280000", "111609.740000", "111610.200000", "111610.660000", "111611.120000", "111611.580000", "111612.040000", "111612.500000", "111612.960000", "111613.420000", "111613.880000", "111614.340000", "111614.800000", "111615.260000", "111615.720000", "111616.180000", "111616.640000", "111617.100000", "111617.560000", "111618.020000", "111618.480000", "111618.940000", "111619.400000", "111619.860000", "111620.320000", "111620.780000", "111621.240000", "111621.700000", "111622.160000", "111622.620000", "111623.080000", "111623.540000", "111624.000000", "111624.460000", "111624.920000", "111625.380000", "111625.840000", "111626.300000", "111626.760000", "111627.220000", "111627.680000", "111628.140000", "111628.600000", "111629.060000", "111629.520000", "111629.980000", "111630.440000", "111630.900000", "111631.360000", "111631.820000", "111632.280000", "111632.740000", "111633.200000", "111633.660000", "111634.120000", "111634.580000", "111635.040000", "111635.500000", "111635.960000", "111636.420000", "111636.880000", "111637.340000", "111637.800000", "111638.260000", "111638.720000", "111639.180000", "111639.640000", "111640.100000", "111640.560000", "111641.020000", "111641.480000", "111641.940000", "111642.400000", "111642.860000", "111643.320000", "111643.780000", "111644.240000", "111644.700000", "111645.160000", "111645.620000", "111646.080000", "111646.540000", "111647.000000", "111647.460000", "111647.920000", "111648.380000", "111648.840000", "111649.300000", "111649.760000", "111650.220000", "111650.680000", "111651.140000", "111651.600000", "111652.060000", "111652.520000", "111652.980000", "111653.440000", "111653.900000", "111654.360000", "111654.820000", "111655.280000", "111655.740000", "111656.200000", "111656.660000", "111657.120000", "111657.580000", "111658.040000", "111658.500000", "111658.960000", "111659.420000", "111659.880000", "111700.340000", "111700.800000", "111701.260000", "111701.720000", "111702.180000", "111702.640000", "111703.100000", "111703.560000", "111704.020000", "111704.480000", "111704.940000", "111705.400000", "111705.860000", "111706.320000", "111706.780000", "111707.240000", "111707.700000", "111708.160000", "111708.620000", "111709.080000", "111709.540000", "111710.000000", "111710.460000", "111710.920000", "111711.380000", "111711.840000", "111712.300000", "111712.760000", "111713.220000", "111713.680000", "111714.140000", "111714.600000", "111715.060000", "111715.520000", "111715.980000", "111716.440000", "111716.900000", "111717.360000", "111717.820000", "111718.280000", "111718.740000", "111719.200000", "111719.660000", "111720.120000", "111720.580000", "111721.040000", "111721.500000", "111721.960000", "111722.420000", "111722.880000", "111723.340000", "111723.800000", "111724.260000", "111724.720000", "111725.180000", "111725.640000", "111726.100000", "111726.560000", "111727.020000", "111727.480000", "111727.940000", "111728.400000", "111728.860000", "111729.320000", "111729.780000", "111730.240000", "111730.700000", "111731.160000", "111731.620000", "111732.080000", "111732.540000", "111733.000000", "111733.460000", "111733.920000", "111734.380000", "111734.840000", "111735.300000", "111735.760000", "111736.220000", "111736.680000", "111737.140000", "111737.600000", "111738.060000", "111738.520000", "111738.980000", "111739.440000", "111739.900000", "111740.360000", "111740.820000", "111741.280000", "111741.740000", "111742.200000", "111742.660000", "111743.120000", "111743.580000", "111744.040000", "111744.500000", "111744.960000", "111745.420000", "111745.880000", "111746.340000", "111746.800000", "111747.260000", "111747.720000", "111748.180000", "111748.640000", "111749.100000", "111749.560000", "111750.020000", "111750.480000", "111750.940000", "111751.400000", "111751.860000", "111752.320000", "111752.780000", "111753.240000", "111753.700000", "111754.160000", "111754.620000", "111755.080000", "111755.540000", "111756.000000"],
