{
  "AcquisitionMatrixPE": 82,
  "AcquisitionNumber": 1,
  "AcquisitionTime": "17:03:53.060000",
  "BandwidthPerPixelPhaseEncode": 24.888,
  "BaseResolution": 82,
  "BodyPartExamined": "BRAIN",
  "ConsistencyInfo": "N4_VE11E_LATEST_20181129",
  "ConversionSoftware": "dcm2niix",
  "ConversionSoftwareVersion": "v1.0.20201102",
  "DerivedVendorReportedEchoSpacing": 0.00049,
  "DeviceSerialNumber": "66112",
  "DwellTime": 2e-06,
  "EchoTime": 0.0272,
  "EchoTrainLength": 82,
  "EffectiveEchoSpacing": 0.00049,
  "FlipAngle": 44,
  "ImageComments": "Unaliased MB8/PE3",
  "ImageOrientationPatientDICOM": [0.999148, 0.0131509, 0.0391276, -0.0160448, 0.997085, 0.074589],
  "ImageType": [
    "ORIGINAL",
    "PRIMARY",
    "M",
    "MB",
    "ND",
    "NORM",
    "MOSAIC"
],
  "ImagingFrequency": 123.252,
  "InPlanePhaseEncodingDirectionDICOM": "COL",
  "InstitutionAddress": "Maynard 3,Hanover,NH,US,03755",
  "InstitutionName": "Dartmouth College - PBS",
  "InstitutionalDepartmentName": "Department",
  "MRAcquisitionType": "2D",
  "MagneticFieldStrength": 3,
  "Manufacturer": "Siemens",
  "ManufacturersModelName": "Prisma",
  "Modality": "MR",
  "MultibandAccelerationFactor": 8,
  "PartialFourier": 1,
  "PatientPosition": "HFS",
  "PercentPhaseFOV": 100,
  "PercentSampling": 100,
  "PhaseEncodingDirection": "j-",
  "PhaseEncodingSteps": 82,
  "PhaseResolution": 1,
  "PixelBandwidth": 3050,
  "ProcedureStepDescription": "Wager_Wager^1076_spacetop",
  "ProtocolName": "func_run-04_task-social_acq-ap-mb8",
  "PulseSequenceDetails": "%CustomerSeq%\\cmrr_mbep2d_bold",
  "ReceiveCoilActiveElements": "HEA;HEP",
  "ReceiveCoilName": "Head_32",
  "ReconMatrixPE": 82,
  "RepetitionTime": 0.46,
  "SAR": 0.0911055,
  "ScanOptions": "FS",
  "ScanningSequence": "EP",
  "SequenceName": "epfid2d1_82",
  "SequenceVariant": "SK\\SS",
  "SeriesDescription": "func_run-04_task-social_acq-ap-mb8",
  "SeriesNumber": 18,
  "ShimSetting": [4145, -7782, -7261, 524, -67, -231, 64, 70],
  "SliceThickness": 2.7,
  "SliceTiming": [0, 0.2525, 0.0625, 0.315, 0.125, 0.3775, 0.1875, 0, 0.2525, 0.0625, 0.315, 0.125, 0.3775, 0.1875, 0, 0.2525, 0.0625, 0.315, 0.125, 0.3775, 0.1875, 0, 0.2525, 0.0625, 0.315, 0.125, 0.3775, 0.1875, 0, 0.2525, 0.0625, 0.315, 0.125, 0.3775, 0.1875, 0, 0.2525, 0.0625, 0.315, 0.125, 0.3775, 0.1875, 0, 0.2525, 0.0625, 0.315, 0.125, 0.3775, 0.1875, 0, 0.2525, 0.0625, 0.315, 0.125, 0.3775, 0.1875],
  "SoftwareVersions": "syngo MR E11",
  "SpacingBetweenSlices": 2.7,
  "StationName": "AWP66112",
  "TaskName": "social",
  "TotalReadoutTime": 0.03969,
  "TxRefAmp": 249.475,
  "WipMemBlock": "f17f3c5a-82e9-4cd1-ae72-e514fdb5f4ee||Sequence: R016 ve11e/master r/434b28f1; Aug  7 2019 18:53:46 by eja",
  "dcmmeta_affine": [
    [-2.68064022064209, -0.04304691404104233, 0.10268820077180862, 113.8595962524414],
    [-0.035282962024211884, 2.675107002258301, 0.2029137909412384, -96.42373657226562],
    [0.10497656464576721, -0.20011693239212036, 2.6904053688049316, -53.184967041015625],
    [0.0, 0.0, 0.0, 1.0]
],
  "dcmmeta_reorient_transform": [
    [0.0, -1.0, 0.0, 81.0],
    [1.0, 0.0, 0.0, 0.0],
    [0.0, 0.0, 1.0, 0.0],
    [0.0, 0.0, 0.0, 1.0]
],
  "dcmmeta_shape": [82, 82, 56, 872],
  "dcmmeta_slice_dim": 2,
  "dcmmeta_version": 0.6,
  "global": {
    "const": {
      "AccessionNumber": "A003974",
      "AcquisitionMatrix": [82, 0, 0, 82],
      "AngioFlag": "N",
      "BitsAllocated": 16,
      "BitsStored": 16,
      "BodyPartExamined": "BRAIN",
      "Columns": 656,
      "EchoNumbers": 1,
      "EchoTime": 27.2,
      "EchoTrainLength": 82,
      "FlipAngle": 44.0,
      "HighBit": 15,
      "ImageOrientationPatient": [0.99914767782763, 0.01315092199421, 0.03912762633169, -0.0160447579285, 0.99708527280895, 0.07458903733477],
      "ImagePositionPatient": [-867.36206215294, -898.14181331909, -156.95627127076],
      "ImageType": [
        "ORIGINAL",
        "PRIMARY",
        "M",
        "MB",
        "ND",
        "NORM",
        "MOSAIC"
],
      "ImagedNucleus": "1H",
      "ImagingFrequency": 123.252191,
      "InPlanePhaseEncodingDirection": "COL",
      "MRAcquisitionType": "2D",
      "MagneticFieldStrength": 3.0,
      "Manufacturer": "SIEMENS",
      "ManufacturerModelName": "Prisma",
      "Modality": "MR",
      "NumberOfAverages": 1.0,
      "NumberOfPhaseEncodingSteps": 82,
      "PercentPhaseFieldOfView": 100.0,
      "PercentSampling": 100.0,
      "PerformedProcedureStepStartTime": "161039.773000",
      "PhotometricInterpretation": "MONOCHROME2",
      "PixelBandwidth": 3050.0,
      "PixelRepresentation": 0,
      "PixelSpacing": [2.6829268932343, 2.6829268932343],
      "ProtocolName": "func_run-04_task-social_acq-ap-mb8",
      "RepetitionTime": 460.0,
      "Rows": 656,
      "SAR": 0.09110549483453,
      "SamplesPerPixel": 1,
      "ScanOptions": "FS",
      "ScanningSequence": "EP",
      "SequenceName": "epfid2d1_82",
      "SequenceVariant": [
        "SK",
        "SS"
],
      "SeriesDescription": "func_run-04_task-social_acq-ap-mb8",
      "SeriesNumber": 18,
      "SeriesTime": "170413.679000",
      "SliceLocation": -55.9121441321,
      "SliceThickness": 2.7000000476837,
      "SmallestImagePixelValue": 0,
      "SoftwareVersions": "syngo MR E11",
      "SpacingBetweenSlices": 2.70000002836,
      "SpecificCharacterSet": "ISO_IR 100",
      "StudyID": "1",
      "StudyTime": "161039.662000",
      "TransmitCoilName": "Body",
      "VariableFlipAngleFlag": "N",
      "WindowCenterWidthExplanation": "Algo1"
    },
    "slices": {}
  },
  "time": {
    "samples": {
      "AcquisitionNumber": [1, 2, 3, 4, 5, 6, 7, 8, 9, 10, 11, 12, 13, 14, 15, 16, 17, 18, 19, 20, 21, 22, 23, 24, 25, 26, 27, 28, 29, 30, 31, 32, 33, 34, 35, 36, 37, 38, 39, 40, 41, 42, 43, 44, 45, 46, 47, 48, 49, 50, 51, 52, 53, 54, 55, 56, 57, 58, 59, 60, 61, 62, 63, 64, 65, 66, 67, 68, 69, 70, 71, 72, 73, 74, 75, 76, 77, 78, 79, 80, 81, 82, 83, 84, 85, 86, 87, 88, 89, 90, 91, 92, 93, 94, 95, 96, 97, 98, 99, 100, 101, 102, 103, 104, 105, 106, 107, 108, 109, 110, 111, 112, 113, 114, 115, 116, 117, 118, 119, 120, 121, 122, 123, 124, 125, 126, 127, 128, 129, 130, 131, 132, 133, 134, 135, 136, 137, 138, 139, 140, 141, 142, 143, 144, 145, 146, 147, 148, 149, 150, 151, 152, 153, 154, 155, 156, 157, 158, 159, 160, 161, 162, 163, 164, 165, 166, 167, 168, 169, 170, 171, 172, 173, 174, 175, 176, 177, 178, 179, 180, 181, 182, 183, 184, 185, 186, 187, 188, 189, 190, 191, 192, 193, 194, 195, 196, 197, 198, 199, 200, 201, 202, 203, 204, 205, 206, 207, 208, 209, 210, 211, 212, 213, 214, 215, 216, 217, 218, 219, 220, 221, 222, 223, 224, 225, 226, 227, 228, 229, 230, 231, 232, 233, 234, 235, 236, 237, 238, 239, 240, 241, 242, 243, 244, 245, 246, 247, 248, 249, 250, 251, 252, 253, 254, 255, 256, 257, 258, 259, 260, 261, 262, 263, 264, 265, 266, 267, 268, 269, 270, 271, 272, 273, 274, 275, 276, 277, 278, 279, 280, 281, 282, 283, 284, 285, 286, 287, 288, 289, 290, 291, 292, 293, 294, 295, 296, 297, 298, 299, 300, 301, 302, 303, 304, 305, 306, 307, 308, 309, 310, 311, 312, 313, 314, 315, 316, 317, 318, 319, 320, 321, 322, 323, 324, 325, 326, 327, 328, 329, 330, 331, 332, 333, 334, 335, 336, 337, 338, 339, 340, 341, 342, 343, 344, 345, 346, 347, 348, 349, 350, 351, 352, 353, 354, 355, 356, 357, 358, 359, 360, 361, 362, 363, 364, 365, 366, 367, 368, 369, 370, 371, 372, 373, 374, 375, 376, 377, 378, 379, 380, 381, 382, 383, 384, 385, 386, 387, 388, 389, 390, 391, 392, 393, 394, 395, 396, 397, 398, 399, 400, 401, 402, 403, 404, 405, 406, 407, 408, 409, 410, 411, 412, 413, 414, 415, 416, 417, 418, 419, 420, 421, 422, 423, 424, 425, 426, 427, 428, 429, 430, 431, 432, 433, 434, 435, 436, 437, 438, 439, 440, 441, 442, 443, 444, 445, 446, 447, 448, 449, 450, 451, 452, 453, 454, 455, 456, 457, 458, 459, 460, 461, 462, 463, 464, 465, 466, 467, 468, 469, 470, 471, 472, 473, 474, 475, 476, 477, 478, 479, 480, 481, 482, 483, 484, 485, 486, 487, 488, 489, 490, 491, 492, 493, 494, 495, 496, 497, 498, 499, 500, 501, 502, 503, 504, 505, 506, 507, 508, 509, 510, 511, 512, 513, 514, 515, 516, 517, 518, 519, 520, 521, 522, 523, 524, 525, 526, 527, 528, 529, 530, 531, 532, 533, 534, 535, 536, 537, 538, 539, 540, 541, 542, 543, 544, 545, 546, 547, 548, 549, 550, 551, 552, 553, 554, 555, 556, 557, 558, 559, 560, 561, 562, 563, 564, 565, 566, 567, 568, 569, 570, 571, 572, 573, 574, 575, 576, 577, 578, 579, 580, 581, 582, 583, 584, 585, 586, 587, 588, 589, 590, 591, 592, 593, 594, 595, 596, 597, 598, 599, 600, 601, 602, 603, 604, 605, 606, 607, 608, 609, 610, 611, 612, 613, 614, 615, 616, 617, 618, 619, 620, 621, 622, 623, 624, 625, 626, 627, 628, 629, 630, 631, 632, 633, 634, 635, 636, 637, 638, 639, 640, 641, 642, 643, 644, 645, 646, 647, 648, 649, 650, 651, 652, 653, 654, 655, 656, 657, 658, 659, 660, 661, 662, 663, 664, 665, 666, 667, 668, 669, 670, 671, 672, 673, 674, 675, 676, 677, 678, 679, 680, 681, 682, 683, 684, 685, 686, 687, 688, 689, 690, 691, 692, 693, 694, 695, 696, 697, 698, 699, 700, 701, 702, 703, 704, 705, 706, 707, 708, 709, 710, 711, 712, 713, 714, 715, 716, 717, 718, 719, 720, 721, 722, 723, 724, 725, 726, 727, 728, 729, 730, 731, 732, 733, 734, 735, 736, 737, 738, 739, 740, 741, 742, 743, 744, 745, 746, 747, 748, 749, 750, 751, 752, 753, 754, 755, 756, 757, 758, 759, 760, 761, 762, 763, 764, 765, 766, 767, 768, 769, 770, 771, 772, 773, 774, 775, 776, 777, 778, 779, 780, 781, 782, 783, 784, 785, 786, 787, 788, 789, 790, 791, 792, 793, 794, 795, 796, 797, 798, 799, 800, 801, 802, 803, 804, 805, 806, 807, 808, 809, 810, 811, 812, 813, 814, 815, 816, 817, 818, 819, 820, 821, 822, 823, 824, 825, 826, 827, 828, 829, 830, 831, 832, 833, 834, 835, 836, 837, 838, 839, 840, 841, 842, 843, 844, 845, 846, 847, 848, 849, 850, 851, 852, 853, 854, 855, 856, 857, 858, 859, 860, 861, 862, 863, 864, 865, 866, 867, 868, 869, 870, 871, 872],
      "AcquisitionTime": ["170353.060000", "170353.520000", "170353.980000", "170354.440000", "170354.900000", "170355.360000", "170355.820000", "170356.280000", "170356.740000", "170357.200000", "170357.660000", "170358.120000", "170358.580000", "170359.040000", "170359.500000", "170359.960000", "170400.420000", "170400.880000", "170401.340000", "170401.800000", "170402.260000", "170402.720000", "170403.180000", "170403.640000", "170404.100000", "170404.560000", "170405.020000", "170405.480000", "170405.940000", "170406.400000", "170406.860000", "170407.320000", "170407.780000", "170408.240000", "170408.700000", "170409.160000", "170409.620000", "170410.080000", "170410.540000", "170411.000000", "170411.460000", "170411.920000", "170412.380000", "170412.840000", "170413.300000", "170413.760000", "170414.220000", "170414.680000", "170415.140000", "170415.600000", "170416.060000", "170416.520000", "170416.980000", "170417.440000", "170417.900000", "170418.360000", "170418.820000", "170419.280000", "170419.740000", "170420.200000", "170420.660000", "170421.120000", "170421.580000", "170422.040000", "170422.500000", "170422.960000", "170423.420000", "170423.880000", "170424.340000", "170424.800000", "170425.260000", "170425.720000", "170426.180000", "170426.640000", "170427.100000", "170427.560000", "170428.020000", "170428.480000", "170428.940000", "170429.400000", "170429.860000", "170430.320000", "170430.780000", "170431.240000", "170431.700000", "170432.160000", "170432.620000", "170433.080000", "170433.540000", "170434.000000", "170434.460000", "170434.920000", "170435.380000", "170435.840000", "170436.300000", "170436.760000", "170437.220000", "170437.680000", "170438.140000", "170438.600000", "170439.060000", "170439.520000", "170439.980000", "170440.440000", "170440.900000", "170441.360000", "170441.820000", "170442.280000", "170442.740000", "170443.200000", "170443.660000", "170444.120000", "170444.580000", "170445.040000", "170445.500000", "170445.960000", "170446.420000", "170446.880000", "170447.340000", "170447.800000", "170448.260000", "170448.720000", "170449.180000", "170449.640000", "170450.100000", "170450.560000", "170451.020000", "170451.480000", "170451.940000", "170452.400000", "170452.860000", "170453.320000", "170453.780000", "170454.240000", "170454.700000", "170455.160000", "170455.620000", "170456.080000", "170456.540000", "170457.000000", "170457.460000", "170457.920000", "170458.380000", "170458.840000", "170459.300000", "170459.760000", "170500.220000", "170500.680000", "170501.140000", "170501.600000", "170502.060000", "170502.520000", "170502.980000", "170503.440000", "170503.900000", "170504.360000", "170504.820000", "170505.280000", "170505.740000", "170506.200000", "170506.660000", "170507.120000", "170507.580000", "170508.040000", "170508.500000", "170508.960000", "170509.420000", "170509.880000", "170510.340000", "170510.800000", "170511.260000", "170511.720000", "170512.180000", "170512.640000", "170513.100000", "170513.560000", "170514.020000", "170514.480000", "170514.940000", "170515.400000", "170515.860000", "170516.320000", "170516.780000", "170517.240000", "170517.700000", "170518.160000", "170518.620000", "170519.080000", "170519.540000", "170520.000000", "170520.460000", "170520.920000", "170521.380000", "170521.840000", "170522.300000", "170522.760000", "170523.220000", "170523.680000", "170524.140000", "170524.600000", "170525.060000", "170525.520000", "170525.980000", "170526.440000", "170526.900000", "170527.360000", "170527.820000", "170528.280000", "170528.740000", "170529.200000", "170529.660000", "170530.120000", "170530.580000", "170531.040000", "170531.500000", "170531.960000", "170532.420000", "170532.880000", "170533.340000", "170533.800000", "170534.260000", "170534.720000", "170535.180000", "170535.640000", "170536.100000", "170536.560000", "170537.020000", "170537.480000", "170537.940000", "170538.400000", "170538.860000", "170539.320000", "170539.780000", "170540.240000", "170540.700000", "170541.160000", "170541.620000", "170542.080000", "170542.540000", "170543.000000", "170543.460000", "170543.920000", "170544.380000", "170544.840000", "170545.300000", "170545.760000", "170546.220000", "170546.680000", "170547.140000", "170547.600000", "170548.060000", "170548.520000", "170548.980000", "170549.440000", "170549.900000", "170550.360000", "170550.820000", "170551.280000", "170551.740000", "170552.200000", "170552.660000", "170553.120000", "170553.580000", "170554.040000", "170554.500000", "170554.960000", "170555.420000", "170555.880000", "170556.340000", "170556.800000", "170557.260000", "170557.720000", "170558.180000", "170558.640000", "170559.100000", "170559.560000", "170600.020000", "170600.480000", "170600.940000", "170601.400000", "170601.860000", "170602.320000", "170602.780000", "170603.240000", "170603.700000", "170604.160000", "170604.620000", "170605.080000", "170605.540000", "170606.000000", "170606.460000", "170606.920000", "170607.380000", "170607.840000", "170608.300000", "170608.760000", "170609.220000", "170609.680000", "170610.140000", "170610.600000", "170611.060000", "170611.520000", "170611.980000", "170612.440000", "170612.900000", "170613.360000", "170613.820000", "170614.280000", "170614.740000", "170615.200000", "170615.660000", "170616.120000", "170616.580000", "170617.040000", "170617.500000", "170617.960000", "170618.420000", "170618.880000", "170619.340000", "170619.800000", "170620.260000", "170620.720000", "170621.180000", "170621.640000", "170622.100000", "170622.560000", "170623.020000", "170623.480000", "170623.940000", "170624.400000", "170624.860000", "170625.320000", "170625.780000", "170626.240000", "170626.700000", "170627.160000", "170627.620000", "170628.080000", "170628.540000", "170629.000000", "170629.460000", "170629.920000", "170630.380000", "170630.840000", "170631.300000", "170631.760000", "170632.220000", "170632.680000", "170633.140000", "170633.600000", "170634.060000", "170634.520000", "170634.980000", "170635.440000", "170635.900000", "170636.360000", "170636.820000", "170637.280000", "170637.740000", "170638.200000", "170638.660000", "170639.120000", "170639.580000", "170640.040000", "170640.500000", "170640.960000", "170641.420000", "170641.880000", "170642.340000", "170642.800000", "170643.260000", "170643.720000", "170644.180000", "170644.640000", "170645.100000", "170645.560000", "170646.020000", "170646.480000", "170646.940000", "170647.400000", "170647.860000", "170648.320000", "170648.780000", "170649.240000", "170649.700000", "170650.160000", "170650.620000", "170651.080000", "170651.540000", "170652.000000", "170652.460000", "170652.920000", "170653.380000", "170653.840000", "170654.300000", "170654.760000", "170655.220000", "170655.680000", "170656.140000", "170656.600000", "170657.060000", "170657.520000", "170657.980000", "170658.440000", "170658.900000", "170659.360000", "170659.820000", "170700.280000", "170700.740000", "170701.200000", "170701.660000", "170702.120000", "170702.580000", "170703.040000", "170703.500000", "170703.960000", "170704.420000", "170704.880000", "170705.340000", "170705.800000", "170706.260000", "170706.720000", "170707.180000", "170707.640000", "170708.100000", "170708.560000", "170709.020000", "170709.480000", "170709.940000", "170710.400000", "170710.860000", "170711.320000", "170711.780000", "170712.240000", "170712.700000", "170713.160000", "170713.620000", "170714.080000", "170714.540000", "170715.000000", "170715.460000", "170715.920000", "170716.380000", "170716.840000", "170717.300000", "170717.760000", "170718.220000", "170718.680000", "170719.140000", "170719.600000", "170720.060000", "170720.520000", "170720.980000", "170721.440000", "170721.900000", "170722.360000", "170722.820000", "170723.280000", "170723.740000", "170724.200000", "170724.660000", "170725.120000", "170725.580000", "170726.040000", "170726.500000", "170726.960000", "170727.420000", "170727.880000", "170728.340000", "170728.800000", "170729.260000", "170729.720000", "170730.180000", "170730.640000", "170731.100000", "170731.560000", "170732.020000", "170732.480000", "170732.940000", "170733.400000", "170733.860000", "170734.320000", "170734.780000", "170735.240000", "170735.700000", "170736.160000", "170736.620000", "170737.080000", "170737.540000", "170738.000000", "170738.460000", "170738.920000", "170739.380000", "170739.840000", "170740.300000", "170740.760000", "170741.220000", "170741.680000", "170742.140000", "170742.600000", "170743.060000", "170743.520000", "170743.980000", "170744.440000", "170744.900000", "170745.360000", "170745.820000", "170746.280000", "170746.740000", "170747.200000", "170747.660000", "170748.120000", "170748.580000", "170749.040000", "170749.500000", "170749.960000", "170750.420000", "170750.880000", "170751.340000", "170751.800000", "170752.260000", "170752.720000", "170753.180000", "170753.640000", "170754.100000", "170754.560000", "170755.020000", "170755.480000", "170755.940000", "170756.400000", "170756.860000", "170757.320000", "170757.780000", "170758.240000", "170758.700000", "170759.160000", "170759.620000", "170800.080000", "170800.540000", "170801.000000", "170801.460000", "170801.920000", "170802.380000", "170802.840000", "170803.300000", "170803.760000", "170804.220000", "170804.680000", "170805.140000", "170805.600000", "170806.060000", "170806.520000", "170806.980000", "170807.440000", "170807.900000", "170808.360000", "170808.820000", "170809.280000", "170809.740000", "170810.200000", "170810.660000", "170811.120000", "170811.580000", "170812.040000", "170812.500000", "170812.960000", "170813.420000", "170813.880000", "170814.340000", "170814.800000", "170815.260000", "170815.720000", "170816.180000", "170816.640000", "170817.100000", "170817.560000", "170818.020000", "170818.480000", "170818.940000", "170819.400000", "170819.860000", "170820.320000", "170820.780000", "170821.240000", "170821.700000", "170822.160000", "170822.620000", "170823.080000", "170823.540000", "170824.000000", "170824.460000", "170824.920000", "170825.380000", "170825.840000", "170826.300000", "170826.760000", "170827.220000", "170827.680000", "170828.140000", "170828.600000", "170829.060000", "170829.520000", "170829.980000", "170830.440000", "170830.900000", "170831.360000", "170831.820000", "170832.280000", "170832.740000", "170833.200000", "170833.660000", "170834.120000", "170834.580000", "170835.040000", "170835.500000", "170835.960000", "170836.420000", "170836.880000", "170837.340000", "170837.800000", "170838.260000", "170838.720000", "170839.180000", "170839.640000", "170840.100000", "170840.560000", "170841.020000", "170841.480000", "170841.940000", "170842.400000", "170842.860000", "170843.320000", "170843.780000", "170844.240000", "170844.700000", "170845.160000", "170845.620000", "170846.080000", "170846.540000", "170847.000000", "170847.460000", "170847.920000", "170848.380000", "170848.840000", "170849.300000", "170849.760000", "170850.220000", "170850.680000", "170851.140000", "170851.600000", "170852.060000", "170852.520000", "170852.980000", "170853.440000", "170853.900000", "170854.360000", "170854.820000", "170855.280000", "170855.740000", "170856.200000", "170856.660000", "170857.120000", "170857.580000", "170858.040000", "170858.500000", "170858.960000", "170859.420000", "170859.880000", "170900.340000", "170900.800000", "170901.260000", "170901.720000", "170902.180000", "170902.640000", "170903.100000", "170903.560000", "170904.020000", "170904.480000", "170904.940000", "170905.400000", "170905.860000", "170906.320000", "170906.780000", "170907.240000", "170907.700000", "170908.160000", "170908.620000", "170909.080000", "170909.540000", "170910.000000", "170910.460000", "170910.920000", "170911.380000", "170911.840000", "170912.300000", "170912.760000", "170913.220000", "170913.680000", "170914.140000", "170914.600000", "170915.060000", "170915.520000", "170915.980000", "170916.440000", "170916.900000", "170917.360000", "170917.820000", "170918.280000", "170918.740000", "170919.200000", "170919.660000", "170920.120000", "170920.580000", "170921.040000", "170921.500000", "170921.960000", "170922.420000", "170922.880000", "170923.340000", "170923.800000", "170924.260000", "170924.720000", "170925.180000", "170925.640000", "170926.100000", "170926.560000", "170927.020000", "170927.480000", "170927.940000", "170928.400000", "170928.860000", "170929.320000", "170929.780000", "170930.240000", "170930.700000", "170931.160000", "170931.620000", "170932.080000", "170932.540000", "170933.000000", "170933.460000", "170933.920000", "170934.380000", "170934.840000", "170935.300000", "170935.760000", "170936.220000", "170936.680000", "170937.140000", "170937.600000", "170938.060000", "170938.520000", "170938.980000", "170939.440000", "170939.900000", "170940.360000", "170940.820000", "170941.280000", "170941.740000", "170942.200000", "170942.660000", "170943.120000", "170943.580000", "170944.040000", "170944.500000", "170944.960000", "170945.420000", "170945.880000", "170946.340000", "170946.800000", "170947.260000", "170947.720000", "170948.180000", "170948.640000", "170949.100000", "170949.560000", "170950.020000", "170950.480000", "170950.940000", "170951.400000", "170951.860000", "170952.320000", "170952.780000", "170953.240000", "170953.700000", "170954.160000", "170954.620000", "170955.080000", "170955.540000", "170956.000000", "170956.460000", "170956.920000", "170957.380000", "170957.840000", "170958.300000", "170958.760000", "170959.220000", "170959.680000", "171000.140000", "171000.600000", "171001.060000", "171001.520000", "171001.980000", "171002.440000", "171002.900000", "171003.360000", "171003.820000", "171004.280000", "171004.740000", "171005.200000", "171005.660000", "171006.120000", "171006.580000", "171007.040000", "171007.500000", "171007.960000", "171008.420000", "171008.880000", "171009.340000", "171009.800000", "171010.260000", "171010.720000", "171011.180000", "171011.640000", "171012.100000", "171012.560000", "171013.020000", "171013.480000", "171013.940000", "171014.400000", "171014.860000", "171015.320000", "171015.780000", "171016.240000", "171016.700000", "171017.160000", "171017.620000", "171018.080000", "171018.540000", "171019.000000", "171019.460000", "171019.920000", "171020.380000", "171020.840000", "171021.300000", "171021.760000", "171022.220000", "171022.680000", "171023.140000", "171023.600000", "171024.060000", "171024.520000", "171024.980000", "171025.440000", "171025.900000", "171026.360000", "171026.820000", "171027.280000", "171027.740000", "171028.200000", "171028.660000", "171029.120000", "171029.580000", "171030.040000", "171030.500000", "171030.960000", "171031.420000", "171031.880000", "171032.340000", "171032.800000", "171033.260000", "171033.720000"],
