{
  "AcquisitionMatrixPE": 82,
  "AcquisitionNumber": 1,
  "AcquisitionTime": "16:41:37.362500",
  "BandwidthPerPixelPhaseEncode": 24.888,
  "BaseResolution": 82,
  "BodyPartExamined": "BRAIN",
  "ConsistencyInfo": "N4_VE11E_LATEST_20181129",
  "ConversionSoftware": "dcm2niix",
  "ConversionSoftwareVersion": "v1.0.20201102",
  "DerivedVendorReportedEchoSpacing": 0.00049,
  "DeviceSerialNumber": "66112",
  "DwellTime": 2e-06,
  "EchoTime": 0.0272,
  "EchoTrainLength": 82,
  "EffectiveEchoSpacing": 0.00049,
  "FlipAngle": 44,
  "ImageComments": "Unaliased MB8/PE3",
  "ImageOrientationPatientDICOM": [0.999148, 0.0131509, 0.0391276, -0.0160448, 0.997085, 0.074589],
  "ImageType": [
    "ORIGINAL",
    "PRIMARY",
    "M",
    "MB",
    "ND",
    "NORM",
    "MOSAIC"
],
  "ImagingFrequency": 123.252,
  "InPlanePhaseEncodingDirectionDICOM": "COL",
  "InstitutionAddress": "Maynard 3,Hanover,NH,US,03755",
  "InstitutionName": "Dartmouth College - PBS",
  "InstitutionalDepartmentName": "Department",
  "MRAcquisitionType": "2D",
  "MagneticFieldStrength": 3,
  "Manufacturer": "Siemens",
  "ManufacturersModelName": "Prisma",
  "Modality": "MR",
  "MultibandAccelerationFactor": 8,
  "PartialFourier": 1,
  "PatientPosition": "HFS",
  "PercentPhaseFOV": 100,
  "PercentSampling": 100,
  "PhaseEncodingDirection": "j-",
  "PhaseEncodingSteps": 82,
  "PhaseResolution": 1,
  "PixelBandwidth": 3050,
  "ProcedureStepDescription": "Wager_Wager^1076_spacetop",
  "ProtocolName": "func_run-01_task-social_acq-ap-mb8",
  "PulseSequenceDetails": "%CustomerSeq%\\cmrr_mbep2d_bold",
  "ReceiveCoilActiveElements": "HEA;HEP",
  "ReceiveCoilName": "Head_32",
  "ReconMatrixPE": 82,
  "RepetitionTime": 0.46,
  "SAR": 0.0911055,
  "ScanOptions": "FS",
  "ScanningSequence": "EP",
  "SequenceName": "epfid2d1_82",
  "SequenceVariant": "SK\\SS",
  "SeriesDescription": "func_run-01_task-social_acq-ap-mb8",
  "SeriesNumber": 12,
  "ShimSetting": [4145, -7782, -7261, 524, -67, -231, 64, 70],
  "SliceThickness": 2.7,
  "SliceTiming": [0, 0.25, 0.0625, 0.3125, 0.125, 0.3775, 0.1875, 0, 0.25, 0.0625, 0.3125, 0.125, 0.3775, 0.1875, 0, 0.25, 0.0625, 0.3125, 0.125, 0.3775, 0.1875, 0, 0.25, 0.0625, 0.3125, 0.125, 0.3775, 0.1875, 0, 0.25, 0.0625, 0.3125, 0.125, 0.3775, 0.1875, 0, 0.25, 0.0625, 0.3125, 0.125, 0.3775, 0.1875, 0, 0.25, 0.0625, 0.3125, 0.125, 0.3775, 0.1875, 0, 0.25, 0.0625, 0.3125, 0.125, 0.3775, 0.1875],
  "SoftwareVersions": "syngo MR E11",
  "SpacingBetweenSlices": 2.7,
  "StationName": "AWP66112",
  "TaskName": "social",
  "TotalReadoutTime": 0.03969,
  "TxRefAmp": 249.475,
  "WipMemBlock": "43a2516f-2727-413c-8950-2473bd0fa7cb||Sequence: R016 ve11e/master r/434b28f1; Aug  7 2019 18:53:46 by eja",
  "dcmmeta_affine": [
    [-2.68064022064209, -0.04304691404104233, 0.10268820077180862, 113.8595962524414],
    [-0.035282962024211884, 2.675107002258301, 0.2029137909412384, -96.42373657226562],
    [0.10497656464576721, -0.20011693239212036, 2.6904053688049316, -53.184967041015625],
    [0.0, 0.0, 0.0, 1.0]
],
  "dcmmeta_reorient_transform": [
    [0.0, -1.0, 0.0, 81.0],
    [1.0, 0.0, 0.0, 0.0],
    [0.0, 0.0, 1.0, 0.0],
    [0.0, 0.0, 0.0, 1.0]
],
  "dcmmeta_shape": [82, 82, 56, 872],
  "dcmmeta_slice_dim": 2,
  "dcmmeta_version": 0.6,
  "global": {
    "const": {
      "AccessionNumber": "A003974",
      "AcquisitionMatrix": [82, 0, 0, 82],
      "AngioFlag": "N",
      "BitsAllocated": 16,
      "BitsStored": 16,
      "BodyPartExamined": "BRAIN",
      "Columns": 656,
      "EchoNumbers": 1,
      "EchoTime": 27.2,
      "EchoTrainLength": 82,
      "FlipAngle": 44.0,
      "HighBit": 15,
      "ImageOrientationPatient": [0.99914767782763, 0.01315092199421, 0.03912762633169, -0.0160447579285, 0.99708527280895, 0.07458903733477],
      "ImagePositionPatient": [-867.36206215294, -898.14181331909, -156.95627127076],
      "ImageType": [
        "ORIGINAL",
        "PRIMARY",
        "M",
        "MB",
        "ND",
        "NORM",
        "MOSAIC"
],
      "ImagedNucleus": "1H",
      "ImagingFrequency": 123.252182,
      "InPlanePhaseEncodingDirection": "COL",
      "MRAcquisitionType": "2D",
      "MagneticFieldStrength": 3.0,
      "Manufacturer": "SIEMENS",
      "ManufacturerModelName": "Prisma",
      "Modality": "MR",
      "NumberOfAverages": 1.0,
      "NumberOfPhaseEncodingSteps": 82,
      "PercentPhaseFieldOfView": 100.0,
      "PercentSampling": 100.0,
      "PerformedProcedureStepStartTime": "161039.773000",
      "PhotometricInterpretation": "MONOCHROME2",
      "PixelBandwidth": 3050.0,
      "PixelRepresentation": 0,
      "PixelSpacing": [2.6829268932343, 2.6829268932343],
      "ProtocolName": "func_run-01_task-social_acq-ap-mb8",
      "RepetitionTime": 460.0,
      "Rows": 656,
      "SAR": 0.09110549483453,
      "SamplesPerPixel": 1,
      "ScanOptions": "FS",
      "ScanningSequence": "EP",
      "SequenceName": "epfid2d1_82",
      "SequenceVariant": [
        "SK",
        "SS"
],
      "SeriesDescription": "func_run-01_task-social_acq-ap-mb8",
      "SeriesNumber": 12,
      "SeriesTime": "164153.684000",
      "SliceLocation": -55.9121441321,
      "SliceThickness": 2.7000000476837,
      "SmallestImagePixelValue": 0,
      "SoftwareVersions": "syngo MR E11",
      "SpacingBetweenSlices": 2.70000002836,
      "SpecificCharacterSet": "ISO_IR 100",
      "StudyID": "1",
      "StudyTime": "161039.662000",
      "TransmitCoilName": "Body",
      "VariableFlipAngleFlag": "N",
      "WindowCenterWidthExplanation": "Algo1"
    },
    "slices": {}
  },
  "time": {
    "samples": {
      "AcquisitionNumber": [1, 2, 3, 4, 5, 6, 7, 8, 9, 10, 11, 12, 13, 14, 15, 16, 17, 18, 19, 20, 21, 22, 23, 24, 25, 26, 27, 28, 29, 30, 31, 32, 33, 34, 35, 36, 37, 38, 39, 40, 41, 42, 43, 44, 45, 46, 47, 48, 49, 50, 51, 52, 53, 54, 55, 56, 57, 58, 59, 60, 61, 62, 63, 64, 65, 66, 67, 68, 69, 70, 71, 72, 73, 74, 75, 76, 77, 78, 79, 80, 81, 82, 83, 84, 85, 86, 87, 88, 89, 90, 91, 92, 93, 94, 95, 96, 97, 98, 99, 100, 101, 102, 103, 104, 105, 106, 107, 108, 109, 110, 111, 112, 113, 114, 115, 116, 117, 118, 119, 120, 121, 122, 123, 124, 125, 126, 127, 128, 129, 130, 131, 132, 133, 134, 135, 136, 137, 138, 139, 140, 141, 142, 143, 144, 145, 146, 147, 148, 149, 150, 151, 152, 153, 154, 155, 156, 157, 158, 159, 160, 161, 162, 163, 164, 165, 166, 167, 168, 169, 170, 171, 172, 173, 174, 175, 176, 177, 178, 179, 180, 181, 182, 183, 184, 185, 186, 187, 188, 189, 190, 191, 192, 193, 194, 195, 196, 197, 198, 199, 200, 201, 202, 203, 204, 205, 206, 207, 208, 209, 210, 211, 212, 213, 214, 215, 216, 217, 218, 219, 220, 221, 222, 223, 224, 225, 226, 227, 228, 229, 230, 231, 232, 233, 234, 235, 236, 237, 238, 239, 240, 241, 242, 243, 244, 245, 246, 247, 248, 249, 250, 251, 252, 253, 254, 255, 256, 257, 258, 259, 260, 261, 262, 263, 264, 265, 266, 267, 268, 269, 270, 271, 272, 273, 274, 275, 276, 277, 278, 279, 280, 281, 282, 283, 284, 285, 286, 287, 288, 289, 290, 291, 292, 293, 294, 295, 296, 297, 298, 299, 300, 301, 302, 303, 304, 305, 306, 307, 308, 309, 310, 311, 312, 313, 314, 315, 316, 317, 318, 319, 320, 321, 322, 323, 324, 325, 326, 327, 328, 329, 330, 331, 332, 333, 334, 335, 336, 337, 338, 339, 340, 341, 342, 343, 344, 345, 346, 347, 348, 349, 350, 351, 352, 353, 354, 355, 356, 357, 358, 359, 360, 361, 362, 363, 364, 365, 366, 367, 368, 369, 370, 371, 372, 373, 374, 375, 376, 377, 378, 379, 380, 381, 382, 383, 384, 385, 386, 387, 388, 389, 390, 391, 392, 393, 394, 395, 396, 397, 398, 399, 400, 401, 402, 403, 404, 405, 406, 407, 408, 409, 410, 411, 412, 413, 414, 415, 416, 417, 418, 419, 420, 421, 422, 423, 424, 425, 426, 427, 428, 429, 430, 431, 432, 433, 434, 435, 436, 437, 438, 439, 440, 441, 442, 443, 444, 445, 446, 447, 448, 449, 450, 451, 452, 453, 454, 455, 456, 457, 458, 459, 460, 461, 462, 463, 464, 465, 466, 467, 468, 469, 470, 471, 472, 473, 474, 475, 476, 477, 478, 479, 480, 481, 482, 483, 484, 485, 486, 487, 488, 489, 490, 491, 492, 493, 494, 495, 496, 497, 498, 499, 500, 501, 502, 503, 504, 505, 506, 507, 508, 509, 510, 511, 512, 513, 514, 515, 516, 517, 518, 519, 520, 521, 522, 523, 524, 525, 526, 527, 528, 529, 530, 531, 532, 533, 534, 535, 536, 537, 538, 539, 540, 541, 542, 543, 544, 545, 546, 547, 548, 549, 550, 551, 552, 553, 554, 555, 556, 557, 558, 559, 560, 561, 562, 563, 564, 565, 566, 567, 568, 569, 570, 571, 572, 573, 574, 575, 576, 577, 578, 579, 580, 581, 582, 583, 584, 585, 586, 587, 588, 589, 590, 591, 592, 593, 594, 595, 596, 597, 598, 599, 600, 601, 602, 603, 604, 605, 606, 607, 608, 609, 610, 611, 612, 613, 614, 615, 616, 617, 618, 619, 620, 621, 622, 623, 624, 625, 626, 627, 628, 629, 630, 631, 632, 633, 634, 635, 636, 637, 638, 639, 640, 641, 642, 643, 644, 645, 646, 647, 648, 649, 650, 651, 652, 653, 654, 655, 656, 657, 658, 659, 660, 661, 662, 663, 664, 665, 666, 667, 668, 669, 670, 671, 672, 673, 674, 675, 676, 677, 678, 679, 680, 681, 682, 683, 684, 685, 686, 687, 688, 689, 690, 691, 692, 693, 694, 695, 696, 697, 698, 699, 700, 701, 702, 703, 704, 705, 706, 707, 708, 709, 710, 711, 712, 713, 714, 715, 716, 717, 718, 719, 720, 721, 722, 723, 724, 725, 726, 727, 728, 729, 730, 731, 732, 733, 734, 735, 736, 737, 738, 739, 740, 741, 742, 743, 744, 745, 746, 747, 748, 749, 750, 751, 752, 753, 754, 755, 756, 757, 758, 759, 760, 761, 762, 763, 764, 765, 766, 767, 768, 769, 770, 771, 772, 773, 774, 775, 776, 777, 778, 779, 780, 781, 782, 783, 784, 785, 786, 787, 788, 789, 790, 791, 792, 793, 794, 795, 796, 797, 798, 799, 800, 801, 802, 803, 804, 805, 806, 807, 808, 809, 810, 811, 812, 813, 814, 815, 816, 817, 818, 819, 820, 821, 822, 823, 824, 825, 826, 827, 828, 829, 830, 831, 832, 833, 834, 835, 836, 837, 838, 839, 840, 841, 842, 843, 844, 845, 846, 847, 848, 849, 850, 851, 852, 853, 854, 855, 856, 857, 858, 859, 860, 861, 862, 863, 864, 865, 866, 867, 868, 869, 870, 871, 872],
      "AcquisitionTime": ["164137.362500", "164137.822500", "164138.282500", "164138.742500", "164139.202500", "164139.662500", "164140.122500", "164140.582500", "164141.042500", "164141.502500", "164141.962500", "164142.422500", "164142.882500", "164143.342500", "164143.802500", "164144.262500", "164144.722500", "164145.182500", "164145.642500", "164146.102500", "164146.562500", "164147.022500", "164147.482500", "164147.942500", "164148.402500", "164148.862500", "164149.322500", "164149.782500", "164150.242500", "164150.702500", "164151.162500", "164151.622500", "164152.082500", "164152.542500", "164153.002500", "164153.462500", "164153.922500", "164154.382500", "164154.842500", "164155.302500", "164155.762500", "164156.222500", "164156.682500", "164157.142500", "164157.602500", "164158.062500", "164158.522500", "164158.982500", "164159.442500", "164159.902500", "164200.362500", "164200.822500", "164201.282500", "164201.742500", "164202.202500", "164202.662500", "164203.122500", "164203.582500", "164204.042500", "164204.502500", "164204.962500", "164205.422500", "164205.882500", "164206.342500", "164206.802500", "164207.262500", "164207.722500", "164208.182500", "164208.642500", "164209.102500", "164209.562500", "164210.022500", "164210.482500", "164210.942500", "164211.402500", "164211.862500", "164212.322500", "164212.782500", "164213.242500", "164213.702500", "164214.162500", "164214.622500", "164215.082500", "164215.542500", "164216.002500", "164216.462500", "164216.922500", "164217.382500", "164217.842500", "164218.302500", "164218.762500", "164219.222500", "164219.682500", "164220.142500", "164220.602500", "164221.062500", "164221.522500", "164221.982500", "164222.442500", "164222.902500", "164223.362500", "164223.822500", "164224.282500", "164224.742500", "164225.202500", "164225.662500", "164226.122500", "164226.582500", "164227.042500", "164227.502500", "164227.962500", "164228.422500", "164228.882500", "164229.342500", "164229.802500", "164230.262500", "164230.722500", "164231.182500", "164231.642500", "164232.102500", "164232.562500", "164233.022500", "164233.482500", "164233.942500", "164234.402500", "164234.862500", "164235.322500", "164235.782500", "164236.242500", "164236.702500", "164237.162500", "164237.622500", "164238.082500", "164238.542500", "164239.002500", "164239.462500", "164239.922500", "164240.382500", "164240.842500", "164241.302500", "164241.762500", "164242.222500", "164242.682500", "164243.142500", "164243.602500", "164244.062500", "164244.522500", "164244.982500", "164245.442500", "164245.902500", "164246.362500", "164246.822500", "164247.282500", "164247.742500", "164248.202500", "164248.662500", "164249.122500", "164249.582500", "164250.042500", "164250.502500", "164250.962500", "164251.422500", "164251.882500", "164252.342500", "164252.802500", "164253.262500", "164253.722500", "164254.182500", "164254.642500", "164255.102500", "164255.562500", "164256.022500", "164256.482500", "164256.942500", "164257.402500", "164257.862500", "164258.322500", "164258.782500", "164259.242500", "164259.702500", "164300.162500", "164300.622500", "164301.082500", "164301.542500", "164302.002500", "164302.462500", "164302.922500", "164303.382500", "164303.842500", "164304.302500", "164304.762500", "164305.222500", "164305.682500", "164306.142500", "164306.602500", "164307.062500", "164307.522500", "164307.982500", "164308.442500", "164308.902500", "164309.362500", "164309.822500", "164310.282500", "164310.742500", "164311.202500", "164311.662500", "164312.122500", "164312.582500", "164313.042500", "164313.502500", "164313.962500", "164314.422500", "164314.882500", "164315.342500", "164315.802500", "164316.262500", "164316.722500", "164317.182500", "164317.642500", "164318.102500", "164318.562500", "164319.022500", "164319.482500", "164319.942500", "164320.402500", "164320.862500", "164321.322500", "164321.782500", "164322.242500", "164322.702500", "164323.162500", "164323.622500", "164324.082500", "164324.542500", "164325.002500", "164325.462500", "164325.922500", "164326.382500", "164326.842500", "164327.302500", "164327.762500", "164328.222500", "164328.682500", "164329.142500", "164329.602500", "164330.062500", "164330.522500", "164330.982500", "164331.442500", "164331.902500", "164332.362500", "164332.822500", "164333.282500", "164333.742500", "164334.202500", "164334.662500", "164335.122500", "164335.582500", "164336.042500", "164336.502500", "164336.962500", "164337.422500", "164337.882500", "164338.342500", "164338.802500", "164339.262500", "164339.722500", "164340.182500", "164340.642500", "164341.102500", "164341.562500", "164342.022500", "164342.482500", "164342.942500", "164343.402500", "164343.862500", "164344.322500", "164344.782500", "164345.242500", "164345.702500", "164346.162500", "164346.622500", "164347.082500", "164347.542500", "164348.002500", "164348.462500", "164348.922500", "164349.382500", "164349.842500", "164350.302500", "164350.762500", "164351.222500", "164351.682500", "164352.142500", "164352.602500", "164353.062500", "164353.522500", "164353.982500", "164354.442500", "164354.902500", "164355.362500", "164355.822500", "164356.282500", "164356.742500", "164357.202500", "164357.662500", "164358.122500", "164358.582500", "164359.042500", "164359.502500", "164359.962500", "164400.422500", "164400.882500", "164401.342500", "164401.802500", "164402.262500", "164402.722500", "164403.182500", "164403.642500", "164404.102500", "164404.562500", "164405.022500", "164405.482500", "164405.942500", "164406.402500", "164406.862500", "164407.322500", "164407.782500", "164408.242500", "164408.702500", "164409.162500", "164409.622500", "164410.082500", "164410.542500", "164411.002500", "164411.462500", "164411.922500", "164412.382500", "164412.842500", "164413.302500", "164413.762500", "164414.222500", "164414.682500", "164415.142500", "164415.602500", "164416.062500", "164416.522500", "164416.982500", "164417.442500", "164417.902500", "164418.362500", "164418.822500", "164419.282500", "164419.742500", "164420.202500", "164420.662500", "164421.122500", "164421.582500", "164422.042500", "164422.502500", "164422.962500", "164423.422500", "164423.882500", "164424.342500", "164424.802500", "164425.262500", "164425.722500", "164426.182500", "164426.642500", "164427.102500", "164427.562500", "164428.022500", "164428.482500", "164428.942500", "164429.402500", "164429.862500", "164430.322500", "164430.782500", "164431.242500", "164431.702500", "164432.162500", "164432.622500", "164433.082500", "164433.542500", "164434.002500", "164434.462500", "164434.922500", "164435.382500", "164435.842500", "164436.302500", "164436.762500", "164437.222500", "164437.682500", "164438.142500", "164438.602500", "164439.062500", "164439.522500", "164439.982500", "164440.442500", "164440.902500", "164441.362500", "164441.822500", "164442.282500", "164442.742500", "164443.202500", "164443.662500", "164444.122500", "164444.582500", "164445.042500", "164445.502500", "164445.962500", "164446.422500", "164446.882500", "164447.342500", "164447.802500", "164448.262500", "164448.722500", "164449.182500", "164449.642500", "164450.102500", "164450.562500", "164451.022500", "164451.482500", "164451.942500", "164452.402500", "164452.862500", "164453.322500", "164453.782500", "164454.242500", "164454.702500", "164455.162500", "164455.622500", "164456.082500", "164456.542500", "164457.002500", "164457.462500", "164457.922500", "164458.382500", "164458.842500", "164459.302500", "164459.762500", "164500.222500", "164500.682500", "164501.142500", "164501.602500", "164502.062500", "164502.522500", "164502.982500", "164503.442500", "164503.902500", "164504.362500", "164504.822500", "164505.282500", "164505.742500", "164506.202500", "164506.662500", "164507.122500", "164507.582500", "164508.042500", "164508.502500", "164508.962500", "164509.422500", "164509.882500", "164510.342500", "164510.802500", "164511.262500", "164511.722500", "164512.182500", "164512.642500", "164513.102500", "164513.562500", "164514.022500", "164514.482500", "164514.942500", "164515.402500", "164515.862500", "164516.322500", "164516.782500", "164517.242500", "164517.702500", "164518.162500", "164518.622500", "164519.082500", "164519.542500", "164520.002500", "164520.462500", "164520.922500", "164521.382500", "164521.842500", "164522.302500", "164522.762500", "164523.222500", "164523.682500", "164524.142500", "164524.602500", "164525.062500", "164525.522500", "164525.982500", "164526.442500", "164526.902500", "164527.362500", "164527.822500", "164528.282500", "164528.742500", "164529.202500", "164529.662500", "164530.122500", "164530.582500", "164531.042500", "164531.502500", "164531.962500", "164532.422500", "164532.882500", "164533.342500", "164533.802500", "164534.262500", "164534.722500", "164535.182500", "164535.642500", "164536.102500", "164536.562500", "164537.022500", "164537.482500", "164537.942500", "164538.402500", "164538.862500", "164539.322500", "164539.782500", "164540.242500", "164540.702500", "164541.162500", "164541.622500", "164542.082500", "164542.542500", "164543.002500", "164543.462500", "164543.922500", "164544.382500", "164544.842500", "164545.302500", "164545.762500", "164546.222500", "164546.682500", "164547.142500", "164547.602500", "164548.062500", "164548.522500", "164548.982500", "164549.442500", "164549.902500", "164550.362500", "164550.822500", "164551.282500", "164551.742500", "164552.202500", "164552.662500", "164553.122500", "164553.582500", "164554.042500", "164554.502500", "164554.962500", "164555.422500", "164555.882500", "164556.342500", "164556.802500", "164557.262500", "164557.722500", "164558.182500", "164558.642500", "164559.102500", "164559.562500", "164600.022500", "164600.482500", "164600.942500", "164601.402500", "164601.862500", "164602.322500", "164602.782500", "164603.242500", "164603.702500", "164604.162500", "164604.622500", "164605.082500", "164605.542500", "164606.002500", "164606.462500", "164606.922500", "164607.382500", "164607.842500", "164608.302500", "164608.762500", "164609.222500", "164609.682500", "164610.142500", "164610.602500", "164611.062500", "164611.522500", "164611.982500", "164612.442500", "164612.902500", "164613.362500", "164613.822500", "164614.282500", "164614.742500", "164615.202500", "164615.662500", "164616.122500", "164616.582500", "164617.042500", "164617.502500", "164617.962500", "164618.422500", "164618.882500", "164619.342500", "164619.802500", "164620.262500", "164620.722500", "164621.182500", "164621.642500", "164622.102500", "164622.562500", "164623.022500", "164623.482500", "164623.942500", "164624.402500", "164624.862500", "164625.322500", "164625.782500", "164626.242500", "164626.702500", "164627.162500", "164627.622500", "164628.082500", "164628.542500", "164629.002500", "164629.462500", "164629.922500", "164630.382500", "164630.842500", "164631.302500", "164631.762500", "164632.222500", "164632.682500", "164633.142500", "164633.602500", "164634.062500", "164634.522500", "164634.982500", "164635.442500", "164635.902500", "164636.362500", "164636.822500", "164637.282500", "164637.742500", "164638.202500", "164638.662500", "164639.122500", "164639.582500", "164640.042500", "164640.502500", "164640.962500", "164641.422500", "164641.882500", "164642.342500", "164642.802500", "164643.262500", "164643.722500", "164644.182500", "164644.642500", "164645.102500", "164645.562500", "164646.022500", "164646.482500", "164646.942500", "164647.402500", "164647.862500", "164648.322500", "164648.782500", "164649.242500", "164649.702500", "164650.162500", "164650.622500", "164651.082500", "164651.542500", "164652.002500", "164652.462500", "164652.922500", "164653.382500", "164653.842500", "164654.302500", "164654.762500", "164655.222500", "164655.682500", "164656.142500", "164656.602500", "164657.062500", "164657.522500", "164657.982500", "164658.442500", "164658.902500", "164659.362500", "164659.822500", "164700.282500", "164700.742500", "164701.202500", "164701.662500", "164702.122500", "164702.582500", "164703.042500", "164703.502500", "164703.962500", "164704.422500", "164704.882500", "164705.342500", "164705.802500", "164706.262500", "164706.722500", "164707.182500", "164707.642500", "164708.102500", "164708.562500", "164709.022500", "164709.482500", "164709.942500", "164710.402500", "164710.862500", "164711.322500", "164711.782500", "164712.242500", "164712.702500", "164713.162500", "164713.622500", "164714.082500", "164714.542500", "164715.002500", "164715.462500", "164715.922500", "164716.382500", "164716.842500", "164717.302500", "164717.762500", "164718.222500", "164718.682500", "164719.142500", "164719.602500", "164720.062500", "164720.522500", "164720.982500", "164721.442500", "164721.902500", "164722.362500", "164722.822500", "164723.282500", "164723.742500", "164724.202500", "164724.662500", "164725.122500", "164725.582500", "164726.042500", "164726.502500", "164726.962500", "164727.422500", "164727.882500", "164728.342500", "164728.802500", "164729.262500", "164729.722500", "164730.182500", "164730.642500", "164731.102500", "164731.562500", "164732.022500", "164732.482500", "164732.942500", "164733.402500", "164733.862500", "164734.322500", "164734.782500", "164735.242500", "164735.702500", "164736.162500", "164736.622500", "164737.082500", "164737.542500", "164738.002500", "164738.462500", "164738.922500", "164739.382500", "164739.842500", "164740.302500", "164740.762500", "164741.222500", "164741.682500", "164742.142500", "164742.602500", "164743.062500", "164743.522500", "164743.982500", "164744.442500", "164744.902500", "164745.362500", "164745.822500", "164746.282500", "164746.742500", "164747.202500", "164747.662500", "164748.122500", "164748.582500", "164749.042500", "164749.502500", "164749.962500", "164750.422500", "164750.882500", "164751.342500", "164751.802500", "164752.262500", "164752.722500", "164753.182500", "164753.642500", "164754.102500", "164754.562500", "164755.022500", "164755.482500", "164755.942500", "164756.402500", "164756.862500", "164757.322500", "164757.782500", "164758.242500", "164758.702500", "164759.162500", "164759.622500", "164800.082500", "164800.542500", "164801.002500", "164801.462500", "164801.922500", "164802.382500", "164802.842500", "164803.302500", "164803.762500", "164804.222500", "164804.682500", "164805.142500", "164805.602500", "164806.062500", "164806.522500", "164806.982500", "164807.442500", "164807.902500", "164808.362500", "164808.822500", "164809.282500", "164809.742500", "164810.202500", "164810.662500", "164811.122500", "164811.582500", "164812.042500", "164812.502500", "164812.962500", "164813.422500", "164813.882500", "164814.342500", "164814.802500", "164815.262500", "164815.722500", "164816.182500", "164816.642500", "164817.102500", "164817.562500", "164818.022500"],
