{
  "AcquisitionMatrixPE": 82,
  "AcquisitionNumber": 1,
  "AcquisitionTime": "16:55:48.140000",
  "BandwidthPerPixelPhaseEncode": 24.888,
  "BaseResolution": 82,
  "BodyPartExamined": "BRAIN",
  "ConsistencyInfo": "N4_VE11E_LATEST_20181129",
  "ConversionSoftware": "dcm2niix",
  "ConversionSoftwareVersion": "v1.0.20201102",
  "DerivedVendorReportedEchoSpacing": 0.00049,
  "DeviceSerialNumber": "66112",
  "DwellTime": 2e-06,
  "EchoTime": 0.0272,
  "EchoTrainLength": 82,
  "EffectiveEchoSpacing": 0.00049,
  "FlipAngle": 44,
  "ImageComments": "Unaliased MB8/PE3",
  "ImageOrientationPatientDICOM": [0.999148, 0.0131509, 0.0391276, -0.0160448, 0.997085, 0.074589],
  "ImageType": [
    "ORIGINAL",
    "PRIMARY",
    "M",
    "MB",
    "ND",
    "NORM",
    "MOSAIC"
],
  "ImagingFrequency": 123.252,
  "InPlanePhaseEncodingDirectionDICOM": "COL",
  "InstitutionAddress": "Maynard 3,Hanover,NH,US,03755",
  "InstitutionName": "Dartmouth College - PBS",
  "InstitutionalDepartmentName": "Department",
  "MRAcquisitionType": "2D",
  "MagneticFieldStrength": 3,
  "Manufacturer": "Siemens",
  "ManufacturersModelName": "Prisma",
  "Modality": "MR",
  "MultibandAccelerationFactor": 8,
  "PartialFourier": 1,
  "PatientPosition": "HFS",
  "PercentPhaseFOV": 100,
  "PercentSampling": 100,
  "PhaseEncodingDirection": "j-",
  "PhaseEncodingSteps": 82,
  "PhaseResolution": 1,
  "PixelBandwidth": 3050,
  "ProcedureStepDescription": "Wager_Wager^1076_spacetop",
  "ProtocolName": "func_run-03_task-social_acq-ap-mb8",
  "PulseSequenceDetails": "%CustomerSeq%\\cmrr_mbep2d_bold",
  "ReceiveCoilActiveElements": "HEA;HEP",
  "ReceiveCoilName": "Head_32",
  "ReconMatrixPE": 82,
  "RepetitionTime": 0.46,
  "SAR": 0.0911055,
  "ScanOptions": "FS",
  "ScanningSequence": "EP",
  "SequenceName": "epfid2d1_82",
  "SequenceVariant": "SK\\SS",
  "SeriesDescription": "func_run-03_task-social_acq-ap-mb8",
  "SeriesNumber": 16,
  "ShimSetting": [4145, -7782, -7261, 524, -67, -231, 64, 70],
  "SliceThickness": 2.7,
  "SliceTiming": [0, 0.2525, 0.0625, 0.315, 0.125, 0.3775, 0.19, 0, 0.2525, 0.0625, 0.315, 0.125, 0.3775, 0.19, 0, 0.2525, 0.0625, 0.315, 0.125, 0.3775, 0.19, 0, 0.2525, 0.0625, 0.315, 0.125, 0.3775, 0.19, 0, 0.2525, 0.0625, 0.315, 0.125, 0.3775, 0.19, 0, 0.2525, 0.0625, 0.315, 0.125, 0.3775, 0.19, 0, 0.2525, 0.0625, 0.315, 0.125, 0.3775, 0.19, 0, 0.2525, 0.0625, 0.315, 0.125, 0.3775, 0.19],
  "SoftwareVersions": "syngo MR E11",
  "SpacingBetweenSlices": 2.7,
  "StationName": "AWP66112",
  "TaskName": "social",
  "TotalReadoutTime": 0.03969,
  "TxRefAmp": 249.475,
  "WipMemBlock": "56bfeacf-9acd-4ead-919c-10e3375ecc48||Sequence: R016 ve11e/master r/434b28f1; Aug  7 2019 18:53:46 by eja",
  "dcmmeta_affine": [
    [-2.68064022064209, -0.04304691404104233, 0.10268820077180862, 113.8595962524414],
    [-0.035282962024211884, 2.675107002258301, 0.2029137909412384, -96.42373657226562],
    [0.10497656464576721, -0.20011693239212036, 2.6904053688049316, -53.184967041015625],
    [0.0, 0.0, 0.0, 1.0]
],
  "dcmmeta_reorient_transform": [
    [0.0, -1.0, 0.0, 81.0],
    [1.0, 0.0, 0.0, 0.0],
    [0.0, 0.0, 1.0, 0.0],
    [0.0, 0.0, 0.0, 1.0]
],
  "dcmmeta_shape": [82, 82, 56, 872],
  "dcmmeta_slice_dim": 2,
  "dcmmeta_version": 0.6,
  "global": {
    "const": {
      "AccessionNumber": "A003974",
      "AcquisitionMatrix": [82, 0, 0, 82],
      "AngioFlag": "N",
      "BitsAllocated": 16,
      "BitsStored": 16,
      "BodyPartExamined": "BRAIN",
      "Columns": 656,
      "EchoNumbers": 1,
      "EchoTime": 27.2,
      "EchoTrainLength": 82,
      "FlipAngle": 44.0,
      "HighBit": 15,
      "ImageOrientationPatient": [0.99914767782763, 0.01315092199421, 0.03912762633169, -0.0160447579285, 0.99708527280895, 0.07458903733477],
      "ImagePositionPatient": [-867.36206215294, -898.14181331909, -156.95627127076],
      "ImageType": [
        "ORIGINAL",
        "PRIMARY",
        "M",
        "MB",
        "ND",
        "NORM",
        "MOSAIC"
],
      "ImagedNucleus": "1H",
      "ImagingFrequency": 123.252189,
      "InPlanePhaseEncodingDirection": "COL",
      "MRAcquisitionType": "2D",
      "MagneticFieldStrength": 3.0,
      "Manufacturer": "SIEMENS",
      "ManufacturerModelName": "Prisma",
      "Modality": "MR",
      "NumberOfAverages": 1.0,
      "NumberOfPhaseEncodingSteps": 82,
      "PercentPhaseFieldOfView": 100.0,
      "PercentSampling": 100.0,
      "PerformedProcedureStepStartTime": "161039.773000",
      "PhotometricInterpretation": "MONOCHROME2",
      "PixelBandwidth": 3050.0,
      "PixelRepresentation": 0,
      "PixelSpacing": [2.6829268932343, 2.6829268932343],
      "ProtocolName": "func_run-03_task-social_acq-ap-mb8",
      "RepetitionTime": 460.0,
      "Rows": 656,
      "SAR": 0.09110549483453,
      "SamplesPerPixel": 1,
      "ScanOptions": "FS",
      "ScanningSequence": "EP",
      "SequenceName": "epfid2d1_82",
      "SequenceVariant": [
        "SK",
        "SS"
],
      "SeriesDescription": "func_run-03_task-social_acq-ap-mb8",
      "SeriesNumber": 16,
      "SeriesTime": "165613.857000",
      "SliceLocation": -55.9121441321,
      "SliceThickness": 2.7000000476837,
      "SmallestImagePixelValue": 0,
      "SoftwareVersions": "syngo MR E11",
      "SpacingBetweenSlices": 2.70000002836,
      "SpecificCharacterSet": "ISO_IR 100",
      "StudyID": "1",
      "StudyTime": "161039.662000",
      "TransmitCoilName": "Body",
      "VariableFlipAngleFlag": "N",
      "WindowCenterWidthExplanation": "Algo1"
    },
    "slices": {}
  },
  "time": {
    "samples": {
      "AcquisitionNumber": [1, 2, 3, 4, 5, 6, 7, 8, 9, 10, 11, 12, 13, 14, 15, 16, 17, 18, 19, 20, 21, 22, 23, 24, 25, 26, 27, 28, 29, 30, 31, 32, 33, 34, 35, 36, 37, 38, 39, 40, 41, 42, 43, 44, 45, 46, 47, 48, 49, 50, 51, 52, 53, 54, 55, 56, 57, 58, 59, 60, 61, 62, 63, 64, 65, 66, 67, 68, 69, 70, 71, 72, 73, 74, 75, 76, 77, 78, 79, 80, 81, 82, 83, 84, 85, 86, 87, 88, 89, 90, 91, 92, 93, 94, 95, 96, 97, 98, 99, 100, 101, 102, 103, 104, 105, 106, 107, 108, 109, 110, 111, 112, 113, 114, 115, 116, 117, 118, 119, 120, 121, 122, 123, 124, 125, 126, 127, 128, 129, 130, 131, 132, 133, 134, 135, 136, 137, 138, 139, 140, 141, 142, 143, 144, 145, 146, 147, 148, 149, 150, 151, 152, 153, 154, 155, 156, 157, 158, 159, 160, 161, 162, 163, 164, 165, 166, 167, 168, 169, 170, 171, 172, 173, 174, 175, 176, 177, 178, 179, 180, 181, 182, 183, 184, 185, 186, 187, 188, 189, 190, 191, 192, 193, 194, 195, 196, 197, 198, 199, 200, 201, 202, 203, 204, 205, 206, 207, 208, 209, 210, 211, 212, 213, 214, 215, 216, 217, 218, 219, 220, 221, 222, 223, 224, 225, 226, 227, 228, 229, 230, 231, 232, 233, 234, 235, 236, 237, 238, 239, 240, 241, 242, 243, 244, 245, 246, 247, 248, 249, 250, 251, 252, 253, 254, 255, 256, 257, 258, 259, 260, 261, 262, 263, 264, 265, 266, 267, 268, 269, 270, 271, 272, 273, 274, 275, 276, 277, 278, 279, 280, 281, 282, 283, 284, 285, 286, 287, 288, 289, 290, 291, 292, 293, 294, 295, 296, 297, 298, 299, 300, 301, 302, 303, 304, 305, 306, 307, 308, 309, 310, 311, 312, 313, 314, 315, 316, 317, 318, 319, 320, 321, 322, 323, 324, 325, 326, 327, 328, 329, 330, 331, 332, 333, 334, 335, 336, 337, 338, 339, 340, 341, 342, 343, 344, 345, 346, 347, 348, 349, 350, 351, 352, 353, 354, 355, 356, 357, 358, 359, 360, 361, 362, 363, 364, 365, 366, 367, 368, 369, 370, 371, 372, 373, 374, 375, 376, 377, 378, 379, 380, 381, 382, 383, 384, 385, 386, 387, 388, 389, 390, 391, 392, 393, 394, 395, 396, 397, 398, 399, 400, 401, 402, 403, 404, 405, 406, 407, 408, 409, 410, 411, 412, 413, 414, 415, 416, 417, 418, 419, 420, 421, 422, 423, 424, 425, 426, 427, 428, 429, 430, 431, 432, 433, 434, 435, 436, 437, 438, 439, 440, 441, 442, 443, 444, 445, 446, 447, 448, 449, 450, 451, 452, 453, 454, 455, 456, 457, 458, 459, 460, 461, 462, 463, 464, 465, 466, 467, 468, 469, 470, 471, 472, 473, 474, 475, 476, 477, 478, 479, 480, 481, 482, 483, 484, 485, 486, 487, 488, 489, 490, 491, 492, 493, 494, 495, 496, 497, 498, 499, 500, 501, 502, 503, 504, 505, 506, 507, 508, 509, 510, 511, 512, 513, 514, 515, 516, 517, 518, 519, 520, 521, 522, 523, 524, 525, 526, 527, 528, 529, 530, 531, 532, 533, 534, 535, 536, 537, 538, 539, 540, 541, 542, 543, 544, 545, 546, 547, 548, 549, 550, 551, 552, 553, 554, 555, 556, 557, 558, 559, 560, 561, 562, 563, 564, 565, 566, 567, 568, 569, 570, 571, 572, 573, 574, 575, 576, 577, 578, 579, 580, 581, 582, 583, 584, 585, 586, 587, 588, 589, 590, 591, 592, 593, 594, 595, 596, 597, 598, 599, 600, 601, 602, 603, 604, 605, 606, 607, 608, 609, 610, 611, 612, 613, 614, 615, 616, 617, 618, 619, 620, 621, 622, 623, 624, 625, 626, 627, 628, 629, 630, 631, 632, 633, 634, 635, 636, 637, 638, 639, 640, 641, 642, 643, 644, 645, 646, 647, 648, 649, 650, 651, 652, 653, 654, 655, 656, 657, 658, 659, 660, 661, 662, 663, 664, 665, 666, 667, 668, 669, 670, 671, 672, 673, 674, 675, 676, 677, 678, 679, 680, 681, 682, 683, 684, 685, 686, 687, 688, 689, 690, 691, 692, 693, 694, 695, 696, 697, 698, 699, 700, 701, 702, 703, 704, 705, 706, 707, 708, 709, 710, 711, 712, 713, 714, 715, 716, 717, 718, 719, 720, 721, 722, 723, 724, 725, 726, 727, 728, 729, 730, 731, 732, 733, 734, 735, 736, 737, 738, 739, 740, 741, 742, 743, 744, 745, 746, 747, 748, 749, 750, 751, 752, 753, 754, 755, 756, 757, 758, 759, 760, 761, 762, 763, 764, 765, 766, 767, 768, 769, 770, 771, 772, 773, 774, 775, 776, 777, 778, 779, 780, 781, 782, 783, 784, 785, 786, 787, 788, 789, 790, 791, 792, 793, 794, 795, 796, 797, 798, 799, 800, 801, 802, 803, 804, 805, 806, 807, 808, 809, 810, 811, 812, 813, 814, 815, 816, 817, 818, 819, 820, 821, 822, 823, 824, 825, 826, 827, 828, 829, 830, 831, 832, 833, 834, 835, 836, 837, 838, 839, 840, 841, 842, 843, 844, 845, 846, 847, 848, 849, 850, 851, 852, 853, 854, 855, 856, 857, 858, 859, 860, 861, 862, 863, 864, 865, 866, 867, 868, 869, 870, 871, 872],
      "AcquisitionTime": ["165548.140000", "165548.600000", "165549.060000", "165549.520000", "165549.980000", "165550.440000", "165550.900000", "165551.360000", "165551.820000", "165552.280000", "165552.740000", "165553.200000", "165553.660000", "165554.120000", "165554.580000", "165555.040000", "165555.500000", "165555.960000", "165556.420000", "165556.880000", "165557.340000", "165557.800000", "165558.260000", "165558.720000", "165559.180000", "165559.640000", "165600.100000", "165600.560000", "165601.020000", "165601.480000", "165601.940000", "165602.400000", "165602.860000", "165603.320000", "165603.780000", "165604.240000", "165604.700000", "165605.160000", "165605.620000", "165606.080000", "165606.540000", "165607.000000", "165607.460000", "165607.920000", "165608.380000", "165608.840000", "165609.300000", "165609.760000", "165610.220000", "165610.680000", "165611.140000", "165611.600000", "165612.060000", "165612.520000", "165612.980000", "165613.440000", "165613.900000", "165614.360000", "165614.820000", "165615.280000", "165615.740000", "165616.200000", "165616.660000", "165617.120000", "165617.580000", "165618.040000", "165618.500000", "165618.960000", "165619.420000", "165619.880000", "165620.340000", "165620.800000", "165621.260000", "165621.720000", "165622.180000", "165622.640000", "165623.100000", "165623.560000", "165624.020000", "165624.480000", "165624.940000", "165625.400000", "165625.860000", "165626.320000", "165626.780000", "165627.240000", "165627.700000", "165628.160000", "165628.620000", "165629.080000", "165629.540000", "165630.000000", "165630.460000", "165630.920000", "165631.380000", "165631.840000", "165632.300000", "165632.760000", "165633.220000", "165633.680000", "165634.140000", "165634.600000", "165635.060000", "165635.520000", "165635.980000", "165636.440000", "165636.900000", "165637.360000", "165637.820000", "165638.280000", "165638.740000", "165639.200000", "165639.660000", "165640.120000", "165640.580000", "165641.040000", "165641.500000", "165641.960000", "165642.420000", "165642.880000", "165643.340000", "165643.800000", "165644.260000", "165644.720000", "165645.180000", "165645.640000", "165646.100000", "165646.560000", "165647.020000", "165647.480000", "165647.940000", "165648.400000", "165648.860000", "165649.320000", "165649.780000", "165650.240000", "165650.700000", "165651.160000", "165651.620000", "165652.080000", "165652.540000", "165653.000000", "165653.460000", "165653.920000", "165654.380000", "165654.840000", "165655.300000", "165655.760000", "165656.220000", "165656.680000", "165657.140000", "165657.600000", "165658.060000", "165658.520000", "165658.980000", "165659.440000", "165659.900000", "165700.360000", "165700.820000", "165701.280000", "165701.740000", "165702.200000", "165702.660000", "165703.120000", "165703.580000", "165704.040000", "165704.500000", "165704.960000", "165705.420000", "165705.880000", "165706.340000", "165706.800000", "165707.260000", "165707.720000", "165708.180000", "165708.640000", "165709.100000", "165709.560000", "165710.020000", "165710.480000", "165710.940000", "165711.400000", "165711.860000", "165712.320000", "165712.780000", "165713.240000", "165713.700000", "165714.160000", "165714.620000", "165715.080000", "165715.540000", "165716.000000", "165716.460000", "165716.920000", "165717.380000", "165717.840000", "165718.300000", "165718.760000", "165719.220000", "165719.680000", "165720.140000", "165720.600000", "165721.060000", "165721.520000", "165721.980000", "165722.440000", "165722.900000", "165723.360000", "165723.820000", "165724.280000", "165724.740000", "165725.200000", "165725.660000", "165726.120000", "165726.580000", "165727.040000", "165727.500000", "165727.960000", "165728.420000", "165728.880000", "165729.340000", "165729.800000", "165730.260000", "165730.720000", "165731.180000", "165731.640000", "165732.100000", "165732.560000", "165733.020000", "165733.480000", "165733.940000", "165734.400000", "165734.860000", "165735.320000", "165735.780000", "165736.240000", "165736.700000", "165737.160000", "165737.620000", "165738.080000", "165738.540000", "165739.000000", "165739.460000", "165739.920000", "165740.380000", "165740.840000", "165741.300000", "165741.760000", "165742.220000", "165742.680000", "165743.140000", "165743.600000", "165744.060000", "165744.520000", "165744.980000", "165745.440000", "165745.900000", "165746.360000", "165746.820000", "165747.280000", "165747.740000", "165748.200000", "165748.660000", "165749.120000", "165749.580000", "165750.040000", "165750.500000", "165750.960000", "165751.420000", "165751.880000", "165752.340000", "165752.800000", "165753.260000", "165753.720000", "165754.180000", "165754.640000", "165755.100000", "165755.560000", "165756.020000", "165756.480000", "165756.940000", "165757.400000", "165757.860000", "165758.320000", "165758.780000", "165759.240000", "165759.700000", "165800.160000", "165800.620000", "165801.080000", "165801.540000", "165802.000000", "165802.460000", "165802.920000", "165803.380000", "165803.840000", "165804.300000", "165804.760000", "165805.220000", "165805.680000", "165806.140000", "165806.600000", "165807.060000", "165807.520000", "165807.980000", "165808.440000", "165808.900000", "165809.360000", "165809.820000", "165810.280000", "165810.740000", "165811.200000", "165811.660000", "165812.120000", "165812.580000", "165813.040000", "165813.500000", "165813.960000", "165814.420000", "165814.880000", "165815.340000", "165815.800000", "165816.260000", "165816.720000", "165817.180000", "165817.640000", "165818.100000", "165818.560000", "165819.020000", "165819.480000", "165819.940000", "165820.400000", "165820.860000", "165821.320000", "165821.780000", "165822.240000", "165822.700000", "165823.160000", "165823.620000", "165824.080000", "165824.540000", "165825.000000", "165825.460000", "165825.920000", "165826.380000", "165826.840000", "165827.300000", "165827.760000", "165828.220000", "165828.680000", "165829.140000", "165829.600000", "165830.060000", "165830.520000", "165830.980000", "165831.440000", "165831.900000", "165832.360000", "165832.820000", "165833.280000", "165833.740000", "165834.200000", "165834.660000", "165835.120000", "165835.580000", "165836.040000", "165836.500000", "165836.960000", "165837.420000", "165837.880000", "165838.340000", "165838.800000", "165839.260000", "165839.720000", "165840.180000", "165840.640000", "165841.100000", "165841.560000", "165842.020000", "165842.480000", "165842.940000", "165843.400000", "165843.860000", "165844.320000", "165844.780000", "165845.240000", "165845.700000", "165846.160000", "165846.620000", "165847.080000", "165847.540000", "165848.000000", "165848.460000", "165848.920000", "165849.380000", "165849.840000", "165850.300000", "165850.760000", "165851.220000", "165851.680000", "165852.140000", "165852.600000", "165853.060000", "165853.520000", "165853.980000", "165854.440000", "165854.900000", "165855.360000", "165855.820000", "165856.280000", "165856.740000", "165857.200000", "165857.660000", "165858.120000", "165858.580000", "165859.040000", "165859.500000", "165859.960000", "165900.420000", "165900.880000", "165901.340000", "165901.800000", "165902.260000", "165902.720000", "165903.180000", "165903.640000", "165904.100000", "165904.560000", "165905.020000", "165905.480000", "165905.940000", "165906.400000", "165906.860000", "165907.320000", "165907.780000", "165908.240000", "165908.700000", "165909.160000", "165909.620000", "165910.080000", "165910.540000", "165911.000000", "165911.460000", "165911.920000", "165912.380000", "165912.840000", "165913.300000", "165913.760000", "165914.220000", "165914.680000", "165915.140000", "165915.600000", "165916.060000", "165916.520000", "165916.980000", "165917.440000", "165917.900000", "165918.360000", "165918.820000", "165919.280000", "165919.740000", "165920.200000", "165920.660000", "165921.120000", "165921.580000", "165922.040000", "165922.500000", "165922.960000", "165923.420000", "165923.880000", "165924.340000", "165924.800000", "165925.260000", "165925.720000", "165926.180000", "165926.640000", "165927.100000", "165927.560000", "165928.020000", "165928.480000", "165928.940000", "165929.400000", "165929.860000", "165930.320000", "165930.780000", "165931.240000", "165931.700000", "165932.160000", "165932.620000", "165933.080000", "165933.540000", "165934.000000", "165934.460000", "165934.920000", "165935.380000", "165935.840000", "165936.300000", "165936.760000", "165937.220000", "165937.680000", "165938.140000", "165938.600000", "165939.060000", "165939.520000", "165939.980000", "165940.440000", "165940.900000", "165941.360000", "165941.820000", "165942.280000", "165942.740000", "165943.200000", "165943.660000", "165944.120000", "165944.580000", "165945.040000", "165945.500000", "165945.960000", "165946.420000", "165946.880000", "165947.340000", "165947.800000", "165948.260000", "165948.720000", "165949.180000", "165949.640000", "165950.100000", "165950.560000", "165951.020000", "165951.480000", "165951.940000", "165952.400000", "165952.860000", "165953.320000", "165953.780000", "165954.240000", "165954.700000", "165955.160000", "165955.620000", "165956.080000", "165956.540000", "165957.000000", "165957.460000", "165957.920000", "165958.380000", "165958.840000", "165959.300000", "165959.760000", "170000.220000", "170000.680000", "170001.140000", "170001.600000", "170002.060000", "170002.520000", "170002.980000", "170003.440000", "170003.900000", "170004.360000", "170004.820000", "170005.280000", "170005.740000", "170006.200000", "170006.660000", "170007.120000", "170007.580000", "170008.040000", "170008.500000", "170008.960000", "170009.420000", "170009.880000", "170010.340000", "170010.800000", "170011.260000", "170011.720000", "170012.180000", "170012.640000", "170013.100000", "170013.560000", "170014.020000", "170014.480000", "170014.940000", "170015.400000", "170015.860000", "170016.320000", "170016.780000", "170017.240000", "170017.700000", "170018.160000", "170018.620000", "170019.080000", "170019.540000", "170020.000000", "170020.460000", "170020.920000", "170021.380000", "170021.840000", "170022.300000", "170022.760000", "170023.220000", "170023.680000", "170024.140000", "170024.600000", "170025.060000", "170025.520000", "170025.980000", "170026.440000", "170026.900000", "170027.360000", "170027.820000", "170028.280000", "170028.740000", "170029.200000", "170029.660000", "170030.120000", "170030.580000", "170031.040000", "170031.500000", "170031.960000", "170032.420000", "170032.880000", "170033.340000", "170033.800000", "170034.260000", "170034.720000", "170035.180000", "170035.640000", "170036.100000", "170036.560000", "170037.020000", "170037.480000", "170037.940000", "170038.400000", "170038.860000", "170039.320000", "170039.780000", "170040.240000", "170040.700000", "170041.160000", "170041.620000", "170042.080000", "170042.540000", "170043.000000", "170043.460000", "170043.920000", "170044.380000", "170044.840000", "170045.300000", "170045.760000", "170046.220000", "170046.680000", "170047.140000", "170047.600000", "170048.060000", "170048.520000", "170048.980000", "170049.440000", "170049.900000", "170050.360000", "170050.820000", "170051.280000", "170051.740000", "170052.200000", "170052.660000", "170053.120000", "170053.580000", "170054.040000", "170054.500000", "170054.960000", "170055.420000", "170055.880000", "170056.340000", "170056.800000", "170057.260000", "170057.720000", "170058.180000", "170058.640000", "170059.100000", "170059.560000", "170100.020000", "170100.480000", "170100.940000", "170101.400000", "170101.860000", "170102.320000", "170102.780000", "170103.240000", "170103.700000", "170104.160000", "170104.620000", "170105.080000", "170105.540000", "170106.000000", "170106.460000", "170106.920000", "170107.380000", "170107.840000", "170108.300000", "170108.760000", "170109.220000", "170109.680000", "170110.140000", "170110.600000", "170111.060000", "170111.520000", "170111.980000", "170112.440000", "170112.900000", "170113.360000", "170113.820000", "170114.280000", "170114.740000", "170115.200000", "170115.660000", "170116.120000", "170116.580000", "170117.040000", "170117.500000", "170117.960000", "170118.420000", "170118.880000", "170119.340000", "170119.800000", "170120.260000", "170120.720000", "170121.180000", "170121.640000", "170122.100000", "170122.560000", "170123.020000", "170123.480000", "170123.940000", "170124.400000", "170124.860000", "170125.320000", "170125.780000", "170126.240000", "170126.700000", "170127.160000", "170127.620000", "170128.080000", "170128.540000", "170129.000000", "170129.460000", "170129.920000", "170130.380000", "170130.840000", "170131.300000", "170131.760000", "170132.220000", "170132.680000", "170133.140000", "170133.600000", "170134.060000", "170134.520000", "170134.980000", "170135.440000", "170135.900000", "170136.360000", "170136.820000", "170137.280000", "170137.740000", "170138.200000", "170138.660000", "170139.120000", "170139.580000", "170140.040000", "170140.500000", "170140.960000", "170141.420000", "170141.880000", "170142.340000", "170142.800000", "170143.260000", "170143.720000", "170144.180000", "170144.640000", "170145.100000", "170145.560000", "170146.020000", "170146.480000", "170146.940000", "170147.400000", "170147.860000", "170148.320000", "170148.780000", "170149.240000", "170149.700000", "170150.160000", "170150.620000", "170151.080000", "170151.540000", "170152.000000", "170152.460000", "170152.920000", "170153.380000", "170153.840000", "170154.300000", "170154.760000", "170155.220000", "170155.680000", "170156.140000", "170156.600000", "170157.060000", "170157.520000", "170157.980000", "170158.440000", "170158.900000", "170159.360000", "170159.820000", "170200.280000", "170200.740000", "170201.200000", "170201.660000", "170202.120000", "170202.580000", "170203.040000", "170203.500000", "170203.960000", "170204.420000", "170204.880000", "170205.340000", "170205.800000", "170206.260000", "170206.720000", "170207.180000", "170207.640000", "170208.100000", "170208.560000", "170209.020000", "170209.480000", "170209.940000", "170210.400000", "170210.860000", "170211.320000", "170211.780000", "170212.240000", "170212.700000", "170213.160000", "170213.620000", "170214.080000", "170214.540000", "170215.000000", "170215.460000", "170215.920000", "170216.380000", "170216.840000", "170217.300000", "170217.760000", "170218.220000", "170218.680000", "170219.140000", "170219.600000", "170220.060000", "170220.520000", "170220.980000", "170221.440000", "170221.900000", "170222.360000", "170222.820000", "170223.280000", "170223.740000", "170224.200000", "170224.660000", "170225.120000", "170225.580000", "170226.040000", "170226.500000", "170226.960000", "170227.420000", "170227.880000", "170228.340000", "170228.800000"],
