{
  "AcquisitionMatrixPE": 82,
  "AcquisitionNumber": 1,
  "AcquisitionTime": "18:10:47.710000",
  "BandwidthPerPixelPhaseEncode": 24.888,
  "BaseResolution": 82,
  "BodyPartExamined": "BRAIN",
  "ConsistencyInfo": "N4_VE11E_LATEST_20181129",
  "ConversionSoftware": "dcm2niix",
  "ConversionSoftwareVersion": "v1.0.20201102",
  "DerivedVendorReportedEchoSpacing": 0.00049,
  "DeviceSerialNumber": "66112",
  "DwellTime": 2e-06,
  "EchoTime": 0.0272,
  "EchoTrainLength": 82,
  "EffectiveEchoSpacing": 0.00049,
  "FlipAngle": 44,
  "ImageComments": "Unaliased MB8/PE3",
  "ImageOrientationPatientDICOM": [0.998975, -0.0452566, 0.000627775, 0.0451885, 0.996496, -0.0703801],
  "ImageType": [
    "ORIGINAL",
    "PRIMARY",
    "M",
    "MB",
    "ND",
    "NORM",
    "MOSAIC"
],
  "ImagingFrequency": 123.259,
  "InPlanePhaseEncodingDirectionDICOM": "COL",
  "InstitutionAddress": "Maynard 3,Hanover,NH,US,03755",
  "InstitutionName": "Dartmouth College - PBS",
  "InstitutionalDepartmentName": "Department",
  "MRAcquisitionType": "2D",
  "MagneticFieldStrength": 3,
  "Manufacturer": "Siemens",
  "ManufacturersModelName": "Prisma",
  "Modality": "MR",
  "MultibandAccelerationFactor": 8,
  "PartialFourier": 1,
  "PatientPosition": "HFS",
  "PercentPhaseFOV": 100,
  "PercentSampling": 100,
  "PhaseEncodingDirection": "j-",
  "PhaseEncodingSteps": 82,
  "PhaseResolution": 1,
  "PixelBandwidth": 3050,
  "ProcedureStepDescription": "Wager_Wager^1076_spacetop",
  "ProtocolName": "func_run-02_task-social_acq-ap-mb8",
  "PulseSequenceDetails": "%CustomerSeq%\\cmrr_mbep2d_bold",
  "ReceiveCoilActiveElements": "HEA;HEP",
  "ReceiveCoilName": "Head_32",
  "ReconMatrixPE": 82,
  "RepetitionTime": 0.46,
  "SAR": 0.087044,
  "ScanOptions": "FS",
  "ScanningSequence": "EP",
  "SequenceName": "epfid2d1_82",
  "SequenceVariant": "SK\\SS",
  "SeriesDescription": "func_run-02_task-social_acq-ap-mb8",
  "SeriesNumber": 14,
  "ShimSetting": [4228, -7762, -7288, 153, -108, -156, -79, 92],
  "SliceThickness": 2.7,
  "SliceTiming": [0, 0.25, 0.0625, 0.3125, 0.125, 0.3775, 0.1875, 0, 0.25, 0.0625, 0.3125, 0.125, 0.3775, 0.1875, 0, 0.25, 0.0625, 0.3125, 0.125, 0.3775, 0.1875, 0, 0.25, 0.0625, 0.3125, 0.125, 0.3775, 0.1875, 0, 0.25, 0.0625, 0.3125, 0.125, 0.3775, 0.1875, 0, 0.25, 0.0625, 0.3125, 0.125, 0.3775, 0.1875, 0, 0.25, 0.0625, 0.3125, 0.125, 0.3775, 0.1875, 0, 0.25, 0.0625, 0.3125, 0.125, 0.3775, 0.1875],
  "SoftwareVersions": "syngo MR E11",
  "SpacingBetweenSlices": 2.7,
  "StationName": "AWP66112",
  "TaskName": "social",
  "TotalReadoutTime": 0.03969,
  "TxRefAmp": 237.023,
  "WipMemBlock": "0f719a14-6b2a-4c8a-8250-0c6f0de885df||Sequence: R016 ve11e/master r/434b28f1; Aug  7 2019 18:53:46 by eja",
  "dcmmeta_affine": [
    [-2.6801774501800537, 0.12123757600784302, -0.006910888943821192, 108.80975341796875],
    [0.1214202269911766, 2.6735265254974365, -0.1899080127477646, -89.00894165039062],
    [0.001684275222942233, 0.18882454931735992, 2.6933040618896484, -96.35213470458984],
    [0.0, 0.0, 0.0, 1.0]
],
  "dcmmeta_reorient_transform": [
    [0.0, -1.0, 0.0, 81.0],
    [1.0, 0.0, 0.0, 0.0],
    [0.0, 0.0, 1.0, 0.0],
    [0.0, 0.0, 0.0, 1.0]
],
  "dcmmeta_shape": [82, 82, 56, 872],
  "dcmmeta_slice_dim": 2,
  "dcmmeta_version": 0.6,
  "global": {
    "const": {
      "AccessionNumber": "A004477",
      "AcquisitionMatrix": [82, 0, 0, 82],
      "AngioFlag": "N",
      "BitsAllocated": 16,
      "BitsStored": 16,
      "BodyPartExamined": "BRAIN",
      "Columns": 656,
      "EchoNumbers": 1,
      "EchoTime": 27.2,
      "EchoTrainLength": 82,
      "FlipAngle": 44.0,
      "HighBit": 15,
      "ImageOrientationPatient": [0.99897519662527, -0.0452566285277, 0.00062777528402, 0.04518854981814, 0.99649618291988, -0.0703800567736],
      "ImagePositionPatient": [-922.63610216271, -860.00117290045, -27.348085735387],
      "ImageType": [
        "ORIGINAL",
        "PRIMARY",
        "M",
        "MB",
        "ND",
        "NORM",
        "MOSAIC"
],
      "ImagedNucleus": "1H",
      "ImagingFrequency": 123.259117,
      "InPlanePhaseEncodingDirection": "COL",
      "MRAcquisitionType": "2D",
      "MagneticFieldStrength": 3.0,
      "Manufacturer": "SIEMENS",
      "ManufacturerModelName": "Prisma",
      "Modality": "MR",
      "NumberOfAverages": 1.0,
      "NumberOfPhaseEncodingSteps": 82,
      "PercentPhaseFieldOfView": 100.0,
      "PercentSampling": 100.0,
      "PerformedProcedureStepStartTime": "172338.285000",
      "PhotometricInterpretation": "MONOCHROME2",
      "PixelBandwidth": 3050.0,
      "PixelRepresentation": 0,
      "PixelSpacing": [2.6829268932343, 2.6829268932343],
      "ProtocolName": "func_run-02_task-social_acq-ap-mb8",
      "RepetitionTime": 460.0,
      "Rows": 656,
      "SAR": 0.08704397217924,
      "SamplesPerPixel": 1,
      "ScanOptions": "FS",
      "ScanningSequence": "EP",
      "SequenceName": "epfid2d1_82",
      "SequenceVariant": [
        "SK",
        "SS"
],
      "SeriesDescription": "func_run-02_task-social_acq-ap-mb8",
      "SeriesNumber": 14,
      "SeriesTime": "181111.748000",
      "SliceLocation": -90.131132473593,
      "SliceThickness": 2.7000000476837,
      "SmallestImagePixelValue": 0,
      "SoftwareVersions": "syngo MR E11",
      "SpacingBetweenSlices": 2.7000000252298,
      "SpecificCharacterSet": "ISO_IR 100",
      "StudyID": "1",
      "StudyTime": "172338.221000",
      "TransmitCoilName": "Body",
      "VariableFlipAngleFlag": "N",
      "WindowCenterWidthExplanation": "Algo1"
    },
    "slices": {}
  },
  "time": {
    "samples": {
      "AcquisitionNumber": [1, 2, 3, 4, 5, 6, 7, 8, 9, 10, 11, 12, 13, 14, 15, 16, 17, 18, 19, 20, 21, 22, 23, 24, 25, 26, 27, 28, 29, 30, 31, 32, 33, 34, 35, 36, 37, 38, 39, 40, 41, 42, 43, 44, 45, 46, 47, 48, 49, 50, 51, 52, 53, 54, 55, 56, 57, 58, 59, 60, 61, 62, 63, 64, 65, 66, 67, 68, 69, 70, 71, 72, 73, 74, 75, 76, 77, 78, 79, 80, 81, 82, 83, 84, 85, 86, 87, 88, 89, 90, 91, 92, 93, 94, 95, 96, 97, 98, 99, 100, 101, 102, 103, 104, 105, 106, 107, 108, 109, 110, 111, 112, 113, 114, 115, 116, 117, 118, 119, 120, 121, 122, 123, 124, 125, 126, 127, 128, 129, 130, 131, 132, 133, 134, 135, 136, 137, 138, 139, 140, 141, 142, 143, 144, 145, 146, 147, 148, 149, 150, 151, 152, 153, 154, 155, 156, 157, 158, 159, 160, 161, 162, 163, 164, 165, 166, 167, 168, 169, 170, 171, 172, 173, 174, 175, 176, 177, 178, 179, 180, 181, 182, 183, 184, 185, 186, 187, 188, 189, 190, 191, 192, 193, 194, 195, 196, 197, 198, 199, 200, 201, 202, 203, 204, 205, 206, 207, 208, 209, 210, 211, 212, 213, 214, 215, 216, 217, 218, 219, 220, 221, 222, 223, 224, 225, 226, 227, 228, 229, 230, 231, 232, 233, 234, 235, 236, 237, 238, 239, 240, 241, 242, 243, 244, 245, 246, 247, 248, 249, 250, 251, 252, 253, 254, 255, 256, 257, 258, 259, 260, 261, 262, 263, 264, 265, 266, 267, 268, 269, 270, 271, 272, 273, 274, 275, 276, 277, 278, 279, 280, 281, 282, 283, 284, 285, 286, 287, 288, 289, 290, 291, 292, 293, 294, 295, 296, 297, 298, 299, 300, 301, 302, 303, 304, 305, 306, 307, 308, 309, 310, 311, 312, 313, 314, 315, 316, 317, 318, 319, 320, 321, 322, 323, 324, 325, 326, 327, 328, 329, 330, 331, 332, 333, 334, 335, 336, 337, 338, 339, 340, 341, 342, 343, 344, 345, 346, 347, 348, 349, 350, 351, 352, 353, 354, 355, 356, 357, 358, 359, 360, 361, 362, 363, 364, 365, 366, 367, 368, 369, 370, 371, 372, 373, 374, 375, 376, 377, 378, 379, 380, 381, 382, 383, 384, 385, 386, 387, 388, 389, 390, 391, 392, 393, 394, 395, 396, 397, 398, 399, 400, 401, 402, 403, 404, 405, 406, 407, 408, 409, 410, 411, 412, 413, 414, 415, 416, 417, 418, 419, 420, 421, 422, 423, 424, 425, 426, 427, 428, 429, 430, 431, 432, 433, 434, 435, 436, 437, 438, 439, 440, 441, 442, 443, 444, 445, 446, 447, 448, 449, 450, 451, 452, 453, 454, 455, 456, 457, 458, 459, 460, 461, 462, 463, 464, 465, 466, 467, 468, 469, 470, 471, 472, 473, 474, 475, 476, 477, 478, 479, 480, 481, 482, 483, 484, 485, 486, 487, 488, 489, 490, 491, 492, 493, 494, 495, 496, 497, 498, 499, 500, 501, 502, 503, 504, 505, 506, 507, 508, 509, 510, 511, 512, 513, 514, 515, 516, 517, 518, 519, 520, 521, 522, 523, 524, 525, 526, 527, 528, 529, 530, 531, 532, 533, 534, 535, 536, 537, 538, 539, 540, 541, 542, 543, 544, 545, 546, 547, 548, 549, 550, 551, 552, 553, 554, 555, 556, 557, 558, 559, 560, 561, 562, 563, 564, 565, 566, 567, 568, 569, 570, 571, 572, 573, 574, 575, 576, 577, 578, 579, 580, 581, 582, 583, 584, 585, 586, 587, 588, 589, 590, 591, 592, 593, 594, 595, 596, 597, 598, 599, 600, 601, 602, 603, 604, 605, 606, 607, 608, 609, 610, 611, 612, 613, 614, 615, 616, 617, 618, 619, 620, 621, 622, 623, 624, 625, 626, 627, 628, 629, 630, 631, 632, 633, 634, 635, 636, 637, 638, 639, 640, 641, 642, 643, 644, 645, 646, 647, 648, 649, 650, 651, 652, 653, 654, 655, 656, 657, 658, 659, 660, 661, 662, 663, 664, 665, 666, 667, 668, 669, 670, 671, 672, 673, 674, 675, 676, 677, 678, 679, 680, 681, 682, 683, 684, 685, 686, 687, 688, 689, 690, 691, 692, 693, 694, 695, 696, 697, 698, 699, 700, 701, 702, 703, 704, 705, 706, 707, 708, 709, 710, 711, 712, 713, 714, 715, 716, 717, 718, 719, 720, 721, 722, 723, 724, 725, 726, 727, 728, 729, 730, 731, 732, 733, 734, 735, 736, 737, 738, 739, 740, 741, 742, 743, 744, 745, 746, 747, 748, 749, 750, 751, 752, 753, 754, 755, 756, 757, 758, 759, 760, 761, 762, 763, 764, 765, 766, 767, 768, 769, 770, 771, 772, 773, 774, 775, 776, 777, 778, 779, 780, 781, 782, 783, 784, 785, 786, 787, 788, 789, 790, 791, 792, 793, 794, 795, 796, 797, 798, 799, 800, 801, 802, 803, 804, 805, 806, 807, 808, 809, 810, 811, 812, 813, 814, 815, 816, 817, 818, 819, 820, 821, 822, 823, 824, 825, 826, 827, 828, 829, 830, 831, 832, 833, 834, 835, 836, 837, 838, 839, 840, 841, 842, 843, 844, 845, 846, 847, 848, 849, 850, 851, 852, 853, 854, 855, 856, 857, 858, 859, 860, 861, 862, 863, 864, 865, 866, 867, 868, 869, 870, 871, 872],
      "AcquisitionTime": ["181047.710000", "181048.170000", "181048.630000", "181049.090000", "181049.550000", "181050.010000", "181050.470000", "181050.930000", "181051.390000", "181051.850000", "181052.310000", "181052.770000", "181053.230000", "181053.690000", "181054.150000", "181054.610000", "181055.070000", "181055.530000", "181055.990000", "181056.450000", "181056.910000", "181057.370000", "181057.830000", "181058.290000", "181058.750000", "181059.210000", "181059.670000", "181100.130000", "181100.590000", "181101.050000", "181101.510000", "181101.970000", "181102.430000", "181102.890000", "181103.350000", "181103.810000", "181104.270000", "181104.730000", "181105.190000", "181105.650000", "181106.110000", "181106.570000", "181107.030000", "181107.490000", "181107.950000", "181108.410000", "181108.870000", "181109.330000", "181109.790000", "181110.250000", "181110.710000", "181111.170000", "181111.630000", "181112.090000", "181112.550000", "181113.010000", "181113.470000", "181113.930000", "181114.390000", "181114.850000", "181115.310000", "181115.770000", "181116.230000", "181116.690000", "181117.150000", "181117.610000", "181118.070000", "181118.530000", "181118.990000", "181119.450000", "181119.910000", "181120.370000", "181120.830000", "181121.290000", "181121.750000", "181122.210000", "181122.670000", "181123.130000", "181123.590000", "181124.050000", "181124.510000", "181124.970000", "181125.430000", "181125.890000", "181126.350000", "181126.810000", "181127.270000", "181127.730000", "181128.190000", "181128.650000", "181129.110000", "181129.570000", "181130.030000", "181130.490000", "181130.950000", "181131.410000", "181131.870000", "181132.330000", "181132.790000", "181133.250000", "181133.710000", "181134.170000", "181134.630000", "181135.090000", "181135.550000", "181136.010000", "181136.470000", "181136.930000", "181137.390000", "181137.850000", "181138.310000", "181138.770000", "181139.230000", "181139.690000", "181140.150000", "181140.610000", "181141.070000", "181141.530000", "181141.990000", "181142.450000", "181142.910000", "181143.370000", "181143.830000", "181144.290000", "181144.750000", "181145.210000", "181145.670000", "181146.130000", "181146.590000", "181147.050000", "181147.510000", "181147.970000", "181148.430000", "181148.890000", "181149.350000", "181149.810000", "181150.270000", "181150.730000", "181151.190000", "181151.650000", "181152.110000", "181152.570000", "181153.030000", "181153.490000", "181153.950000", "181154.410000", "181154.870000", "181155.330000", "181155.790000", "181156.250000", "181156.710000", "181157.170000", "181157.630000", "181158.090000", "181158.550000", "181159.010000", "181159.470000", "181159.930000", "181200.390000", "181200.850000", "181201.310000", "181201.770000", "181202.230000", "181202.690000", "181203.150000", "181203.610000", "181204.070000", "181204.530000", "181204.990000", "181205.450000", "181205.910000", "181206.370000", "181206.830000", "181207.290000", "181207.750000", "181208.210000", "181208.670000", "181209.130000", "181209.590000", "181210.050000", "181210.510000", "181210.970000", "181211.430000", "181211.890000", "181212.350000", "181212.810000", "181213.270000", "181213.730000", "181214.190000", "181214.650000", "181215.110000", "181215.570000", "181216.030000", "181216.490000", "181216.950000", "181217.410000", "181217.870000", "181218.330000", "181218.790000", "181219.250000", "181219.710000", "181220.170000", "181220.630000", "181221.090000", "181221.550000", "181222.010000", "181222.470000", "181222.930000", "181223.390000", "181223.850000", "181224.310000", "181224.770000", "181225.230000", "181225.690000", "181226.150000", "181226.610000", "181227.070000", "181227.530000", "181227.990000", "181228.450000", "181228.910000", "181229.370000", "181229.830000", "181230.290000", "181230.750000", "181231.210000", "181231.670000", "181232.130000", "181232.590000", "181233.050000", "181233.510000", "181233.970000", "181234.430000", "181234.890000", "181235.350000", "181235.810000", "181236.270000", "181236.730000", "181237.190000", "181237.650000", "181238.110000", "181238.570000", "181239.030000", "181239.490000", "181239.950000", "181240.410000", "181240.870000", "181241.330000", "181241.790000", "181242.250000", "181242.710000", "181243.170000", "181243.630000", "181244.090000", "181244.550000", "181245.010000", "181245.470000", "181245.930000", "181246.390000", "181246.850000", "181247.310000", "181247.770000", "181248.230000", "181248.690000", "181249.150000", "181249.610000", "181250.070000", "181250.530000", "181250.990000", "181251.450000", "181251.910000", "181252.370000", "181252.830000", "181253.290000", "181253.750000", "181254.210000", "181254.670000", "181255.130000", "181255.590000", "181256.050000", "181256.510000", "181256.970000", "181257.430000", "181257.890000", "181258.350000", "181258.810000", "181259.270000", "181259.730000", "181300.190000", "181300.650000", "181301.110000", "181301.570000", "181302.030000", "181302.490000", "181302.950000", "181303.410000", "181303.870000", "181304.330000", "181304.790000", "181305.250000", "181305.710000", "181306.170000", "181306.630000", "181307.090000", "181307.550000", "181308.010000", "181308.470000", "181308.930000", "181309.390000", "181309.850000", "181310.310000", "181310.770000", "181311.230000", "181311.690000", "181312.150000", "181312.610000", "181313.070000", "181313.530000", "181313.990000", "181314.450000", "181314.910000", "181315.370000", "181315.830000", "181316.290000", "181316.750000", "181317.210000", "181317.670000", "181318.130000", "181318.590000", "181319.050000", "181319.510000", "181319.970000", "181320.430000", "181320.890000", "181321.350000", "181321.810000", "181322.270000", "181322.730000", "181323.190000", "181323.650000", "181324.110000", "181324.570000", "181325.030000", "181325.490000", "181325.950000", "181326.410000", "181326.870000", "181327.330000", "181327.790000", "181328.250000", "181328.710000", "181329.170000", "181329.630000", "181330.090000", "181330.550000", "181331.010000", "181331.470000", "181331.930000", "181332.390000", "181332.850000", "181333.310000", "181333.770000", "181334.230000", "181334.690000", "181335.150000", "181335.610000", "181336.070000", "181336.530000", "181336.990000", "181337.450000", "181337.910000", "181338.370000", "181338.830000", "181339.290000", "181339.750000", "181340.210000", "181340.670000", "181341.130000", "181341.590000", "181342.050000", "181342.510000", "181342.970000", "181343.430000", "181343.890000", "181344.350000", "181344.810000", "181345.270000", "181345.730000", "181346.190000", "181346.650000", "181347.110000", "181347.570000", "181348.030000", "181348.490000", "181348.950000", "181349.410000", "181349.870000", "181350.330000", "181350.790000", "181351.250000", "181351.710000", "181352.170000", "181352.630000", "181353.090000", "181353.550000", "181354.010000", "181354.470000", "181354.930000", "181355.390000", "181355.850000", "181356.310000", "181356.770000", "181357.230000", "181357.690000", "181358.150000", "181358.610000", "181359.070000", "181359.530000", "181359.990000", "181400.450000", "181400.910000", "181401.370000", "181401.830000", "181402.290000", "181402.750000", "181403.210000", "181403.670000", "181404.130000", "181404.590000", "181405.050000", "181405.510000", "181405.970000", "181406.430000", "181406.890000", "181407.350000", "181407.810000", "181408.270000", "181408.730000", "181409.190000", "181409.650000", "181410.110000", "181410.570000", "181411.030000", "181411.490000", "181411.950000", "181412.410000", "181412.870000", "181413.330000", "181413.790000", "181414.250000", "181414.710000", "181415.170000", "181415.630000", "181416.090000", "181416.550000", "181417.010000", "181417.470000", "181417.930000", "181418.390000", "181418.850000", "181419.310000", "181419.770000", "181420.230000", "181420.690000", "181421.150000", "181421.610000", "181422.070000", "181422.530000", "181422.990000", "181423.450000", "181423.910000", "181424.370000", "181424.830000", "181425.290000", "181425.750000", "181426.210000", "181426.670000", "181427.130000", "181427.590000", "181428.050000", "181428.510000", "181428.970000", "181429.430000", "181429.890000", "181430.350000", "181430.810000", "181431.270000", "181431.730000", "181432.190000", "181432.650000", "181433.110000", "181433.570000", "181434.030000", "181434.490000", "181434.950000", "181435.410000", "181435.870000", "181436.330000", "181436.790000", "181437.250000", "181437.710000", "181438.170000", "181438.630000", "181439.090000", "181439.550000", "181440.010000", "181440.470000", "181440.930000", "181441.390000", "181441.850000", "181442.310000", "181442.770000", "181443.230000", "181443.690000", "181444.150000", "181444.610000", "181445.070000", "181445.530000", "181445.990000", "181446.450000", "181446.910000", "181447.370000", "181447.830000", "181448.290000", "181448.750000", "181449.210000", "181449.670000", "181450.130000", "181450.590000", "181451.050000", "181451.510000", "181451.970000", "181452.430000", "181452.890000", "181453.350000", "181453.810000", "181454.270000", "181454.730000", "181455.190000", "181455.650000", "181456.110000", "181456.570000", "181457.030000", "181457.490000", "181457.950000", "181458.410000", "181458.870000", "181459.330000", "181459.790000", "181500.250000", "181500.710000", "181501.170000", "181501.630000", "181502.090000", "181502.550000", "181503.010000", "181503.470000", "181503.930000", "181504.390000", "181504.850000", "181505.310000", "181505.770000", "181506.230000", "181506.690000", "181507.150000", "181507.610000", "181508.070000", "181508.530000", "181508.990000", "181509.450000", "181509.910000", "181510.370000", "181510.830000", "181511.290000", "181511.750000", "181512.210000", "181512.670000", "181513.130000", "181513.590000", "181514.050000", "181514.510000", "181514.970000", "181515.430000", "181515.890000", "181516.350000", "181516.810000", "181517.270000", "181517.730000", "181518.190000", "181518.650000", "181519.110000", "181519.570000", "181520.030000", "181520.490000", "181520.950000", "181521.410000", "181521.870000", "181522.330000", "181522.790000", "181523.250000", "181523.710000", "181524.170000", "181524.630000", "181525.090000", "181525.550000", "181526.010000", "181526.470000", "181526.930000", "181527.390000", "181527.850000", "181528.310000", "181528.770000", "181529.230000", "181529.690000", "181530.150000", "181530.610000", "181531.070000", "181531.530000", "181531.990000", "181532.450000", "181532.910000", "181533.370000", "181533.830000", "181534.290000", "181534.750000", "181535.210000", "181535.670000", "181536.130000", "181536.590000", "181537.050000", "181537.510000", "181537.970000", "181538.430000", "181538.890000", "181539.350000", "181539.810000", "181540.270000", "181540.730000", "181541.190000", "181541.650000", "181542.110000", "181542.570000", "181543.030000", "181543.490000", "181543.950000", "181544.410000", "181544.870000", "181545.330000", "181545.790000", "181546.250000", "181546.710000", "181547.170000", "181547.630000", "181548.090000", "181548.550000", "181549.010000", "181549.470000", "181549.930000", "181550.390000", "181550.850000", "181551.310000", "181551.770000", "181552.230000", "181552.690000", "181553.150000", "181553.610000", "181554.070000", "181554.530000", "181554.990000", "181555.450000", "181555.910000", "181556.370000", "181556.830000", "181557.290000", "181557.750000", "181558.210000", "181558.670000", "181559.130000", "181559.590000", "181600.050000", "181600.510000", "181600.970000", "181601.430000", "181601.890000", "181602.350000", "181602.810000", "181603.270000", "181603.730000", "181604.190000", "181604.650000", "181605.110000", "181605.570000", "181606.030000", "181606.490000", "181606.950000", "181607.410000", "181607.870000", "181608.330000", "181608.790000", "181609.250000", "181609.710000", "181610.170000", "181610.630000", "181611.090000", "181611.550000", "181612.010000", "181612.470000", "181612.930000", "181613.390000", "181613.850000", "181614.310000", "181614.770000", "181615.230000", "181615.690000", "181616.150000", "181616.610000", "181617.070000", "181617.530000", "181617.990000", "181618.450000", "181618.910000", "181619.370000", "181619.830000", "181620.290000", "181620.750000", "181621.210000", "181621.670000", "181622.130000", "181622.590000", "181623.050000", "181623.510000", "181623.970000", "181624.430000", "181624.890000", "181625.350000", "181625.810000", "181626.270000", "181626.730000", "181627.190000", "181627.650000", "181628.110000", "181628.570000", "181629.030000", "181629.490000", "181629.950000", "181630.410000", "181630.870000", "181631.330000", "181631.790000", "181632.250000", "181632.710000", "181633.170000", "181633.630000", "181634.090000", "181634.550000", "181635.010000", "181635.470000", "181635.930000", "181636.390000", "181636.850000", "181637.310000", "181637.770000", "181638.230000", "181638.690000", "181639.150000", "181639.610000", "181640.070000", "181640.530000", "181640.990000", "181641.450000", "181641.910000", "181642.370000", "181642.830000", "181643.290000", "181643.750000", "181644.210000", "181644.670000", "181645.130000", "181645.590000", "181646.050000", "181646.510000", "181646.970000", "181647.430000", "181647.890000", "181648.350000", "181648.810000", "181649.270000", "181649.730000", "181650.190000", "181650.650000", "181651.110000", "181651.570000", "181652.030000", "181652.490000", "181652.950000", "181653.410000", "181653.870000", "181654.330000", "181654.790000", "181655.250000", "181655.710000", "181656.170000", "181656.630000", "181657.090000", "181657.550000", "181658.010000", "181658.470000", "181658.930000", "181659.390000", "181659.850000", "181700.310000", "181700.770000", "181701.230000", "181701.690000", "181702.150000", "181702.610000", "181703.070000", "181703.530000", "181703.990000", "181704.450000", "181704.910000", "181705.370000", "181705.830000", "181706.290000", "181706.750000", "181707.210000", "181707.670000", "181708.130000", "181708.590000", "181709.050000", "181709.510000", "181709.970000", "181710.430000", "181710.890000", "181711.350000", "181711.810000", "181712.270000", "181712.730000", "181713.190000", "181713.650000", "181714.110000", "181714.570000", "181715.030000", "181715.490000", "181715.950000", "181716.410000", "181716.870000", "181717.330000", "181717.790000", "181718.250000", "181718.710000", "181719.170000", "181719.630000", "181720.090000", "181720.550000", "181721.010000", "181721.470000", "181721.930000", "181722.390000", "181722.850000", "181723.310000", "181723.770000", "181724.230000", "181724.690000", "181725.150000", "181725.610000", "181726.070000", "181726.530000", "181726.990000", "181727.450000", "181727.910000", "181728.370000"],
