{
  "AcquisitionMatrixPE": 82,
  "AcquisitionNumber": 1,
  "AcquisitionTime": "19:12:32.547500",
  "BandwidthPerPixelPhaseEncode": 24.888,
  "BaseResolution": 82,
  "BodyPartExamined": "BRAIN",
  "ConsistencyInfo": "N4_VE11E_LATEST_20181129",
  "ConversionSoftware": "dcm2niix",
  "ConversionSoftwareVersion": "v1.0.20201102",
  "DerivedVendorReportedEchoSpacing": 0.00049,
  "DeviceSerialNumber": "66112",
  "DwellTime": 2e-06,
  "EchoTime": 0.0272,
  "EchoTrainLength": 82,
  "EffectiveEchoSpacing": 0.00049,
  "FlipAngle": 44,
  "ImageComments": "Unaliased MB8/PE3",
  "ImageOrientationPatientDICOM": [0.999464, -0.0189434, -0.0266926, 0.0169223, 0.997114, -0.0740103],
  "ImageType": [
    "ORIGINAL",
    "PRIMARY",
    "M",
    "MB",
    "ND",
    "NORM",
    "MOSAIC"
],
  "ImagingFrequency": 123.259,
  "InPlanePhaseEncodingDirectionDICOM": "COL",
  "InstitutionAddress": "Maynard 3,Hanover,NH,US,03755",
  "InstitutionName": "Dartmouth College - PBS",
  "InstitutionalDepartmentName": "Department",
  "MRAcquisitionType": "2D",
  "MagneticFieldStrength": 3,
  "Manufacturer": "Siemens",
  "ManufacturersModelName": "Prisma",
  "Modality": "MR",
  "MultibandAccelerationFactor": 8,
  "PartialFourier": 1,
  "PatientPosition": "HFS",
  "PercentPhaseFOV": 100,
  "PercentSampling": 100,
  "PhaseEncodingDirection": "j-",
  "PhaseEncodingSteps": 82,
  "PhaseResolution": 1,
  "PixelBandwidth": 3050,
  "ProcedureStepDescription": "Wager_Wager^1076_spacetop",
  "ProtocolName": "func_run-03_task-alignvideo_acq-ap-mb8",
  "PulseSequenceDetails": "%CustomerSeq%\\cmrr_mbep2d_bold",
  "ReceiveCoilActiveElements": "HEA;HEP",
  "ReceiveCoilName": "Head_32",
  "ReconMatrixPE": 82,
  "RepetitionTime": 0.46,
  "SAR": 0.0895081,
  "ScanOptions": "FS",
  "ScanningSequence": "EP",
  "SequenceName": "epfid2d1_82",
  "SequenceVariant": "SK\\SS",
  "SeriesDescription": "func_run-03_task-alignvideo_acq-ap-mb8",
  "SeriesNumber": 34,
  "ShimSetting": [4225, -7766, -7285, 109, -74, -143, -59, 82],
  "SliceThickness": 2.7,
  "SliceTiming": [0, 0.2525, 0.065, 0.315, 0.1275, 0.3775, 0.19, 0, 0.2525, 0.065, 0.315, 0.1275, 0.3775, 0.19, 0, 0.2525, 0.065, 0.315, 0.1275, 0.3775, 0.19, 0, 0.2525, 0.065, 0.315, 0.1275, 0.3775, 0.19, 0, 0.2525, 0.065, 0.315, 0.1275, 0.3775, 0.19, 0, 0.2525, 0.065, 0.315, 0.1275, 0.3775, 0.19, 0, 0.2525, 0.065, 0.315, 0.1275, 0.3775, 0.19, 0, 0.2525, 0.065, 0.315, 0.1275, 0.3775, 0.19],
  "SoftwareVersions": "syngo MR E11",
  "SpacingBetweenSlices": 2.7,
  "StationName": "AWP66112",
  "TaskName": "alignvideo",
  "TotalReadoutTime": 0.03969,
  "TxRefAmp": 239.555,
  "WipMemBlock": "0aff1e94-c385-4352-a79b-0f946b300c50||Sequence: R016 ve11e/master r/434b28f1; Aug  7 2019 18:53:46 by eja",
  "dcmmeta_affine": [
    [-2.6814892292022705, 0.04540122300386429, -0.07564748823642731, 111.97586059570312],
    [0.05082377418875694, 2.6751837730407715, -0.1985010802745819, -86.98960876464844],
    [-0.0716143473982811, 0.19856415688991547, 2.6916306018829346, -86.66472625732422],
    [0.0, 0.0, 0.0, 1.0]
],
  "dcmmeta_reorient_transform": [
    [0.0, -1.0, 0.0, 81.0],
    [1.0, 0.0, 0.0, 0.0],
    [0.0, 0.0, 1.0, 0.0],
    [0.0, 0.0, 0.0, 1.0]
],
  "dcmmeta_shape": [82, 82, 56, 1016],
  "dcmmeta_slice_dim": 2,
  "dcmmeta_version": 0.6,
  "global": {
    "const": {
      "AccessionNumber": "A004477",
      "AcquisitionMatrix": [82, 0, 0, 82],
      "AngioFlag": "N",
      "BitsAllocated": 16,
      "BitsStored": 16,
      "BodyPartExamined": "BRAIN",
      "Columns": 656,
      "EchoNumbers": 1,
      "EchoTime": 27.2,
      "EchoTrainLength": 82,
      "FlipAngle": 44.0,
      "HighBit": 15,
      "ImageOrientationPatient": [0.9994641821614, -0.0189434066273, -0.0266926192383, 0.01692227316472, 0.9971138933058, -0.0740102725809],
      "ImagePositionPatient": [-898.2709456796, -882.89156170886, 6.960198830221],
      "ImageType": [
        "ORIGINAL",
        "PRIMARY",
        "M",
        "MB",
        "ND",
        "NORM",
        "MOSAIC"
],
      "ImagedNucleus": "1H",
      "ImagingFrequency": 123.259126,
      "InPlanePhaseEncodingDirection": "COL",
      "MRAcquisitionType": "2D",
      "MagneticFieldStrength": 3.0,
      "Manufacturer": "SIEMENS",
      "ManufacturerModelName": "Prisma",
      "Modality": "MR",
      "NumberOfAverages": 1.0,
      "NumberOfPhaseEncodingSteps": 82,
      "PercentPhaseFieldOfView": 100.0,
      "PercentSampling": 100.0,
      "PerformedProcedureStepStartTime": "172338.285000",
      "PhotometricInterpretation": "MONOCHROME2",
      "PixelBandwidth": 3050.0,
      "PixelRepresentation": 0,
      "PixelSpacing": [2.6829268932343, 2.6829268932343],
      "ProtocolName": "func_run-03_task-alignvideo_acq-ap-mb8",
      "RepetitionTime": 460.0,
      "Rows": 656,
      "SAR": 0.0895080707676,
      "SamplesPerPixel": 1,
      "ScanOptions": "FS",
      "ScanningSequence": "EP",
      "SequenceName": "epfid2d1_82",
      "SequenceVariant": [
        "SK",
        "SS"
],
      "SeriesDescription": "func_run-03_task-alignvideo_acq-ap-mb8",
      "SeriesNumber": 34,
      "SeriesTime": "191251.864000",
      "SliceLocation": -83.137993146813,
      "SliceThickness": 2.7000000476837,
      "SmallestImagePixelValue": 0,
      "SoftwareVersions": "syngo MR E11",
      "SpacingBetweenSlices": 2.700000048466,
      "SpecificCharacterSet": "ISO_IR 100",
      "StudyID": "1",
      "StudyTime": "172338.221000",
      "TransmitCoilName": "Body",
      "VariableFlipAngleFlag": "N",
      "WindowCenterWidthExplanation": "Algo1"
    },
    "slices": {}
  },
  "time": {
    "samples": {
      "AcquisitionNumber": [1, 2, 3, 4, 5, 6, 7, 8, 9, 10, 11, 12, 13, 14, 15, 16, 17, 18, 19, 20, 21, 22, 23, 24, 25, 26, 27, 28, 29, 30, 31, 32, 33, 34, 35, 36, 37, 38, 39, 40, 41, 42, 43, 44, 45, 46, 47, 48, 49, 50, 51, 52, 53, 54, 55, 56, 57, 58, 59, 60, 61, 62, 63, 64, 65, 66, 67, 68, 69, 70, 71, 72, 73, 74, 75, 76, 77, 78, 79, 80, 81, 82, 83, 84, 85, 86, 87, 88, 89, 90, 91, 92, 93, 94, 95, 96, 97, 98, 99, 100, 101, 102, 103, 104, 105, 106, 107, 108, 109, 110, 111, 112, 113, 114, 115, 116, 117, 118, 119, 120, 121, 122, 123, 124, 125, 126, 127, 128, 129, 130, 131, 132, 133, 134, 135, 136, 137, 138, 139, 140, 141, 142, 143, 144, 145, 146, 147, 148, 149, 150, 151, 152, 153, 154, 155, 156, 157, 158, 159, 160, 161, 162, 163, 164, 165, 166, 167, 168, 169, 170, 171, 172, 173, 174, 175, 176, 177, 178, 179, 180, 181, 182, 183, 184, 185, 186, 187, 188, 189, 190, 191, 192, 193, 194, 195, 196, 197, 198, 199, 200, 201, 202, 203, 204, 205, 206, 207, 208, 209, 210, 211, 212, 213, 214, 215, 216, 217, 218, 219, 220, 221, 222, 223, 224, 225, 226, 227, 228, 229, 230, 231, 232, 233, 234, 235, 236, 237, 238, 239, 240, 241, 242, 243, 244, 245, 246, 247, 248, 249, 250, 251, 252, 253, 254, 255, 256, 257, 258, 259, 260, 261, 262, 263, 264, 265, 266, 267, 268, 269, 270, 271, 272, 273, 274, 275, 276, 277, 278, 279, 280, 281, 282, 283, 284, 285, 286, 287, 288, 289, 290, 291, 292, 293, 294, 295, 296, 297, 298, 299, 300, 301, 302, 303, 304, 305, 306, 307, 308, 309, 310, 311, 312, 313, 314, 315, 316, 317, 318, 319, 320, 321, 322, 323, 324, 325, 326, 327, 328, 329, 330, 331, 332, 333, 334, 335, 336, 337, 338, 339, 340, 341, 342, 343, 344, 345, 346, 347, 348, 349, 350, 351, 352, 353, 354, 355, 356, 357, 358, 359, 360, 361, 362, 363, 364, 365, 366, 367, 368, 369, 370, 371, 372, 373, 374, 375, 376, 377, 378, 379, 380, 381, 382, 383, 384, 385, 386, 387, 388, 389, 390, 391, 392, 393, 394, 395, 396, 397, 398, 399, 400, 401, 402, 403, 404, 405, 406, 407, 408, 409, 410, 411, 412, 413, 414, 415, 416, 417, 418, 419, 420, 421, 422, 423, 424, 425, 426, 427, 428, 429, 430, 431, 432, 433, 434, 435, 436, 437, 438, 439, 440, 441, 442, 443, 444, 445, 446, 447, 448, 449, 450, 451, 452, 453, 454, 455, 456, 457, 458, 459, 460, 461, 462, 463, 464, 465, 466, 467, 468, 469, 470, 471, 472, 473, 474, 475, 476, 477, 478, 479, 480, 481, 482, 483, 484, 485, 486, 487, 488, 489, 490, 491, 492, 493, 494, 495, 496, 497, 498, 499, 500, 501, 502, 503, 504, 505, 506, 507, 508, 509, 510, 511, 512, 513, 514, 515, 516, 517, 518, 519, 520, 521, 522, 523, 524, 525, 526, 527, 528, 529, 530, 531, 532, 533, 534, 535, 536, 537, 538, 539, 540, 541, 542, 543, 544, 545, 546, 547, 548, 549, 550, 551, 552, 553, 554, 555, 556, 557, 558, 559, 560, 561, 562, 563, 564, 565, 566, 567, 568, 569, 570, 571, 572, 573, 574, 575, 576, 577, 578, 579, 580, 581, 582, 583, 584, 585, 586, 587, 588, 589, 590, 591, 592, 593, 594, 595, 596, 597, 598, 599, 600, 601, 602, 603, 604, 605, 606, 607, 608, 609, 610, 611, 612, 613, 614, 615, 616, 617, 618, 619, 620, 621, 622, 623, 624, 625, 626, 627, 628, 629, 630, 631, 632, 633, 634, 635, 636, 637, 638, 639, 640, 641, 642, 643, 644, 645, 646, 647, 648, 649, 650, 651, 652, 653, 654, 655, 656, 657, 658, 659, 660, 661, 662, 663, 664, 665, 666, 667, 668, 669, 670, 671, 672, 673, 674, 675, 676, 677, 678, 679, 680, 681, 682, 683, 684, 685, 686, 687, 688, 689, 690, 691, 692, 693, 694, 695, 696, 697, 698, 699, 700, 701, 702, 703, 704, 705, 706, 707, 708, 709, 710, 711, 712, 713, 714, 715, 716, 717, 718, 719, 720, 721, 722, 723, 724, 725, 726, 727, 728, 729, 730, 731, 732, 733, 734, 735, 736, 737, 738, 739, 740, 741, 742, 743, 744, 745, 746, 747, 748, 749, 750, 751, 752, 753, 754, 755, 756, 757, 758, 759, 760, 761, 762, 763, 764, 765, 766, 767, 768, 769, 770, 771, 772, 773, 774, 775, 776, 777, 778, 779, 780, 781, 782, 783, 784, 785, 786, 787, 788, 789, 790, 791, 792, 793, 794, 795, 796, 797, 798, 799, 800, 801, 802, 803, 804, 805, 806, 807, 808, 809, 810, 811, 812, 813, 814, 815, 816, 817, 818, 819, 820, 821, 822, 823, 824, 825, 826, 827, 828, 829, 830, 831, 832, 833, 834, 835, 836, 837, 838, 839, 840, 841, 842, 843, 844, 845, 846, 847, 848, 849, 850, 851, 852, 853, 854, 855, 856, 857, 858, 859, 860, 861, 862, 863, 864, 865, 866, 867, 868, 869, 870, 871, 872, 873, 874, 875, 876, 877, 878, 879, 880, 881, 882, 883, 884, 885, 886, 887, 888, 889, 890, 891, 892, 893, 894, 895, 896, 897, 898, 899, 900, 901, 902, 903, 904, 905, 906, 907, 908, 909, 910, 911, 912, 913, 914, 915, 916, 917, 918, 919, 920, 921, 922, 923, 924, 925, 926, 927, 928, 929, 930, 931, 932, 933, 934, 935, 936, 937, 938, 939, 940, 941, 942, 943, 944, 945, 946, 947, 948, 949, 950, 951, 952, 953, 954, 955, 956, 957, 958, 959, 960, 961, 962, 963, 964, 965, 966, 967, 968, 969, 970, 971, 972, 973, 974, 975, 976, 977, 978, 979, 980, 981, 982, 983, 984, 985, 986, 987, 988, 989, 990, 991, 992, 993, 994, 995, 996, 997, 998, 999, 1000, 1001, 1002, 1003, 1004, 1005, 1006, 1007, 1008, 1009, 1010, 1011, 1012, 1013, 1014, 1015, 1016],
      "AcquisitionTime": ["191232.547500", "191233.007500", "191233.467500", "191233.927500", "191234.387500", "191234.847500", "191235.307500", "191235.767500", "191236.227500", "191236.687500", "191237.147500", "191237.607500", "191238.067500", "191238.527500", "191238.987500", "191239.447500", "191239.907500", "191240.367500", "191240.827500", "191241.287500", "191241.747500", "191242.207500", "191242.667500", "191243.127500", "191243.587500", "191244.047500", "191244.507500", "191244.967500", "191245.427500", "191245.887500", "191246.347500", "191246.807500", "191247.267500", "191247.727500", "191248.187500", "191248.647500", "191249.107500", "191249.567500", "191250.027500", "191250.487500", "191250.947500", "191251.407500", "191251.867500", "191252.327500", "191252.787500", "191253.247500", "191253.707500", "191254.167500", "191254.627500", "191255.087500", "191255.547500", "191256.007500", "191256.467500", "191256.927500", "191257.387500", "191257.847500", "191258.307500", "191258.767500", "191259.227500", "191259.687500", "191300.147500", "191300.607500", "191301.067500", "191301.527500", "191301.987500", "191302.447500", "191302.907500", "191303.367500", "191303.827500", "191304.287500", "191304.747500", "191305.207500", "191305.667500", "191306.127500", "191306.587500", "191307.047500", "191307.507500", "191307.967500", "191308.427500", "191308.887500", "191309.347500", "191309.807500", "191310.267500", "191310.727500", "191311.187500", "191311.647500", "191312.107500", "191312.567500", "191313.027500", "191313.487500", "191313.947500", "191314.407500", "191314.867500", "191315.327500", "191315.787500", "191316.247500", "191316.707500", "191317.167500", "191317.627500", "191318.087500", "191318.547500", "191319.007500", "191319.467500", "191319.927500", "191320.387500", "191320.847500", "191321.307500", "191321.767500", "191322.227500", "191322.687500", "191323.147500", "191323.607500", "191324.067500", "191324.527500", "191324.987500", "191325.447500", "191325.907500", "191326.367500", "191326.827500", "191327.287500", "191327.747500", "191328.207500", "191328.667500", "191329.127500", "191329.587500", "191330.047500", "191330.507500", "191330.967500", "191331.427500", "191331.887500", "191332.347500", "191332.807500", "191333.267500", "191333.727500", "191334.187500", "191334.647500", "191335.107500", "191335.567500", "191336.027500", "191336.487500", "191336.947500", "191337.407500", "191337.867500", "191338.327500", "191338.787500", "191339.247500", "191339.707500", "191340.167500", "191340.627500", "191341.087500", "191341.547500", "191342.007500", "191342.467500", "191342.927500", "191343.387500", "191343.847500", "191344.307500", "191344.767500", "191345.227500", "191345.687500", "191346.147500", "191346.607500", "191347.067500", "191347.527500", "191347.987500", "191348.447500", "191348.907500", "191349.367500", "191349.827500", "191350.287500", "191350.747500", "191351.207500", "191351.667500", "191352.127500", "191352.587500", "191353.047500", "191353.507500", "191353.967500", "191354.427500", "191354.887500", "191355.347500", "191355.807500", "191356.267500", "191356.727500", "191357.187500", "191357.647500", "191358.107500", "191358.567500", "191359.027500", "191359.487500", "191359.947500", "191400.407500", "191400.867500", "191401.327500", "191401.787500", "191402.247500", "191402.707500", "191403.167500", "191403.627500", "191404.087500", "191404.547500", "191405.007500", "191405.467500", "191405.927500", "191406.387500", "191406.847500", "191407.307500", "191407.767500", "191408.227500", "191408.687500", "191409.147500", "191409.607500", "191410.067500", "191410.527500", "191410.987500", "191411.447500", "191411.907500", "191412.367500", "191412.827500", "191413.287500", "191413.747500", "191414.207500", "191414.667500", "191415.127500", "191415.587500", "191416.047500", "191416.507500", "191416.967500", "191417.427500", "191417.887500", "191418.347500", "191418.807500", "191419.267500", "191419.727500", "191420.187500", "191420.647500", "191421.107500", "191421.567500", "191422.027500", "191422.487500", "191422.947500", "191423.407500", "191423.867500", "191424.327500", "191424.787500", "191425.247500", "191425.707500", "191426.167500", "191426.627500", "191427.087500", "191427.547500", "191428.007500", "191428.467500", "191428.927500", "191429.387500", "191429.847500", "191430.307500", "191430.767500", "191431.227500", "191431.687500", "191432.147500", "191432.607500", "191433.067500", "191433.527500", "191433.987500", "191434.447500", "191434.907500", "191435.367500", "191435.827500", "191436.287500", "191436.747500", "191437.207500", "191437.667500", "191438.127500", "191438.587500", "191439.047500", "191439.507500", "191439.967500", "191440.427500", "191440.887500", "191441.347500", "191441.807500", "191442.267500", "191442.727500", "191443.187500", "191443.647500", "191444.107500", "191444.567500", "191445.027500", "191445.487500", "191445.947500", "191446.407500", "191446.867500", "191447.327500", "191447.787500", "191448.247500", "191448.707500", "191449.167500", "191449.627500", "191450.087500", "191450.547500", "191451.007500", "191451.467500", "191451.927500", "191452.387500", "191452.847500", "191453.307500", "191453.767500", "191454.227500", "191454.687500", "191455.147500", "191455.607500", "191456.067500", "191456.527500", "191456.987500", "191457.447500", "191457.907500", "191458.367500", "191458.827500", "191459.287500", "191459.747500", "191500.207500", "191500.667500", "191501.127500", "191501.587500", "191502.047500", "191502.507500", "191502.967500", "191503.427500", "191503.887500", "191504.347500", "191504.807500", "191505.267500", "191505.727500", "191506.187500", "191506.647500", "191507.107500", "191507.567500", "191508.027500", "191508.487500", "191508.947500", "191509.407500", "191509.867500", "191510.327500", "191510.787500", "191511.247500", "191511.707500", "191512.167500", "191512.627500", "191513.087500", "191513.547500", "191514.007500", "191514.467500", "191514.927500", "191515.387500", "191515.847500", "191516.307500", "191516.767500", "191517.227500", "191517.687500", "191518.147500", "191518.607500", "191519.067500", "191519.527500", "191519.987500", "191520.447500", "191520.907500", "191521.367500", "191521.827500", "191522.287500", "191522.747500", "191523.207500", "191523.667500", "191524.127500", "191524.587500", "191525.047500", "191525.507500", "191525.967500", "191526.427500", "191526.887500", "191527.347500", "191527.807500", "191528.267500", "191528.727500", "191529.187500", "191529.647500", "191530.107500", "191530.567500", "191531.027500", "191531.487500", "191531.947500", "191532.407500", "191532.867500", "191533.327500", "191533.787500", "191534.247500", "191534.707500", "191535.167500", "191535.627500", "191536.087500", "191536.547500", "191537.007500", "191537.467500", "191537.927500", "191538.387500", "191538.847500", "191539.307500", "191539.767500", "191540.227500", "191540.687500", "191541.147500", "191541.607500", "191542.067500", "191542.527500", "191542.987500", "191543.447500", "191543.907500", "191544.367500", "191544.827500", "191545.287500", "191545.747500", "191546.207500", "191546.667500", "191547.127500", "191547.587500", "191548.047500", "191548.507500", "191548.967500", "191549.427500", "191549.887500", "191550.347500", "191550.807500", "191551.267500", "191551.727500", "191552.187500", "191552.647500", "191553.107500", "191553.567500", "191554.027500", "191554.487500", "191554.947500", "191555.407500", "191555.867500", "191556.327500", "191556.787500", "191557.247500", "191557.707500", "191558.167500", "191558.627500", "191559.087500", "191559.547500", "191600.007500", "191600.467500", "191600.927500", "191601.387500", "191601.847500", "191602.307500", "191602.767500", "191603.227500", "191603.687500", "191604.147500", "191604.607500", "191605.067500", "191605.527500", "191605.987500", "191606.447500", "191606.907500", "191607.367500", "191607.827500", "191608.287500", "191608.747500", "191609.207500", "191609.667500", "191610.127500", "191610.587500", "191611.047500", "191611.507500", "191611.967500", "191612.427500", "191612.887500", "191613.347500", "191613.807500", "191614.267500", "191614.727500", "191615.187500", "191615.647500", "191616.107500", "191616.567500", "191617.027500", "191617.487500", "191617.947500", "191618.407500", "191618.867500", "191619.327500", "191619.787500", "191620.247500", "191620.707500", "191621.167500", "191621.627500", "191622.087500", "191622.547500", "191623.007500", "191623.467500", "191623.927500", "191624.387500", "191624.847500", "191625.307500", "191625.767500", "191626.227500", "191626.687500", "191627.147500", "191627.607500", "191628.067500", "191628.527500", "191628.987500", "191629.447500", "191629.907500", "191630.367500", "191630.827500", "191631.287500", "191631.747500", "191632.207500", "191632.667500", "191633.127500", "191633.587500", "191634.047500", "191634.507500", "191634.967500", "191635.427500", "191635.887500", "191636.347500", "191636.807500", "191637.267500", "191637.727500", "191638.187500", "191638.647500", "191639.107500", "191639.567500", "191640.027500", "191640.487500", "191640.947500", "191641.407500", "191641.867500", "191642.327500", "191642.787500", "191643.247500", "191643.707500", "191644.167500", "191644.627500", "191645.087500", "191645.547500", "191646.007500", "191646.467500", "191646.927500", "191647.387500", "191647.847500", "191648.307500", "191648.767500", "191649.227500", "191649.687500", "191650.147500", "191650.607500", "191651.067500", "191651.527500", "191651.987500", "191652.447500", "191652.907500", "191653.367500", "191653.827500", "191654.287500", "191654.747500", "191655.207500", "191655.667500", "191656.127500", "191656.587500", "191657.047500", "191657.507500", "191657.967500", "191658.427500", "191658.887500", "191659.347500", "191659.807500", "191700.267500", "191700.727500", "191701.187500", "191701.647500", "191702.107500", "191702.567500", "191703.027500", "191703.487500", "191703.947500", "191704.407500", "191704.867500", "191705.327500", "191705.787500", "191706.247500", "191706.707500", "191707.167500", "191707.627500", "191708.087500", "191708.547500", "191709.007500", "191709.467500", "191709.927500", "191710.387500", "191710.847500", "191711.307500", "191711.767500", "191712.227500", "191712.687500", "191713.147500", "191713.607500", "191714.067500", "191714.527500", "191714.987500", "191715.447500", "191715.907500", "191716.367500", "191716.827500", "191717.287500", "191717.747500", "191718.207500", "191718.667500", "191719.127500", "191719.587500", "191720.047500", "191720.507500", "191720.967500", "191721.427500", "191721.887500", "191722.347500", "191722.807500", "191723.267500", "191723.727500", "191724.187500", "191724.647500", "191725.107500", "191725.567500", "191726.027500", "191726.487500", "191726.947500", "191727.407500", "191727.867500", "191728.327500", "191728.787500", "191729.247500", "191729.707500", "191730.167500", "191730.627500", "191731.087500", "191731.547500", "191732.007500", "191732.467500", "191732.927500", "191733.387500", "191733.847500", "191734.307500", "191734.767500", "191735.227500", "191735.687500", "191736.147500", "191736.607500", "191737.067500", "191737.527500", "191737.987500", "191738.447500", "191738.907500", "191739.367500", "191739.827500", "191740.287500", "191740.747500", "191741.207500", "191741.667500", "191742.127500", "191742.587500", "191743.047500", "191743.507500", "191743.967500", "191744.427500", "191744.887500", "191745.347500", "191745.807500", "191746.267500", "191746.727500", "191747.187500", "191747.647500", "191748.107500", "191748.567500", "191749.027500", "191749.487500", "191749.947500", "191750.407500", "191750.867500", "191751.327500", "191751.787500", "191752.247500", "191752.707500", "191753.167500", "191753.627500", "191754.087500", "191754.547500", "191755.007500", "191755.467500", "191755.927500", "191756.387500", "191756.847500", "191757.307500", "191757.767500", "191758.227500", "191758.687500", "191759.147500", "191759.607500", "191800.067500", "191800.527500", "191800.987500", "191801.447500", "191801.907500", "191802.367500", "191802.827500", "191803.287500", "191803.747500", "191804.207500", "191804.667500", "191805.127500", "191805.587500", "191806.047500", "191806.507500", "191806.967500", "191807.427500", "191807.887500", "191808.347500", "191808.807500", "191809.267500", "191809.727500", "191810.187500", "191810.647500", "191811.107500", "191811.567500", "191812.027500", "191812.487500", "191812.947500", "191813.407500", "191813.867500", "191814.327500", "191814.787500", "191815.247500", "191815.707500", "191816.167500", "191816.627500", "191817.087500", "191817.547500", "191818.007500", "191818.467500", "191818.927500", "191819.387500", "191819.847500", "191820.307500", "191820.767500", "191821.227500", "191821.687500", "191822.147500", "191822.607500", "191823.067500", "191823.527500", "191823.987500", "191824.447500", "191824.907500", "191825.367500", "191825.827500", "191826.287500", "191826.747500", "191827.207500", "191827.667500", "191828.127500", "191828.587500", "191829.047500", "191829.507500", "191829.967500", "191830.427500", "191830.887500", "191831.347500", "191831.807500", "191832.267500", "191832.727500", "191833.187500", "191833.647500", "191834.107500", "191834.567500", "191835.027500", "191835.487500", "191835.947500", "191836.407500", "191836.867500", "191837.327500", "191837.787500", "191838.247500", "191838.707500", "191839.167500", "191839.627500", "191840.087500", "191840.547500", "191841.007500", "191841.467500", "191841.927500", "191842.387500", "191842.847500", "191843.307500", "191843.767500", "191844.227500", "191844.687500", "191845.147500", "191845.607500", "191846.067500", "191846.527500", "191846.987500", "191847.447500", "191847.907500", "191848.367500", "191848.827500", "191849.287500", "191849.747500", "191850.207500", "191850.667500", "191851.127500", "191851.587500", "191852.047500", "191852.507500", "191852.967500", "191853.427500", "191853.887500", "191854.347500", "191854.807500", "191855.267500", "191855.727500", "191856.187500", "191856.647500", "191857.107500", "191857.567500", "191858.027500", "191858.487500", "191858.947500", "191859.407500", "191859.867500", "191900.327500", "191900.787500", "191901.247500", "191901.707500", "191902.167500", "191902.627500", "191903.087500", "191903.547500", "191904.007500", "191904.467500", "191904.927500", "191905.387500", "191905.847500", "191906.307500", "191906.767500", "191907.227500", "191907.687500", "191908.147500", "191908.607500", "191909.067500", "191909.527500", "191909.987500", "191910.447500", "191910.907500", "191911.367500", "191911.827500", "191912.287500", "191912.747500", "191913.207500", "191913.667500", "191914.127500", "191914.587500", "191915.047500", "191915.507500", "191915.967500", "191916.427500", "191916.887500", "191917.347500", "191917.807500", "191918.267500", "191918.727500", "191919.187500", "191919.647500", "191920.107500", "191920.567500", "191921.027500", "191921.487500", "191921.947500", "191922.407500", "191922.867500", "191923.327500", "191923.787500", "191924.247500", "191924.707500", "191925.167500", "191925.627500", "191926.087500", "191926.547500", "191927.007500", "191927.467500", "191927.927500", "191928.387500", "191928.847500", "191929.307500", "191929.767500", "191930.227500", "191930.687500", "191931.147500", "191931.607500", "191932.067500", "191932.527500", "191932.987500", "191933.447500", "191933.907500", "191934.367500", "191934.827500", "191935.287500", "191935.747500", "191936.207500", "191936.667500", "191937.127500", "191937.587500", "191938.047500", "191938.507500", "191938.967500", "191939.427500", "191939.887500", "191940.347500", "191940.807500", "191941.267500", "191941.727500", "191942.187500", "191942.647500", "191943.107500", "191943.567500", "191944.027500", "191944.487500", "191944.947500", "191945.407500", "191945.867500", "191946.327500", "191946.787500", "191947.247500", "191947.707500", "191948.167500", "191948.627500", "191949.087500", "191949.547500", "191950.007500", "191950.467500", "191950.927500", "191951.387500", "191951.847500", "191952.307500", "191952.767500", "191953.227500", "191953.687500", "191954.147500", "191954.607500", "191955.067500", "191955.527500", "191955.987500", "191956.447500", "191956.907500", "191957.367500", "191957.827500", "191958.287500", "191958.747500", "191959.207500", "191959.667500", "192000.127500", "192000.587500", "192001.047500", "192001.507500", "192001.967500", "192002.427500", "192002.887500", "192003.347500", "192003.807500", "192004.267500", "192004.727500", "192005.187500", "192005.647500", "192006.107500", "192006.567500", "192007.027500", "192007.487500", "192007.947500", "192008.407500", "192008.867500", "192009.327500", "192009.787500", "192010.247500", "192010.707500", "192011.167500", "192011.627500", "192012.087500", "192012.547500", "192013.007500", "192013.467500", "192013.927500", "192014.387500", "192014.847500", "192015.307500", "192015.767500", "192016.227500", "192016.687500", "192017.147500", "192017.607500", "192018.067500", "192018.527500", "192018.987500", "192019.447500"],
