{
  "AcquisitionMatrixPE": 82,
  "AcquisitionNumber": 1,
  "AcquisitionTime": "18:53:0.780000",
  "BandwidthPerPixelPhaseEncode": 24.888,
  "BaseResolution": 82,
  "BodyPartExamined": "BRAIN",
  "ConsistencyInfo": "N4_VE11E_LATEST_20181129",
  "ConversionSoftware": "dcm2niix",
  "ConversionSoftwareVersion": "v1.0.20201102",
  "DerivedVendorReportedEchoSpacing": 0.00049,
  "DeviceSerialNumber": "66112",
  "DwellTime": 2e-06,
  "EchoTime": 0.0272,
  "EchoTrainLength": 82,
  "EffectiveEchoSpacing": 0.00049,
  "FlipAngle": 44,
  "ImageComments": "Unaliased MB8/PE3",
  "ImageOrientationPatientDICOM": [0.999464, -0.0189434, -0.0266926, 0.0169223, 0.997114, -0.0740103],
  "ImageType": [
    "ORIGINAL",
    "PRIMARY",
    "M",
    "MB",
    "ND",
    "NORM",
    "MOSAIC"
],
  "ImagingFrequency": 123.259,
  "InPlanePhaseEncodingDirectionDICOM": "COL",
  "InstitutionAddress": "Maynard 3,Hanover,NH,US,03755",
  "InstitutionName": "Dartmouth College - PBS",
  "InstitutionalDepartmentName": "Department",
  "MRAcquisitionType": "2D",
  "MagneticFieldStrength": 3,
  "Manufacturer": "Siemens",
  "ManufacturersModelName": "Prisma",
  "Modality": "MR",
  "MultibandAccelerationFactor": 8,
  "PartialFourier": 1,
  "PatientPosition": "HFS",
  "PercentPhaseFOV": 100,
  "PercentSampling": 100,
  "PhaseEncodingDirection": "j-",
  "PhaseEncodingSteps": 82,
  "PhaseResolution": 1,
  "PixelBandwidth": 3050,
  "ProcedureStepDescription": "Wager_Wager^1076_spacetop",
  "ProtocolName": "func_run-01_task-alignvideo_acq-ap-mb8",
  "PulseSequenceDetails": "%CustomerSeq%\\cmrr_mbep2d_bold",
  "ReceiveCoilActiveElements": "HEA;HEP",
  "ReceiveCoilName": "Head_32",
  "ReconMatrixPE": 82,
  "RepetitionTime": 0.46,
  "SAR": 0.0895335,
  "ScanOptions": "FS",
  "ScanningSequence": "EP",
  "SequenceName": "epfid2d1_82",
  "SequenceVariant": "SK\\SS",
  "SeriesDescription": "func_run-01_task-alignvideo_acq-ap-mb8",
  "SeriesNumber": 30,
  "ShimSetting": [4225, -7766, -7285, 109, -74, -143, -59, 82],
  "SliceThickness": 2.7,
  "SliceTiming": [0, 0.2525, 0.065, 0.315, 0.1275, 0.3775, 0.19, 0, 0.2525, 0.065, 0.315, 0.1275, 0.3775, 0.19, 0, 0.2525, 0.065, 0.315, 0.1275, 0.3775, 0.19, 0, 0.2525, 0.065, 0.315, 0.1275, 0.3775, 0.19, 0, 0.2525, 0.065, 0.315, 0.1275, 0.3775, 0.19, 0, 0.2525, 0.065, 0.315, 0.1275, 0.3775, 0.19, 0, 0.2525, 0.065, 0.315, 0.1275, 0.3775, 0.19, 0, 0.2525, 0.065, 0.315, 0.1275, 0.3775, 0.19],
  "SoftwareVersions": "syngo MR E11",
  "SpacingBetweenSlices": 2.7,
  "StationName": "AWP66112",
  "TaskName": "alignvideo",
  "TotalReadoutTime": 0.03969,
  "TxRefAmp": 239.555,
  "WipMemBlock": "29b6ee79-37ca-472f-9c7f-ef0ba65fd6f6||Sequence: R016 ve11e/master r/434b28f1; Aug  7 2019 18:53:46 by eja",
  "dcmmeta_affine": [
    [-2.6814892292022705, 0.04540122300386429, -0.07564748823642731, 111.97586059570312],
    [0.05082377418875694, 2.6751837730407715, -0.1985010802745819, -86.98960876464844],
    [-0.0716143473982811, 0.19856415688991547, 2.6916306018829346, -86.66472625732422],
    [0.0, 0.0, 0.0, 1.0]
],
  "dcmmeta_reorient_transform": [
    [0.0, -1.0, 0.0, 81.0],
    [1.0, 0.0, 0.0, 0.0],
    [0.0, 0.0, 1.0, 0.0],
    [0.0, 0.0, 0.0, 1.0]
],
  "dcmmeta_shape": [82, 82, 56, 1073],
  "dcmmeta_slice_dim": 2,
  "dcmmeta_version": 0.6,
  "global": {
    "const": {
      "AccessionNumber": "A004477",
      "AcquisitionMatrix": [82, 0, 0, 82],
      "AngioFlag": "N",
      "BitsAllocated": 16,
      "BitsStored": 16,
      "BodyPartExamined": "BRAIN",
      "Columns": 656,
      "EchoNumbers": 1,
      "EchoTime": 27.2,
      "EchoTrainLength": 82,
      "FlipAngle": 44.0,
      "HighBit": 15,
      "ImageOrientationPatient": [0.9994641821614, -0.0189434066273, -0.0266926192383, 0.01692227316472, 0.9971138933058, -0.0740102725809],
      "ImagePositionPatient": [-898.2709456796, -882.89156170886, 6.960198830221],
      "ImageType": [
        "ORIGINAL",
        "PRIMARY",
        "M",
        "MB",
        "ND",
        "NORM",
        "MOSAIC"
],
      "ImagedNucleus": "1H",
      "ImagingFrequency": 123.25912,
      "InPlanePhaseEncodingDirection": "COL",
      "MRAcquisitionType": "2D",
      "MagneticFieldStrength": 3.0,
      "Manufacturer": "SIEMENS",
      "ManufacturerModelName": "Prisma",
      "Modality": "MR",
      "NumberOfAverages": 1.0,
      "NumberOfPhaseEncodingSteps": 82,
      "PercentPhaseFieldOfView": 100.0,
      "PercentSampling": 100.0,
      "PerformedProcedureStepStartTime": "172338.285000",
      "PhotometricInterpretation": "MONOCHROME2",
      "PixelBandwidth": 3050.0,
      "PixelRepresentation": 0,
      "PixelSpacing": [2.6829268932343, 2.6829268932343],
      "ProtocolName": "func_run-01_task-alignvideo_acq-ap-mb8",
      "RepetitionTime": 460.0,
      "Rows": 656,
      "SAR": 0.08953351744916,
      "SamplesPerPixel": 1,
      "ScanOptions": "FS",
      "ScanningSequence": "EP",
      "SequenceName": "epfid2d1_82",
      "SequenceVariant": [
        "SK",
        "SS"
],
      "SeriesDescription": "func_run-01_task-alignvideo_acq-ap-mb8",
      "SeriesNumber": 30,
      "SeriesTime": "185311.964000",
      "SliceLocation": -83.137993146813,
      "SliceThickness": 2.7000000476837,
      "SmallestImagePixelValue": 0,
      "SoftwareVersions": "syngo MR E11",
      "SpacingBetweenSlices": 2.700000048466,
      "SpecificCharacterSet": "ISO_IR 100",
      "StudyID": "1",
      "StudyTime": "172338.221000",
      "TransmitCoilName": "Body",
      "VariableFlipAngleFlag": "N",
      "WindowCenterWidthExplanation": "Algo1"
    },
    "slices": {}
  },
  "time": {
    "samples": {
      "AcquisitionNumber": [1, 2, 3, 4, 5, 6, 7, 8, 9, 10, 11, 12, 13, 14, 15, 16, 17, 18, 19, 20, 21, 22, 23, 24, 25, 26, 27, 28, 29, 30, 31, 32, 33, 34, 35, 36, 37, 38, 39, 40, 41, 42, 43, 44, 45, 46, 47, 48, 49, 50, 51, 52, 53, 54, 55, 56, 57, 58, 59, 60, 61, 62, 63, 64, 65, 66, 67, 68, 69, 70, 71, 72, 73, 74, 75, 76, 77, 78, 79, 80, 81, 82, 83, 84, 85, 86, 87, 88, 89, 90, 91, 92, 93, 94, 95, 96, 97, 98, 99, 100, 101, 102, 103, 104, 105, 106, 107, 108, 109, 110, 111, 112, 113, 114, 115, 116, 117, 118, 119, 120, 121, 122, 123, 124, 125, 126, 127, 128, 129, 130, 131, 132, 133, 134, 135, 136, 137, 138, 139, 140, 141, 142, 143, 144, 145, 146, 147, 148, 149, 150, 151, 152, 153, 154, 155, 156, 157, 158, 159, 160, 161, 162, 163, 164, 165, 166, 167, 168, 169, 170, 171, 172, 173, 174, 175, 176, 177, 178, 179, 180, 181, 182, 183, 184, 185, 186, 187, 188, 189, 190, 191, 192, 193, 194, 195, 196, 197, 198, 199, 200, 201, 202, 203, 204, 205, 206, 207, 208, 209, 210, 211, 212, 213, 214, 215, 216, 217, 218, 219, 220, 221, 222, 223, 224, 225, 226, 227, 228, 229, 230, 231, 232, 233, 234, 235, 236, 237, 238, 239, 240, 241, 242, 243, 244, 245, 246, 247, 248, 249, 250, 251, 252, 253, 254, 255, 256, 257, 258, 259, 260, 261, 262, 263, 264, 265, 266, 267, 268, 269, 270, 271, 272, 273, 274, 275, 276, 277, 278, 279, 280, 281, 282, 283, 284, 285, 286, 287, 288, 289, 290, 291, 292, 293, 294, 295, 296, 297, 298, 299, 300, 301, 302, 303, 304, 305, 306, 307, 308, 309, 310, 311, 312, 313, 314, 315, 316, 317, 318, 319, 320, 321, 322, 323, 324, 325, 326, 327, 328, 329, 330, 331, 332, 333, 334, 335, 336, 337, 338, 339, 340, 341, 342, 343, 344, 345, 346, 347, 348, 349, 350, 351, 352, 353, 354, 355, 356, 357, 358, 359, 360, 361, 362, 363, 364, 365, 366, 367, 368, 369, 370, 371, 372, 373, 374, 375, 376, 377, 378, 379, 380, 381, 382, 383, 384, 385, 386, 387, 388, 389, 390, 391, 392, 393, 394, 395, 396, 397, 398, 399, 400, 401, 402, 403, 404, 405, 406, 407, 408, 409, 410, 411, 412, 413, 414, 415, 416, 417, 418, 419, 420, 421, 422, 423, 424, 425, 426, 427, 428, 429, 430, 431, 432, 433, 434, 435, 436, 437, 438, 439, 440, 441, 442, 443, 444, 445, 446, 447, 448, 449, 450, 451, 452, 453, 454, 455, 456, 457, 458, 459, 460, 461, 462, 463, 464, 465, 466, 467, 468, 469, 470, 471, 472, 473, 474, 475, 476, 477, 478, 479, 480, 481, 482, 483, 484, 485, 486, 487, 488, 489, 490, 491, 492, 493, 494, 495, 496, 497, 498, 499, 500, 501, 502, 503, 504, 505, 506, 507, 508, 509, 510, 511, 512, 513, 514, 515, 516, 517, 518, 519, 520, 521, 522, 523, 524, 525, 526, 527, 528, 529, 530, 531, 532, 533, 534, 535, 536, 537, 538, 539, 540, 541, 542, 543, 544, 545, 546, 547, 548, 549, 550, 551, 552, 553, 554, 555, 556, 557, 558, 559, 560, 561, 562, 563, 564, 565, 566, 567, 568, 569, 570, 571, 572, 573, 574, 575, 576, 577, 578, 579, 580, 581, 582, 583, 584, 585, 586, 587, 588, 589, 590, 591, 592, 593, 594, 595, 596, 597, 598, 599, 600, 601, 602, 603, 604, 605, 606, 607, 608, 609, 610, 611, 612, 613, 614, 615, 616, 617, 618, 619, 620, 621, 622, 623, 624, 625, 626, 627, 628, 629, 630, 631, 632, 633, 634, 635, 636, 637, 638, 639, 640, 641, 642, 643, 644, 645, 646, 647, 648, 649, 650, 651, 652, 653, 654, 655, 656, 657, 658, 659, 660, 661, 662, 663, 664, 665, 666, 667, 668, 669, 670, 671, 672, 673, 674, 675, 676, 677, 678, 679, 680, 681, 682, 683, 684, 685, 686, 687, 688, 689, 690, 691, 692, 693, 694, 695, 696, 697, 698, 699, 700, 701, 702, 703, 704, 705, 706, 707, 708, 709, 710, 711, 712, 713, 714, 715, 716, 717, 718, 719, 720, 721, 722, 723, 724, 725, 726, 727, 728, 729, 730, 731, 732, 733, 734, 735, 736, 737, 738, 739, 740, 741, 742, 743, 744, 745, 746, 747, 748, 749, 750, 751, 752, 753, 754, 755, 756, 757, 758, 759, 760, 761, 762, 763, 764, 765, 766, 767, 768, 769, 770, 771, 772, 773, 774, 775, 776, 777, 778, 779, 780, 781, 782, 783, 784, 785, 786, 787, 788, 789, 790, 791, 792, 793, 794, 795, 796, 797, 798, 799, 800, 801, 802, 803, 804, 805, 806, 807, 808, 809, 810, 811, 812, 813, 814, 815, 816, 817, 818, 819, 820, 821, 822, 823, 824, 825, 826, 827, 828, 829, 830, 831, 832, 833, 834, 835, 836, 837, 838, 839, 840, 841, 842, 843, 844, 845, 846, 847, 848, 849, 850, 851, 852, 853, 854, 855, 856, 857, 858, 859, 860, 861, 862, 863, 864, 865, 866, 867, 868, 869, 870, 871, 872, 873, 874, 875, 876, 877, 878, 879, 880, 881, 882, 883, 884, 885, 886, 887, 888, 889, 890, 891, 892, 893, 894, 895, 896, 897, 898, 899, 900, 901, 902, 903, 904, 905, 906, 907, 908, 909, 910, 911, 912, 913, 914, 915, 916, 917, 918, 919, 920, 921, 922, 923, 924, 925, 926, 927, 928, 929, 930, 931, 932, 933, 934, 935, 936, 937, 938, 939, 940, 941, 942, 943, 944, 945, 946, 947, 948, 949, 950, 951, 952, 953, 954, 955, 956, 957, 958, 959, 960, 961, 962, 963, 964, 965, 966, 967, 968, 969, 970, 971, 972, 973, 974, 975, 976, 977, 978, 979, 980, 981, 982, 983, 984, 985, 986, 987, 988, 989, 990, 991, 992, 993, 994, 995, 996, 997, 998, 999, 1000, 1001, 1002, 1003, 1004, 1005, 1006, 1007, 1008, 1009, 1010, 1011, 1012, 1013, 1014, 1015, 1016, 1017, 1018, 1019, 1020, 1021, 1022, 1023, 1024, 1025, 1026, 1027, 1028, 1029, 1030, 1031, 1032, 1033, 1034, 1035, 1036, 1037, 1038, 1039, 1040, 1041, 1042, 1043, 1044, 1045, 1046, 1047, 1048, 1049, 1050, 1051, 1052, 1053, 1054, 1055, 1056, 1057, 1058, 1059, 1060, 1061, 1062, 1063, 1064, 1065, 1066, 1067, 1068, 1069, 1070, 1071, 1072, 1073],
      "AcquisitionTime": ["185300.780000", "185301.240000", "185301.700000", "185302.160000", "185302.620000", "185303.080000", "185303.540000", "185304.000000", "185304.460000", "185304.920000", "185305.380000", "185305.840000", "185306.300000", "185306.760000", "185307.220000", "185307.680000", "185308.140000", "185308.600000", "185309.060000", "185309.520000", "185309.980000", "185310.440000", "185310.900000", "185311.360000", "185311.820000", "185312.280000", "185312.740000", "185313.200000", "185313.660000", "185314.120000", "185314.580000", "185315.040000", "185315.500000", "185315.960000", "185316.420000", "185316.880000", "185317.340000", "185317.800000", "185318.260000", "185318.720000", "185319.180000", "185319.640000", "185320.100000", "185320.560000", "185321.020000", "185321.480000", "185321.940000", "185322.400000", "185322.860000", "185323.320000", "185323.780000", "185324.240000", "185324.700000", "185325.160000", "185325.620000", "185326.080000", "185326.540000", "185327.000000", "185327.460000", "185327.920000", "185328.380000", "185328.840000", "185329.300000", "185329.760000", "185330.220000", "185330.680000", "185331.140000", "185331.600000", "185332.060000", "185332.520000", "185332.980000", "185333.440000", "185333.900000", "185334.360000", "185334.820000", "185335.280000", "185335.740000", "185336.200000", "185336.660000", "185337.120000", "185337.580000", "185338.040000", "185338.500000", "185338.960000", "185339.420000", "185339.880000", "185340.340000", "185340.800000", "185341.260000", "185341.720000", "185342.180000", "185342.640000", "185343.100000", "185343.560000", "185344.020000", "185344.480000", "185344.940000", "185345.400000", "185345.860000", "185346.320000", "185346.780000", "185347.240000", "185347.700000", "185348.160000", "185348.620000", "185349.080000", "185349.540000", "185350.000000", "185350.460000", "185350.920000", "185351.380000", "185351.840000", "185352.300000", "185352.760000", "185353.220000", "185353.680000", "185354.140000", "185354.600000", "185355.060000", "185355.520000", "185355.980000", "185356.440000", "185356.900000", "185357.360000", "185357.820000", "185358.280000", "185358.740000", "185359.200000", "185359.660000", "185400.120000", "185400.580000", "185401.040000", "185401.500000", "185401.960000", "185402.420000", "185402.880000", "185403.340000", "185403.800000", "185404.260000", "185404.720000", "185405.180000", "185405.640000", "185406.100000", "185406.560000", "185407.020000", "185407.480000", "185407.940000", "185408.400000", "185408.860000", "185409.320000", "185409.780000", "185410.240000", "185410.700000", "185411.160000", "185411.620000", "185412.080000", "185412.540000", "185413.000000", "185413.460000", "185413.920000", "185414.380000", "185414.840000", "185415.300000", "185415.760000", "185416.220000", "185416.680000", "185417.140000", "185417.600000", "185418.060000", "185418.520000", "185418.980000", "185419.440000", "185419.900000", "185420.360000", "185420.820000", "185421.280000", "185421.740000", "185422.200000", "185422.660000", "185423.120000", "185423.580000", "185424.040000", "185424.500000", "185424.960000", "185425.420000", "185425.880000", "185426.340000", "185426.800000", "185427.260000", "185427.720000", "185428.180000", "185428.640000", "185429.100000", "185429.560000", "185430.020000", "185430.480000", "185430.940000", "185431.400000", "185431.860000", "185432.320000", "185432.780000", "185433.240000", "185433.700000", "185434.160000", "185434.620000", "185435.080000", "185435.540000", "185436.000000", "185436.460000", "185436.920000", "185437.380000", "185437.840000", "185438.300000", "185438.760000", "185439.220000", "185439.680000", "185440.140000", "185440.600000", "185441.060000", "185441.520000", "185441.980000", "185442.440000", "185442.900000", "185443.360000", "185443.820000", "185444.280000", "185444.740000", "185445.200000", "185445.660000", "185446.120000", "185446.580000", "185447.040000", "185447.500000", "185447.960000", "185448.420000", "185448.880000", "185449.340000", "185449.800000", "185450.260000", "185450.720000", "185451.180000", "185451.640000", "185452.100000", "185452.560000", "185453.020000", "185453.480000", "185453.940000", "185454.400000", "185454.860000", "185455.320000", "185455.780000", "185456.240000", "185456.700000", "185457.160000", "185457.620000", "185458.080000", "185458.540000", "185459.000000", "185459.460000", "185459.920000", "185500.380000", "185500.840000", "185501.300000", "185501.760000", "185502.220000", "185502.680000", "185503.140000", "185503.600000", "185504.060000", "185504.520000", "185504.980000", "185505.440000", "185505.900000", "185506.360000", "185506.820000", "185507.280000", "185507.740000", "185508.200000", "185508.660000", "185509.120000", "185509.580000", "185510.040000", "185510.500000", "185510.960000", "185511.420000", "185511.880000", "185512.340000", "185512.800000", "185513.260000", "185513.720000", "185514.180000", "185514.640000", "185515.100000", "185515.560000", "185516.020000", "185516.480000", "185516.940000", "185517.400000", "185517.860000", "185518.320000", "185518.780000", "185519.240000", "185519.700000", "185520.160000", "185520.620000", "185521.080000", "185521.540000", "185522.000000", "185522.460000", "185522.920000", "185523.380000", "185523.840000", "185524.300000", "185524.760000", "185525.220000", "185525.680000", "185526.140000", "185526.600000", "185527.060000", "185527.520000", "185527.980000", "185528.440000", "185528.900000", "185529.360000", "185529.820000", "185530.280000", "185530.740000", "185531.200000", "185531.660000", "185532.120000", "185532.580000", "185533.040000", "185533.500000", "185533.960000", "185534.420000", "185534.880000", "185535.340000", "185535.800000", "185536.260000", "185536.720000", "185537.180000", "185537.640000", "185538.100000", "185538.560000", "185539.020000", "185539.480000", "185539.940000", "185540.400000", "185540.860000", "185541.320000", "185541.780000", "185542.240000", "185542.700000", "185543.160000", "185543.620000", "185544.080000", "185544.540000", "185545.000000", "185545.460000", "185545.920000", "185546.380000", "185546.840000", "185547.300000", "185547.760000", "185548.220000", "185548.680000", "185549.140000", "185549.600000", "185550.060000", "185550.520000", "185550.980000", "185551.440000", "185551.900000", "185552.360000", "185552.820000", "185553.280000", "185553.740000", "185554.200000", "185554.660000", "185555.120000", "185555.580000", "185556.040000", "185556.500000", "185556.960000", "185557.420000", "185557.880000", "185558.340000", "185558.800000", "185559.260000", "185559.720000", "185600.180000", "185600.640000", "185601.100000", "185601.560000", "185602.020000", "185602.480000", "185602.940000", "185603.400000", "185603.860000", "185604.320000", "185604.780000", "185605.240000", "185605.700000", "185606.160000", "185606.620000", "185607.080000", "185607.540000", "185608.000000", "185608.460000", "185608.920000", "185609.380000", "185609.840000", "185610.300000", "185610.760000", "185611.220000", "185611.680000", "185612.140000", "185612.600000", "185613.060000", "185613.520000", "185613.980000", "185614.440000", "185614.900000", "185615.360000", "185615.820000", "185616.280000", "185616.740000", "185617.200000", "185617.660000", "185618.120000", "185618.580000", "185619.040000", "185619.500000", "185619.960000", "185620.420000", "185620.880000", "185621.340000", "185621.800000", "185622.260000", "185622.720000", "185623.180000", "185623.640000", "185624.100000", "185624.560000", "185625.020000", "185625.480000", "185625.940000", "185626.400000", "185626.860000", "185627.320000", "185627.780000", "185628.240000", "185628.700000", "185629.160000", "185629.620000", "185630.080000", "185630.540000", "185631.000000", "185631.460000", "185631.920000", "185632.380000", "185632.840000", "185633.300000", "185633.760000", "185634.220000", "185634.680000", "185635.140000", "185635.600000", "185636.060000", "185636.520000", "185636.980000", "185637.440000", "185637.900000", "185638.360000", "185638.820000", "185639.280000", "185639.740000", "185640.200000", "185640.660000", "185641.120000", "185641.580000", "185642.040000", "185642.500000", "185642.960000", "185643.420000", "185643.880000", "185644.340000", "185644.800000", "185645.260000", "185645.720000", "185646.180000", "185646.640000", "185647.100000", "185647.560000", "185648.020000", "185648.480000", "185648.940000", "185649.400000", "185649.860000", "185650.320000", "185650.780000", "185651.240000", "185651.700000", "185652.160000", "185652.620000", "185653.080000", "185653.540000", "185654.000000", "185654.460000", "185654.920000", "185655.380000", "185655.840000", "185656.300000", "185656.760000", "185657.220000", "185657.680000", "185658.140000", "185658.600000", "185659.060000", "185659.520000", "185659.980000", "185700.440000", "185700.900000", "185701.360000", "185701.820000", "185702.280000", "185702.740000", "185703.200000", "185703.660000", "185704.120000", "185704.580000", "185705.040000", "185705.500000", "185705.960000", "185706.420000", "185706.880000", "185707.340000", "185707.800000", "185708.260000", "185708.720000", "185709.180000", "185709.640000", "185710.100000", "185710.560000", "185711.020000", "185711.480000", "185711.940000", "185712.400000", "185712.860000", "185713.320000", "185713.780000", "185714.240000", "185714.700000", "185715.160000", "185715.620000", "185716.080000", "185716.540000", "185717.000000", "185717.460000", "185717.920000", "185718.380000", "185718.840000", "185719.300000", "185719.760000", "185720.220000", "185720.680000", "185721.140000", "185721.600000", "185722.060000", "185722.520000", "185722.980000", "185723.440000", "185723.900000", "185724.360000", "185724.820000", "185725.280000", "185725.740000", "185726.200000", "185726.660000", "185727.120000", "185727.580000", "185728.040000", "185728.500000", "185728.960000", "185729.420000", "185729.880000", "185730.340000", "185730.800000", "185731.260000", "185731.720000", "185732.180000", "185732.640000", "185733.100000", "185733.560000", "185734.020000", "185734.480000", "185734.940000", "185735.400000", "185735.860000", "185736.320000", "185736.780000", "185737.240000", "185737.700000", "185738.160000", "185738.620000", "185739.080000", "185739.540000", "185740.000000", "185740.460000", "185740.920000", "185741.380000", "185741.840000", "185742.300000", "185742.760000", "185743.220000", "185743.680000", "185744.140000", "185744.600000", "185745.060000", "185745.520000", "185745.980000", "185746.440000", "185746.900000", "185747.360000", "185747.820000", "185748.280000", "185748.740000", "185749.200000", "185749.660000", "185750.120000", "185750.580000", "185751.040000", "185751.500000", "185751.960000", "185752.420000", "185752.880000", "185753.340000", "185753.800000", "185754.260000", "185754.720000", "185755.180000", "185755.640000", "185756.100000", "185756.560000", "185757.020000", "185757.480000", "185757.940000", "185758.400000", "185758.860000", "185759.320000", "185759.780000", "185800.240000", "185800.700000", "185801.160000", "185801.620000", "185802.080000", "185802.540000", "185803.000000", "185803.460000", "185803.920000", "185804.380000", "185804.840000", "185805.300000", "185805.760000", "185806.220000", "185806.680000", "185807.140000", "185807.600000", "185808.060000", "185808.520000", "185808.980000", "185809.440000", "185809.900000", "185810.360000", "185810.820000", "185811.280000", "185811.740000", "185812.200000", "185812.660000", "185813.120000", "185813.580000", "185814.040000", "185814.500000", "185814.960000", "185815.420000", "185815.880000", "185816.340000", "185816.800000", "185817.260000", "185817.720000", "185818.180000", "185818.640000", "185819.100000", "185819.560000", "185820.020000", "185820.480000", "185820.940000", "185821.400000", "185821.860000", "185822.320000", "185822.780000", "185823.240000", "185823.700000", "185824.160000", "185824.620000", "185825.080000", "185825.540000", "185826.000000", "185826.460000", "185826.920000", "185827.380000", "185827.840000", "185828.300000", "185828.760000", "185829.220000", "185829.680000", "185830.140000", "185830.600000", "185831.060000", "185831.520000", "185831.980000", "185832.440000", "185832.900000", "185833.360000", "185833.820000", "185834.280000", "185834.740000", "185835.200000", "185835.660000", "185836.120000", "185836.580000", "185837.040000", "185837.500000", "185837.960000", "185838.420000", "185838.880000", "185839.340000", "185839.800000", "185840.260000", "185840.720000", "185841.180000", "185841.640000", "185842.100000", "185842.560000", "185843.020000", "185843.480000", "185843.940000", "185844.400000", "185844.860000", "185845.320000", "185845.780000", "185846.240000", "185846.700000", "185847.160000", "185847.620000", "185848.080000", "185848.540000", "185849.000000", "185849.460000", "185849.920000", "185850.380000", "185850.840000", "185851.300000", "185851.760000", "185852.220000", "185852.680000", "185853.140000", "185853.600000", "185854.060000", "185854.520000", "185854.980000", "185855.440000", "185855.900000", "185856.360000", "185856.820000", "185857.280000", "185857.740000", "185858.200000", "185858.660000", "185859.120000", "185859.580000", "185900.040000", "185900.500000", "185900.960000", "185901.420000", "185901.880000", "185902.340000", "185902.800000", "185903.260000", "185903.720000", "185904.180000", "185904.640000", "185905.100000", "185905.560000", "185906.020000", "185906.480000", "185906.940000", "185907.400000", "185907.860000", "185908.320000", "185908.780000", "185909.240000", "185909.700000", "185910.160000", "185910.620000", "185911.080000", "185911.540000", "185912.000000", "185912.460000", "185912.920000", "185913.380000", "185913.840000", "185914.300000", "185914.760000", "185915.220000", "185915.680000", "185916.140000", "185916.600000", "185917.060000", "185917.520000", "185917.980000", "185918.440000", "185918.900000", "185919.360000", "185919.820000", "185920.280000", "185920.740000", "185921.200000", "185921.660000", "185922.120000", "185922.580000", "185923.040000", "185923.500000", "185923.960000", "185924.420000", "185924.880000", "185925.340000", "185925.800000", "185926.260000", "185926.720000", "185927.180000", "185927.640000", "185928.100000", "185928.560000", "185929.020000", "185929.480000", "185929.940000", "185930.400000", "185930.860000", "185931.320000", "185931.780000", "185932.240000", "185932.700000", "185933.160000", "185933.620000", "185934.080000", "185934.540000", "185935.000000", "185935.460000", "185935.920000", "185936.380000", "185936.840000", "185937.300000", "185937.760000", "185938.220000", "185938.680000", "185939.140000", "185939.600000", "185940.060000", "185940.520000", "185940.980000", "185941.440000", "185941.900000", "185942.360000", "185942.820000", "185943.280000", "185943.740000", "185944.200000", "185944.660000", "185945.120000", "185945.580000", "185946.040000", "185946.500000", "185946.960000", "185947.420000", "185947.880000", "185948.340000", "185948.800000", "185949.260000", "185949.720000", "185950.180000", "185950.640000", "185951.100000", "185951.560000", "185952.020000", "185952.480000", "185952.940000", "185953.400000", "185953.860000", "185954.320000", "185954.780000", "185955.240000", "185955.700000", "185956.160000", "185956.620000", "185957.080000", "185957.540000", "185958.000000", "185958.460000", "185958.920000", "185959.380000", "185959.840000", "190000.300000", "190000.760000", "190001.220000", "190001.680000", "190002.140000", "190002.600000", "190003.060000", "190003.520000", "190003.980000", "190004.440000", "190004.900000", "190005.360000", "190005.820000", "190006.280000", "190006.740000", "190007.200000", "190007.660000", "190008.120000", "190008.580000", "190009.040000", "190009.500000", "190009.960000", "190010.420000", "190010.880000", "190011.340000", "190011.800000", "190012.260000", "190012.720000", "190013.180000", "190013.640000", "190014.100000", "190014.560000", "190015.020000", "190015.480000", "190015.940000", "190016.400000", "190016.860000", "190017.320000", "190017.780000", "190018.240000", "190018.700000", "190019.160000", "190019.620000", "190020.080000", "190020.540000", "190021.000000", "190021.460000", "190021.920000", "190022.380000", "190022.840000", "190023.300000", "190023.760000", "190024.220000", "190024.680000", "190025.140000", "190025.600000", "190026.060000", "190026.520000", "190026.980000", "190027.440000", "190027.900000", "190028.360000", "190028.820000", "190029.280000", "190029.740000", "190030.200000", "190030.660000", "190031.120000", "190031.580000", "190032.040000", "190032.500000", "190032.960000", "190033.420000", "190033.880000", "190034.340000", "190034.800000", "190035.260000", "190035.720000", "190036.180000", "190036.640000", "190037.100000", "190037.560000", "190038.020000", "190038.480000", "190038.940000", "190039.400000", "190039.860000", "190040.320000", "190040.780000", "190041.240000", "190041.700000", "190042.160000", "190042.620000", "190043.080000", "190043.540000", "190044.000000", "190044.460000", "190044.920000", "190045.380000", "190045.840000", "190046.300000", "190046.760000", "190047.220000", "190047.680000", "190048.140000", "190048.600000", "190049.060000", "190049.520000", "190049.980000", "190050.440000", "190050.900000", "190051.360000", "190051.820000", "190052.280000", "190052.740000", "190053.200000", "190053.660000", "190054.120000", "190054.580000", "190055.040000", "190055.500000", "190055.960000", "190056.420000", "190056.880000", "190057.340000", "190057.800000", "190058.260000", "190058.720000", "190059.180000", "190059.640000", "190100.100000", "190100.560000", "190101.020000", "190101.480000", "190101.940000", "190102.400000", "190102.860000", "190103.320000", "190103.780000", "190104.240000", "190104.700000", "190105.160000", "190105.620000", "190106.080000", "190106.540000", "190107.000000", "190107.460000", "190107.920000", "190108.380000", "190108.840000", "190109.300000", "190109.760000", "190110.220000", "190110.680000", "190111.140000", "190111.600000", "190112.060000", "190112.520000", "190112.980000", "190113.440000", "190113.900000"],
