{
  "AcquisitionMatrixPE": 82,
  "AcquisitionNumber": 1,
  "AcquisitionTime": "11:33:48.097500",
  "BandwidthPerPixelPhaseEncode": 24.888,
  "BaseResolution": 82,
  "BodyPartExamined": "BRAIN",
  "ConsistencyInfo": "N4_VE11C_LATEST_20160120",
  "ConversionSoftware": "dcm2niix",
  "ConversionSoftwareVersion": "v1.0.20201102",
  "DerivedVendorReportedEchoSpacing": 0.00049,
  "DeviceSerialNumber": "66112",
  "DwellTime": 2e-06,
  "EchoTime": 0.0272,
  "EchoTrainLength": 82,
  "EffectiveEchoSpacing": 0.00049,
  "FlipAngle": 44,
  "ImageComments": "Unaliased MB8/PE3",
  "ImageOrientationPatientDICOM": [0.997907, 0.0566818, 0.0311379, -0.0570147, 0.998324, 0.00991151],
  "ImageType": [
    "ORIGINAL",
    "PRIMARY",
    "M",
    "MB",
    "ND",
    "NORM",
    "MOSAIC"
],
  "ImagingFrequency": 123.252,
  "InPlanePhaseEncodingDirectionDICOM": "COL",
  "InstitutionAddress": "Maynard 3,Hanover,NH,US,03755",
  "InstitutionName": "Dartmouth College - PBS",
  "InstitutionalDepartmentName": "Department",
  "MRAcquisitionType": "2D",
  "MagneticFieldStrength": 3,
  "Manufacturer": "Siemens",
  "ManufacturersModelName": "Prisma",
  "Modality": "MR",
  "MultibandAccelerationFactor": 8,
  "PartialFourier": 1,
  "PatientPosition": "HFS",
  "PercentPhaseFOV": 100,
  "PercentSampling": 100,
  "PhaseEncodingDirection": "j-",
  "PhaseEncodingSteps": 82,
  "PhaseResolution": 1,
  "PixelBandwidth": 3050,
  "ProcedureStepDescription": "Wager_Wager^1076_spacetop",
  "ProtocolName": "func_run-01_task-faces_acq-ap-mb8",
  "PulseSequenceDetails": "%CustomerSeq%\\cmrr_mbep2d_bold",
  "ReceiveCoilActiveElements": "HEA;HEP",
  "ReceiveCoilName": "Head_32",
  "ReconMatrixPE": 82,
  "RepetitionTime": 0.46,
  "SAR": 0.0837683,
  "ScanOptions": "FS",
  "ScanningSequence": "EP",
  "SequenceName": "epfid2d1_82",
  "SequenceVariant": "SK\\SS",
  "SeriesDescription": "func_run-01_task-faces_acq-ap-mb8",
  "SeriesNumber": 16,
  "ShimSetting": [4141, -7775, -7292, 597, -79, -340, 13, 86],
  "SliceThickness": 2.7,
  "SliceTiming": [0, 0.25, 0.0625, 0.3125, 0.125, 0.375, 0.1875, 0, 0.25, 0.0625, 0.3125, 0.125, 0.375, 0.1875, 0, 0.25, 0.0625, 0.3125, 0.125, 0.375, 0.1875, 0, 0.25, 0.0625, 0.3125, 0.125, 0.375, 0.1875, 0, 0.25, 0.0625, 0.3125, 0.125, 0.375, 0.1875, 0, 0.25, 0.0625, 0.3125, 0.125, 0.375, 0.1875, 0, 0.25, 0.0625, 0.3125, 0.125, 0.375, 0.1875, 0, 0.25, 0.0625, 0.3125, 0.125, 0.375, 0.1875],
  "SoftwareVersions": "syngo MR E11",
  "SpacingBetweenSlices": 2.7,
  "StationName": "AWP66112",
  "TaskName": "faces",
  "TotalReadoutTime": 0.03969,
  "TxRefAmp": 233.113,
  "WipMemBlock": "b80640ba-3ee7-45f6-87f9-fb092bfd7ec4||Sequence: R016 ve11c/master r/e634e98; Dec 19 2017 11:00:25 by eja",
  "dcmmeta_affine": [
    [-2.6773104667663574, -0.15296639502048492, 0.0824146643280983, 115.42499542236328],
    [-0.15207302570343018, 2.6784305572509766, 0.031498417258262634, -96.7724838256836],
    [0.08354080468416214, -0.02659185230731964, 2.6985580921173096, -81.25922393798828],
    [0.0, 0.0, 0.0, 1.0]
],
  "dcmmeta_reorient_transform": [
    [0.0, -1.0, 0.0, 81.0],
    [1.0, 0.0, 0.0, 0.0],
    [0.0, 0.0, 1.0, 0.0],
    [0.0, 0.0, 0.0, 1.0]
],
  "dcmmeta_shape": [82, 82, 56, 914],
  "dcmmeta_slice_dim": 2,
  "dcmmeta_version": 0.6,
  "global": {
    "const": {
      "AccessionNumber": "A003833",
      "AcquisitionMatrix": [82, 0, 0, 82],
      "AngioFlag": "N",
      "BitsAllocated": 16,
      "BitsStored": 16,
      "BodyPartExamined": "BRAIN",
      "Columns": 656,
      "EchoNumbers": 1,
      "EchoTime": 27.2,
      "EchoTrainLength": 82,
      "FlipAngle": 44.0,
      "HighBit": 15,
      "ImageOrientationPatient": [0.99790661237379, 0.05668176077536, 0.03113793467892, -0.057014747719, 0.99832413601287, 0.00991150829584],
      "ImagePositionPatient": [-827.5214710018, -932.53496060665, -115.02123864535],
      "ImageType": [
        "ORIGINAL",
        "PRIMARY",
        "M",
        "MB",
        "ND",
        "NORM",
        "MOSAIC"
],
      "ImagedNucleus": "1H",
      "ImagingFrequency": 123.252256,
      "InPlanePhaseEncodingDirection": "COL",
      "MRAcquisitionType": "2D",
      "MagneticFieldStrength": 3.0,
      "Manufacturer": "SIEMENS",
      "ManufacturerModelName": "Prisma",
      "Modality": "MR",
      "NumberOfAverages": 1.0,
      "NumberOfPhaseEncodingSteps": 82,
      "PercentPhaseFieldOfView": 100.0,
      "PercentSampling": 100.0,
      "PerformedProcedureStepStartTime": "105128.066000",
      "PhotometricInterpretation": "MONOCHROME2",
      "PixelBandwidth": 3050.0,
      "PixelRepresentation": 0,
      "PixelSpacing": [2.6829268932343, 2.6829268932343],
      "ProtocolName": "func_run-01_task-faces_acq-ap-mb8",
      "RepetitionTime": 460.0,
      "Rows": 656,
      "SAR": 0.08376829414529,
      "SamplesPerPixel": 1,
      "ScanOptions": "FS",
      "ScanningSequence": "EP",
      "SequenceName": "epfid2d1_82",
      "SequenceVariant": [
        "SK",
        "SS"
],
      "SeriesDescription": "func_run-01_task-faces_acq-ap-mb8",
      "SeriesNumber": 16,
      "SeriesTime": "113407.425000",
      "SliceLocation": -78.821559355896,
      "SliceThickness": 2.7000000476837,
      "SmallestImagePixelValue": 0,
      "SoftwareVersions": "syngo MR E11",
      "SpacingBetweenSlices": 2.6999999715741,
      "SpecificCharacterSet": "ISO_IR 100",
      "StudyID": "1",
      "StudyTime": "105128.004000",
      "TransmitCoilName": "Body",
      "VariableFlipAngleFlag": "N",
      "WindowCenterWidthExplanation": "Algo1",
      "dBdt": 0.0},
    "slices": {}
  },
  "time": {
    "samples": {
      "AcquisitionNumber": [1, 2, 3, 4, 5, 6, 7, 8, 9, 10, 11, 12, 13, 14, 15, 16, 17, 18, 19, 20, 21, 22, 23, 24, 25, 26, 27, 28, 29, 30, 31, 32, 33, 34, 35, 36, 37, 38, 39, 40, 41, 42, 43, 44, 45, 46, 47, 48, 49, 50, 51, 52, 53, 54, 55, 56, 57, 58, 59, 60, 61, 62, 63, 64, 65, 66, 67, 68, 69, 70, 71, 72, 73, 74, 75, 76, 77, 78, 79, 80, 81, 82, 83, 84, 85, 86, 87, 88, 89, 90, 91, 92, 93, 94, 95, 96, 97, 98, 99, 100, 101, 102, 103, 104, 105, 106, 107, 108, 109, 110, 111, 112, 113, 114, 115, 116, 117, 118, 119, 120, 121, 122, 123, 124, 125, 126, 127, 128, 129, 130, 131, 132, 133, 134, 135, 136, 137, 138, 139, 140, 141, 142, 143, 144, 145, 146, 147, 148, 149, 150, 151, 152, 153, 154, 155, 156, 157, 158, 159, 160, 161, 162, 163, 164, 165, 166, 167, 168, 169, 170, 171, 172, 173, 174, 175, 176, 177, 178, 179, 180, 181, 182, 183, 184, 185, 186, 187, 188, 189, 190, 191, 192, 193, 194, 195, 196, 197, 198, 199, 200, 201, 202, 203, 204, 205, 206, 207, 208, 209, 210, 211, 212, 213, 214, 215, 216, 217, 218, 219, 220, 221, 222, 223, 224, 225, 226, 227, 228, 229, 230, 231, 232, 233, 234, 235, 236, 237, 238, 239, 240, 241, 242, 243, 244, 245, 246, 247, 248, 249, 250, 251, 252, 253, 254, 255, 256, 257, 258, 259, 260, 261, 262, 263, 264, 265, 266, 267, 268, 269, 270, 271, 272, 273, 274, 275, 276, 277, 278, 279, 280, 281, 282, 283, 284, 285, 286, 287, 288, 289, 290, 291, 292, 293, 294, 295, 296, 297, 298, 299, 300, 301, 302, 303, 304, 305, 306, 307, 308, 309, 310, 311, 312, 313, 314, 315, 316, 317, 318, 319, 320, 321, 322, 323, 324, 325, 326, 327, 328, 329, 330, 331, 332, 333, 334, 335, 336, 337, 338, 339, 340, 341, 342, 343, 344, 345, 346, 347, 348, 349, 350, 351, 352, 353, 354, 355, 356, 357, 358, 359, 360, 361, 362, 363, 364, 365, 366, 367, 368, 369, 370, 371, 372, 373, 374, 375, 376, 377, 378, 379, 380, 381, 382, 383, 384, 385, 386, 387, 388, 389, 390, 391, 392, 393, 394, 395, 396, 397, 398, 399, 400, 401, 402, 403, 404, 405, 406, 407, 408, 409, 410, 411, 412, 413, 414, 415, 416, 417, 418, 419, 420, 421, 422, 423, 424, 425, 426, 427, 428, 429, 430, 431, 432, 433, 434, 435, 436, 437, 438, 439, 440, 441, 442, 443, 444, 445, 446, 447, 448, 449, 450, 451, 452, 453, 454, 455, 456, 457, 458, 459, 460, 461, 462, 463, 464, 465, 466, 467, 468, 469, 470, 471, 472, 473, 474, 475, 476, 477, 478, 479, 480, 481, 482, 483, 484, 485, 486, 487, 488, 489, 490, 491, 492, 493, 494, 495, 496, 497, 498, 499, 500, 501, 502, 503, 504, 505, 506, 507, 508, 509, 510, 511, 512, 513, 514, 515, 516, 517, 518, 519, 520, 521, 522, 523, 524, 525, 526, 527, 528, 529, 530, 531, 532, 533, 534, 535, 536, 537, 538, 539, 540, 541, 542, 543, 544, 545, 546, 547, 548, 549, 550, 551, 552, 553, 554, 555, 556, 557, 558, 559, 560, 561, 562, 563, 564, 565, 566, 567, 568, 569, 570, 571, 572, 573, 574, 575, 576, 577, 578, 579, 580, 581, 582, 583, 584, 585, 586, 587, 588, 589, 590, 591, 592, 593, 594, 595, 596, 597, 598, 599, 600, 601, 602, 603, 604, 605, 606, 607, 608, 609, 610, 611, 612, 613, 614, 615, 616, 617, 618, 619, 620, 621, 622, 623, 624, 625, 626, 627, 628, 629, 630, 631, 632, 633, 634, 635, 636, 637, 638, 639, 640, 641, 642, 643, 644, 645, 646, 647, 648, 649, 650, 651, 652, 653, 654, 655, 656, 657, 658, 659, 660, 661, 662, 663, 664, 665, 666, 667, 668, 669, 670, 671, 672, 673, 674, 675, 676, 677, 678, 679, 680, 681, 682, 683, 684, 685, 686, 687, 688, 689, 690, 691, 692, 693, 694, 695, 696, 697, 698, 699, 700, 701, 702, 703, 704, 705, 706, 707, 708, 709, 710, 711, 712, 713, 714, 715, 716, 717, 718, 719, 720, 721, 722, 723, 724, 725, 726, 727, 728, 729, 730, 731, 732, 733, 734, 735, 736, 737, 738, 739, 740, 741, 742, 743, 744, 745, 746, 747, 748, 749, 750, 751, 752, 753, 754, 755, 756, 757, 758, 759, 760, 761, 762, 763, 764, 765, 766, 767, 768, 769, 770, 771, 772, 773, 774, 775, 776, 777, 778, 779, 780, 781, 782, 783, 784, 785, 786, 787, 788, 789, 790, 791, 792, 793, 794, 795, 796, 797, 798, 799, 800, 801, 802, 803, 804, 805, 806, 807, 808, 809, 810, 811, 812, 813, 814, 815, 816, 817, 818, 819, 820, 821, 822, 823, 824, 825, 826, 827, 828, 829, 830, 831, 832, 833, 834, 835, 836, 837, 838, 839, 840, 841, 842, 843, 844, 845, 846, 847, 848, 849, 850, 851, 852, 853, 854, 855, 856, 857, 858, 859, 860, 861, 862, 863, 864, 865, 866, 867, 868, 869, 870, 871, 872, 873, 874, 875, 876, 877, 878, 879, 880, 881, 882, 883, 884, 885, 886, 887, 888, 889, 890, 891, 892, 893, 894, 895, 896, 897, 898, 899, 900, 901, 902, 903, 904, 905, 906, 907, 908, 909, 910, 911, 912, 913, 914],
      "AcquisitionTime": ["113348.097500", "113348.557500", "113349.017500", "113349.477500", "113349.937500", "113350.397500", "113350.857500", "113351.317500", "113351.777500", "113352.237500", "113352.697500", "113353.157500", "113353.617500", "113354.077500", "113354.537500", "113354.997500", "113355.457500", "113355.917500", "113356.377500", "113356.837500", "113357.297500", "113357.757500", "113358.217500", "113358.677500", "113359.137500", "113359.597500", "113400.057500", "113400.517500", "113400.977500", "113401.437500", "113401.897500", "113402.357500", "113402.817500", "113403.277500", "113403.737500", "113404.197500", "113404.657500", "113405.117500", "113405.577500", "113406.037500", "113406.497500", "113406.957500", "113407.417500", "113407.877500", "113408.337500", "113408.797500", "113409.257500", "113409.717500", "113410.177500", "113410.637500", "113411.097500", "113411.557500", "113412.017500", "113412.477500", "113412.937500", "113413.397500", "113413.857500", "113414.317500", "113414.777500", "113415.237500", "113415.697500", "113416.157500", "113416.617500", "113417.077500", "113417.537500", "113417.997500", "113418.457500", "113418.917500", "113419.377500", "113419.837500", "113420.297500", "113420.757500", "113421.217500", "113421.677500", "113422.137500", "113422.597500", "113423.057500", "113423.517500", "113423.977500", "113424.437500", "113424.897500", "113425.357500", "113425.817500", "113426.277500", "113426.737500", "113427.197500", "113427.657500", "113428.117500", "113428.577500", "113429.037500", "113429.497500", "113429.957500", "113430.417500", "113430.877500", "113431.337500", "113431.797500", "113432.257500", "113432.717500", "113433.177500", "113433.637500", "113434.097500", "113434.557500", "113435.017500", "113435.477500", "113435.937500", "113436.397500", "113436.857500", "113437.317500", "113437.777500", "113438.237500", "113438.697500", "113439.157500", "113439.617500", "113440.077500", "113440.537500", "113440.997500", "113441.457500", "113441.917500", "113442.377500", "113442.837500", "113443.297500", "113443.757500", "113444.217500", "113444.677500", "113445.137500", "113445.597500", "113446.057500", "113446.517500", "113446.977500", "113447.437500", "113447.897500", "113448.357500", "113448.817500", "113449.277500", "113449.737500", "113450.197500", "113450.657500", "113451.117500", "113451.577500", "113452.037500", "113452.497500", "113452.957500", "113453.417500", "113453.877500", "113454.337500", "113454.797500", "113455.257500", "113455.717500", "113456.177500", "113456.637500", "113457.097500", "113457.557500", "113458.017500", "113458.477500", "113458.937500", "113459.397500", "113459.857500", "113500.317500", "113500.777500", "113501.237500", "113501.697500", "113502.157500", "113502.617500", "113503.077500", "113503.537500", "113503.997500", "113504.457500", "113504.917500", "113505.377500", "113505.837500", "113506.297500", "113506.757500", "113507.217500", "113507.677500", "113508.137500", "113508.597500", "113509.057500", "113509.517500", "113509.977500", "113510.437500", "113510.897500", "113511.357500", "113511.817500", "113512.277500", "113512.737500", "113513.197500", "113513.657500", "113514.117500", "113514.577500", "113515.037500", "113515.497500", "113515.957500", "113516.417500", "113516.877500", "113517.337500", "113517.797500", "113518.257500", "113518.717500", "113519.177500", "113519.637500", "113520.097500", "113520.557500", "113521.017500", "113521.477500", "113521.937500", "113522.397500", "113522.857500", "113523.317500", "113523.777500", "113524.237500", "113524.697500", "113525.157500", "113525.617500", "113526.077500", "113526.537500", "113526.997500", "113527.457500", "113527.917500", "113528.377500", "113528.837500", "113529.297500", "113529.757500", "113530.217500", "113530.677500", "113531.137500", "113531.597500", "113532.057500", "113532.517500", "113532.977500", "113533.437500", "113533.897500", "113534.357500", "113534.817500", "113535.277500", "113535.737500", "113536.197500", "113536.657500", "113537.117500", "113537.577500", "113538.037500", "113538.497500", "113538.957500", "113539.417500", "113539.877500", "113540.337500", "113540.797500", "113541.257500", "113541.717500", "113542.177500", "113542.637500", "113543.097500", "113543.557500", "113544.017500", "113544.477500", "113544.937500", "113545.397500", "113545.857500", "113546.317500", "113546.777500", "113547.237500", "113547.697500", "113548.157500", "113548.617500", "113549.077500", "113549.537500", "113549.997500", "113550.457500", "113550.917500", "113551.377500", "113551.837500", "113552.297500", "113552.757500", "113553.217500", "113553.677500", "113554.137500", "113554.597500", "113555.057500", "113555.517500", "113555.977500", "113556.437500", "113556.897500", "113557.357500", "113557.817500", "113558.277500", "113558.737500", "113559.197500", "113559.657500", "113600.117500", "113600.577500", "113601.037500", "113601.497500", "113601.957500", "113602.417500", "113602.877500", "113603.337500", "113603.797500", "113604.257500", "113604.717500", "113605.177500", "113605.637500", "113606.097500", "113606.557500", "113607.017500", "113607.477500", "113607.937500", "113608.397500", "113608.857500", "113609.317500", "113609.777500", "113610.237500", "113610.697500", "113611.157500", "113611.617500", "113612.077500", "113612.537500", "113612.997500", "113613.457500", "113613.917500", "113614.377500", "113614.837500", "113615.297500", "113615.757500", "113616.217500", "113616.677500", "113617.137500", "113617.597500", "113618.057500", "113618.517500", "113618.977500", "113619.437500", "113619.897500", "113620.357500", "113620.817500", "113621.277500", "113621.737500", "113622.197500", "113622.657500", "113623.117500", "113623.577500", "113624.037500", "113624.497500", "113624.957500", "113625.417500", "113625.877500", "113626.337500", "113626.797500", "113627.257500", "113627.717500", "113628.177500", "113628.637500", "113629.097500", "113629.557500", "113630.017500", "113630.477500", "113630.937500", "113631.397500", "113631.857500", "113632.317500", "113632.777500", "113633.237500", "113633.697500", "113634.157500", "113634.617500", "113635.077500", "113635.537500", "113635.997500", "113636.457500", "113636.917500", "113637.377500", "113637.837500", "113638.297500", "113638.757500", "113639.217500", "113639.677500", "113640.137500", "113640.597500", "113641.057500", "113641.517500", "113641.977500", "113642.437500", "113642.897500", "113643.357500", "113643.817500", "113644.277500", "113644.737500", "113645.197500", "113645.657500", "113646.117500", "113646.577500", "113647.037500", "113647.497500", "113647.957500", "113648.417500", "113648.877500", "113649.337500", "113649.797500", "113650.257500", "113650.717500", "113651.177500", "113651.637500", "113652.097500", "113652.557500", "113653.017500", "113653.477500", "113653.937500", "113654.397500", "113654.857500", "113655.317500", "113655.777500", "113656.237500", "113656.697500", "113657.157500", "113657.617500", "113658.077500", "113658.537500", "113658.997500", "113659.457500", "113659.917500", "113700.377500", "113700.837500", "113701.297500", "113701.757500", "113702.217500", "113702.677500", "113703.137500", "113703.597500", "113704.057500", "113704.517500", "113704.977500", "113705.437500", "113705.897500", "113706.357500", "113706.817500", "113707.277500", "113707.737500", "113708.197500", "113708.657500", "113709.117500", "113709.577500", "113710.037500", "113710.497500", "113710.957500", "113711.417500", "113711.877500", "113712.337500", "113712.797500", "113713.257500", "113713.717500", "113714.177500", "113714.637500", "113715.097500", "113715.557500", "113716.017500", "113716.477500", "113716.937500", "113717.397500", "113717.857500", "113718.317500", "113718.777500", "113719.237500", "113719.697500", "113720.157500", "113720.617500", "113721.077500", "113721.537500", "113721.997500", "113722.457500", "113722.917500", "113723.377500", "113723.837500", "113724.297500", "113724.757500", "113725.217500", "113725.677500", "113726.137500", "113726.597500", "113727.057500", "113727.517500", "113727.977500", "113728.437500", "113728.897500", "113729.357500", "113729.817500", "113730.277500", "113730.737500", "113731.197500", "113731.657500", "113732.117500", "113732.577500", "113733.037500", "113733.497500", "113733.957500", "113734.417500", "113734.877500", "113735.337500", "113735.797500", "113736.257500", "113736.717500", "113737.177500", "113737.637500", "113738.097500", "113738.557500", "113739.017500", "113739.477500", "113739.937500", "113740.397500", "113740.857500", "113741.317500", "113741.777500", "113742.237500", "113742.697500", "113743.157500", "113743.617500", "113744.077500", "113744.537500", "113744.997500", "113745.457500", "113745.917500", "113746.377500", "113746.837500", "113747.297500", "113747.757500", "113748.217500", "113748.677500", "113749.137500", "113749.597500", "113750.057500", "113750.517500", "113750.977500", "113751.437500", "113751.897500", "113752.357500", "113752.817500", "113753.277500", "113753.737500", "113754.197500", "113754.657500", "113755.117500", "113755.577500", "113756.037500", "113756.497500", "113756.957500", "113757.417500", "113757.877500", "113758.337500", "113758.797500", "113759.257500", "113759.717500", "113800.177500", "113800.637500", "113801.097500", "113801.557500", "113802.017500", "113802.477500", "113802.937500", "113803.397500", "113803.857500", "113804.317500", "113804.777500", "113805.237500", "113805.697500", "113806.157500", "113806.617500", "113807.077500", "113807.537500", "113807.997500", "113808.457500", "113808.917500", "113809.377500", "113809.837500", "113810.297500", "113810.757500", "113811.217500", "113811.677500", "113812.137500", "113812.597500", "113813.057500", "113813.517500", "113813.977500", "113814.437500", "113814.897500", "113815.357500", "113815.817500", "113816.277500", "113816.737500", "113817.197500", "113817.657500", "113818.117500", "113818.577500", "113819.037500", "113819.497500", "113819.957500", "113820.417500", "113820.877500", "113821.337500", "113821.797500", "113822.257500", "113822.717500", "113823.177500", "113823.637500", "113824.097500", "113824.557500", "113825.017500", "113825.477500", "113825.937500", "113826.397500", "113826.857500", "113827.317500", "113827.777500", "113828.237500", "113828.697500", "113829.157500", "113829.617500", "113830.077500", "113830.537500", "113830.997500", "113831.457500", "113831.917500", "113832.377500", "113832.837500", "113833.297500", "113833.757500", "113834.217500", "113834.677500", "113835.137500", "113835.597500", "113836.057500", "113836.517500", "113836.977500", "113837.437500", "113837.897500", "113838.357500", "113838.817500", "113839.277500", "113839.737500", "113840.197500", "113840.657500", "113841.117500", "113841.577500", "113842.037500", "113842.497500", "113842.957500", "113843.417500", "113843.877500", "113844.337500", "113844.797500", "113845.257500", "113845.717500", "113846.177500", "113846.637500", "113847.097500", "113847.557500", "113848.017500", "113848.477500", "113848.937500", "113849.397500", "113849.857500", "113850.317500", "113850.777500", "113851.237500", "113851.697500", "113852.157500", "113852.617500", "113853.077500", "113853.537500", "113853.997500", "113854.457500", "113854.917500", "113855.377500", "113855.837500", "113856.297500", "113856.757500", "113857.217500", "113857.677500", "113858.137500", "113858.597500", "113859.057500", "113859.517500", "113859.977500", "113900.437500", "113900.897500", "113901.357500", "113901.817500", "113902.277500", "113902.737500", "113903.197500", "113903.657500", "113904.117500", "113904.577500", "113905.037500", "113905.497500", "113905.957500", "113906.417500", "113906.877500", "113907.337500", "113907.797500", "113908.257500", "113908.717500", "113909.177500", "113909.637500", "113910.097500", "113910.557500", "113911.017500", "113911.477500", "113911.937500", "113912.397500", "113912.857500", "113913.317500", "113913.777500", "113914.237500", "113914.697500", "113915.157500", "113915.617500", "113916.077500", "113916.537500", "113916.997500", "113917.457500", "113917.917500", "113918.377500", "113918.837500", "113919.297500", "113919.757500", "113920.217500", "113920.677500", "113921.137500", "113921.597500", "113922.057500", "113922.517500", "113922.977500", "113923.437500", "113923.897500", "113924.357500", "113924.817500", "113925.277500", "113925.737500", "113926.197500", "113926.657500", "113927.117500", "113927.577500", "113928.037500", "113928.497500", "113928.957500", "113929.417500", "113929.877500", "113930.337500", "113930.797500", "113931.257500", "113931.717500", "113932.177500", "113932.637500", "113933.097500", "113933.557500", "113934.017500", "113934.477500", "113934.937500", "113935.397500", "113935.857500", "113936.317500", "113936.777500", "113937.237500", "113937.697500", "113938.157500", "113938.617500", "113939.077500", "113939.537500", "113939.997500", "113940.457500", "113940.917500", "113941.377500", "113941.837500", "113942.297500", "113942.757500", "113943.217500", "113943.677500", "113944.137500", "113944.597500", "113945.057500", "113945.517500", "113945.977500", "113946.437500", "113946.897500", "113947.357500", "113947.817500", "113948.277500", "113948.737500", "113949.197500", "113949.657500", "113950.117500", "113950.577500", "113951.037500", "113951.497500", "113951.957500", "113952.417500", "113952.877500", "113953.337500", "113953.797500", "113954.257500", "113954.717500", "113955.177500", "113955.637500", "113956.097500", "113956.557500", "113957.017500", "113957.477500", "113957.937500", "113958.397500", "113958.857500", "113959.317500", "113959.777500", "114000.237500", "114000.697500", "114001.157500", "114001.617500", "114002.077500", "114002.537500", "114002.997500", "114003.457500", "114003.917500", "114004.377500", "114004.837500", "114005.297500", "114005.757500", "114006.217500", "114006.677500", "114007.137500", "114007.597500", "114008.057500", "114008.517500", "114008.977500", "114009.437500", "114009.897500", "114010.357500", "114010.817500", "114011.277500", "114011.737500", "114012.197500", "114012.657500", "114013.117500", "114013.577500", "114014.037500", "114014.497500", "114014.957500", "114015.417500", "114015.877500", "114016.337500", "114016.797500", "114017.257500", "114017.717500", "114018.177500", "114018.637500", "114019.097500", "114019.557500", "114020.017500", "114020.477500", "114020.937500", "114021.397500", "114021.857500", "114022.317500", "114022.777500", "114023.237500", "114023.697500", "114024.157500", "114024.617500", "114025.077500", "114025.537500", "114025.997500", "114026.457500", "114026.917500", "114027.377500", "114027.837500", "114028.297500", "114028.757500", "114029.217500", "114029.677500", "114030.137500", "114030.597500", "114031.057500", "114031.517500", "114031.977500", "114032.437500", "114032.897500", "114033.357500", "114033.817500", "114034.277500", "114034.737500", "114035.197500", "114035.657500", "114036.117500", "114036.577500", "114037.037500", "114037.497500", "114037.957500", "114038.417500", "114038.877500", "114039.337500", "114039.797500", "114040.257500", "114040.717500", "114041.177500", "114041.637500", "114042.097500", "114042.557500", "114043.017500", "114043.477500", "114043.937500", "114044.397500", "114044.857500", "114045.317500", "114045.777500", "114046.237500", "114046.697500", "114047.157500", "114047.617500", "114048.077500"],
