{
  "AcquisitionMatrixPE": 82,
  "AcquisitionNumber": 1,
  "AcquisitionTime": "11:49:19.710000",
  "BandwidthPerPixelPhaseEncode": 24.888,
  "BaseResolution": 82,
  "BodyPartExamined": "BRAIN",
  "ConsistencyInfo": "N4_VE11C_LATEST_20160120",
  "ConversionSoftware": "dcm2niix",
  "ConversionSoftwareVersion": "v1.0.20201102",
  "DerivedVendorReportedEchoSpacing": 0.00049,
  "DeviceSerialNumber": "66112",
  "DwellTime": 2e-06,
  "EchoTime": 0.0272,
  "EchoTrainLength": 82,
  "EffectiveEchoSpacing": 0.00049,
  "FlipAngle": 44,
  "ImageComments": "Unaliased MB8/PE3",
  "ImageOrientationPatientDICOM": [0.997907, 0.0566818, 0.0311379, -0.0570147, 0.998324, 0.00991151],
  "ImageType": [
    "ORIGINAL",
    "PRIMARY",
    "M",
    "MB",
    "ND",
    "NORM",
    "MOSAIC"
],
  "ImagingFrequency": 123.252,
  "InPlanePhaseEncodingDirectionDICOM": "COL",
  "InstitutionAddress": "Maynard 3,Hanover,NH,US,03755",
  "InstitutionName": "Dartmouth College - PBS",
  "InstitutionalDepartmentName": "Department",
  "MRAcquisitionType": "2D",
  "MagneticFieldStrength": 3,
  "Manufacturer": "Siemens",
  "ManufacturersModelName": "Prisma",
  "Modality": "MR",
  "MultibandAccelerationFactor": 8,
  "PartialFourier": 1,
  "PatientPosition": "HFS",
  "PercentPhaseFOV": 100,
  "PercentSampling": 100,
  "PhaseEncodingDirection": "j-",
  "PhaseEncodingSteps": 82,
  "PhaseResolution": 1,
  "PixelBandwidth": 3050,
  "ProcedureStepDescription": "Wager_Wager^1076_spacetop",
  "ProtocolName": "func_run-02_task-faces_acq-ap-mb8",
  "PulseSequenceDetails": "%CustomerSeq%\\cmrr_mbep2d_bold",
  "ReceiveCoilActiveElements": "HEA;HEP",
  "ReceiveCoilName": "Head_32",
  "ReconMatrixPE": 82,
  "RepetitionTime": 0.46,
  "SAR": 0.0837683,
  "ScanOptions": "FS",
  "ScanningSequence": "EP",
  "SequenceName": "epfid2d1_82",
  "SequenceVariant": "SK\\SS",
  "SeriesDescription": "func_run-02_task-faces_acq-ap-mb8",
  "SeriesNumber": 18,
  "ShimSetting": [4141, -7775, -7292, 597, -79, -340, 13, 86],
  "SliceThickness": 2.7,
  "SliceTiming": [0, 0.2525, 0.0625, 0.315, 0.1275, 0.3775, 0.19, 0, 0.2525, 0.0625, 0.315, 0.1275, 0.3775, 0.19, 0, 0.2525, 0.0625, 0.315, 0.1275, 0.3775, 0.19, 0, 0.2525, 0.0625, 0.315, 0.1275, 0.3775, 0.19, 0, 0.2525, 0.0625, 0.315, 0.1275, 0.3775, 0.19, 0, 0.2525, 0.0625, 0.315, 0.1275, 0.3775, 0.19, 0, 0.2525, 0.0625, 0.315, 0.1275, 0.3775, 0.19, 0, 0.2525, 0.0625, 0.315, 0.1275, 0.3775, 0.19],
  "SoftwareVersions": "syngo MR E11",
  "SpacingBetweenSlices": 2.7,
  "StationName": "AWP66112",
  "TaskName": "faces",
  "TotalReadoutTime": 0.03969,
  "TxRefAmp": 233.113,
  "WipMemBlock": "c3c0ce2b-f7a2-479a-bbf8-413af9df2170||Sequence: R016 ve11c/master r/e634e98; Dec 19 2017 11:00:25 by eja",
  "dcmmeta_affine": [
    [-2.6773104667663574, -0.15296639502048492, 0.0824146643280983, 115.42499542236328],
    [-0.15207302570343018, 2.6784305572509766, 0.031498417258262634, -96.7724838256836],
    [0.08354080468416214, -0.02659185230731964, 2.6985580921173096, -81.25922393798828],
    [0.0, 0.0, 0.0, 1.0]
],
  "dcmmeta_reorient_transform": [
    [0.0, -1.0, 0.0, 81.0],
    [1.0, 0.0, 0.0, 0.0],
    [0.0, 0.0, 1.0, 0.0],
    [0.0, 0.0, 0.0, 1.0]
],
  "dcmmeta_shape": [82, 82, 56, 914],
  "dcmmeta_slice_dim": 2,
  "dcmmeta_version": 0.6,
  "global": {
    "const": {
      "AccessionNumber": "A003833",
      "AcquisitionMatrix": [82, 0, 0, 82],
      "AngioFlag": "N",
      "BitsAllocated": 16,
      "BitsStored": 16,
      "BodyPartExamined": "BRAIN",
      "Columns": 656,
      "EchoNumbers": 1,
      "EchoTime": 27.2,
      "EchoTrainLength": 82,
      "FlipAngle": 44.0,
      "HighBit": 15,
      "ImageOrientationPatient": [0.99790661237379, 0.05668176077536, 0.03113793467892, -0.057014747719, 0.99832413601287, 0.00991150829584],
      "ImagePositionPatient": [-827.5214710018, -932.53496060665, -115.02123864535],
      "ImageType": [
        "ORIGINAL",
        "PRIMARY",
        "M",
        "MB",
        "ND",
        "NORM",
        "MOSAIC"
],
      "ImagedNucleus": "1H",
      "ImagingFrequency": 123.252257,
      "InPlanePhaseEncodingDirection": "COL",
      "MRAcquisitionType": "2D",
      "MagneticFieldStrength": 3.0,
      "Manufacturer": "SIEMENS",
      "ManufacturerModelName": "Prisma",
      "Modality": "MR",
      "NumberOfAverages": 1.0,
      "NumberOfPhaseEncodingSteps": 82,
      "PercentPhaseFieldOfView": 100.0,
      "PercentSampling": 100.0,
      "PerformedProcedureStepStartTime": "105128.066000",
      "PhotometricInterpretation": "MONOCHROME2",
      "PixelBandwidth": 3050.0,
      "PixelRepresentation": 0,
      "PixelSpacing": [2.6829268932343, 2.6829268932343],
      "ProtocolName": "func_run-02_task-faces_acq-ap-mb8",
      "RepetitionTime": 460.0,
      "Rows": 656,
      "SAR": 0.08376829414529,
      "SamplesPerPixel": 1,
      "ScanOptions": "FS",
      "ScanningSequence": "EP",
      "SequenceName": "epfid2d1_82",
      "SequenceVariant": [
        "SK",
        "SS"
],
      "SeriesDescription": "func_run-02_task-faces_acq-ap-mb8",
      "SeriesNumber": 18,
      "SeriesTime": "114927.489000",
      "SliceLocation": -78.821559355896,
      "SliceThickness": 2.7000000476837,
      "SmallestImagePixelValue": 0,
      "SoftwareVersions": "syngo MR E11",
      "SpacingBetweenSlices": 2.6999999715741,
      "SpecificCharacterSet": "ISO_IR 100",
      "StudyID": "1",
      "StudyTime": "105128.004000",
      "TransmitCoilName": "Body",
      "VariableFlipAngleFlag": "N",
      "WindowCenterWidthExplanation": "Algo1",
      "dBdt": 0.0},
    "slices": {}
  },
  "time": {
    "samples": {
      "AcquisitionNumber": [1, 2, 3, 4, 5, 6, 7, 8, 9, 10, 11, 12, 13, 14, 15, 16, 17, 18, 19, 20, 21, 22, 23, 24, 25, 26, 27, 28, 29, 30, 31, 32, 33, 34, 35, 36, 37, 38, 39, 40, 41, 42, 43, 44, 45, 46, 47, 48, 49, 50, 51, 52, 53, 54, 55, 56, 57, 58, 59, 60, 61, 62, 63, 64, 65, 66, 67, 68, 69, 70, 71, 72, 73, 74, 75, 76, 77, 78, 79, 80, 81, 82, 83, 84, 85, 86, 87, 88, 89, 90, 91, 92, 93, 94, 95, 96, 97, 98, 99, 100, 101, 102, 103, 104, 105, 106, 107, 108, 109, 110, 111, 112, 113, 114, 115, 116, 117, 118, 119, 120, 121, 122, 123, 124, 125, 126, 127, 128, 129, 130, 131, 132, 133, 134, 135, 136, 137, 138, 139, 140, 141, 142, 143, 144, 145, 146, 147, 148, 149, 150, 151, 152, 153, 154, 155, 156, 157, 158, 159, 160, 161, 162, 163, 164, 165, 166, 167, 168, 169, 170, 171, 172, 173, 174, 175, 176, 177, 178, 179, 180, 181, 182, 183, 184, 185, 186, 187, 188, 189, 190, 191, 192, 193, 194, 195, 196, 197, 198, 199, 200, 201, 202, 203, 204, 205, 206, 207, 208, 209, 210, 211, 212, 213, 214, 215, 216, 217, 218, 219, 220, 221, 222, 223, 224, 225, 226, 227, 228, 229, 230, 231, 232, 233, 234, 235, 236, 237, 238, 239, 240, 241, 242, 243, 244, 245, 246, 247, 248, 249, 250, 251, 252, 253, 254, 255, 256, 257, 258, 259, 260, 261, 262, 263, 264, 265, 266, 267, 268, 269, 270, 271, 272, 273, 274, 275, 276, 277, 278, 279, 280, 281, 282, 283, 284, 285, 286, 287, 288, 289, 290, 291, 292, 293, 294, 295, 296, 297, 298, 299, 300, 301, 302, 303, 304, 305, 306, 307, 308, 309, 310, 311, 312, 313, 314, 315, 316, 317, 318, 319, 320, 321, 322, 323, 324, 325, 326, 327, 328, 329, 330, 331, 332, 333, 334, 335, 336, 337, 338, 339, 340, 341, 342, 343, 344, 345, 346, 347, 348, 349, 350, 351, 352, 353, 354, 355, 356, 357, 358, 359, 360, 361, 362, 363, 364, 365, 366, 367, 368, 369, 370, 371, 372, 373, 374, 375, 376, 377, 378, 379, 380, 381, 382, 383, 384, 385, 386, 387, 388, 389, 390, 391, 392, 393, 394, 395, 396, 397, 398, 399, 400, 401, 402, 403, 404, 405, 406, 407, 408, 409, 410, 411, 412, 413, 414, 415, 416, 417, 418, 419, 420, 421, 422, 423, 424, 425, 426, 427, 428, 429, 430, 431, 432, 433, 434, 435, 436, 437, 438, 439, 440, 441, 442, 443, 444, 445, 446, 447, 448, 449, 450, 451, 452, 453, 454, 455, 456, 457, 458, 459, 460, 461, 462, 463, 464, 465, 466, 467, 468, 469, 470, 471, 472, 473, 474, 475, 476, 477, 478, 479, 480, 481, 482, 483, 484, 485, 486, 487, 488, 489, 490, 491, 492, 493, 494, 495, 496, 497, 498, 499, 500, 501, 502, 503, 504, 505, 506, 507, 508, 509, 510, 511, 512, 513, 514, 515, 516, 517, 518, 519, 520, 521, 522, 523, 524, 525, 526, 527, 528, 529, 530, 531, 532, 533, 534, 535, 536, 537, 538, 539, 540, 541, 542, 543, 544, 545, 546, 547, 548, 549, 550, 551, 552, 553, 554, 555, 556, 557, 558, 559, 560, 561, 562, 563, 564, 565, 566, 567, 568, 569, 570, 571, 572, 573, 574, 575, 576, 577, 578, 579, 580, 581, 582, 583, 584, 585, 586, 587, 588, 589, 590, 591, 592, 593, 594, 595, 596, 597, 598, 599, 600, 601, 602, 603, 604, 605, 606, 607, 608, 609, 610, 611, 612, 613, 614, 615, 616, 617, 618, 619, 620, 621, 622, 623, 624, 625, 626, 627, 628, 629, 630, 631, 632, 633, 634, 635, 636, 637, 638, 639, 640, 641, 642, 643, 644, 645, 646, 647, 648, 649, 650, 651, 652, 653, 654, 655, 656, 657, 658, 659, 660, 661, 662, 663, 664, 665, 666, 667, 668, 669, 670, 671, 672, 673, 674, 675, 676, 677, 678, 679, 680, 681, 682, 683, 684, 685, 686, 687, 688, 689, 690, 691, 692, 693, 694, 695, 696, 697, 698, 699, 700, 701, 702, 703, 704, 705, 706, 707, 708, 709, 710, 711, 712, 713, 714, 715, 716, 717, 718, 719, 720, 721, 722, 723, 724, 725, 726, 727, 728, 729, 730, 731, 732, 733, 734, 735, 736, 737, 738, 739, 740, 741, 742, 743, 744, 745, 746, 747, 748, 749, 750, 751, 752, 753, 754, 755, 756, 757, 758, 759, 760, 761, 762, 763, 764, 765, 766, 767, 768, 769, 770, 771, 772, 773, 774, 775, 776, 777, 778, 779, 780, 781, 782, 783, 784, 785, 786, 787, 788, 789, 790, 791, 792, 793, 794, 795, 796, 797, 798, 799, 800, 801, 802, 803, 804, 805, 806, 807, 808, 809, 810, 811, 812, 813, 814, 815, 816, 817, 818, 819, 820, 821, 822, 823, 824, 825, 826, 827, 828, 829, 830, 831, 832, 833, 834, 835, 836, 837, 838, 839, 840, 841, 842, 843, 844, 845, 846, 847, 848, 849, 850, 851, 852, 853, 854, 855, 856, 857, 858, 859, 860, 861, 862, 863, 864, 865, 866, 867, 868, 869, 870, 871, 872, 873, 874, 875, 876, 877, 878, 879, 880, 881, 882, 883, 884, 885, 886, 887, 888, 889, 890, 891, 892, 893, 894, 895, 896, 897, 898, 899, 900, 901, 902, 903, 904, 905, 906, 907, 908, 909, 910, 911, 912, 913, 914],
      "AcquisitionTime": ["114919.710000", "114920.170000", "114920.630000", "114921.090000", "114921.550000", "114922.010000", "114922.470000", "114922.930000", "114923.390000", "114923.850000", "114924.310000", "114924.770000", "114925.230000", "114925.690000", "114926.150000", "114926.610000", "114927.070000", "114927.530000", "114927.990000", "114928.450000", "114928.910000", "114929.370000", "114929.830000", "114930.290000", "114930.750000", "114931.210000", "114931.670000", "114932.130000", "114932.590000", "114933.050000", "114933.510000", "114933.970000", "114934.430000", "114934.890000", "114935.350000", "114935.810000", "114936.270000", "114936.730000", "114937.190000", "114937.650000", "114938.110000", "114938.570000", "114939.030000", "114939.490000", "114939.950000", "114940.410000", "114940.870000", "114941.330000", "114941.790000", "114942.250000", "114942.710000", "114943.170000", "114943.630000", "114944.090000", "114944.550000", "114945.010000", "114945.470000", "114945.930000", "114946.390000", "114946.850000", "114947.310000", "114947.770000", "114948.230000", "114948.690000", "114949.150000", "114949.610000", "114950.070000", "114950.530000", "114950.990000", "114951.450000", "114951.910000", "114952.370000", "114952.830000", "114953.290000", "114953.750000", "114954.210000", "114954.670000", "114955.130000", "114955.590000", "114956.050000", "114956.510000", "114956.970000", "114957.430000", "114957.890000", "114958.350000", "114958.810000", "114959.270000", "114959.730000", "115000.190000", "115000.650000", "115001.110000", "115001.570000", "115002.030000", "115002.490000", "115002.950000", "115003.410000", "115003.870000", "115004.330000", "115004.790000", "115005.250000", "115005.710000", "115006.170000", "115006.630000", "115007.090000", "115007.550000", "115008.010000", "115008.470000", "115008.930000", "115009.390000", "115009.850000", "115010.310000", "115010.770000", "115011.230000", "115011.690000", "115012.150000", "115012.610000", "115013.070000", "115013.530000", "115013.990000", "115014.450000", "115014.910000", "115015.370000", "115015.830000", "115016.290000", "115016.750000", "115017.210000", "115017.670000", "115018.130000", "115018.590000", "115019.050000", "115019.510000", "115019.970000", "115020.430000", "115020.890000", "115021.350000", "115021.810000", "115022.270000", "115022.730000", "115023.190000", "115023.650000", "115024.110000", "115024.570000", "115025.030000", "115025.490000", "115025.950000", "115026.410000", "115026.870000", "115027.330000", "115027.790000", "115028.250000", "115028.710000", "115029.170000", "115029.630000", "115030.090000", "115030.550000", "115031.010000", "115031.470000", "115031.930000", "115032.390000", "115032.850000", "115033.310000", "115033.770000", "115034.230000", "115034.690000", "115035.150000", "115035.610000", "115036.070000", "115036.530000", "115036.990000", "115037.450000", "115037.910000", "115038.370000", "115038.830000", "115039.290000", "115039.750000", "115040.210000", "115040.670000", "115041.130000", "115041.590000", "115042.050000", "115042.510000", "115042.970000", "115043.430000", "115043.890000", "115044.350000", "115044.810000", "115045.270000", "115045.730000", "115046.190000", "115046.650000", "115047.110000", "115047.570000", "115048.030000", "115048.490000", "115048.950000", "115049.410000", "115049.870000", "115050.330000", "115050.790000", "115051.250000", "115051.710000", "115052.170000", "115052.630000", "115053.090000", "115053.550000", "115054.010000", "115054.470000", "115054.930000", "115055.390000", "115055.850000", "115056.310000", "115056.770000", "115057.230000", "115057.690000", "115058.150000", "115058.610000", "115059.070000", "115059.530000", "115059.990000", "115100.450000", "115100.910000", "115101.370000", "115101.830000", "115102.290000", "115102.750000", "115103.210000", "115103.670000", "115104.130000", "115104.590000", "115105.050000", "115105.510000", "115105.970000", "115106.430000", "115106.890000", "115107.350000", "115107.810000", "115108.270000", "115108.730000", "115109.190000", "115109.650000", "115110.110000", "115110.570000", "115111.030000", "115111.490000", "115111.950000", "115112.410000", "115112.870000", "115113.330000", "115113.790000", "115114.250000", "115114.710000", "115115.170000", "115115.630000", "115116.090000", "115116.550000", "115117.010000", "115117.470000", "115117.930000", "115118.390000", "115118.850000", "115119.310000", "115119.770000", "115120.230000", "115120.690000", "115121.150000", "115121.610000", "115122.070000", "115122.530000", "115122.990000", "115123.450000", "115123.910000", "115124.370000", "115124.830000", "115125.290000", "115125.750000", "115126.210000", "115126.670000", "115127.130000", "115127.590000", "115128.050000", "115128.510000", "115128.970000", "115129.430000", "115129.890000", "115130.350000", "115130.810000", "115131.270000", "115131.730000", "115132.190000", "115132.650000", "115133.110000", "115133.570000", "115134.030000", "115134.490000", "115134.950000", "115135.410000", "115135.870000", "115136.330000", "115136.790000", "115137.250000", "115137.710000", "115138.170000", "115138.630000", "115139.090000", "115139.550000", "115140.010000", "115140.470000", "115140.930000", "115141.390000", "115141.850000", "115142.310000", "115142.770000", "115143.230000", "115143.690000", "115144.150000", "115144.610000", "115145.070000", "115145.530000", "115145.990000", "115146.450000", "115146.910000", "115147.370000", "115147.830000", "115148.290000", "115148.750000", "115149.210000", "115149.670000", "115150.130000", "115150.590000", "115151.050000", "115151.510000", "115151.970000", "115152.430000", "115152.890000", "115153.350000", "115153.810000", "115154.270000", "115154.730000", "115155.190000", "115155.650000", "115156.110000", "115156.570000", "115157.030000", "115157.490000", "115157.950000", "115158.410000", "115158.870000", "115159.330000", "115159.790000", "115200.250000", "115200.710000", "115201.170000", "115201.630000", "115202.090000", "115202.550000", "115203.010000", "115203.470000", "115203.930000", "115204.390000", "115204.850000", "115205.310000", "115205.770000", "115206.230000", "115206.690000", "115207.150000", "115207.610000", "115208.070000", "115208.530000", "115208.990000", "115209.450000", "115209.910000", "115210.370000", "115210.830000", "115211.290000", "115211.750000", "115212.210000", "115212.670000", "115213.130000", "115213.590000", "115214.050000", "115214.510000", "115214.970000", "115215.430000", "115215.890000", "115216.350000", "115216.810000", "115217.270000", "115217.730000", "115218.190000", "115218.650000", "115219.110000", "115219.570000", "115220.030000", "115220.490000", "115220.950000", "115221.410000", "115221.870000", "115222.330000", "115222.790000", "115223.250000", "115223.710000", "115224.170000", "115224.630000", "115225.090000", "115225.550000", "115226.010000", "115226.470000", "115226.930000", "115227.390000", "115227.850000", "115228.310000", "115228.770000", "115229.230000", "115229.690000", "115230.150000", "115230.610000", "115231.070000", "115231.530000", "115231.990000", "115232.450000", "115232.910000", "115233.370000", "115233.830000", "115234.290000", "115234.750000", "115235.210000", "115235.670000", "115236.130000", "115236.590000", "115237.050000", "115237.510000", "115237.970000", "115238.430000", "115238.890000", "115239.350000", "115239.810000", "115240.270000", "115240.730000", "115241.190000", "115241.650000", "115242.110000", "115242.570000", "115243.030000", "115243.490000", "115243.950000", "115244.410000", "115244.870000", "115245.330000", "115245.790000", "115246.250000", "115246.710000", "115247.170000", "115247.630000", "115248.090000", "115248.550000", "115249.010000", "115249.470000", "115249.930000", "115250.390000", "115250.850000", "115251.310000", "115251.770000", "115252.230000", "115252.690000", "115253.150000", "115253.610000", "115254.070000", "115254.530000", "115254.990000", "115255.450000", "115255.910000", "115256.370000", "115256.830000", "115257.290000", "115257.750000", "115258.210000", "115258.670000", "115259.130000", "115259.590000", "115300.050000", "115300.510000", "115300.970000", "115301.430000", "115301.890000", "115302.350000", "115302.810000", "115303.270000", "115303.730000", "115304.190000", "115304.650000", "115305.110000", "115305.570000", "115306.030000", "115306.490000", "115306.950000", "115307.410000", "115307.870000", "115308.330000", "115308.790000", "115309.250000", "115309.710000", "115310.170000", "115310.630000", "115311.090000", "115311.550000", "115312.010000", "115312.470000", "115312.930000", "115313.390000", "115313.850000", "115314.310000", "115314.770000", "115315.230000", "115315.690000", "115316.150000", "115316.610000", "115317.070000", "115317.530000", "115317.990000", "115318.450000", "115318.910000", "115319.370000", "115319.830000", "115320.290000", "115320.750000", "115321.210000", "115321.670000", "115322.130000", "115322.590000", "115323.050000", "115323.510000", "115323.970000", "115324.430000", "115324.890000", "115325.350000", "115325.810000", "115326.270000", "115326.730000", "115327.190000", "115327.650000", "115328.110000", "115328.570000", "115329.030000", "115329.490000", "115329.950000", "115330.410000", "115330.870000", "115331.330000", "115331.790000", "115332.250000", "115332.710000", "115333.170000", "115333.630000", "115334.090000", "115334.550000", "115335.010000", "115335.470000", "115335.930000", "115336.390000", "115336.850000", "115337.310000", "115337.770000", "115338.230000", "115338.690000", "115339.150000", "115339.610000", "115340.070000", "115340.530000", "115340.990000", "115341.450000", "115341.910000", "115342.370000", "115342.830000", "115343.290000", "115343.750000", "115344.210000", "115344.670000", "115345.130000", "115345.590000", "115346.050000", "115346.510000", "115346.970000", "115347.430000", "115347.890000", "115348.350000", "115348.810000", "115349.270000", "115349.730000", "115350.190000", "115350.650000", "115351.110000", "115351.570000", "115352.030000", "115352.490000", "115352.950000", "115353.410000", "115353.870000", "115354.330000", "115354.790000", "115355.250000", "115355.710000", "115356.170000", "115356.630000", "115357.090000", "115357.550000", "115358.010000", "115358.470000", "115358.930000", "115359.390000", "115359.850000", "115400.310000", "115400.770000", "115401.230000", "115401.690000", "115402.150000", "115402.610000", "115403.070000", "115403.530000", "115403.990000", "115404.450000", "115404.910000", "115405.370000", "115405.830000", "115406.290000", "115406.750000", "115407.210000", "115407.670000", "115408.130000", "115408.590000", "115409.050000", "115409.510000", "115409.970000", "115410.430000", "115410.890000", "115411.350000", "115411.810000", "115412.270000", "115412.730000", "115413.190000", "115413.650000", "115414.110000", "115414.570000", "115415.030000", "115415.490000", "115415.950000", "115416.410000", "115416.870000", "115417.330000", "115417.790000", "115418.250000", "115418.710000", "115419.170000", "115419.630000", "115420.090000", "115420.550000", "115421.010000", "115421.470000", "115421.930000", "115422.390000", "115422.850000", "115423.310000", "115423.770000", "115424.230000", "115424.690000", "115425.150000", "115425.610000", "115426.070000", "115426.530000", "115426.990000", "115427.450000", "115427.910000", "115428.370000", "115428.830000", "115429.290000", "115429.750000", "115430.210000", "115430.670000", "115431.130000", "115431.590000", "115432.050000", "115432.510000", "115432.970000", "115433.430000", "115433.890000", "115434.350000", "115434.810000", "115435.270000", "115435.730000", "115436.190000", "115436.650000", "115437.110000", "115437.570000", "115438.030000", "115438.490000", "115438.950000", "115439.410000", "115439.870000", "115440.330000", "115440.790000", "115441.250000", "115441.710000", "115442.170000", "115442.630000", "115443.090000", "115443.550000", "115444.010000", "115444.470000", "115444.930000", "115445.390000", "115445.850000", "115446.310000", "115446.770000", "115447.230000", "115447.690000", "115448.150000", "115448.610000", "115449.070000", "115449.530000", "115449.990000", "115450.450000", "115450.910000", "115451.370000", "115451.830000", "115452.290000", "115452.750000", "115453.210000", "115453.670000", "115454.130000", "115454.590000", "115455.050000", "115455.510000", "115455.970000", "115456.430000", "115456.890000", "115457.350000", "115457.810000", "115458.270000", "115458.730000", "115459.190000", "115459.650000", "115500.110000", "115500.570000", "115501.030000", "115501.490000", "115501.950000", "115502.410000", "115502.870000", "115503.330000", "115503.790000", "115504.250000", "115504.710000", "115505.170000", "115505.630000", "115506.090000", "115506.550000", "115507.010000", "115507.470000", "115507.930000", "115508.390000", "115508.850000", "115509.310000", "115509.770000", "115510.230000", "115510.690000", "115511.150000", "115511.610000", "115512.070000", "115512.530000", "115512.990000", "115513.450000", "115513.910000", "115514.370000", "115514.830000", "115515.290000", "115515.750000", "115516.210000", "115516.670000", "115517.130000", "115517.590000", "115518.050000", "115518.510000", "115518.970000", "115519.430000", "115519.890000", "115520.350000", "115520.810000", "115521.270000", "115521.730000", "115522.190000", "115522.650000", "115523.110000", "115523.570000", "115524.030000", "115524.490000", "115524.950000", "115525.410000", "115525.870000", "115526.330000", "115526.790000", "115527.250000", "115527.710000", "115528.170000", "115528.630000", "115529.090000", "115529.550000", "115530.010000", "115530.470000", "115530.930000", "115531.390000", "115531.850000", "115532.310000", "115532.770000", "115533.230000", "115533.690000", "115534.150000", "115534.610000", "115535.070000", "115535.530000", "115535.990000", "115536.450000", "115536.910000", "115537.370000", "115537.830000", "115538.290000", "115538.750000", "115539.210000", "115539.670000", "115540.130000", "115540.590000", "115541.050000", "115541.510000", "115541.970000", "115542.430000", "115542.890000", "115543.350000", "115543.810000", "115544.270000", "115544.730000", "115545.190000", "115545.650000", "115546.110000", "115546.570000", "115547.030000", "115547.490000", "115547.950000", "115548.410000", "115548.870000", "115549.330000", "115549.790000", "115550.250000", "115550.710000", "115551.170000", "115551.630000", "115552.090000", "115552.550000", "115553.010000", "115553.470000", "115553.930000", "115554.390000", "115554.850000", "115555.310000", "115555.770000", "115556.230000", "115556.690000", "115557.150000", "115557.610000", "115558.070000", "115558.530000", "115558.990000", "115559.450000", "115559.910000", "115600.370000", "115600.830000", "115601.290000", "115601.750000", "115602.210000", "115602.670000", "115603.130000", "115603.590000", "115604.050000", "115604.510000", "115604.970000", "115605.430000", "115605.890000", "115606.350000", "115606.810000", "115607.270000", "115607.730000", "115608.190000", "115608.650000", "115609.110000", "115609.570000", "115610.030000", "115610.490000", "115610.950000", "115611.410000", "115611.870000", "115612.330000", "115612.790000", "115613.250000", "115613.710000", "115614.170000", "115614.630000", "115615.090000", "115615.550000", "115616.010000", "115616.470000", "115616.930000", "115617.390000", "115617.850000", "115618.310000", "115618.770000", "115619.230000", "115619.690000"],
