{
  "AcquisitionMatrixPE": 82,
  "AcquisitionNumber": 1,
  "AcquisitionTime": "12:37:57.445000",
  "BandwidthPerPixelPhaseEncode": 24.888,
  "BaseResolution": 82,
  "BodyPartExamined": "BRAIN",
  "ConsistencyInfo": "N4_VE11C_LATEST_20160120",
  "ConversionSoftware": "dcm2niix",
  "ConversionSoftwareVersion": "v1.0.20201102",
  "DerivedVendorReportedEchoSpacing": 0.00049,
  "DeviceSerialNumber": "66112",
  "DwellTime": 2e-06,
  "EchoTime": 0.0272,
  "EchoTrainLength": 82,
  "EffectiveEchoSpacing": 0.00049,
  "FlipAngle": 44,
  "ImageComments": "Unaliased MB8/PE3",
  "ImageOrientationPatientDICOM": [0.996462, 0.0839955, 0.0028802, -0.0840256, 0.994916, 0.0555208],
  "ImageType": [
    "ORIGINAL",
    "PRIMARY",
    "M",
    "MB",
    "ND",
    "NORM",
    "MOSAIC"
],
  "ImagingFrequency": 123.252,
  "InPlanePhaseEncodingDirectionDICOM": "COL",
  "InstitutionAddress": "Maynard 3,Hanover,NH,US,03755",
  "InstitutionName": "Dartmouth College - PBS",
  "InstitutionalDepartmentName": "Department",
  "MRAcquisitionType": "2D",
  "MagneticFieldStrength": 3,
  "Manufacturer": "Siemens",
  "ManufacturersModelName": "Prisma",
  "Modality": "MR",
  "MultibandAccelerationFactor": 8,
  "PartialFourier": 1,
  "PatientPosition": "HFS",
  "PercentPhaseFOV": 100,
  "PercentSampling": 100,
  "PhaseEncodingDirection": "j-",
  "PhaseEncodingSteps": 82,
  "PhaseResolution": 1,
  "PixelBandwidth": 3050,
  "ProcedureStepDescription": "Wager_Wager^1076_spacetop",
  "ProtocolName": "func_run-04_task-alignvideo_acq-ap-mb8",
  "PulseSequenceDetails": "%CustomerSeq%\\cmrr_mbep2d_bold",
  "ReceiveCoilActiveElements": "HEA;HEP",
  "ReceiveCoilName": "Head_32",
  "ReconMatrixPE": 82,
  "RepetitionTime": 0.46,
  "SAR": 0.0837683,
  "ScanOptions": "FS",
  "ScanningSequence": "EP",
  "SequenceName": "epfid2d1_82",
  "SequenceVariant": "SK\\SS",
  "SeriesDescription": "func_run-04_task-alignvideo_acq-ap-mb8",
  "SeriesNumber": 34,
  "ShimSetting": [4140, -7775, -7290, 600, -84, -336, 15, 83],
  "SliceThickness": 2.7,
  "SliceTiming": [0, 0.25, 0.0625, 0.315, 0.125, 0.3775, 0.1875, 0, 0.25, 0.0625, 0.315, 0.125, 0.3775, 0.1875, 0, 0.25, 0.0625, 0.315, 0.125, 0.3775, 0.1875, 0, 0.25, 0.0625, 0.315, 0.125, 0.3775, 0.1875, 0, 0.25, 0.0625, 0.315, 0.125, 0.3775, 0.1875, 0, 0.25, 0.0625, 0.315, 0.125, 0.3775, 0.1875, 0, 0.25, 0.0625, 0.315, 0.125, 0.3775, 0.1875, 0, 0.25, 0.0625, 0.315, 0.125, 0.3775, 0.1875],
  "SoftwareVersions": "syngo MR E11",
  "SpacingBetweenSlices": 2.7,
  "StationName": "AWP66112",
  "TaskName": "alignvideo",
  "TotalReadoutTime": 0.03969,
  "TxRefAmp": 233.113,
  "WipMemBlock": "0e212860-c752-4591-b390-a84e5820b8d2||Sequence: R016 ve11c/master r/e634e98; Dec 19 2017 11:00:25 by eja",
  "dcmmeta_affine": [
    [-2.6734347343444824, -0.22543452680110931, -0.004854422528296709, 120.5883560180664],
    [-0.2253536880016327, 2.669286012649536, 0.15002918243408203, -95.41978454589844],
    [0.007727377116680145, -0.148958221077919, 2.695824146270752, -70.16333770751953],
    [0.0, 0.0, 0.0, 1.0]
],
  "dcmmeta_reorient_transform": [
    [0.0, -1.0, 0.0, 81.0],
    [1.0, 0.0, 0.0, 0.0],
    [0.0, 0.0, 1.0, 0.0],
    [0.0, 0.0, 0.0, 1.0]
],
  "dcmmeta_shape": [82, 82, 56, 914],
  "dcmmeta_slice_dim": 2,
  "dcmmeta_version": 0.6,
  "global": {
    "const": {
      "AccessionNumber": "A003833",
      "AcquisitionMatrix": [82, 0, 0, 82],
      "AngioFlag": "N",
      "BitsAllocated": 16,
      "BitsStored": 16,
      "BodyPartExamined": "BRAIN",
      "Columns": 656,
      "EchoNumbers": 1,
      "EchoTime": 27.2,
      "EchoTrainLength": 82,
      "FlipAngle": 44.0,
      "HighBit": 15,
      "ImageOrientationPatient": [0.9964619744271, 0.08399546383696, 0.00288020410191, -0.0840255970117, 0.99491564519883, 0.05552078876798],
      "ImagePositionPatient": [-804.90418830603, -951.55394854179, -127.19772266809],
      "ImageType": [
        "ORIGINAL",
        "PRIMARY",
        "M",
        "MB",
        "ND",
        "NORM",
        "MOSAIC"
],
      "ImagedNucleus": "1H",
      "ImagingFrequency": 123.252264,
      "InPlanePhaseEncodingDirection": "COL",
      "MRAcquisitionType": "2D",
      "MagneticFieldStrength": 3.0,
      "Manufacturer": "SIEMENS",
      "ManufacturerModelName": "Prisma",
      "Modality": "MR",
      "NumberOfAverages": 1.0,
      "NumberOfPhaseEncodingSteps": 82,
      "PercentPhaseFieldOfView": 100.0,
      "PercentSampling": 100.0,
      "PerformedProcedureStepStartTime": "105128.066000",
      "PhotometricInterpretation": "MONOCHROME2",
      "PixelBandwidth": 3050.0,
      "PixelRepresentation": 0,
      "PixelSpacing": [2.6829268932343, 2.6829268932343],
      "ProtocolName": "func_run-04_task-alignvideo_acq-ap-mb8",
      "RepetitionTime": 460.0,
      "Rows": 656,
      "SAR": 0.08376829414529,
      "SamplesPerPixel": 1,
      "ScanOptions": "FS",
      "ScanningSequence": "EP",
      "SequenceName": "epfid2d1_82",
      "SequenceVariant": [
        "SK",
        "SS"
],
      "SeriesDescription": "func_run-04_task-alignvideo_acq-ap-mb8",
      "SeriesNumber": 34,
      "SeriesTime": "123807.429000",
      "SliceLocation": -75.573765948193,
      "SliceThickness": 2.7000000476837,
      "SmallestImagePixelValue": 0,
      "SoftwareVersions": "syngo MR E11",
      "SpacingBetweenSlices": 2.6999999671616,
      "SpecificCharacterSet": "ISO_IR 100",
      "StudyID": "1",
      "StudyTime": "105128.004000",
      "TransmitCoilName": "Body",
      "VariableFlipAngleFlag": "N",
      "WindowCenterWidthExplanation": "Algo1",
      "dBdt": 0.0},
    "slices": {}
  },
  "time": {
    "samples": {
      "AcquisitionNumber": [1, 2, 3, 4, 5, 6, 7, 8, 9, 10, 11, 12, 13, 14, 15, 16, 17, 18, 19, 20, 21, 22, 23, 24, 25, 26, 27, 28, 29, 30, 31, 32, 33, 34, 35, 36, 37, 38, 39, 40, 41, 42, 43, 44, 45, 46, 47, 48, 49, 50, 51, 52, 53, 54, 55, 56, 57, 58, 59, 60, 61, 62, 63, 64, 65, 66, 67, 68, 69, 70, 71, 72, 73, 74, 75, 76, 77, 78, 79, 80, 81, 82, 83, 84, 85, 86, 87, 88, 89, 90, 91, 92, 93, 94, 95, 96, 97, 98, 99, 100, 101, 102, 103, 104, 105, 106, 107, 108, 109, 110, 111, 112, 113, 114, 115, 116, 117, 118, 119, 120, 121, 122, 123, 124, 125, 126, 127, 128, 129, 130, 131, 132, 133, 134, 135, 136, 137, 138, 139, 140, 141, 142, 143, 144, 145, 146, 147, 148, 149, 150, 151, 152, 153, 154, 155, 156, 157, 158, 159, 160, 161, 162, 163, 164, 165, 166, 167, 168, 169, 170, 171, 172, 173, 174, 175, 176, 177, 178, 179, 180, 181, 182, 183, 184, 185, 186, 187, 188, 189, 190, 191, 192, 193, 194, 195, 196, 197, 198, 199, 200, 201, 202, 203, 204, 205, 206, 207, 208, 209, 210, 211, 212, 213, 214, 215, 216, 217, 218, 219, 220, 221, 222, 223, 224, 225, 226, 227, 228, 229, 230, 231, 232, 233, 234, 235, 236, 237, 238, 239, 240, 241, 242, 243, 244, 245, 246, 247, 248, 249, 250, 251, 252, 253, 254, 255, 256, 257, 258, 259, 260, 261, 262, 263, 264, 265, 266, 267, 268, 269, 270, 271, 272, 273, 274, 275, 276, 277, 278, 279, 280, 281, 282, 283, 284, 285, 286, 287, 288, 289, 290, 291, 292, 293, 294, 295, 296, 297, 298, 299, 300, 301, 302, 303, 304, 305, 306, 307, 308, 309, 310, 311, 312, 313, 314, 315, 316, 317, 318, 319, 320, 321, 322, 323, 324, 325, 326, 327, 328, 329, 330, 331, 332, 333, 334, 335, 336, 337, 338, 339, 340, 341, 342, 343, 344, 345, 346, 347, 348, 349, 350, 351, 352, 353, 354, 355, 356, 357, 358, 359, 360, 361, 362, 363, 364, 365, 366, 367, 368, 369, 370, 371, 372, 373, 374, 375, 376, 377, 378, 379, 380, 381, 382, 383, 384, 385, 386, 387, 388, 389, 390, 391, 392, 393, 394, 395, 396, 397, 398, 399, 400, 401, 402, 403, 404, 405, 406, 407, 408, 409, 410, 411, 412, 413, 414, 415, 416, 417, 418, 419, 420, 421, 422, 423, 424, 425, 426, 427, 428, 429, 430, 431, 432, 433, 434, 435, 436, 437, 438, 439, 440, 441, 442, 443, 444, 445, 446, 447, 448, 449, 450, 451, 452, 453, 454, 455, 456, 457, 458, 459, 460, 461, 462, 463, 464, 465, 466, 467, 468, 469, 470, 471, 472, 473, 474, 475, 476, 477, 478, 479, 480, 481, 482, 483, 484, 485, 486, 487, 488, 489, 490, 491, 492, 493, 494, 495, 496, 497, 498, 499, 500, 501, 502, 503, 504, 505, 506, 507, 508, 509, 510, 511, 512, 513, 514, 515, 516, 517, 518, 519, 520, 521, 522, 523, 524, 525, 526, 527, 528, 529, 530, 531, 532, 533, 534, 535, 536, 537, 538, 539, 540, 541, 542, 543, 544, 545, 546, 547, 548, 549, 550, 551, 552, 553, 554, 555, 556, 557, 558, 559, 560, 561, 562, 563, 564, 565, 566, 567, 568, 569, 570, 571, 572, 573, 574, 575, 576, 577, 578, 579, 580, 581, 582, 583, 584, 585, 586, 587, 588, 589, 590, 591, 592, 593, 594, 595, 596, 597, 598, 599, 600, 601, 602, 603, 604, 605, 606, 607, 608, 609, 610, 611, 612, 613, 614, 615, 616, 617, 618, 619, 620, 621, 622, 623, 624, 625, 626, 627, 628, 629, 630, 631, 632, 633, 634, 635, 636, 637, 638, 639, 640, 641, 642, 643, 644, 645, 646, 647, 648, 649, 650, 651, 652, 653, 654, 655, 656, 657, 658, 659, 660, 661, 662, 663, 664, 665, 666, 667, 668, 669, 670, 671, 672, 673, 674, 675, 676, 677, 678, 679, 680, 681, 682, 683, 684, 685, 686, 687, 688, 689, 690, 691, 692, 693, 694, 695, 696, 697, 698, 699, 700, 701, 702, 703, 704, 705, 706, 707, 708, 709, 710, 711, 712, 713, 714, 715, 716, 717, 718, 719, 720, 721, 722, 723, 724, 725, 726, 727, 728, 729, 730, 731, 732, 733, 734, 735, 736, 737, 738, 739, 740, 741, 742, 743, 744, 745, 746, 747, 748, 749, 750, 751, 752, 753, 754, 755, 756, 757, 758, 759, 760, 761, 762, 763, 764, 765, 766, 767, 768, 769, 770, 771, 772, 773, 774, 775, 776, 777, 778, 779, 780, 781, 782, 783, 784, 785, 786, 787, 788, 789, 790, 791, 792, 793, 794, 795, 796, 797, 798, 799, 800, 801, 802, 803, 804, 805, 806, 807, 808, 809, 810, 811, 812, 813, 814, 815, 816, 817, 818, 819, 820, 821, 822, 823, 824, 825, 826, 827, 828, 829, 830, 831, 832, 833, 834, 835, 836, 837, 838, 839, 840, 841, 842, 843, 844, 845, 846, 847, 848, 849, 850, 851, 852, 853, 854, 855, 856, 857, 858, 859, 860, 861, 862, 863, 864, 865, 866, 867, 868, 869, 870, 871, 872, 873, 874, 875, 876, 877, 878, 879, 880, 881, 882, 883, 884, 885, 886, 887, 888, 889, 890, 891, 892, 893, 894, 895, 896, 897, 898, 899, 900, 901, 902, 903, 904, 905, 906, 907, 908, 909, 910, 911, 912, 913, 914],
      "AcquisitionTime": ["123757.445000", "123757.905000", "123758.365000", "123758.825000", "123759.285000", "123759.745000", "123800.205000", "123800.665000", "123801.125000", "123801.585000", "123802.045000", "123802.505000", "123802.965000", "123803.425000", "123803.885000", "123804.345000", "123804.805000", "123805.265000", "123805.725000", "123806.185000", "123806.645000", "123807.105000", "123807.565000", "123808.025000", "123808.485000", "123808.945000", "123809.405000", "123809.865000", "123810.325000", "123810.785000", "123811.245000", "123811.705000", "123812.165000", "123812.625000", "123813.085000", "123813.545000", "123814.005000", "123814.465000", "123814.925000", "123815.385000", "123815.845000", "123816.305000", "123816.765000", "123817.225000", "123817.685000", "123818.145000", "123818.605000", "123819.065000", "123819.525000", "123819.985000", "123820.445000", "123820.905000", "123821.365000", "123821.825000", "123822.285000", "123822.745000", "123823.205000", "123823.665000", "123824.125000", "123824.585000", "123825.045000", "123825.505000", "123825.965000", "123826.425000", "123826.885000", "123827.345000", "123827.805000", "123828.265000", "123828.725000", "123829.185000", "123829.645000", "123830.105000", "123830.565000", "123831.025000", "123831.485000", "123831.945000", "123832.405000", "123832.865000", "123833.325000", "123833.785000", "123834.245000", "123834.705000", "123835.165000", "123835.625000", "123836.085000", "123836.545000", "123837.005000", "123837.465000", "123837.925000", "123838.385000", "123838.845000", "123839.305000", "123839.765000", "123840.225000", "123840.685000", "123841.145000", "123841.605000", "123842.065000", "123842.525000", "123842.985000", "123843.445000", "123843.905000", "123844.365000", "123844.825000", "123845.285000", "123845.745000", "123846.205000", "123846.665000", "123847.125000", "123847.585000", "123848.045000", "123848.505000", "123848.965000", "123849.425000", "123849.885000", "123850.345000", "123850.805000", "123851.265000", "123851.725000", "123852.185000", "123852.645000", "123853.105000", "123853.565000", "123854.025000", "123854.485000", "123854.945000", "123855.405000", "123855.865000", "123856.325000", "123856.785000", "123857.245000", "123857.705000", "123858.165000", "123858.625000", "123859.085000", "123859.545000", "123900.005000", "123900.465000", "123900.925000", "123901.385000", "123901.845000", "123902.305000", "123902.765000", "123903.225000", "123903.685000", "123904.145000", "123904.605000", "123905.065000", "123905.525000", "123905.985000", "123906.445000", "123906.905000", "123907.365000", "123907.825000", "123908.285000", "123908.745000", "123909.205000", "123909.665000", "123910.125000", "123910.585000", "123911.045000", "123911.505000", "123911.965000", "123912.425000", "123912.885000", "123913.345000", "123913.805000", "123914.265000", "123914.725000", "123915.185000", "123915.645000", "123916.105000", "123916.565000", "123917.025000", "123917.485000", "123917.945000", "123918.405000", "123918.865000", "123919.325000", "123919.785000", "123920.245000", "123920.705000", "123921.165000", "123921.625000", "123922.085000", "123922.545000", "123923.005000", "123923.465000", "123923.925000", "123924.385000", "123924.845000", "123925.305000", "123925.765000", "123926.225000", "123926.685000", "123927.145000", "123927.605000", "123928.065000", "123928.525000", "123928.985000", "123929.445000", "123929.905000", "123930.365000", "123930.825000", "123931.285000", "123931.745000", "123932.205000", "123932.665000", "123933.125000", "123933.585000", "123934.045000", "123934.505000", "123934.965000", "123935.425000", "123935.885000", "123936.345000", "123936.805000", "123937.265000", "123937.725000", "123938.185000", "123938.645000", "123939.105000", "123939.565000", "123940.025000", "123940.485000", "123940.945000", "123941.405000", "123941.865000", "123942.325000", "123942.785000", "123943.245000", "123943.705000", "123944.165000", "123944.625000", "123945.085000", "123945.545000", "123946.005000", "123946.465000", "123946.925000", "123947.385000", "123947.845000", "123948.305000", "123948.765000", "123949.225000", "123949.685000", "123950.145000", "123950.605000", "123951.065000", "123951.525000", "123951.985000", "123952.445000", "123952.905000", "123953.365000", "123953.825000", "123954.285000", "123954.745000", "123955.205000", "123955.665000", "123956.125000", "123956.585000", "123957.045000", "123957.505000", "123957.965000", "123958.425000", "123958.885000", "123959.345000", "123959.805000", "124000.265000", "124000.725000", "124001.185000", "124001.645000", "124002.105000", "124002.565000", "124003.025000", "124003.485000", "124003.945000", "124004.405000", "124004.865000", "124005.325000", "124005.785000", "124006.245000", "124006.705000", "124007.165000", "124007.625000", "124008.085000", "124008.545000", "124009.005000", "124009.465000", "124009.925000", "124010.385000", "124010.845000", "124011.305000", "124011.765000", "124012.225000", "124012.685000", "124013.145000", "124013.605000", "124014.065000", "124014.525000", "124014.985000", "124015.445000", "124015.905000", "124016.365000", "124016.825000", "124017.285000", "124017.745000", "124018.205000", "124018.665000", "124019.125000", "124019.585000", "124020.045000", "124020.505000", "124020.965000", "124021.425000", "124021.885000", "124022.345000", "124022.805000", "124023.265000", "124023.725000", "124024.185000", "124024.645000", "124025.105000", "124025.565000", "124026.025000", "124026.485000", "124026.945000", "124027.405000", "124027.865000", "124028.325000", "124028.785000", "124029.245000", "124029.705000", "124030.165000", "124030.625000", "124031.085000", "124031.545000", "124032.005000", "124032.465000", "124032.925000", "124033.385000", "124033.845000", "124034.305000", "124034.765000", "124035.225000", "124035.685000", "124036.145000", "124036.605000", "124037.065000", "124037.525000", "124037.985000", "124038.445000", "124038.905000", "124039.365000", "124039.825000", "124040.285000", "124040.745000", "124041.205000", "124041.665000", "124042.125000", "124042.585000", "124043.045000", "124043.505000", "124043.965000", "124044.425000", "124044.885000", "124045.345000", "124045.805000", "124046.265000", "124046.725000", "124047.185000", "124047.645000", "124048.105000", "124048.565000", "124049.025000", "124049.485000", "124049.945000", "124050.405000", "124050.865000", "124051.325000", "124051.785000", "124052.245000", "124052.705000", "124053.165000", "124053.625000", "124054.085000", "124054.545000", "124055.005000", "124055.465000", "124055.925000", "124056.385000", "124056.845000", "124057.305000", "124057.765000", "124058.225000", "124058.685000", "124059.145000", "124059.605000", "124100.065000", "124100.525000", "124100.985000", "124101.445000", "124101.905000", "124102.365000", "124102.825000", "124103.285000", "124103.745000", "124104.205000", "124104.665000", "124105.125000", "124105.585000", "124106.045000", "124106.505000", "124106.965000", "124107.425000", "124107.885000", "124108.345000", "124108.805000", "124109.265000", "124109.725000", "124110.185000", "124110.645000", "124111.105000", "124111.565000", "124112.025000", "124112.485000", "124112.945000", "124113.405000", "124113.865000", "124114.325000", "124114.785000", "124115.245000", "124115.705000", "124116.165000", "124116.625000", "124117.085000", "124117.545000", "124118.005000", "124118.465000", "124118.925000", "124119.385000", "124119.845000", "124120.305000", "124120.765000", "124121.225000", "124121.685000", "124122.145000", "124122.605000", "124123.065000", "124123.525000", "124123.985000", "124124.445000", "124124.905000", "124125.365000", "124125.825000", "124126.285000", "124126.745000", "124127.205000", "124127.665000", "124128.125000", "124128.585000", "124129.045000", "124129.505000", "124129.965000", "124130.425000", "124130.885000", "124131.345000", "124131.805000", "124132.265000", "124132.725000", "124133.185000", "124133.645000", "124134.105000", "124134.565000", "124135.025000", "124135.485000", "124135.945000", "124136.405000", "124136.865000", "124137.325000", "124137.785000", "124138.245000", "124138.705000", "124139.165000", "124139.625000", "124140.085000", "124140.545000", "124141.005000", "124141.465000", "124141.925000", "124142.385000", "124142.845000", "124143.305000", "124143.765000", "124144.225000", "124144.685000", "124145.145000", "124145.605000", "124146.065000", "124146.525000", "124146.985000", "124147.445000", "124147.905000", "124148.365000", "124148.825000", "124149.285000", "124149.745000", "124150.205000", "124150.665000", "124151.125000", "124151.585000", "124152.045000", "124152.505000", "124152.965000", "124153.425000", "124153.885000", "124154.345000", "124154.805000", "124155.265000", "124155.725000", "124156.185000", "124156.645000", "124157.105000", "124157.565000", "124158.025000", "124158.485000", "124158.945000", "124159.405000", "124159.865000", "124200.325000", "124200.785000", "124201.245000", "124201.705000", "124202.165000", "124202.625000", "124203.085000", "124203.545000", "124204.005000", "124204.465000", "124204.925000", "124205.385000", "124205.845000", "124206.305000", "124206.765000", "124207.225000", "124207.685000", "124208.145000", "124208.605000", "124209.065000", "124209.525000", "124209.985000", "124210.445000", "124210.905000", "124211.365000", "124211.825000", "124212.285000", "124212.745000", "124213.205000", "124213.665000", "124214.125000", "124214.585000", "124215.045000", "124215.505000", "124215.965000", "124216.425000", "124216.885000", "124217.345000", "124217.805000", "124218.265000", "124218.725000", "124219.185000", "124219.645000", "124220.105000", "124220.565000", "124221.025000", "124221.485000", "124221.945000", "124222.405000", "124222.865000", "124223.325000", "124223.785000", "124224.245000", "124224.705000", "124225.165000", "124225.625000", "124226.085000", "124226.545000", "124227.005000", "124227.465000", "124227.925000", "124228.385000", "124228.845000", "124229.305000", "124229.765000", "124230.225000", "124230.685000", "124231.145000", "124231.605000", "124232.065000", "124232.525000", "124232.985000", "124233.445000", "124233.905000", "124234.365000", "124234.825000", "124235.285000", "124235.745000", "124236.205000", "124236.665000", "124237.125000", "124237.585000", "124238.045000", "124238.505000", "124238.965000", "124239.425000", "124239.885000", "124240.345000", "124240.805000", "124241.265000", "124241.725000", "124242.185000", "124242.645000", "124243.105000", "124243.565000", "124244.025000", "124244.485000", "124244.945000", "124245.405000", "124245.865000", "124246.325000", "124246.785000", "124247.245000", "124247.705000", "124248.165000", "124248.625000", "124249.085000", "124249.545000", "124250.005000", "124250.465000", "124250.925000", "124251.385000", "124251.845000", "124252.305000", "124252.765000", "124253.225000", "124253.685000", "124254.145000", "124254.605000", "124255.065000", "124255.525000", "124255.985000", "124256.445000", "124256.905000", "124257.365000", "124257.825000", "124258.285000", "124258.745000", "124259.205000", "124259.665000", "124300.125000", "124300.585000", "124301.045000", "124301.505000", "124301.965000", "124302.425000", "124302.885000", "124303.345000", "124303.805000", "124304.265000", "124304.725000", "124305.185000", "124305.645000", "124306.105000", "124306.565000", "124307.025000", "124307.485000", "124307.945000", "124308.405000", "124308.865000", "124309.325000", "124309.785000", "124310.245000", "124310.705000", "124311.165000", "124311.625000", "124312.085000", "124312.545000", "124313.005000", "124313.465000", "124313.925000", "124314.385000", "124314.845000", "124315.305000", "124315.765000", "124316.225000", "124316.685000", "124317.145000", "124317.605000", "124318.065000", "124318.525000", "124318.985000", "124319.445000", "124319.905000", "124320.365000", "124320.825000", "124321.285000", "124321.745000", "124322.205000", "124322.665000", "124323.125000", "124323.585000", "124324.045000", "124324.505000", "124324.965000", "124325.425000", "124325.885000", "124326.345000", "124326.805000", "124327.265000", "124327.725000", "124328.185000", "124328.645000", "124329.105000", "124329.565000", "124330.025000", "124330.485000", "124330.945000", "124331.405000", "124331.865000", "124332.325000", "124332.785000", "124333.245000", "124333.705000", "124334.165000", "124334.625000", "124335.085000", "124335.545000", "124336.005000", "124336.465000", "124336.925000", "124337.385000", "124337.845000", "124338.305000", "124338.765000", "124339.225000", "124339.685000", "124340.145000", "124340.605000", "124341.065000", "124341.525000", "124341.985000", "124342.445000", "124342.905000", "124343.365000", "124343.825000", "124344.285000", "124344.745000", "124345.205000", "124345.665000", "124346.125000", "124346.585000", "124347.045000", "124347.505000", "124347.965000", "124348.425000", "124348.885000", "124349.345000", "124349.805000", "124350.265000", "124350.725000", "124351.185000", "124351.645000", "124352.105000", "124352.565000", "124353.025000", "124353.485000", "124353.945000", "124354.405000", "124354.865000", "124355.325000", "124355.785000", "124356.245000", "124356.705000", "124357.165000", "124357.625000", "124358.085000", "124358.545000", "124359.005000", "124359.465000", "124359.925000", "124400.385000", "124400.845000", "124401.305000", "124401.765000", "124402.225000", "124402.685000", "124403.145000", "124403.605000", "124404.065000", "124404.525000", "124404.985000", "124405.445000", "124405.905000", "124406.365000", "124406.825000", "124407.285000", "124407.745000", "124408.205000", "124408.665000", "124409.125000", "124409.585000", "124410.045000", "124410.505000", "124410.965000", "124411.425000", "124411.885000", "124412.345000", "124412.805000", "124413.265000", "124413.725000", "124414.185000", "124414.645000", "124415.105000", "124415.565000", "124416.025000", "124416.485000", "124416.945000", "124417.405000", "124417.865000", "124418.325000", "124418.785000", "124419.245000", "124419.705000", "124420.165000", "124420.625000", "124421.085000", "124421.545000", "124422.005000", "124422.465000", "124422.925000", "124423.385000", "124423.845000", "124424.305000", "124424.765000", "124425.225000", "124425.685000", "124426.145000", "124426.605000", "124427.065000", "124427.525000", "124427.985000", "124428.445000", "124428.905000", "124429.365000", "124429.825000", "124430.285000", "124430.745000", "124431.205000", "124431.665000", "124432.125000", "124432.585000", "124433.045000", "124433.505000", "124433.965000", "124434.425000", "124434.885000", "124435.345000", "124435.805000", "124436.265000", "124436.725000", "124437.185000", "124437.645000", "124438.105000", "124438.565000", "124439.025000", "124439.485000", "124439.945000", "124440.405000", "124440.865000", "124441.325000", "124441.785000", "124442.245000", "124442.705000", "124443.165000", "124443.625000", "124444.085000", "124444.545000", "124445.005000", "124445.465000", "124445.925000", "124446.385000", "124446.845000", "124447.305000", "124447.765000", "124448.225000", "124448.685000", "124449.145000", "124449.605000", "124450.065000", "124450.525000", "124450.985000", "124451.445000", "124451.905000", "124452.365000", "124452.825000", "124453.285000", "124453.745000", "124454.205000", "124454.665000", "124455.125000", "124455.585000", "124456.045000", "124456.505000", "124456.965000", "124457.425000"],
