{
  "AcquisitionMatrixPE": 82,
  "AcquisitionNumber": 1,
  "AcquisitionTime": "11:01:25.830000",
  "BandwidthPerPixelPhaseEncode": 24.888,
  "BaseResolution": 82,
  "BodyPartExamined": "BRAIN",
  "ConsistencyInfo": "N4_VE11E_LATEST_20181129",
  "ConversionSoftware": "dcm2niix",
  "ConversionSoftwareVersion": "v1.0.20201102",
  "DerivedVendorReportedEchoSpacing": 0.00049,
  "DeviceSerialNumber": "66112",
  "DwellTime": 2e-06,
  "EchoTime": 0.0272,
  "EchoTrainLength": 82,
  "EffectiveEchoSpacing": 0.00049,
  "FlipAngle": 44,
  "ImageComments": "Unaliased MB8/PE3",
  "ImageOrientationPatientDICOM": [0.999982, 0.00150576, -0.00581767, -0.00209437, 0.994727, -0.102536],
  "ImageType": [
    "ORIGINAL",
    "PRIMARY",
    "M",
    "MB",
    "ND",
    "NORM",
    "MOSAIC"
],
  "ImagingFrequency": 123.259,
  "InPlanePhaseEncodingDirectionDICOM": "COL",
  "InstitutionAddress": "Maynard 3,Hanover,NH,US,03755",
  "InstitutionName": "Dartmouth College - PBS",
  "InstitutionalDepartmentName": "Department",
  "MRAcquisitionType": "2D",
  "MagneticFieldStrength": 3,
  "Manufacturer": "Siemens",
  "ManufacturersModelName": "Prisma",
  "Modality": "MR",
  "MultibandAccelerationFactor": 8,
  "PartialFourier": 1,
  "PatientPosition": "HFS",
  "PercentPhaseFOV": 100,
  "PercentSampling": 100,
  "PhaseEncodingDirection": "j-",
  "PhaseEncodingSteps": 82,
  "PhaseResolution": 1,
  "PixelBandwidth": 3050,
  "ProcedureStepDescription": "Wager_Wager^1076_spacetop",
  "ProtocolName": "func_run-04_task-social_acq-ap-mb8",
  "PulseSequenceDetails": "%CustomerSeq%\\cmrr_mbep2d_bold",
  "ReceiveCoilActiveElements": "HEA;HEP",
  "ReceiveCoilName": "Head_32",
  "ReconMatrixPE": 82,
  "RepetitionTime": 0.46,
  "SAR": 0.0865017,
  "ScanOptions": "FS",
  "ScanningSequence": "EP",
  "SequenceName": "epfid2d1_82",
  "SequenceVariant": "SK\\SS",
  "SeriesDescription": "func_run-04_task-social_acq-ap-mb8",
  "SeriesNumber": 14,
  "ShimSetting": [4227, -7783, -7264, 186, -94, -269, -215, 66],
  "SliceThickness": 2.7,
  "SliceTiming": [0, 0.25, 0.0625, 0.3125, 0.125, 0.375, 0.1875, 0, 0.25, 0.0625, 0.3125, 0.125, 0.375, 0.1875, 0, 0.25, 0.0625, 0.3125, 0.125, 0.375, 0.1875, 0, 0.25, 0.0625, 0.3125, 0.125, 0.375, 0.1875, 0, 0.25, 0.0625, 0.3125, 0.125, 0.375, 0.1875, 0, 0.25, 0.0625, 0.3125, 0.125, 0.375, 0.1875, 0, 0.25, 0.0625, 0.3125, 0.125, 0.375, 0.1875, 0, 0.25, 0.0625, 0.3125, 0.125, 0.375, 0.1875],
  "SoftwareVersions": "syngo MR E11",
  "SpacingBetweenSlices": 2.7,
  "StationName": "AWP66112",
  "TaskName": "social",
  "TotalReadoutTime": 0.03969,
  "TxRefAmp": 253.199,
  "WipMemBlock": "5116de63-b470-48d9-be6a-4faf82bf021d||Sequence: R016 ve11e/master r/434b28f1; Aug  7 2019 18:53:46 by eja",
  "dcmmeta_affine": [
    [-2.6828784942626953, -0.00561905512586236, -0.015208018012344837, 110.66622924804688],
    [-0.004039842169731855, 2.6687800884246826, -0.27687376737594604, -89.36829376220703],
    [-0.015608380548655987, 0.27509525418281555, 2.685723304748535, -116.43939971923828],
    [0.0, 0.0, 0.0, 1.0]
],
  "dcmmeta_reorient_transform": [
    [0.0, -1.0, 0.0, 81.0],
    [1.0, 0.0, 0.0, 0.0],
    [0.0, 0.0, 1.0, 0.0],
    [0.0, 0.0, 0.0, 1.0]
],
  "dcmmeta_shape": [82, 82, 56, 872],
  "dcmmeta_slice_dim": 2,
  "dcmmeta_version": 0.6,
  "global": {
    "const": {
      "AccessionNumber": "A004322",
      "AcquisitionMatrix": [82, 0, 0, 82],
      "AngioFlag": "N",
      "BitsAllocated": 16,
      "BitsStored": 16,
      "BodyPartExamined": "BRAIN",
      "Columns": 656,
      "EchoNumbers": 1,
      "EchoTime": 27.2,
      "EchoTrainLength": 82,
      "FlipAngle": 44.0,
      "HighBit": 15,
      "ImageOrientationPatient": [0.99998194354602, 0.00150575927282, -0.0058176688569, -0.0020943750397, 0.99472714050689, -0.1025355037642],
      "ImagePositionPatient": [-878.58452812649, -893.9022540495, -10.724736825974],
      "ImageType": [
        "ORIGINAL",
        "PRIMARY",
        "M",
        "MB",
        "ND",
        "NORM",
        "MOSAIC"
],
      "ImagedNucleus": "1H",
      "ImagingFrequency": 123.259162,
      "InPlanePhaseEncodingDirection": "COL",
      "MRAcquisitionType": "2D",
      "MagneticFieldStrength": 3.0,
      "Manufacturer": "SIEMENS",
      "ManufacturerModelName": "Prisma",
      "Modality": "MR",
      "NumberOfAverages": 1.0,
      "NumberOfPhaseEncodingSteps": 82,
      "PercentPhaseFieldOfView": 100.0,
      "PercentSampling": 100.0,
      "PerformedProcedureStepStartTime": "102811.410000",
      "PhotometricInterpretation": "MONOCHROME2",
      "PixelBandwidth": 3050.0,
      "PixelRepresentation": 0,
      "PixelSpacing": [2.6829268932343, 2.6829268932343],
      "ProtocolName": "func_run-04_task-social_acq-ap-mb8",
      "RepetitionTime": 460.0,
      "Rows": 656,
      "SAR": 0.08650169303349,
      "SamplesPerPixel": 1,
      "ScanOptions": "FS",
      "ScanningSequence": "EP",
      "SequenceName": "epfid2d1_82",
      "SequenceVariant": [
        "SK",
        "SS"
],
      "SeriesDescription": "func_run-04_task-social_acq-ap-mb8",
      "SeriesNumber": 14,
      "SeriesTime": "110138.330000",
      "SliceLocation": -107.28269718893,
      "SliceThickness": 2.7000000476837,
      "SmallestImagePixelValue": 0,
      "SoftwareVersions": "syngo MR E11",
      "SpacingBetweenSlices": 2.699999952439,
      "SpecificCharacterSet": "ISO_IR 100",
      "StudyID": "2",
      "StudyTime": "102811.370000",
      "TransmitCoilName": "Body",
      "VariableFlipAngleFlag": "N",
      "WindowCenterWidthExplanation": "Algo1"
    },
    "slices": {}
  },
  "time": {
    "samples": {
      "AcquisitionNumber": [1, 2, 3, 4, 5, 6, 7, 8, 9, 10, 11, 12, 13, 14, 15, 16, 17, 18, 19, 20, 21, 22, 23, 24, 25, 26, 27, 28, 29, 30, 31, 32, 33, 34, 35, 36, 37, 38, 39, 40, 41, 42, 43, 44, 45, 46, 47, 48, 49, 50, 51, 52, 53, 54, 55, 56, 57, 58, 59, 60, 61, 62, 63, 64, 65, 66, 67, 68, 69, 70, 71, 72, 73, 74, 75, 76, 77, 78, 79, 80, 81, 82, 83, 84, 85, 86, 87, 88, 89, 90, 91, 92, 93, 94, 95, 96, 97, 98, 99, 100, 101, 102, 103, 104, 105, 106, 107, 108, 109, 110, 111, 112, 113, 114, 115, 116, 117, 118, 119, 120, 121, 122, 123, 124, 125, 126, 127, 128, 129, 130, 131, 132, 133, 134, 135, 136, 137, 138, 139, 140, 141, 142, 143, 144, 145, 146, 147, 148, 149, 150, 151, 152, 153, 154, 155, 156, 157, 158, 159, 160, 161, 162, 163, 164, 165, 166, 167, 168, 169, 170, 171, 172, 173, 174, 175, 176, 177, 178, 179, 180, 181, 182, 183, 184, 185, 186, 187, 188, 189, 190, 191, 192, 193, 194, 195, 196, 197, 198, 199, 200, 201, 202, 203, 204, 205, 206, 207, 208, 209, 210, 211, 212, 213, 214, 215, 216, 217, 218, 219, 220, 221, 222, 223, 224, 225, 226, 227, 228, 229, 230, 231, 232, 233, 234, 235, 236, 237, 238, 239, 240, 241, 242, 243, 244, 245, 246, 247, 248, 249, 250, 251, 252, 253, 254, 255, 256, 257, 258, 259, 260, 261, 262, 263, 264, 265, 266, 267, 268, 269, 270, 271, 272, 273, 274, 275, 276, 277, 278, 279, 280, 281, 282, 283, 284, 285, 286, 287, 288, 289, 290, 291, 292, 293, 294, 295, 296, 297, 298, 299, 300, 301, 302, 303, 304, 305, 306, 307, 308, 309, 310, 311, 312, 313, 314, 315, 316, 317, 318, 319, 320, 321, 322, 323, 324, 325, 326, 327, 328, 329, 330, 331, 332, 333, 334, 335, 336, 337, 338, 339, 340, 341, 342, 343, 344, 345, 346, 347, 348, 349, 350, 351, 352, 353, 354, 355, 356, 357, 358, 359, 360, 361, 362, 363, 364, 365, 366, 367, 368, 369, 370, 371, 372, 373, 374, 375, 376, 377, 378, 379, 380, 381, 382, 383, 384, 385, 386, 387, 388, 389, 390, 391, 392, 393, 394, 395, 396, 397, 398, 399, 400, 401, 402, 403, 404, 405, 406, 407, 408, 409, 410, 411, 412, 413, 414, 415, 416, 417, 418, 419, 420, 421, 422, 423, 424, 425, 426, 427, 428, 429, 430, 431, 432, 433, 434, 435, 436, 437, 438, 439, 440, 441, 442, 443, 444, 445, 446, 447, 448, 449, 450, 451, 452, 453, 454, 455, 456, 457, 458, 459, 460, 461, 462, 463, 464, 465, 466, 467, 468, 469, 470, 471, 472, 473, 474, 475, 476, 477, 478, 479, 480, 481, 482, 483, 484, 485, 486, 487, 488, 489, 490, 491, 492, 493, 494, 495, 496, 497, 498, 499, 500, 501, 502, 503, 504, 505, 506, 507, 508, 509, 510, 511, 512, 513, 514, 515, 516, 517, 518, 519, 520, 521, 522, 523, 524, 525, 526, 527, 528, 529, 530, 531, 532, 533, 534, 535, 536, 537, 538, 539, 540, 541, 542, 543, 544, 545, 546, 547, 548, 549, 550, 551, 552, 553, 554, 555, 556, 557, 558, 559, 560, 561, 562, 563, 564, 565, 566, 567, 568, 569, 570, 571, 572, 573, 574, 575, 576, 577, 578, 579, 580, 581, 582, 583, 584, 585, 586, 587, 588, 589, 590, 591, 592, 593, 594, 595, 596, 597, 598, 599, 600, 601, 602, 603, 604, 605, 606, 607, 608, 609, 610, 611, 612, 613, 614, 615, 616, 617, 618, 619, 620, 621, 622, 623, 624, 625, 626, 627, 628, 629, 630, 631, 632, 633, 634, 635, 636, 637, 638, 639, 640, 641, 642, 643, 644, 645, 646, 647, 648, 649, 650, 651, 652, 653, 654, 655, 656, 657, 658, 659, 660, 661, 662, 663, 664, 665, 666, 667, 668, 669, 670, 671, 672, 673, 674, 675, 676, 677, 678, 679, 680, 681, 682, 683, 684, 685, 686, 687, 688, 689, 690, 691, 692, 693, 694, 695, 696, 697, 698, 699, 700, 701, 702, 703, 704, 705, 706, 707, 708, 709, 710, 711, 712, 713, 714, 715, 716, 717, 718, 719, 720, 721, 722, 723, 724, 725, 726, 727, 728, 729, 730, 731, 732, 733, 734, 735, 736, 737, 738, 739, 740, 741, 742, 743, 744, 745, 746, 747, 748, 749, 750, 751, 752, 753, 754, 755, 756, 757, 758, 759, 760, 761, 762, 763, 764, 765, 766, 767, 768, 769, 770, 771, 772, 773, 774, 775, 776, 777, 778, 779, 780, 781, 782, 783, 784, 785, 786, 787, 788, 789, 790, 791, 792, 793, 794, 795, 796, 797, 798, 799, 800, 801, 802, 803, 804, 805, 806, 807, 808, 809, 810, 811, 812, 813, 814, 815, 816, 817, 818, 819, 820, 821, 822, 823, 824, 825, 826, 827, 828, 829, 830, 831, 832, 833, 834, 835, 836, 837, 838, 839, 840, 841, 842, 843, 844, 845, 846, 847, 848, 849, 850, 851, 852, 853, 854, 855, 856, 857, 858, 859, 860, 861, 862, 863, 864, 865, 866, 867, 868, 869, 870, 871, 872],
      "AcquisitionTime": ["110125.830000", "110126.290000", "110126.750000", "110127.210000", "110127.670000", "110128.130000", "110128.590000", "110129.050000", "110129.510000", "110129.970000", "110130.430000", "110130.890000", "110131.350000", "110131.810000", "110132.270000", "110132.730000", "110133.190000", "110133.650000", "110134.110000", "110134.570000", "110135.030000", "110135.490000", "110135.950000", "110136.410000", "110136.870000", "110137.330000", "110137.790000", "110138.250000", "110138.710000", "110139.170000", "110139.630000", "110140.090000", "110140.550000", "110141.010000", "110141.470000", "110141.930000", "110142.390000", "110142.850000", "110143.310000", "110143.770000", "110144.230000", "110144.690000", "110145.150000", "110145.610000", "110146.070000", "110146.530000", "110146.990000", "110147.450000", "110147.910000", "110148.370000", "110148.830000", "110149.290000", "110149.750000", "110150.210000", "110150.670000", "110151.130000", "110151.590000", "110152.050000", "110152.510000", "110152.970000", "110153.430000", "110153.890000", "110154.350000", "110154.810000", "110155.270000", "110155.730000", "110156.190000", "110156.650000", "110157.110000", "110157.570000", "110158.030000", "110158.490000", "110158.950000", "110159.410000", "110159.870000", "110200.330000", "110200.790000", "110201.250000", "110201.710000", "110202.170000", "110202.630000", "110203.090000", "110203.550000", "110204.010000", "110204.470000", "110204.930000", "110205.390000", "110205.850000", "110206.310000", "110206.770000", "110207.230000", "110207.690000", "110208.150000", "110208.610000", "110209.070000", "110209.530000", "110209.990000", "110210.450000", "110210.910000", "110211.370000", "110211.830000", "110212.290000", "110212.750000", "110213.210000", "110213.670000", "110214.130000", "110214.590000", "110215.050000", "110215.510000", "110215.970000", "110216.430000", "110216.890000", "110217.350000", "110217.810000", "110218.270000", "110218.730000", "110219.190000", "110219.650000", "110220.110000", "110220.570000", "110221.030000", "110221.490000", "110221.950000", "110222.410000", "110222.870000", "110223.330000", "110223.790000", "110224.250000", "110224.710000", "110225.170000", "110225.630000", "110226.090000", "110226.550000", "110227.010000", "110227.470000", "110227.930000", "110228.390000", "110228.850000", "110229.310000", "110229.770000", "110230.230000", "110230.690000", "110231.150000", "110231.610000", "110232.070000", "110232.530000", "110232.990000", "110233.450000", "110233.910000", "110234.370000", "110234.830000", "110235.290000", "110235.750000", "110236.210000", "110236.670000", "110237.130000", "110237.590000", "110238.050000", "110238.510000", "110238.970000", "110239.430000", "110239.890000", "110240.350000", "110240.810000", "110241.270000", "110241.730000", "110242.190000", "110242.650000", "110243.110000", "110243.570000", "110244.030000", "110244.490000", "110244.950000", "110245.410000", "110245.870000", "110246.330000", "110246.790000", "110247.250000", "110247.710000", "110248.170000", "110248.630000", "110249.090000", "110249.550000", "110250.010000", "110250.470000", "110250.930000", "110251.390000", "110251.850000", "110252.310000", "110252.770000", "110253.230000", "110253.690000", "110254.150000", "110254.610000", "110255.070000", "110255.530000", "110255.990000", "110256.450000", "110256.910000", "110257.370000", "110257.830000", "110258.290000", "110258.750000", "110259.210000", "110259.670000", "110300.130000", "110300.590000", "110301.050000", "110301.510000", "110301.970000", "110302.430000", "110302.890000", "110303.350000", "110303.810000", "110304.270000", "110304.730000", "110305.190000", "110305.650000", "110306.110000", "110306.570000", "110307.030000", "110307.490000", "110307.950000", "110308.410000", "110308.870000", "110309.330000", "110309.790000", "110310.250000", "110310.710000", "110311.170000", "110311.630000", "110312.090000", "110312.550000", "110313.010000", "110313.470000", "110313.930000", "110314.390000", "110314.850000", "110315.310000", "110315.770000", "110316.230000", "110316.690000", "110317.150000", "110317.610000", "110318.070000", "110318.530000", "110318.990000", "110319.450000", "110319.910000", "110320.370000", "110320.830000", "110321.290000", "110321.750000", "110322.210000", "110322.670000", "110323.130000", "110323.590000", "110324.050000", "110324.510000", "110324.970000", "110325.430000", "110325.890000", "110326.350000", "110326.810000", "110327.270000", "110327.730000", "110328.190000", "110328.650000", "110329.110000", "110329.570000", "110330.030000", "110330.490000", "110330.950000", "110331.410000", "110331.870000", "110332.330000", "110332.790000", "110333.250000", "110333.710000", "110334.170000", "110334.630000", "110335.090000", "110335.550000", "110336.010000", "110336.470000", "110336.930000", "110337.390000", "110337.850000", "110338.310000", "110338.770000", "110339.230000", "110339.690000", "110340.150000", "110340.610000", "110341.070000", "110341.530000", "110341.990000", "110342.450000", "110342.910000", "110343.370000", "110343.830000", "110344.290000", "110344.750000", "110345.210000", "110345.670000", "110346.130000", "110346.590000", "110347.050000", "110347.510000", "110347.970000", "110348.430000", "110348.890000", "110349.350000", "110349.810000", "110350.270000", "110350.730000", "110351.190000", "110351.650000", "110352.110000", "110352.570000", "110353.030000", "110353.490000", "110353.950000", "110354.410000", "110354.870000", "110355.330000", "110355.790000", "110356.250000", "110356.710000", "110357.170000", "110357.630000", "110358.090000", "110358.550000", "110359.010000", "110359.470000", "110359.930000", "110400.390000", "110400.850000", "110401.310000", "110401.770000", "110402.230000", "110402.690000", "110403.150000", "110403.610000", "110404.070000", "110404.530000", "110404.990000", "110405.450000", "110405.910000", "110406.370000", "110406.830000", "110407.290000", "110407.750000", "110408.210000", "110408.670000", "110409.130000", "110409.590000", "110410.050000", "110410.510000", "110410.970000", "110411.430000", "110411.890000", "110412.350000", "110412.810000", "110413.270000", "110413.730000", "110414.190000", "110414.650000", "110415.110000", "110415.570000", "110416.030000", "110416.490000", "110416.950000", "110417.410000", "110417.870000", "110418.330000", "110418.790000", "110419.250000", "110419.710000", "110420.170000", "110420.630000", "110421.090000", "110421.550000", "110422.010000", "110422.470000", "110422.930000", "110423.390000", "110423.850000", "110424.310000", "110424.770000", "110425.230000", "110425.690000", "110426.150000", "110426.610000", "110427.070000", "110427.530000", "110427.990000", "110428.450000", "110428.910000", "110429.370000", "110429.830000", "110430.290000", "110430.750000", "110431.210000", "110431.670000", "110432.130000", "110432.590000", "110433.050000", "110433.510000", "110433.970000", "110434.430000", "110434.890000", "110435.350000", "110435.810000", "110436.270000", "110436.730000", "110437.190000", "110437.650000", "110438.110000", "110438.570000", "110439.030000", "110439.490000", "110439.950000", "110440.410000", "110440.870000", "110441.330000", "110441.790000", "110442.250000", "110442.710000", "110443.170000", "110443.630000", "110444.090000", "110444.550000", "110445.010000", "110445.470000", "110445.930000", "110446.390000", "110446.850000", "110447.310000", "110447.770000", "110448.230000", "110448.690000", "110449.150000", "110449.610000", "110450.070000", "110450.530000", "110450.990000", "110451.450000", "110451.910000", "110452.370000", "110452.830000", "110453.290000", "110453.750000", "110454.210000", "110454.670000", "110455.130000", "110455.590000", "110456.050000", "110456.510000", "110456.970000", "110457.430000", "110457.890000", "110458.350000", "110458.810000", "110459.270000", "110459.730000", "110500.190000", "110500.650000", "110501.110000", "110501.570000", "110502.030000", "110502.490000", "110502.950000", "110503.410000", "110503.870000", "110504.330000", "110504.790000", "110505.250000", "110505.710000", "110506.170000", "110506.630000", "110507.090000", "110507.550000", "110508.010000", "110508.470000", "110508.930000", "110509.390000", "110509.850000", "110510.310000", "110510.770000", "110511.230000", "110511.690000", "110512.150000", "110512.610000", "110513.070000", "110513.530000", "110513.990000", "110514.450000", "110514.910000", "110515.370000", "110515.830000", "110516.290000", "110516.750000", "110517.210000", "110517.670000", "110518.130000", "110518.590000", "110519.050000", "110519.510000", "110519.970000", "110520.430000", "110520.890000", "110521.350000", "110521.810000", "110522.270000", "110522.730000", "110523.190000", "110523.650000", "110524.110000", "110524.570000", "110525.030000", "110525.490000", "110525.950000", "110526.410000", "110526.870000", "110527.330000", "110527.790000", "110528.250000", "110528.710000", "110529.170000", "110529.630000", "110530.090000", "110530.550000", "110531.010000", "110531.470000", "110531.930000", "110532.390000", "110532.850000", "110533.310000", "110533.770000", "110534.230000", "110534.690000", "110535.150000", "110535.610000", "110536.070000", "110536.530000", "110536.990000", "110537.450000", "110537.910000", "110538.370000", "110538.830000", "110539.290000", "110539.750000", "110540.210000", "110540.670000", "110541.130000", "110541.590000", "110542.050000", "110542.510000", "110542.970000", "110543.430000", "110543.890000", "110544.350000", "110544.810000", "110545.270000", "110545.730000", "110546.190000", "110546.650000", "110547.110000", "110547.570000", "110548.030000", "110548.490000", "110548.950000", "110549.410000", "110549.870000", "110550.330000", "110550.790000", "110551.250000", "110551.710000", "110552.170000", "110552.630000", "110553.090000", "110553.550000", "110554.010000", "110554.470000", "110554.930000", "110555.390000", "110555.850000", "110556.310000", "110556.770000", "110557.230000", "110557.690000", "110558.150000", "110558.610000", "110559.070000", "110559.530000", "110559.990000", "110600.450000", "110600.910000", "110601.370000", "110601.830000", "110602.290000", "110602.750000", "110603.210000", "110603.670000", "110604.130000", "110604.590000", "110605.050000", "110605.510000", "110605.970000", "110606.430000", "110606.890000", "110607.350000", "110607.810000", "110608.270000", "110608.730000", "110609.190000", "110609.650000", "110610.110000", "110610.570000", "110611.030000", "110611.490000", "110611.950000", "110612.410000", "110612.870000", "110613.330000", "110613.790000", "110614.250000", "110614.710000", "110615.170000", "110615.630000", "110616.090000", "110616.550000", "110617.010000", "110617.470000", "110617.930000", "110618.390000", "110618.850000", "110619.310000", "110619.770000", "110620.230000", "110620.690000", "110621.150000", "110621.610000", "110622.070000", "110622.530000", "110622.990000", "110623.450000", "110623.910000", "110624.370000", "110624.830000", "110625.290000", "110625.750000", "110626.210000", "110626.670000", "110627.130000", "110627.590000", "110628.050000", "110628.510000", "110628.970000", "110629.430000", "110629.890000", "110630.350000", "110630.810000", "110631.270000", "110631.730000", "110632.190000", "110632.650000", "110633.110000", "110633.570000", "110634.030000", "110634.490000", "110634.950000", "110635.410000", "110635.870000", "110636.330000", "110636.790000", "110637.250000", "110637.710000", "110638.170000", "110638.630000", "110639.090000", "110639.550000", "110640.010000", "110640.470000", "110640.930000", "110641.390000", "110641.850000", "110642.310000", "110642.770000", "110643.230000", "110643.690000", "110644.150000", "110644.610000", "110645.070000", "110645.530000", "110645.990000", "110646.450000", "110646.910000", "110647.370000", "110647.830000", "110648.290000", "110648.750000", "110649.210000", "110649.670000", "110650.130000", "110650.590000", "110651.050000", "110651.510000", "110651.970000", "110652.430000", "110652.890000", "110653.350000", "110653.810000", "110654.270000", "110654.730000", "110655.190000", "110655.650000", "110656.110000", "110656.570000", "110657.030000", "110657.490000", "110657.950000", "110658.410000", "110658.870000", "110659.330000", "110659.790000", "110700.250000", "110700.710000", "110701.170000", "110701.630000", "110702.090000", "110702.550000", "110703.010000", "110703.470000", "110703.930000", "110704.390000", "110704.850000", "110705.310000", "110705.770000", "110706.230000", "110706.690000", "110707.150000", "110707.610000", "110708.070000", "110708.530000", "110708.990000", "110709.450000", "110709.910000", "110710.370000", "110710.830000", "110711.290000", "110711.750000", "110712.210000", "110712.670000", "110713.130000", "110713.590000", "110714.050000", "110714.510000", "110714.970000", "110715.430000", "110715.890000", "110716.350000", "110716.810000", "110717.270000", "110717.730000", "110718.190000", "110718.650000", "110719.110000", "110719.570000", "110720.030000", "110720.490000", "110720.950000", "110721.410000", "110721.870000", "110722.330000", "110722.790000", "110723.250000", "110723.710000", "110724.170000", "110724.630000", "110725.090000", "110725.550000", "110726.010000", "110726.470000", "110726.930000", "110727.390000", "110727.850000", "110728.310000", "110728.770000", "110729.230000", "110729.690000", "110730.150000", "110730.610000", "110731.070000", "110731.530000", "110731.990000", "110732.450000", "110732.910000", "110733.370000", "110733.830000", "110734.290000", "110734.750000", "110735.210000", "110735.670000", "110736.130000", "110736.590000", "110737.050000", "110737.510000", "110737.970000", "110738.430000", "110738.890000", "110739.350000", "110739.810000", "110740.270000", "110740.730000", "110741.190000", "110741.650000", "110742.110000", "110742.570000", "110743.030000", "110743.490000", "110743.950000", "110744.410000", "110744.870000", "110745.330000", "110745.790000", "110746.250000", "110746.710000", "110747.170000", "110747.630000", "110748.090000", "110748.550000", "110749.010000", "110749.470000", "110749.930000", "110750.390000", "110750.850000", "110751.310000", "110751.770000", "110752.230000", "110752.690000", "110753.150000", "110753.610000", "110754.070000", "110754.530000", "110754.990000", "110755.450000", "110755.910000", "110756.370000", "110756.830000", "110757.290000", "110757.750000", "110758.210000", "110758.670000", "110759.130000", "110759.590000", "110800.050000", "110800.510000", "110800.970000", "110801.430000", "110801.890000", "110802.350000", "110802.810000", "110803.270000", "110803.730000", "110804.190000", "110804.650000", "110805.110000", "110805.570000", "110806.030000", "110806.490000"],
