{
  "AcquisitionMatrixPE": 82,
  "AcquisitionNumber": 1,
  "AcquisitionTime": "10:39:51.685000",
  "BandwidthPerPixelPhaseEncode": 24.888,
  "BaseResolution": 82,
  "BodyPartExamined": "BRAIN",
  "ConsistencyInfo": "N4_VE11E_LATEST_20181129",
  "ConversionSoftware": "dcm2niix",
  "ConversionSoftwareVersion": "v1.0.20201102",
  "DerivedVendorReportedEchoSpacing": 0.00049,
  "DeviceSerialNumber": "66112",
  "DwellTime": 2e-06,
  "EchoTime": 0.0272,
  "EchoTrainLength": 82,
  "EffectiveEchoSpacing": 0.00049,
  "FlipAngle": 44,
  "ImageComments": "Unaliased MB8/PE3",
  "ImageOrientationPatientDICOM": [0.999982, 0.00150576, -0.00581767, -0.00209437, 0.994727, -0.102536],
  "ImageType": [
    "ORIGINAL",
    "PRIMARY",
    "M",
    "MB",
    "ND",
    "NORM",
    "MOSAIC"
],
  "ImagingFrequency": 123.259,
  "InPlanePhaseEncodingDirectionDICOM": "COL",
  "InstitutionAddress": "Maynard 3,Hanover,NH,US,03755",
  "InstitutionName": "Dartmouth College - PBS",
  "InstitutionalDepartmentName": "Department",
  "MRAcquisitionType": "2D",
  "MagneticFieldStrength": 3,
  "Manufacturer": "Siemens",
  "ManufacturersModelName": "Prisma",
  "Modality": "MR",
  "MultibandAccelerationFactor": 8,
  "PartialFourier": 1,
  "PatientPosition": "HFS",
  "PercentPhaseFOV": 100,
  "PercentSampling": 100,
  "PhaseEncodingDirection": "j-",
  "PhaseEncodingSteps": 82,
  "PhaseResolution": 1,
  "PixelBandwidth": 3050,
  "ProcedureStepDescription": "Wager_Wager^1076_spacetop",
  "ProtocolName": "func_run-01_task-social_acq-ap-mb8",
  "PulseSequenceDetails": "%CustomerSeq%\\cmrr_mbep2d_bold",
  "ReceiveCoilActiveElements": "HEA;HEP",
  "ReceiveCoilName": "Head_32",
  "ReconMatrixPE": 82,
  "RepetitionTime": 0.46,
  "SAR": 0.0865017,
  "ScanOptions": "FS",
  "ScanningSequence": "EP",
  "SequenceName": "epfid2d1_82",
  "SequenceVariant": "SK\\SS",
  "SeriesDescription": "func_run-01_task-social_acq-ap-mb8",
  "SeriesNumber": 8,
  "ShimSetting": [4227, -7783, -7264, 186, -94, -269, -215, 66],
  "SliceThickness": 2.7,
  "SliceTiming": [0, 0.2525, 0.0625, 0.315, 0.1275, 0.3775, 0.19, 0, 0.2525, 0.0625, 0.315, 0.1275, 0.3775, 0.19, 0, 0.2525, 0.0625, 0.315, 0.1275, 0.3775, 0.19, 0, 0.2525, 0.0625, 0.315, 0.1275, 0.3775, 0.19, 0, 0.2525, 0.0625, 0.315, 0.1275, 0.3775, 0.19, 0, 0.2525, 0.0625, 0.315, 0.1275, 0.3775, 0.19, 0, 0.2525, 0.0625, 0.315, 0.1275, 0.3775, 0.19, 0, 0.2525, 0.0625, 0.315, 0.1275, 0.3775, 0.19],
  "SoftwareVersions": "syngo MR E11",
  "SpacingBetweenSlices": 2.7,
  "StationName": "AWP66112",
  "TaskName": "social",
  "TotalReadoutTime": 0.03969,
  "TxRefAmp": 253.199,
  "WipMemBlock": "ca336a98-01ef-43a6-a8c7-f79882982e0e||Sequence: R016 ve11e/master r/434b28f1; Aug  7 2019 18:53:46 by eja",
  "dcmmeta_affine": [
    [-2.6828784942626953, -0.00561905512586236, -0.015208018012344837, 110.66622924804688],
    [-0.004039842169731855, 2.6687800884246826, -0.27687376737594604, -89.36829376220703],
    [-0.015608380548655987, 0.27509525418281555, 2.685723304748535, -116.43939971923828],
    [0.0, 0.0, 0.0, 1.0]
],
  "dcmmeta_reorient_transform": [
    [0.0, -1.0, 0.0, 81.0],
    [1.0, 0.0, 0.0, 0.0],
    [0.0, 0.0, 1.0, 0.0],
    [0.0, 0.0, 0.0, 1.0]
],
  "dcmmeta_shape": [82, 82, 56, 872],
  "dcmmeta_slice_dim": 2,
  "dcmmeta_version": 0.6,
  "global": {
    "const": {
      "AccessionNumber": "A004322",
      "AcquisitionMatrix": [82, 0, 0, 82],
      "AngioFlag": "N",
      "BitsAllocated": 16,
      "BitsStored": 16,
      "BodyPartExamined": "BRAIN",
      "Columns": 656,
      "EchoNumbers": 1,
      "EchoTime": 27.2,
      "EchoTrainLength": 82,
      "FlipAngle": 44.0,
      "HighBit": 15,
      "ImageOrientationPatient": [0.99998194354602, 0.00150575927282, -0.0058176688569, -0.0020943750397, 0.99472714050689, -0.1025355037642],
      "ImagePositionPatient": [-878.58452812649, -893.9022540495, -10.724736825974],
      "ImageType": [
        "ORIGINAL",
        "PRIMARY",
        "M",
        "MB",
        "ND",
        "NORM",
        "MOSAIC"
],
      "ImagedNucleus": "1H",
      "ImagingFrequency": 123.259152,
      "InPlanePhaseEncodingDirection": "COL",
      "MRAcquisitionType": "2D",
      "MagneticFieldStrength": 3.0,
      "Manufacturer": "SIEMENS",
      "ManufacturerModelName": "Prisma",
      "Modality": "MR",
      "NumberOfAverages": 1.0,
      "NumberOfPhaseEncodingSteps": 82,
      "PercentPhaseFieldOfView": 100.0,
      "PercentSampling": 100.0,
      "PerformedProcedureStepStartTime": "102811.410000",
      "PhotometricInterpretation": "MONOCHROME2",
      "PixelBandwidth": 3050.0,
      "PixelRepresentation": 0,
      "PixelSpacing": [2.6829268932343, 2.6829268932343],
      "ProtocolName": "func_run-01_task-social_acq-ap-mb8",
      "RepetitionTime": 460.0,
      "Rows": 656,
      "SAR": 0.08650169303349,
      "SamplesPerPixel": 1,
      "ScanOptions": "FS",
      "ScanningSequence": "EP",
      "SequenceName": "epfid2d1_82",
      "SequenceVariant": [
        "SK",
        "SS"
],
      "SeriesDescription": "func_run-01_task-social_acq-ap-mb8",
      "SeriesNumber": 8,
      "SeriesTime": "104018.354000",
      "SliceLocation": -107.28269718893,
      "SliceThickness": 2.7000000476837,
      "SmallestImagePixelValue": 0,
      "SoftwareVersions": "syngo MR E11",
      "SpacingBetweenSlices": 2.699999952439,
      "SpecificCharacterSet": "ISO_IR 100",
      "StudyID": "2",
      "StudyTime": "102811.370000",
      "TransmitCoilName": "Body",
      "VariableFlipAngleFlag": "N",
      "WindowCenterWidthExplanation": "Algo1"
    },
    "slices": {}
  },
  "time": {
    "samples": {
      "AcquisitionNumber": [1, 2, 3, 4, 5, 6, 7, 8, 9, 10, 11, 12, 13, 14, 15, 16, 17, 18, 19, 20, 21, 22, 23, 24, 25, 26, 27, 28, 29, 30, 31, 32, 33, 34, 35, 36, 37, 38, 39, 40, 41, 42, 43, 44, 45, 46, 47, 48, 49, 50, 51, 52, 53, 54, 55, 56, 57, 58, 59, 60, 61, 62, 63, 64, 65, 66, 67, 68, 69, 70, 71, 72, 73, 74, 75, 76, 77, 78, 79, 80, 81, 82, 83, 84, 85, 86, 87, 88, 89, 90, 91, 92, 93, 94, 95, 96, 97, 98, 99, 100, 101, 102, 103, 104, 105, 106, 107, 108, 109, 110, 111, 112, 113, 114, 115, 116, 117, 118, 119, 120, 121, 122, 123, 124, 125, 126, 127, 128, 129, 130, 131, 132, 133, 134, 135, 136, 137, 138, 139, 140, 141, 142, 143, 144, 145, 146, 147, 148, 149, 150, 151, 152, 153, 154, 155, 156, 157, 158, 159, 160, 161, 162, 163, 164, 165, 166, 167, 168, 169, 170, 171, 172, 173, 174, 175, 176, 177, 178, 179, 180, 181, 182, 183, 184, 185, 186, 187, 188, 189, 190, 191, 192, 193, 194, 195, 196, 197, 198, 199, 200, 201, 202, 203, 204, 205, 206, 207, 208, 209, 210, 211, 212, 213, 214, 215, 216, 217, 218, 219, 220, 221, 222, 223, 224, 225, 226, 227, 228, 229, 230, 231, 232, 233, 234, 235, 236, 237, 238, 239, 240, 241, 242, 243, 244, 245, 246, 247, 248, 249, 250, 251, 252, 253, 254, 255, 256, 257, 258, 259, 260, 261, 262, 263, 264, 265, 266, 267, 268, 269, 270, 271, 272, 273, 274, 275, 276, 277, 278, 279, 280, 281, 282, 283, 284, 285, 286, 287, 288, 289, 290, 291, 292, 293, 294, 295, 296, 297, 298, 299, 300, 301, 302, 303, 304, 305, 306, 307, 308, 309, 310, 311, 312, 313, 314, 315, 316, 317, 318, 319, 320, 321, 322, 323, 324, 325, 326, 327, 328, 329, 330, 331, 332, 333, 334, 335, 336, 337, 338, 339, 340, 341, 342, 343, 344, 345, 346, 347, 348, 349, 350, 351, 352, 353, 354, 355, 356, 357, 358, 359, 360, 361, 362, 363, 364, 365, 366, 367, 368, 369, 370, 371, 372, 373, 374, 375, 376, 377, 378, 379, 380, 381, 382, 383, 384, 385, 386, 387, 388, 389, 390, 391, 392, 393, 394, 395, 396, 397, 398, 399, 400, 401, 402, 403, 404, 405, 406, 407, 408, 409, 410, 411, 412, 413, 414, 415, 416, 417, 418, 419, 420, 421, 422, 423, 424, 425, 426, 427, 428, 429, 430, 431, 432, 433, 434, 435, 436, 437, 438, 439, 440, 441, 442, 443, 444, 445, 446, 447, 448, 449, 450, 451, 452, 453, 454, 455, 456, 457, 458, 459, 460, 461, 462, 463, 464, 465, 466, 467, 468, 469, 470, 471, 472, 473, 474, 475, 476, 477, 478, 479, 480, 481, 482, 483, 484, 485, 486, 487, 488, 489, 490, 491, 492, 493, 494, 495, 496, 497, 498, 499, 500, 501, 502, 503, 504, 505, 506, 507, 508, 509, 510, 511, 512, 513, 514, 515, 516, 517, 518, 519, 520, 521, 522, 523, 524, 525, 526, 527, 528, 529, 530, 531, 532, 533, 534, 535, 536, 537, 538, 539, 540, 541, 542, 543, 544, 545, 546, 547, 548, 549, 550, 551, 552, 553, 554, 555, 556, 557, 558, 559, 560, 561, 562, 563, 564, 565, 566, 567, 568, 569, 570, 571, 572, 573, 574, 575, 576, 577, 578, 579, 580, 581, 582, 583, 584, 585, 586, 587, 588, 589, 590, 591, 592, 593, 594, 595, 596, 597, 598, 599, 600, 601, 602, 603, 604, 605, 606, 607, 608, 609, 610, 611, 612, 613, 614, 615, 616, 617, 618, 619, 620, 621, 622, 623, 624, 625, 626, 627, 628, 629, 630, 631, 632, 633, 634, 635, 636, 637, 638, 639, 640, 641, 642, 643, 644, 645, 646, 647, 648, 649, 650, 651, 652, 653, 654, 655, 656, 657, 658, 659, 660, 661, 662, 663, 664, 665, 666, 667, 668, 669, 670, 671, 672, 673, 674, 675, 676, 677, 678, 679, 680, 681, 682, 683, 684, 685, 686, 687, 688, 689, 690, 691, 692, 693, 694, 695, 696, 697, 698, 699, 700, 701, 702, 703, 704, 705, 706, 707, 708, 709, 710, 711, 712, 713, 714, 715, 716, 717, 718, 719, 720, 721, 722, 723, 724, 725, 726, 727, 728, 729, 730, 731, 732, 733, 734, 735, 736, 737, 738, 739, 740, 741, 742, 743, 744, 745, 746, 747, 748, 749, 750, 751, 752, 753, 754, 755, 756, 757, 758, 759, 760, 761, 762, 763, 764, 765, 766, 767, 768, 769, 770, 771, 772, 773, 774, 775, 776, 777, 778, 779, 780, 781, 782, 783, 784, 785, 786, 787, 788, 789, 790, 791, 792, 793, 794, 795, 796, 797, 798, 799, 800, 801, 802, 803, 804, 805, 806, 807, 808, 809, 810, 811, 812, 813, 814, 815, 816, 817, 818, 819, 820, 821, 822, 823, 824, 825, 826, 827, 828, 829, 830, 831, 832, 833, 834, 835, 836, 837, 838, 839, 840, 841, 842, 843, 844, 845, 846, 847, 848, 849, 850, 851, 852, 853, 854, 855, 856, 857, 858, 859, 860, 861, 862, 863, 864, 865, 866, 867, 868, 869, 870, 871, 872],
      "AcquisitionTime": ["103951.685000", "103952.145000", "103952.605000", "103953.065000", "103953.525000", "103953.985000", "103954.445000", "103954.905000", "103955.365000", "103955.825000", "103956.285000", "103956.745000", "103957.205000", "103957.665000", "103958.125000", "103958.585000", "103959.045000", "103959.505000", "103959.965000", "104000.425000", "104000.885000", "104001.345000", "104001.805000", "104002.265000", "104002.725000", "104003.185000", "104003.645000", "104004.105000", "104004.565000", "104005.025000", "104005.485000", "104005.945000", "104006.405000", "104006.865000", "104007.325000", "104007.785000", "104008.245000", "104008.705000", "104009.165000", "104009.625000", "104010.085000", "104010.545000", "104011.005000", "104011.465000", "104011.925000", "104012.385000", "104012.845000", "104013.305000", "104013.765000", "104014.225000", "104014.685000", "104015.145000", "104015.605000", "104016.065000", "104016.525000", "104016.985000", "104017.445000", "104017.905000", "104018.365000", "104018.825000", "104019.285000", "104019.745000", "104020.205000", "104020.665000", "104021.125000", "104021.585000", "104022.045000", "104022.505000", "104022.965000", "104023.425000", "104023.885000", "104024.345000", "104024.805000", "104025.265000", "104025.725000", "104026.185000", "104026.645000", "104027.105000", "104027.565000", "104028.025000", "104028.485000", "104028.945000", "104029.405000", "104029.865000", "104030.325000", "104030.785000", "104031.245000", "104031.705000", "104032.165000", "104032.625000", "104033.085000", "104033.545000", "104034.005000", "104034.465000", "104034.925000", "104035.385000", "104035.845000", "104036.305000", "104036.765000", "104037.225000", "104037.685000", "104038.145000", "104038.605000", "104039.065000", "104039.525000", "104039.985000", "104040.445000", "104040.905000", "104041.365000", "104041.825000", "104042.285000", "104042.745000", "104043.205000", "104043.665000", "104044.125000", "104044.585000", "104045.045000", "104045.505000", "104045.965000", "104046.425000", "104046.885000", "104047.345000", "104047.805000", "104048.265000", "104048.725000", "104049.185000", "104049.645000", "104050.105000", "104050.565000", "104051.025000", "104051.485000", "104051.945000", "104052.405000", "104052.865000", "104053.325000", "104053.785000", "104054.245000", "104054.705000", "104055.165000", "104055.625000", "104056.085000", "104056.545000", "104057.005000", "104057.465000", "104057.925000", "104058.385000", "104058.845000", "104059.305000", "104059.765000", "104100.225000", "104100.685000", "104101.145000", "104101.605000", "104102.065000", "104102.525000", "104102.985000", "104103.445000", "104103.905000", "104104.365000", "104104.825000", "104105.285000", "104105.745000", "104106.205000", "104106.665000", "104107.125000", "104107.585000", "104108.045000", "104108.505000", "104108.965000", "104109.425000", "104109.885000", "104110.345000", "104110.805000", "104111.265000", "104111.725000", "104112.185000", "104112.645000", "104113.105000", "104113.565000", "104114.025000", "104114.485000", "104114.945000", "104115.405000", "104115.865000", "104116.325000", "104116.785000", "104117.245000", "104117.705000", "104118.165000", "104118.625000", "104119.085000", "104119.545000", "104120.005000", "104120.465000", "104120.925000", "104121.385000", "104121.845000", "104122.305000", "104122.765000", "104123.225000", "104123.685000", "104124.145000", "104124.605000", "104125.065000", "104125.525000", "104125.985000", "104126.445000", "104126.905000", "104127.365000", "104127.825000", "104128.285000", "104128.745000", "104129.205000", "104129.665000", "104130.125000", "104130.585000", "104131.045000", "104131.505000", "104131.965000", "104132.425000", "104132.885000", "104133.345000", "104133.805000", "104134.265000", "104134.725000", "104135.185000", "104135.645000", "104136.105000", "104136.565000", "104137.025000", "104137.485000", "104137.945000", "104138.405000", "104138.865000", "104139.325000", "104139.785000", "104140.245000", "104140.705000", "104141.165000", "104141.625000", "104142.085000", "104142.545000", "104143.005000", "104143.465000", "104143.925000", "104144.385000", "104144.845000", "104145.305000", "104145.765000", "104146.225000", "104146.685000", "104147.145000", "104147.605000", "104148.065000", "104148.525000", "104148.985000", "104149.445000", "104149.905000", "104150.365000", "104150.825000", "104151.285000", "104151.745000", "104152.205000", "104152.665000", "104153.125000", "104153.585000", "104154.045000", "104154.505000", "104154.965000", "104155.425000", "104155.885000", "104156.345000", "104156.805000", "104157.265000", "104157.725000", "104158.185000", "104158.645000", "104159.105000", "104159.565000", "104200.025000", "104200.485000", "104200.945000", "104201.405000", "104201.865000", "104202.325000", "104202.785000", "104203.245000", "104203.705000", "104204.165000", "104204.625000", "104205.085000", "104205.545000", "104206.005000", "104206.465000", "104206.925000", "104207.385000", "104207.845000", "104208.305000", "104208.765000", "104209.225000", "104209.685000", "104210.145000", "104210.605000", "104211.065000", "104211.525000", "104211.985000", "104212.445000", "104212.905000", "104213.365000", "104213.825000", "104214.285000", "104214.745000", "104215.205000", "104215.665000", "104216.125000", "104216.585000", "104217.045000", "104217.505000", "104217.965000", "104218.425000", "104218.885000", "104219.345000", "104219.805000", "104220.265000", "104220.725000", "104221.185000", "104221.645000", "104222.105000", "104222.565000", "104223.025000", "104223.485000", "104223.945000", "104224.405000", "104224.865000", "104225.325000", "104225.785000", "104226.245000", "104226.705000", "104227.165000", "104227.625000", "104228.085000", "104228.545000", "104229.005000", "104229.465000", "104229.925000", "104230.385000", "104230.845000", "104231.305000", "104231.765000", "104232.225000", "104232.685000", "104233.145000", "104233.605000", "104234.065000", "104234.525000", "104234.985000", "104235.445000", "104235.905000", "104236.365000", "104236.825000", "104237.285000", "104237.745000", "104238.205000", "104238.665000", "104239.125000", "104239.585000", "104240.045000", "104240.505000", "104240.965000", "104241.425000", "104241.885000", "104242.345000", "104242.805000", "104243.265000", "104243.725000", "104244.185000", "104244.645000", "104245.105000", "104245.565000", "104246.025000", "104246.485000", "104246.945000", "104247.405000", "104247.865000", "104248.325000", "104248.785000", "104249.245000", "104249.705000", "104250.165000", "104250.625000", "104251.085000", "104251.545000", "104252.005000", "104252.465000", "104252.925000", "104253.385000", "104253.845000", "104254.305000", "104254.765000", "104255.225000", "104255.685000", "104256.145000", "104256.605000", "104257.065000", "104257.525000", "104257.985000", "104258.445000", "104258.905000", "104259.365000", "104259.825000", "104300.285000", "104300.745000", "104301.205000", "104301.665000", "104302.125000", "104302.585000", "104303.045000", "104303.505000", "104303.965000", "104304.425000", "104304.885000", "104305.345000", "104305.805000", "104306.265000", "104306.725000", "104307.185000", "104307.645000", "104308.105000", "104308.565000", "104309.025000", "104309.485000", "104309.945000", "104310.405000", "104310.865000", "104311.325000", "104311.785000", "104312.245000", "104312.705000", "104313.165000", "104313.625000", "104314.085000", "104314.545000", "104315.005000", "104315.465000", "104315.925000", "104316.385000", "104316.845000", "104317.305000", "104317.765000", "104318.225000", "104318.685000", "104319.145000", "104319.605000", "104320.065000", "104320.525000", "104320.985000", "104321.445000", "104321.905000", "104322.365000", "104322.825000", "104323.285000", "104323.745000", "104324.205000", "104324.665000", "104325.125000", "104325.585000", "104326.045000", "104326.505000", "104326.965000", "104327.425000", "104327.885000", "104328.345000", "104328.805000", "104329.265000", "104329.725000", "104330.185000", "104330.645000", "104331.105000", "104331.565000", "104332.025000", "104332.485000", "104332.945000", "104333.405000", "104333.865000", "104334.325000", "104334.785000", "104335.245000", "104335.705000", "104336.165000", "104336.625000", "104337.085000", "104337.545000", "104338.005000", "104338.465000", "104338.925000", "104339.385000", "104339.845000", "104340.305000", "104340.765000", "104341.225000", "104341.685000", "104342.145000", "104342.605000", "104343.065000", "104343.525000", "104343.985000", "104344.445000", "104344.905000", "104345.365000", "104345.825000", "104346.285000", "104346.745000", "104347.205000", "104347.665000", "104348.125000", "104348.585000", "104349.045000", "104349.505000", "104349.965000", "104350.425000", "104350.885000", "104351.345000", "104351.805000", "104352.265000", "104352.725000", "104353.185000", "104353.645000", "104354.105000", "104354.565000", "104355.025000", "104355.485000", "104355.945000", "104356.405000", "104356.865000", "104357.325000", "104357.785000", "104358.245000", "104358.705000", "104359.165000", "104359.625000", "104400.085000", "104400.545000", "104401.005000", "104401.465000", "104401.925000", "104402.385000", "104402.845000", "104403.305000", "104403.765000", "104404.225000", "104404.685000", "104405.145000", "104405.605000", "104406.065000", "104406.525000", "104406.985000", "104407.445000", "104407.905000", "104408.365000", "104408.825000", "104409.285000", "104409.745000", "104410.205000", "104410.665000", "104411.125000", "104411.585000", "104412.045000", "104412.505000", "104412.965000", "104413.425000", "104413.885000", "104414.345000", "104414.805000", "104415.265000", "104415.725000", "104416.185000", "104416.645000", "104417.105000", "104417.565000", "104418.025000", "104418.485000", "104418.945000", "104419.405000", "104419.865000", "104420.325000", "104420.785000", "104421.245000", "104421.705000", "104422.165000", "104422.625000", "104423.085000", "104423.545000", "104424.005000", "104424.465000", "104424.925000", "104425.385000", "104425.845000", "104426.305000", "104426.765000", "104427.225000", "104427.685000", "104428.145000", "104428.605000", "104429.065000", "104429.525000", "104429.985000", "104430.445000", "104430.905000", "104431.365000", "104431.825000", "104432.285000", "104432.745000", "104433.205000", "104433.665000", "104434.125000", "104434.585000", "104435.045000", "104435.505000", "104435.965000", "104436.425000", "104436.885000", "104437.345000", "104437.805000", "104438.265000", "104438.725000", "104439.185000", "104439.645000", "104440.105000", "104440.565000", "104441.025000", "104441.485000", "104441.945000", "104442.405000", "104442.865000", "104443.325000", "104443.785000", "104444.245000", "104444.705000", "104445.165000", "104445.625000", "104446.085000", "104446.545000", "104447.005000", "104447.465000", "104447.925000", "104448.385000", "104448.845000", "104449.305000", "104449.765000", "104450.225000", "104450.685000", "104451.145000", "104451.605000", "104452.065000", "104452.525000", "104452.985000", "104453.445000", "104453.905000", "104454.365000", "104454.825000", "104455.285000", "104455.745000", "104456.205000", "104456.665000", "104457.125000", "104457.585000", "104458.045000", "104458.505000", "104458.965000", "104459.425000", "104459.885000", "104500.345000", "104500.805000", "104501.265000", "104501.725000", "104502.185000", "104502.645000", "104503.105000", "104503.565000", "104504.025000", "104504.485000", "104504.945000", "104505.405000", "104505.865000", "104506.325000", "104506.785000", "104507.245000", "104507.705000", "104508.165000", "104508.625000", "104509.085000", "104509.545000", "104510.005000", "104510.465000", "104510.925000", "104511.385000", "104511.845000", "104512.305000", "104512.765000", "104513.225000", "104513.685000", "104514.145000", "104514.605000", "104515.065000", "104515.525000", "104515.985000", "104516.445000", "104516.905000", "104517.365000", "104517.825000", "104518.285000", "104518.745000", "104519.205000", "104519.665000", "104520.125000", "104520.585000", "104521.045000", "104521.505000", "104521.965000", "104522.425000", "104522.885000", "104523.345000", "104523.805000", "104524.265000", "104524.725000", "104525.185000", "104525.645000", "104526.105000", "104526.565000", "104527.025000", "104527.485000", "104527.945000", "104528.405000", "104528.865000", "104529.325000", "104529.785000", "104530.245000", "104530.705000", "104531.165000", "104531.625000", "104532.085000", "104532.545000", "104533.005000", "104533.465000", "104533.925000", "104534.385000", "104534.845000", "104535.305000", "104535.765000", "104536.225000", "104536.685000", "104537.145000", "104537.605000", "104538.065000", "104538.525000", "104538.985000", "104539.445000", "104539.905000", "104540.365000", "104540.825000", "104541.285000", "104541.745000", "104542.205000", "104542.665000", "104543.125000", "104543.585000", "104544.045000", "104544.505000", "104544.965000", "104545.425000", "104545.885000", "104546.345000", "104546.805000", "104547.265000", "104547.725000", "104548.185000", "104548.645000", "104549.105000", "104549.565000", "104550.025000", "104550.485000", "104550.945000", "104551.405000", "104551.865000", "104552.325000", "104552.785000", "104553.245000", "104553.705000", "104554.165000", "104554.625000", "104555.085000", "104555.545000", "104556.005000", "104556.465000", "104556.925000", "104557.385000", "104557.845000", "104558.305000", "104558.765000", "104559.225000", "104559.685000", "104600.145000", "104600.605000", "104601.065000", "104601.525000", "104601.985000", "104602.445000", "104602.905000", "104603.365000", "104603.825000", "104604.285000", "104604.745000", "104605.205000", "104605.665000", "104606.125000", "104606.585000", "104607.045000", "104607.505000", "104607.965000", "104608.425000", "104608.885000", "104609.345000", "104609.805000", "104610.265000", "104610.725000", "104611.185000", "104611.645000", "104612.105000", "104612.565000", "104613.025000", "104613.485000", "104613.945000", "104614.405000", "104614.865000", "104615.325000", "104615.785000", "104616.245000", "104616.705000", "104617.165000", "104617.625000", "104618.085000", "104618.545000", "104619.005000", "104619.465000", "104619.925000", "104620.385000", "104620.845000", "104621.305000", "104621.765000", "104622.225000", "104622.685000", "104623.145000", "104623.605000", "104624.065000", "104624.525000", "104624.985000", "104625.445000", "104625.905000", "104626.365000", "104626.825000", "104627.285000", "104627.745000", "104628.205000", "104628.665000", "104629.125000", "104629.585000", "104630.045000", "104630.505000", "104630.965000", "104631.425000", "104631.885000", "104632.345000"],
