{
  "AcquisitionMatrixPE": 82,
  "AcquisitionNumber": 1,
  "AcquisitionTime": "10:47:6.015000",
  "BandwidthPerPixelPhaseEncode": 24.888,
  "BaseResolution": 82,
  "BodyPartExamined": "BRAIN",
  "ConsistencyInfo": "N4_VE11E_LATEST_20181129",
  "ConversionSoftware": "dcm2niix",
  "ConversionSoftwareVersion": "v1.0.20201102",
  "DerivedVendorReportedEchoSpacing": 0.00049,
  "DeviceSerialNumber": "66112",
  "DwellTime": 2e-06,
  "EchoTime": 0.0272,
  "EchoTrainLength": 82,
  "EffectiveEchoSpacing": 0.00049,
  "FlipAngle": 44,
  "ImageComments": "Unaliased MB8/PE3",
  "ImageOrientationPatientDICOM": [0.999982, 0.00150576, -0.00581767, -0.00209437, 0.994727, -0.102536],
  "ImageType": [
    "ORIGINAL",
    "PRIMARY",
    "M",
    "MB",
    "ND",
    "NORM",
    "MOSAIC"
],
  "ImagingFrequency": 123.259,
  "InPlanePhaseEncodingDirectionDICOM": "COL",
  "InstitutionAddress": "Maynard 3,Hanover,NH,US,03755",
  "InstitutionName": "Dartmouth College - PBS",
  "InstitutionalDepartmentName": "Department",
  "MRAcquisitionType": "2D",
  "MagneticFieldStrength": 3,
  "Manufacturer": "Siemens",
  "ManufacturersModelName": "Prisma",
  "Modality": "MR",
  "MultibandAccelerationFactor": 8,
  "PartialFourier": 1,
  "PatientPosition": "HFS",
  "PercentPhaseFOV": 100,
  "PercentSampling": 100,
  "PhaseEncodingDirection": "j-",
  "PhaseEncodingSteps": 82,
  "PhaseResolution": 1,
  "PixelBandwidth": 3050,
  "ProcedureStepDescription": "Wager_Wager^1076_spacetop",
  "ProtocolName": "func_run-02_task-social_acq-ap-mb8",
  "PulseSequenceDetails": "%CustomerSeq%\\cmrr_mbep2d_bold",
  "ReceiveCoilActiveElements": "HEA;HEP",
  "ReceiveCoilName": "Head_32",
  "ReconMatrixPE": 82,
  "RepetitionTime": 0.46,
  "SAR": 0.0865017,
  "ScanOptions": "FS",
  "ScanningSequence": "EP",
  "SequenceName": "epfid2d1_82",
  "SequenceVariant": "SK\\SS",
  "SeriesDescription": "func_run-02_task-social_acq-ap-mb8",
  "SeriesNumber": 10,
  "ShimSetting": [4227, -7783, -7264, 186, -94, -269, -215, 66],
  "SliceThickness": 2.7,
  "SliceTiming": [0, 0.2525, 0.065, 0.315, 0.1275, 0.3775, 0.19, 0, 0.2525, 0.065, 0.315, 0.1275, 0.3775, 0.19, 0, 0.2525, 0.065, 0.315, 0.1275, 0.3775, 0.19, 0, 0.2525, 0.065, 0.315, 0.1275, 0.3775, 0.19, 0, 0.2525, 0.065, 0.315, 0.1275, 0.3775, 0.19, 0, 0.2525, 0.065, 0.315, 0.1275, 0.3775, 0.19, 0, 0.2525, 0.065, 0.315, 0.1275, 0.3775, 0.19, 0, 0.2525, 0.065, 0.315, 0.1275, 0.3775, 0.19],
  "SoftwareVersions": "syngo MR E11",
  "SpacingBetweenSlices": 2.7,
  "StationName": "AWP66112",
  "TaskName": "social",
  "TotalReadoutTime": 0.03969,
  "TxRefAmp": 253.199,
  "WipMemBlock": "893b2eef-7431-405f-86c5-94c8cb6b85f2||Sequence: R016 ve11e/master r/434b28f1; Aug  7 2019 18:53:46 by eja",
  "dcmmeta_affine": [
    [-2.6828784942626953, -0.00561905512586236, -0.015208018012344837, 110.66622924804688],
    [-0.004039842169731855, 2.6687800884246826, -0.27687376737594604, -89.36829376220703],
    [-0.015608380548655987, 0.27509525418281555, 2.685723304748535, -116.43939971923828],
    [0.0, 0.0, 0.0, 1.0]
],
  "dcmmeta_reorient_transform": [
    [0.0, -1.0, 0.0, 81.0],
    [1.0, 0.0, 0.0, 0.0],
    [0.0, 0.0, 1.0, 0.0],
    [0.0, 0.0, 0.0, 1.0]
],
  "dcmmeta_shape": [82, 82, 56, 872],
  "dcmmeta_slice_dim": 2,
  "dcmmeta_version": 0.6,
  "global": {
    "const": {
      "AccessionNumber": "A004322",
      "AcquisitionMatrix": [82, 0, 0, 82],
      "AngioFlag": "N",
      "BitsAllocated": 16,
      "BitsStored": 16,
      "BodyPartExamined": "BRAIN",
      "Columns": 656,
      "EchoNumbers": 1,
      "EchoTime": 27.2,
      "EchoTrainLength": 82,
      "FlipAngle": 44.0,
      "HighBit": 15,
      "ImageOrientationPatient": [0.99998194354602, 0.00150575927282, -0.0058176688569, -0.0020943750397, 0.99472714050689, -0.1025355037642],
      "ImagePositionPatient": [-878.58452812649, -893.9022540495, -10.724736825974],
      "ImageType": [
        "ORIGINAL",
        "PRIMARY",
        "M",
        "MB",
        "ND",
        "NORM",
        "MOSAIC"
],
      "ImagedNucleus": "1H",
      "ImagingFrequency": 123.259158,
      "InPlanePhaseEncodingDirection": "COL",
      "MRAcquisitionType": "2D",
      "MagneticFieldStrength": 3.0,
      "Manufacturer": "SIEMENS",
      "ManufacturerModelName": "Prisma",
      "Modality": "MR",
      "NumberOfAverages": 1.0,
      "NumberOfPhaseEncodingSteps": 82,
      "PercentPhaseFieldOfView": 100.0,
      "PercentSampling": 100.0,
      "PerformedProcedureStepStartTime": "102811.410000",
      "PhotometricInterpretation": "MONOCHROME2",
      "PixelBandwidth": 3050.0,
      "PixelRepresentation": 0,
      "PixelSpacing": [2.6829268932343, 2.6829268932343],
      "ProtocolName": "func_run-02_task-social_acq-ap-mb8",
      "RepetitionTime": 460.0,
      "Rows": 656,
      "SAR": 0.08650169303349,
      "SamplesPerPixel": 1,
      "ScanOptions": "FS",
      "ScanningSequence": "EP",
      "SequenceName": "epfid2d1_82",
      "SequenceVariant": [
        "SK",
        "SS"
],
      "SeriesDescription": "func_run-02_task-social_acq-ap-mb8",
      "SeriesNumber": 10,
      "SeriesTime": "104718.150000",
      "SliceLocation": -107.28269718893,
      "SliceThickness": 2.7000000476837,
      "SmallestImagePixelValue": 0,
      "SoftwareVersions": "syngo MR E11",
      "SpacingBetweenSlices": 2.699999952439,
      "SpecificCharacterSet": "ISO_IR 100",
      "StudyID": "2",
      "StudyTime": "102811.370000",
      "TransmitCoilName": "Body",
      "VariableFlipAngleFlag": "N",
      "WindowCenterWidthExplanation": "Algo1"
    },
    "slices": {}
  },
  "time": {
    "samples": {
      "AcquisitionNumber": [1, 2, 3, 4, 5, 6, 7, 8, 9, 10, 11, 12, 13, 14, 15, 16, 17, 18, 19, 20, 21, 22, 23, 24, 25, 26, 27, 28, 29, 30, 31, 32, 33, 34, 35, 36, 37, 38, 39, 40, 41, 42, 43, 44, 45, 46, 47, 48, 49, 50, 51, 52, 53, 54, 55, 56, 57, 58, 59, 60, 61, 62, 63, 64, 65, 66, 67, 68, 69, 70, 71, 72, 73, 74, 75, 76, 77, 78, 79, 80, 81, 82, 83, 84, 85, 86, 87, 88, 89, 90, 91, 92, 93, 94, 95, 96, 97, 98, 99, 100, 101, 102, 103, 104, 105, 106, 107, 108, 109, 110, 111, 112, 113, 114, 115, 116, 117, 118, 119, 120, 121, 122, 123, 124, 125, 126, 127, 128, 129, 130, 131, 132, 133, 134, 135, 136, 137, 138, 139, 140, 141, 142, 143, 144, 145, 146, 147, 148, 149, 150, 151, 152, 153, 154, 155, 156, 157, 158, 159, 160, 161, 162, 163, 164, 165, 166, 167, 168, 169, 170, 171, 172, 173, 174, 175, 176, 177, 178, 179, 180, 181, 182, 183, 184, 185, 186, 187, 188, 189, 190, 191, 192, 193, 194, 195, 196, 197, 198, 199, 200, 201, 202, 203, 204, 205, 206, 207, 208, 209, 210, 211, 212, 213, 214, 215, 216, 217, 218, 219, 220, 221, 222, 223, 224, 225, 226, 227, 228, 229, 230, 231, 232, 233, 234, 235, 236, 237, 238, 239, 240, 241, 242, 243, 244, 245, 246, 247, 248, 249, 250, 251, 252, 253, 254, 255, 256, 257, 258, 259, 260, 261, 262, 263, 264, 265, 266, 267, 268, 269, 270, 271, 272, 273, 274, 275, 276, 277, 278, 279, 280, 281, 282, 283, 284, 285, 286, 287, 288, 289, 290, 291, 292, 293, 294, 295, 296, 297, 298, 299, 300, 301, 302, 303, 304, 305, 306, 307, 308, 309, 310, 311, 312, 313, 314, 315, 316, 317, 318, 319, 320, 321, 322, 323, 324, 325, 326, 327, 328, 329, 330, 331, 332, 333, 334, 335, 336, 337, 338, 339, 340, 341, 342, 343, 344, 345, 346, 347, 348, 349, 350, 351, 352, 353, 354, 355, 356, 357, 358, 359, 360, 361, 362, 363, 364, 365, 366, 367, 368, 369, 370, 371, 372, 373, 374, 375, 376, 377, 378, 379, 380, 381, 382, 383, 384, 385, 386, 387, 388, 389, 390, 391, 392, 393, 394, 395, 396, 397, 398, 399, 400, 401, 402, 403, 404, 405, 406, 407, 408, 409, 410, 411, 412, 413, 414, 415, 416, 417, 418, 419, 420, 421, 422, 423, 424, 425, 426, 427, 428, 429, 430, 431, 432, 433, 434, 435, 436, 437, 438, 439, 440, 441, 442, 443, 444, 445, 446, 447, 448, 449, 450, 451, 452, 453, 454, 455, 456, 457, 458, 459, 460, 461, 462, 463, 464, 465, 466, 467, 468, 469, 470, 471, 472, 473, 474, 475, 476, 477, 478, 479, 480, 481, 482, 483, 484, 485, 486, 487, 488, 489, 490, 491, 492, 493, 494, 495, 496, 497, 498, 499, 500, 501, 502, 503, 504, 505, 506, 507, 508, 509, 510, 511, 512, 513, 514, 515, 516, 517, 518, 519, 520, 521, 522, 523, 524, 525, 526, 527, 528, 529, 530, 531, 532, 533, 534, 535, 536, 537, 538, 539, 540, 541, 542, 543, 544, 545, 546, 547, 548, 549, 550, 551, 552, 553, 554, 555, 556, 557, 558, 559, 560, 561, 562, 563, 564, 565, 566, 567, 568, 569, 570, 571, 572, 573, 574, 575, 576, 577, 578, 579, 580, 581, 582, 583, 584, 585, 586, 587, 588, 589, 590, 591, 592, 593, 594, 595, 596, 597, 598, 599, 600, 601, 602, 603, 604, 605, 606, 607, 608, 609, 610, 611, 612, 613, 614, 615, 616, 617, 618, 619, 620, 621, 622, 623, 624, 625, 626, 627, 628, 629, 630, 631, 632, 633, 634, 635, 636, 637, 638, 639, 640, 641, 642, 643, 644, 645, 646, 647, 648, 649, 650, 651, 652, 653, 654, 655, 656, 657, 658, 659, 660, 661, 662, 663, 664, 665, 666, 667, 668, 669, 670, 671, 672, 673, 674, 675, 676, 677, 678, 679, 680, 681, 682, 683, 684, 685, 686, 687, 688, 689, 690, 691, 692, 693, 694, 695, 696, 697, 698, 699, 700, 701, 702, 703, 704, 705, 706, 707, 708, 709, 710, 711, 712, 713, 714, 715, 716, 717, 718, 719, 720, 721, 722, 723, 724, 725, 726, 727, 728, 729, 730, 731, 732, 733, 734, 735, 736, 737, 738, 739, 740, 741, 742, 743, 744, 745, 746, 747, 748, 749, 750, 751, 752, 753, 754, 755, 756, 757, 758, 759, 760, 761, 762, 763, 764, 765, 766, 767, 768, 769, 770, 771, 772, 773, 774, 775, 776, 777, 778, 779, 780, 781, 782, 783, 784, 785, 786, 787, 788, 789, 790, 791, 792, 793, 794, 795, 796, 797, 798, 799, 800, 801, 802, 803, 804, 805, 806, 807, 808, 809, 810, 811, 812, 813, 814, 815, 816, 817, 818, 819, 820, 821, 822, 823, 824, 825, 826, 827, 828, 829, 830, 831, 832, 833, 834, 835, 836, 837, 838, 839, 840, 841, 842, 843, 844, 845, 846, 847, 848, 849, 850, 851, 852, 853, 854, 855, 856, 857, 858, 859, 860, 861, 862, 863, 864, 865, 866, 867, 868, 869, 870, 871, 872],
      "AcquisitionTime": ["104706.015000", "104706.475000", "104706.935000", "104707.395000", "104707.855000", "104708.315000", "104708.775000", "104709.235000", "104709.695000", "104710.155000", "104710.615000", "104711.075000", "104711.535000", "104711.995000", "104712.455000", "104712.915000", "104713.375000", "104713.835000", "104714.295000", "104714.755000", "104715.215000", "104715.675000", "104716.135000", "104716.595000", "104717.055000", "104717.515000", "104717.975000", "104718.435000", "104718.895000", "104719.355000", "104719.815000", "104720.275000", "104720.735000", "104721.195000", "104721.655000", "104722.115000", "104722.575000", "104723.035000", "104723.495000", "104723.955000", "104724.415000", "104724.875000", "104725.335000", "104725.795000", "104726.255000", "104726.715000", "104727.175000", "104727.635000", "104728.095000", "104728.555000", "104729.015000", "104729.475000", "104729.935000", "104730.395000", "104730.855000", "104731.315000", "104731.775000", "104732.235000", "104732.695000", "104733.155000", "104733.615000", "104734.075000", "104734.535000", "104734.995000", "104735.455000", "104735.915000", "104736.375000", "104736.835000", "104737.295000", "104737.755000", "104738.215000", "104738.675000", "104739.135000", "104739.595000", "104740.055000", "104740.515000", "104740.975000", "104741.435000", "104741.895000", "104742.355000", "104742.815000", "104743.275000", "104743.735000", "104744.195000", "104744.655000", "104745.115000", "104745.575000", "104746.035000", "104746.495000", "104746.955000", "104747.415000", "104747.875000", "104748.335000", "104748.795000", "104749.255000", "104749.715000", "104750.175000", "104750.635000", "104751.095000", "104751.555000", "104752.015000", "104752.475000", "104752.935000", "104753.395000", "104753.855000", "104754.315000", "104754.775000", "104755.235000", "104755.695000", "104756.155000", "104756.615000", "104757.075000", "104757.535000", "104757.995000", "104758.455000", "104758.915000", "104759.375000", "104759.835000", "104800.295000", "104800.755000", "104801.215000", "104801.675000", "104802.135000", "104802.595000", "104803.055000", "104803.515000", "104803.975000", "104804.435000", "104804.895000", "104805.355000", "104805.815000", "104806.275000", "104806.735000", "104807.195000", "104807.655000", "104808.115000", "104808.575000", "104809.035000", "104809.495000", "104809.955000", "104810.415000", "104810.875000", "104811.335000", "104811.795000", "104812.255000", "104812.715000", "104813.175000", "104813.635000", "104814.095000", "104814.555000", "104815.015000", "104815.475000", "104815.935000", "104816.395000", "104816.855000", "104817.315000", "104817.775000", "104818.235000", "104818.695000", "104819.155000", "104819.615000", "104820.075000", "104820.535000", "104820.995000", "104821.455000", "104821.915000", "104822.375000", "104822.835000", "104823.295000", "104823.755000", "104824.215000", "104824.675000", "104825.135000", "104825.595000", "104826.055000", "104826.515000", "104826.975000", "104827.435000", "104827.895000", "104828.355000", "104828.815000", "104829.275000", "104829.735000", "104830.195000", "104830.655000", "104831.115000", "104831.575000", "104832.035000", "104832.495000", "104832.955000", "104833.415000", "104833.875000", "104834.335000", "104834.795000", "104835.255000", "104835.715000", "104836.175000", "104836.635000", "104837.095000", "104837.555000", "104838.015000", "104838.475000", "104838.935000", "104839.395000", "104839.855000", "104840.315000", "104840.775000", "104841.235000", "104841.695000", "104842.155000", "104842.615000", "104843.075000", "104843.535000", "104843.995000", "104844.455000", "104844.915000", "104845.375000", "104845.835000", "104846.295000", "104846.755000", "104847.215000", "104847.675000", "104848.135000", "104848.595000", "104849.055000", "104849.515000", "104849.975000", "104850.435000", "104850.895000", "104851.355000", "104851.815000", "104852.275000", "104852.735000", "104853.195000", "104853.655000", "104854.115000", "104854.575000", "104855.035000", "104855.495000", "104855.955000", "104856.415000", "104856.875000", "104857.335000", "104857.795000", "104858.255000", "104858.715000", "104859.175000", "104859.635000", "104900.095000", "104900.555000", "104901.015000", "104901.475000", "104901.935000", "104902.395000", "104902.855000", "104903.315000", "104903.775000", "104904.235000", "104904.695000", "104905.155000", "104905.615000", "104906.075000", "104906.535000", "104906.995000", "104907.455000", "104907.915000", "104908.375000", "104908.835000", "104909.295000", "104909.755000", "104910.215000", "104910.675000", "104911.135000", "104911.595000", "104912.055000", "104912.515000", "104912.975000", "104913.435000", "104913.895000", "104914.355000", "104914.815000", "104915.275000", "104915.735000", "104916.195000", "104916.655000", "104917.115000", "104917.575000", "104918.035000", "104918.495000", "104918.955000", "104919.415000", "104919.875000", "104920.335000", "104920.795000", "104921.255000", "104921.715000", "104922.175000", "104922.635000", "104923.095000", "104923.555000", "104924.015000", "104924.475000", "104924.935000", "104925.395000", "104925.855000", "104926.315000", "104926.775000", "104927.235000", "104927.695000", "104928.155000", "104928.615000", "104929.075000", "104929.535000", "104929.995000", "104930.455000", "104930.915000", "104931.375000", "104931.835000", "104932.295000", "104932.755000", "104933.215000", "104933.675000", "104934.135000", "104934.595000", "104935.055000", "104935.515000", "104935.975000", "104936.435000", "104936.895000", "104937.355000", "104937.815000", "104938.275000", "104938.735000", "104939.195000", "104939.655000", "104940.115000", "104940.575000", "104941.035000", "104941.495000", "104941.955000", "104942.415000", "104942.875000", "104943.335000", "104943.795000", "104944.255000", "104944.715000", "104945.175000", "104945.635000", "104946.095000", "104946.555000", "104947.015000", "104947.475000", "104947.935000", "104948.395000", "104948.855000", "104949.315000", "104949.775000", "104950.235000", "104950.695000", "104951.155000", "104951.615000", "104952.075000", "104952.535000", "104952.995000", "104953.455000", "104953.915000", "104954.375000", "104954.835000", "104955.295000", "104955.755000", "104956.215000", "104956.675000", "104957.135000", "104957.595000", "104958.055000", "104958.515000", "104958.975000", "104959.435000", "104959.895000", "105000.355000", "105000.815000", "105001.275000", "105001.735000", "105002.195000", "105002.655000", "105003.115000", "105003.575000", "105004.035000", "105004.495000", "105004.955000", "105005.415000", "105005.875000", "105006.335000", "105006.795000", "105007.255000", "105007.715000", "105008.175000", "105008.635000", "105009.095000", "105009.555000", "105010.015000", "105010.475000", "105010.935000", "105011.395000", "105011.855000", "105012.315000", "105012.775000", "105013.235000", "105013.695000", "105014.155000", "105014.615000", "105015.075000", "105015.535000", "105015.995000", "105016.455000", "105016.915000", "105017.375000", "105017.835000", "105018.295000", "105018.755000", "105019.215000", "105019.675000", "105020.135000", "105020.595000", "105021.055000", "105021.515000", "105021.975000", "105022.435000", "105022.895000", "105023.355000", "105023.815000", "105024.275000", "105024.735000", "105025.195000", "105025.655000", "105026.115000", "105026.575000", "105027.035000", "105027.495000", "105027.955000", "105028.415000", "105028.875000", "105029.335000", "105029.795000", "105030.255000", "105030.715000", "105031.175000", "105031.635000", "105032.095000", "105032.555000", "105033.015000", "105033.475000", "105033.935000", "105034.395000", "105034.855000", "105035.315000", "105035.775000", "105036.235000", "105036.695000", "105037.155000", "105037.615000", "105038.075000", "105038.535000", "105038.995000", "105039.455000", "105039.915000", "105040.375000", "105040.835000", "105041.295000", "105041.755000", "105042.215000", "105042.675000", "105043.135000", "105043.595000", "105044.055000", "105044.515000", "105044.975000", "105045.435000", "105045.895000", "105046.355000", "105046.815000", "105047.275000", "105047.735000", "105048.195000", "105048.655000", "105049.115000", "105049.575000", "105050.035000", "105050.495000", "105050.955000", "105051.415000", "105051.875000", "105052.335000", "105052.795000", "105053.255000", "105053.715000", "105054.175000", "105054.635000", "105055.095000", "105055.555000", "105056.015000", "105056.475000", "105056.935000", "105057.395000", "105057.855000", "105058.315000", "105058.775000", "105059.235000", "105059.695000", "105100.155000", "105100.615000", "105101.075000", "105101.535000", "105101.995000", "105102.455000", "105102.915000", "105103.375000", "105103.835000", "105104.295000", "105104.755000", "105105.215000", "105105.675000", "105106.135000", "105106.595000", "105107.055000", "105107.515000", "105107.975000", "105108.435000", "105108.895000", "105109.355000", "105109.815000", "105110.275000", "105110.735000", "105111.195000", "105111.655000", "105112.115000", "105112.575000", "105113.035000", "105113.495000", "105113.955000", "105114.415000", "105114.875000", "105115.335000", "105115.795000", "105116.255000", "105116.715000", "105117.175000", "105117.635000", "105118.095000", "105118.555000", "105119.015000", "105119.475000", "105119.935000", "105120.395000", "105120.855000", "105121.315000", "105121.775000", "105122.235000", "105122.695000", "105123.155000", "105123.615000", "105124.075000", "105124.535000", "105124.995000", "105125.455000", "105125.915000", "105126.375000", "105126.835000", "105127.295000", "105127.755000", "105128.215000", "105128.675000", "105129.135000", "105129.595000", "105130.055000", "105130.515000", "105130.975000", "105131.435000", "105131.895000", "105132.355000", "105132.815000", "105133.275000", "105133.735000", "105134.195000", "105134.655000", "105135.115000", "105135.575000", "105136.035000", "105136.495000", "105136.955000", "105137.415000", "105137.875000", "105138.335000", "105138.795000", "105139.255000", "105139.715000", "105140.175000", "105140.635000", "105141.095000", "105141.555000", "105142.015000", "105142.475000", "105142.935000", "105143.395000", "105143.855000", "105144.315000", "105144.775000", "105145.235000", "105145.695000", "105146.155000", "105146.615000", "105147.075000", "105147.535000", "105147.995000", "105148.455000", "105148.915000", "105149.375000", "105149.835000", "105150.295000", "105150.755000", "105151.215000", "105151.675000", "105152.135000", "105152.595000", "105153.055000", "105153.515000", "105153.975000", "105154.435000", "105154.895000", "105155.355000", "105155.815000", "105156.275000", "105156.735000", "105157.195000", "105157.655000", "105158.115000", "105158.575000", "105159.035000", "105159.495000", "105159.955000", "105200.415000", "105200.875000", "105201.335000", "105201.795000", "105202.255000", "105202.715000", "105203.175000", "105203.635000", "105204.095000", "105204.555000", "105205.015000", "105205.475000", "105205.935000", "105206.395000", "105206.855000", "105207.315000", "105207.775000", "105208.235000", "105208.695000", "105209.155000", "105209.615000", "105210.075000", "105210.535000", "105210.995000", "105211.455000", "105211.915000", "105212.375000", "105212.835000", "105213.295000", "105213.755000", "105214.215000", "105214.675000", "105215.135000", "105215.595000", "105216.055000", "105216.515000", "105216.975000", "105217.435000", "105217.895000", "105218.355000", "105218.815000", "105219.275000", "105219.735000", "105220.195000", "105220.655000", "105221.115000", "105221.575000", "105222.035000", "105222.495000", "105222.955000", "105223.415000", "105223.875000", "105224.335000", "105224.795000", "105225.255000", "105225.715000", "105226.175000", "105226.635000", "105227.095000", "105227.555000", "105228.015000", "105228.475000", "105228.935000", "105229.395000", "105229.855000", "105230.315000", "105230.775000", "105231.235000", "105231.695000", "105232.155000", "105232.615000", "105233.075000", "105233.535000", "105233.995000", "105234.455000", "105234.915000", "105235.375000", "105235.835000", "105236.295000", "105236.755000", "105237.215000", "105237.675000", "105238.135000", "105238.595000", "105239.055000", "105239.515000", "105239.975000", "105240.435000", "105240.895000", "105241.355000", "105241.815000", "105242.275000", "105242.735000", "105243.195000", "105243.655000", "105244.115000", "105244.575000", "105245.035000", "105245.495000", "105245.955000", "105246.415000", "105246.875000", "105247.335000", "105247.795000", "105248.255000", "105248.715000", "105249.175000", "105249.635000", "105250.095000", "105250.555000", "105251.015000", "105251.475000", "105251.935000", "105252.395000", "105252.855000", "105253.315000", "105253.775000", "105254.235000", "105254.695000", "105255.155000", "105255.615000", "105256.075000", "105256.535000", "105256.995000", "105257.455000", "105257.915000", "105258.375000", "105258.835000", "105259.295000", "105259.755000", "105300.215000", "105300.675000", "105301.135000", "105301.595000", "105302.055000", "105302.515000", "105302.975000", "105303.435000", "105303.895000", "105304.355000", "105304.815000", "105305.275000", "105305.735000", "105306.195000", "105306.655000", "105307.115000", "105307.575000", "105308.035000", "105308.495000", "105308.955000", "105309.415000", "105309.875000", "105310.335000", "105310.795000", "105311.255000", "105311.715000", "105312.175000", "105312.635000", "105313.095000", "105313.555000", "105314.015000", "105314.475000", "105314.935000", "105315.395000", "105315.855000", "105316.315000", "105316.775000", "105317.235000", "105317.695000", "105318.155000", "105318.615000", "105319.075000", "105319.535000", "105319.995000", "105320.455000", "105320.915000", "105321.375000", "105321.835000", "105322.295000", "105322.755000", "105323.215000", "105323.675000", "105324.135000", "105324.595000", "105325.055000", "105325.515000", "105325.975000", "105326.435000", "105326.895000", "105327.355000", "105327.815000", "105328.275000", "105328.735000", "105329.195000", "105329.655000", "105330.115000", "105330.575000", "105331.035000", "105331.495000", "105331.955000", "105332.415000", "105332.875000", "105333.335000", "105333.795000", "105334.255000", "105334.715000", "105335.175000", "105335.635000", "105336.095000", "105336.555000", "105337.015000", "105337.475000", "105337.935000", "105338.395000", "105338.855000", "105339.315000", "105339.775000", "105340.235000", "105340.695000", "105341.155000", "105341.615000", "105342.075000", "105342.535000", "105342.995000", "105343.455000", "105343.915000", "105344.375000", "105344.835000", "105345.295000", "105345.755000", "105346.215000", "105346.675000"],
