{
  "AcquisitionMatrixPE": 82,
  "AcquisitionNumber": 1,
  "AcquisitionTime": "12:00:54.982500",
  "BandwidthPerPixelPhaseEncode": 24.888,
  "BaseResolution": 82,
  "BodyPartExamined": "BRAIN",
  "ConsistencyInfo": "N4_VE11E_LATEST_20181129",
  "ConversionSoftware": "dcm2niix",
  "ConversionSoftwareVersion": "v1.0.20201102",
  "DerivedVendorReportedEchoSpacing": 0.00049,
  "DeviceSerialNumber": "66112",
  "DwellTime": 2e-06,
  "EchoTime": 0.0272,
  "EchoTrainLength": 82,
  "EffectiveEchoSpacing": 0.00049,
  "FlipAngle": 44,
  "ImageComments": "Unaliased MB8/PE3",
  "ImageOrientationPatientDICOM": [0.999914, -0.00339855, -0.0126836, 0.00244319, 0.997211, -0.0745917],
  "ImageType": [
    "ORIGINAL",
    "PRIMARY",
    "M",
    "MB",
    "ND",
    "NORM",
    "MOSAIC"
],
  "ImagingFrequency": 123.259,
  "InPlanePhaseEncodingDirectionDICOM": "COL",
  "InstitutionAddress": "Maynard 3,Hanover,NH,US,03755",
  "InstitutionName": "Dartmouth College - PBS",
  "InstitutionalDepartmentName": "Department",
  "MRAcquisitionType": "2D",
  "MagneticFieldStrength": 3,
  "Manufacturer": "Siemens",
  "ManufacturersModelName": "Prisma",
  "Modality": "MR",
  "MultibandAccelerationFactor": 8,
  "PartialFourier": 1,
  "PatientPosition": "HFS",
  "PercentPhaseFOV": 100,
  "PercentSampling": 100,
  "PhaseEncodingDirection": "j-",
  "PhaseEncodingSteps": 82,
  "PhaseResolution": 1,
  "PixelBandwidth": 3050,
  "ProcedureStepDescription": "Wager_Wager^1076_spacetop",
  "ProtocolName": "func_run-03_task-alignvideo_acq-ap-mb8",
  "PulseSequenceDetails": "%CustomerSeq%\\cmrr_mbep2d_bold",
  "ReceiveCoilActiveElements": "HEA;HEP",
  "ReceiveCoilName": "Head_32",
  "ReconMatrixPE": 82,
  "RepetitionTime": 0.46,
  "SAR": 0.0865993,
  "ScanOptions": "FS",
  "ScanningSequence": "EP",
  "SequenceName": "epfid2d1_82",
  "SequenceVariant": "SK\\SS",
  "SeriesDescription": "func_run-03_task-alignvideo_acq-ap-mb8",
  "SeriesNumber": 32,
  "ShimSetting": [4227, -7783, -7263, 171, -93, -279, -210, 66],
  "SliceThickness": 2.7,
  "SliceTiming": [0, 0.25, 0.0625, 0.3125, 0.125, 0.375, 0.1875, 0, 0.25, 0.0625, 0.3125, 0.125, 0.375, 0.1875, 0, 0.25, 0.0625, 0.3125, 0.125, 0.375, 0.1875, 0, 0.25, 0.0625, 0.3125, 0.125, 0.375, 0.1875, 0, 0.25, 0.0625, 0.3125, 0.125, 0.375, 0.1875, 0, 0.25, 0.0625, 0.3125, 0.125, 0.375, 0.1875, 0, 0.25, 0.0625, 0.3125, 0.125, 0.375, 0.1875, 0, 0.25, 0.0625, 0.3125, 0.125, 0.375, 0.1875],
  "SoftwareVersions": "syngo MR E11",
  "SpacingBetweenSlices": 2.7,
  "StationName": "AWP66112",
  "TaskName": "alignvideo",
  "TotalReadoutTime": 0.03969,
  "TxRefAmp": 253.199,
  "WipMemBlock": "7af7efcc-ce98-4e06-9253-080676db666d||Sequence: R016 ve11e/master r/434b28f1; Aug  7 2019 18:53:46 by eja",
  "dcmmeta_affine": [
    [-2.6826956272125244, 0.006554902996867895, -0.034834638237953186, 109.3394546508789],
    [0.00911805685609579, 2.6754446029663086, -0.20129641890525818, -92.29963684082031],
    [-0.03402913734316826, 0.20012395083904266, 2.692260503768921, -115.79230499267578],
    [0.0, 0.0, 0.0, 1.0]
],
  "dcmmeta_reorient_transform": [
    [0.0, -1.0, 0.0, 81.0],
    [1.0, 0.0, 0.0, 0.0],
    [0.0, 0.0, 1.0, 0.0],
    [0.0, 0.0, 0.0, 1.0]
],
  "dcmmeta_shape": [82, 82, 56, 1065],
  "dcmmeta_slice_dim": 2,
  "dcmmeta_version": 0.6,
  "global": {
    "const": {
      "AccessionNumber": "A004322",
      "AcquisitionMatrix": [82, 0, 0, 82],
      "AngioFlag": "N",
      "BitsAllocated": 16,
      "BitsStored": 16,
      "BodyPartExamined": "BRAIN",
      "Columns": 656,
      "EchoNumbers": 1,
      "EchoTime": 27.2,
      "EchoTrainLength": 82,
      "FlipAngle": 44.0,
      "HighBit": 15,
      "ImageOrientationPatient": [0.99991378451848, -0.003398548216, -0.0126835878191, 0.00244319113477, 0.99721116947378, -0.0745916502956],
      "ImagePositionPatient": [-881.68529517734, -889.64711421408, -32.380329521543],
      "ImageType": [
        "ORIGINAL",
        "PRIMARY",
        "M",
        "MB",
        "ND",
        "NORM",
        "MOSAIC"
],
      "ImagedNucleus": "1H",
      "ImagingFrequency": 123.259174,
      "InPlanePhaseEncodingDirection": "COL",
      "MRAcquisitionType": "2D",
      "MagneticFieldStrength": 3.0,
      "Manufacturer": "SIEMENS",
      "ManufacturerModelName": "Prisma",
      "Modality": "MR",
      "NumberOfAverages": 1.0,
      "NumberOfPhaseEncodingSteps": 82,
      "PercentPhaseFieldOfView": 100.0,
      "PercentSampling": 100.0,
      "PerformedProcedureStepStartTime": "102811.410000",
      "PhotometricInterpretation": "MONOCHROME2",
      "PixelBandwidth": 3050.0,
      "PixelRepresentation": 0,
      "PixelSpacing": [2.6829268932343, 2.6829268932343],
      "ProtocolName": "func_run-03_task-alignvideo_acq-ap-mb8",
      "RepetitionTime": 460.0,
      "Rows": 656,
      "SAR": 0.08659927290485,
      "SamplesPerPixel": 1,
      "ScanOptions": "FS",
      "ScanningSequence": "EP",
      "SequenceName": "epfid2d1_82",
      "SequenceVariant": [
        "SK",
        "SS"
],
      "SeriesDescription": "func_run-03_task-alignvideo_acq-ap-mb8",
      "SeriesNumber": 32,
      "SeriesTime": "120118.327000",
      "SliceLocation": -109.98972333143,
      "SliceThickness": 2.7000000476837,
      "SmallestImagePixelValue": 0,
      "SoftwareVersions": "syngo MR E11",
      "SpacingBetweenSlices": 2.6999999512415,
      "SpecificCharacterSet": "ISO_IR 100",
      "StudyID": "2",
      "StudyTime": "102811.370000",
      "TransmitCoilName": "Body",
      "VariableFlipAngleFlag": "N",
      "WindowCenterWidthExplanation": "Algo1"
    },
    "slices": {}
  },
  "time": {
    "samples": {
      "AcquisitionNumber": [1, 2, 3, 4, 5, 6, 7, 8, 9, 10, 11, 12, 13, 14, 15, 16, 17, 18, 19, 20, 21, 22, 23, 24, 25, 26, 27, 28, 29, 30, 31, 32, 33, 34, 35, 36, 37, 38, 39, 40, 41, 42, 43, 44, 45, 46, 47, 48, 49, 50, 51, 52, 53, 54, 55, 56, 57, 58, 59, 60, 61, 62, 63, 64, 65, 66, 67, 68, 69, 70, 71, 72, 73, 74, 75, 76, 77, 78, 79, 80, 81, 82, 83, 84, 85, 86, 87, 88, 89, 90, 91, 92, 93, 94, 95, 96, 97, 98, 99, 100, 101, 102, 103, 104, 105, 106, 107, 108, 109, 110, 111, 112, 113, 114, 115, 116, 117, 118, 119, 120, 121, 122, 123, 124, 125, 126, 127, 128, 129, 130, 131, 132, 133, 134, 135, 136, 137, 138, 139, 140, 141, 142, 143, 144, 145, 146, 147, 148, 149, 150, 151, 152, 153, 154, 155, 156, 157, 158, 159, 160, 161, 162, 163, 164, 165, 166, 167, 168, 169, 170, 171, 172, 173, 174, 175, 176, 177, 178, 179, 180, 181, 182, 183, 184, 185, 186, 187, 188, 189, 190, 191, 192, 193, 194, 195, 196, 197, 198, 199, 200, 201, 202, 203, 204, 205, 206, 207, 208, 209, 210, 211, 212, 213, 214, 215, 216, 217, 218, 219, 220, 221, 222, 223, 224, 225, 226, 227, 228, 229, 230, 231, 232, 233, 234, 235, 236, 237, 238, 239, 240, 241, 242, 243, 244, 245, 246, 247, 248, 249, 250, 251, 252, 253, 254, 255, 256, 257, 258, 259, 260, 261, 262, 263, 264, 265, 266, 267, 268, 269, 270, 271, 272, 273, 274, 275, 276, 277, 278, 279, 280, 281, 282, 283, 284, 285, 286, 287, 288, 289, 290, 291, 292, 293, 294, 295, 296, 297, 298, 299, 300, 301, 302, 303, 304, 305, 306, 307, 308, 309, 310, 311, 312, 313, 314, 315, 316, 317, 318, 319, 320, 321, 322, 323, 324, 325, 326, 327, 328, 329, 330, 331, 332, 333, 334, 335, 336, 337, 338, 339, 340, 341, 342, 343, 344, 345, 346, 347, 348, 349, 350, 351, 352, 353, 354, 355, 356, 357, 358, 359, 360, 361, 362, 363, 364, 365, 366, 367, 368, 369, 370, 371, 372, 373, 374, 375, 376, 377, 378, 379, 380, 381, 382, 383, 384, 385, 386, 387, 388, 389, 390, 391, 392, 393, 394, 395, 396, 397, 398, 399, 400, 401, 402, 403, 404, 405, 406, 407, 408, 409, 410, 411, 412, 413, 414, 415, 416, 417, 418, 419, 420, 421, 422, 423, 424, 425, 426, 427, 428, 429, 430, 431, 432, 433, 434, 435, 436, 437, 438, 439, 440, 441, 442, 443, 444, 445, 446, 447, 448, 449, 450, 451, 452, 453, 454, 455, 456, 457, 458, 459, 460, 461, 462, 463, 464, 465, 466, 467, 468, 469, 470, 471, 472, 473, 474, 475, 476, 477, 478, 479, 480, 481, 482, 483, 484, 485, 486, 487, 488, 489, 490, 491, 492, 493, 494, 495, 496, 497, 498, 499, 500, 501, 502, 503, 504, 505, 506, 507, 508, 509, 510, 511, 512, 513, 514, 515, 516, 517, 518, 519, 520, 521, 522, 523, 524, 525, 526, 527, 528, 529, 530, 531, 532, 533, 534, 535, 536, 537, 538, 539, 540, 541, 542, 543, 544, 545, 546, 547, 548, 549, 550, 551, 552, 553, 554, 555, 556, 557, 558, 559, 560, 561, 562, 563, 564, 565, 566, 567, 568, 569, 570, 571, 572, 573, 574, 575, 576, 577, 578, 579, 580, 581, 582, 583, 584, 585, 586, 587, 588, 589, 590, 591, 592, 593, 594, 595, 596, 597, 598, 599, 600, 601, 602, 603, 604, 605, 606, 607, 608, 609, 610, 611, 612, 613, 614, 615, 616, 617, 618, 619, 620, 621, 622, 623, 624, 625, 626, 627, 628, 629, 630, 631, 632, 633, 634, 635, 636, 637, 638, 639, 640, 641, 642, 643, 644, 645, 646, 647, 648, 649, 650, 651, 652, 653, 654, 655, 656, 657, 658, 659, 660, 661, 662, 663, 664, 665, 666, 667, 668, 669, 670, 671, 672, 673, 674, 675, 676, 677, 678, 679, 680, 681, 682, 683, 684, 685, 686, 687, 688, 689, 690, 691, 692, 693, 694, 695, 696, 697, 698, 699, 700, 701, 702, 703, 704, 705, 706, 707, 708, 709, 710, 711, 712, 713, 714, 715, 716, 717, 718, 719, 720, 721, 722, 723, 724, 725, 726, 727, 728, 729, 730, 731, 732, 733, 734, 735, 736, 737, 738, 739, 740, 741, 742, 743, 744, 745, 746, 747, 748, 749, 750, 751, 752, 753, 754, 755, 756, 757, 758, 759, 760, 761, 762, 763, 764, 765, 766, 767, 768, 769, 770, 771, 772, 773, 774, 775, 776, 777, 778, 779, 780, 781, 782, 783, 784, 785, 786, 787, 788, 789, 790, 791, 792, 793, 794, 795, 796, 797, 798, 799, 800, 801, 802, 803, 804, 805, 806, 807, 808, 809, 810, 811, 812, 813, 814, 815, 816, 817, 818, 819, 820, 821, 822, 823, 824, 825, 826, 827, 828, 829, 830, 831, 832, 833, 834, 835, 836, 837, 838, 839, 840, 841, 842, 843, 844, 845, 846, 847, 848, 849, 850, 851, 852, 853, 854, 855, 856, 857, 858, 859, 860, 861, 862, 863, 864, 865, 866, 867, 868, 869, 870, 871, 872, 873, 874, 875, 876, 877, 878, 879, 880, 881, 882, 883, 884, 885, 886, 887, 888, 889, 890, 891, 892, 893, 894, 895, 896, 897, 898, 899, 900, 901, 902, 903, 904, 905, 906, 907, 908, 909, 910, 911, 912, 913, 914, 915, 916, 917, 918, 919, 920, 921, 922, 923, 924, 925, 926, 927, 928, 929, 930, 931, 932, 933, 934, 935, 936, 937, 938, 939, 940, 941, 942, 943, 944, 945, 946, 947, 948, 949, 950, 951, 952, 953, 954, 955, 956, 957, 958, 959, 960, 961, 962, 963, 964, 965, 966, 967, 968, 969, 970, 971, 972, 973, 974, 975, 976, 977, 978, 979, 980, 981, 982, 983, 984, 985, 986, 987, 988, 989, 990, 991, 992, 993, 994, 995, 996, 997, 998, 999, 1000, 1001, 1002, 1003, 1004, 1005, 1006, 1007, 1008, 1009, 1010, 1011, 1012, 1013, 1014, 1015, 1016, 1017, 1018, 1019, 1020, 1021, 1022, 1023, 1024, 1025, 1026, 1027, 1028, 1029, 1030, 1031, 1032, 1033, 1034, 1035, 1036, 1037, 1038, 1039, 1040, 1041, 1042, 1043, 1044, 1045, 1046, 1047, 1048, 1049, 1050, 1051, 1052, 1053, 1054, 1055, 1056, 1057, 1058, 1059, 1060, 1061, 1062, 1063, 1064, 1065],
      "AcquisitionTime": ["120054.982500", "120055.442500", "120055.902500", "120056.362500", "120056.822500", "120057.282500", "120057.742500", "120058.202500", "120058.662500", "120059.122500", "120059.582500", "120100.042500", "120100.502500", "120100.962500", "120101.422500", "120101.882500", "120102.342500", "120102.802500", "120103.262500", "120103.722500", "120104.182500", "120104.642500", "120105.102500", "120105.562500", "120106.022500", "120106.482500", "120106.942500", "120107.402500", "120107.862500", "120108.322500", "120108.782500", "120109.242500", "120109.702500", "120110.162500", "120110.622500", "120111.082500", "120111.542500", "120112.002500", "120112.462500", "120112.922500", "120113.382500", "120113.842500", "120114.302500", "120114.762500", "120115.222500", "120115.682500", "120116.142500", "120116.602500", "120117.062500", "120117.522500", "120117.982500", "120118.442500", "120118.902500", "120119.362500", "120119.822500", "120120.282500", "120120.742500", "120121.202500", "120121.662500", "120122.122500", "120122.582500", "120123.042500", "120123.502500", "120123.962500", "120124.422500", "120124.882500", "120125.342500", "120125.802500", "120126.262500", "120126.722500", "120127.182500", "120127.642500", "120128.102500", "120128.562500", "120129.022500", "120129.482500", "120129.942500", "120130.402500", "120130.862500", "120131.322500", "120131.782500", "120132.242500", "120132.702500", "120133.162500", "120133.622500", "120134.082500", "120134.542500", "120135.002500", "120135.462500", "120135.922500", "120136.382500", "120136.842500", "120137.302500", "120137.762500", "120138.222500", "120138.682500", "120139.142500", "120139.602500", "120140.062500", "120140.522500", "120140.982500", "120141.442500", "120141.902500", "120142.362500", "120142.822500", "120143.282500", "120143.742500", "120144.202500", "120144.662500", "120145.122500", "120145.582500", "120146.042500", "120146.502500", "120146.962500", "120147.422500", "120147.882500", "120148.342500", "120148.802500", "120149.262500", "120149.722500", "120150.182500", "120150.642500", "120151.102500", "120151.562500", "120152.022500", "120152.482500", "120152.942500", "120153.402500", "120153.862500", "120154.322500", "120154.782500", "120155.242500", "120155.702500", "120156.162500", "120156.622500", "120157.082500", "120157.542500", "120158.002500", "120158.462500", "120158.922500", "120159.382500", "120159.842500", "120200.302500", "120200.762500", "120201.222500", "120201.682500", "120202.142500", "120202.602500", "120203.062500", "120203.522500", "120203.982500", "120204.442500", "120204.902500", "120205.362500", "120205.822500", "120206.282500", "120206.742500", "120207.202500", "120207.662500", "120208.122500", "120208.582500", "120209.042500", "120209.502500", "120209.962500", "120210.422500", "120210.882500", "120211.342500", "120211.802500", "120212.262500", "120212.722500", "120213.182500", "120213.642500", "120214.102500", "120214.562500", "120215.022500", "120215.482500", "120215.942500", "120216.402500", "120216.862500", "120217.322500", "120217.782500", "120218.242500", "120218.702500", "120219.162500", "120219.622500", "120220.082500", "120220.542500", "120221.002500", "120221.462500", "120221.922500", "120222.382500", "120222.842500", "120223.302500", "120223.762500", "120224.222500", "120224.682500", "120225.142500", "120225.602500", "120226.062500", "120226.522500", "120226.982500", "120227.442500", "120227.902500", "120228.362500", "120228.822500", "120229.282500", "120229.742500", "120230.202500", "120230.662500", "120231.122500", "120231.582500", "120232.042500", "120232.502500", "120232.962500", "120233.422500", "120233.882500", "120234.342500", "120234.802500", "120235.262500", "120235.722500", "120236.182500", "120236.642500", "120237.102500", "120237.562500", "120238.022500", "120238.482500", "120238.942500", "120239.402500", "120239.862500", "120240.322500", "120240.782500", "120241.242500", "120241.702500", "120242.162500", "120242.622500", "120243.082500", "120243.542500", "120244.002500", "120244.462500", "120244.922500", "120245.382500", "120245.842500", "120246.302500", "120246.762500", "120247.222500", "120247.682500", "120248.142500", "120248.602500", "120249.062500", "120249.522500", "120249.982500", "120250.442500", "120250.902500", "120251.362500", "120251.822500", "120252.282500", "120252.742500", "120253.202500", "120253.662500", "120254.122500", "120254.582500", "120255.042500", "120255.502500", "120255.962500", "120256.422500", "120256.882500", "120257.342500", "120257.802500", "120258.262500", "120258.722500", "120259.182500", "120259.642500", "120300.102500", "120300.562500", "120301.022500", "120301.482500", "120301.942500", "120302.402500", "120302.862500", "120303.322500", "120303.782500", "120304.242500", "120304.702500", "120305.162500", "120305.622500", "120306.082500", "120306.542500", "120307.002500", "120307.462500", "120307.922500", "120308.382500", "120308.842500", "120309.302500", "120309.762500", "120310.222500", "120310.682500", "120311.142500", "120311.602500", "120312.062500", "120312.522500", "120312.982500", "120313.442500", "120313.902500", "120314.362500", "120314.822500", "120315.282500", "120315.742500", "120316.202500", "120316.662500", "120317.122500", "120317.582500", "120318.042500", "120318.502500", "120318.962500", "120319.422500", "120319.882500", "120320.342500", "120320.802500", "120321.262500", "120321.722500", "120322.182500", "120322.642500", "120323.102500", "120323.562500", "120324.022500", "120324.482500", "120324.942500", "120325.402500", "120325.862500", "120326.322500", "120326.782500", "120327.242500", "120327.702500", "120328.162500", "120328.622500", "120329.082500", "120329.542500", "120330.002500", "120330.462500", "120330.922500", "120331.382500", "120331.842500", "120332.302500", "120332.762500", "120333.222500", "120333.682500", "120334.142500", "120334.602500", "120335.062500", "120335.522500", "120335.982500", "120336.442500", "120336.902500", "120337.362500", "120337.822500", "120338.282500", "120338.742500", "120339.202500", "120339.662500", "120340.122500", "120340.582500", "120341.042500", "120341.502500", "120341.962500", "120342.422500", "120342.882500", "120343.342500", "120343.802500", "120344.262500", "120344.722500", "120345.182500", "120345.642500", "120346.102500", "120346.562500", "120347.022500", "120347.482500", "120347.942500", "120348.402500", "120348.862500", "120349.322500", "120349.782500", "120350.242500", "120350.702500", "120351.162500", "120351.622500", "120352.082500", "120352.542500", "120353.002500", "120353.462500", "120353.922500", "120354.382500", "120354.842500", "120355.302500", "120355.762500", "120356.222500", "120356.682500", "120357.142500", "120357.602500", "120358.062500", "120358.522500", "120358.982500", "120359.442500", "120359.902500", "120400.362500", "120400.822500", "120401.282500", "120401.742500", "120402.202500", "120402.662500", "120403.122500", "120403.582500", "120404.042500", "120404.502500", "120404.962500", "120405.422500", "120405.882500", "120406.342500", "120406.802500", "120407.262500", "120407.722500", "120408.182500", "120408.642500", "120409.102500", "120409.562500", "120410.022500", "120410.482500", "120410.942500", "120411.402500", "120411.862500", "120412.322500", "120412.782500", "120413.242500", "120413.702500", "120414.162500", "120414.622500", "120415.082500", "120415.542500", "120416.002500", "120416.462500", "120416.922500", "120417.382500", "120417.842500", "120418.302500", "120418.762500", "120419.222500", "120419.682500", "120420.142500", "120420.602500", "120421.062500", "120421.522500", "120421.982500", "120422.442500", "120422.902500", "120423.362500", "120423.822500", "120424.282500", "120424.742500", "120425.202500", "120425.662500", "120426.122500", "120426.582500", "120427.042500", "120427.502500", "120427.962500", "120428.422500", "120428.882500", "120429.342500", "120429.802500", "120430.262500", "120430.722500", "120431.182500", "120431.642500", "120432.102500", "120432.562500", "120433.022500", "120433.482500", "120433.942500", "120434.402500", "120434.862500", "120435.322500", "120435.782500", "120436.242500", "120436.702500", "120437.162500", "120437.622500", "120438.082500", "120438.542500", "120439.002500", "120439.462500", "120439.922500", "120440.382500", "120440.842500", "120441.302500", "120441.762500", "120442.222500", "120442.682500", "120443.142500", "120443.602500", "120444.062500", "120444.522500", "120444.982500", "120445.442500", "120445.902500", "120446.362500", "120446.822500", "120447.282500", "120447.742500", "120448.202500", "120448.662500", "120449.122500", "120449.582500", "120450.042500", "120450.502500", "120450.962500", "120451.422500", "120451.882500", "120452.342500", "120452.802500", "120453.262500", "120453.722500", "120454.182500", "120454.642500", "120455.102500", "120455.562500", "120456.022500", "120456.482500", "120456.942500", "120457.402500", "120457.862500", "120458.322500", "120458.782500", "120459.242500", "120459.702500", "120500.162500", "120500.622500", "120501.082500", "120501.542500", "120502.002500", "120502.462500", "120502.922500", "120503.382500", "120503.842500", "120504.302500", "120504.762500", "120505.222500", "120505.682500", "120506.142500", "120506.602500", "120507.062500", "120507.522500", "120507.982500", "120508.442500", "120508.902500", "120509.362500", "120509.822500", "120510.282500", "120510.742500", "120511.202500", "120511.662500", "120512.122500", "120512.582500", "120513.042500", "120513.502500", "120513.962500", "120514.422500", "120514.882500", "120515.342500", "120515.802500", "120516.262500", "120516.722500", "120517.182500", "120517.642500", "120518.102500", "120518.562500", "120519.022500", "120519.482500", "120519.942500", "120520.402500", "120520.862500", "120521.322500", "120521.782500", "120522.242500", "120522.702500", "120523.162500", "120523.622500", "120524.082500", "120524.542500", "120525.002500", "120525.462500", "120525.922500", "120526.382500", "120526.842500", "120527.302500", "120527.762500", "120528.222500", "120528.682500", "120529.142500", "120529.602500", "120530.062500", "120530.522500", "120530.982500", "120531.442500", "120531.902500", "120532.362500", "120532.822500", "120533.282500", "120533.742500", "120534.202500", "120534.662500", "120535.122500", "120535.582500", "120536.042500", "120536.502500", "120536.962500", "120537.422500", "120537.882500", "120538.342500", "120538.802500", "120539.262500", "120539.722500", "120540.182500", "120540.642500", "120541.102500", "120541.562500", "120542.022500", "120542.482500", "120542.942500", "120543.402500", "120543.862500", "120544.322500", "120544.782500", "120545.242500", "120545.702500", "120546.162500", "120546.622500", "120547.082500", "120547.542500", "120548.002500", "120548.462500", "120548.922500", "120549.382500", "120549.842500", "120550.302500", "120550.762500", "120551.222500", "120551.682500", "120552.142500", "120552.602500", "120553.062500", "120553.522500", "120553.982500", "120554.442500", "120554.902500", "120555.362500", "120555.822500", "120556.282500", "120556.742500", "120557.202500", "120557.662500", "120558.122500", "120558.582500", "120559.042500", "120559.502500", "120559.962500", "120600.422500", "120600.882500", "120601.342500", "120601.802500", "120602.262500", "120602.722500", "120603.182500", "120603.642500", "120604.102500", "120604.562500", "120605.022500", "120605.482500", "120605.942500", "120606.402500", "120606.862500", "120607.322500", "120607.782500", "120608.242500", "120608.702500", "120609.162500", "120609.622500", "120610.082500", "120610.542500", "120611.002500", "120611.462500", "120611.922500", "120612.382500", "120612.842500", "120613.302500", "120613.762500", "120614.222500", "120614.682500", "120615.142500", "120615.602500", "120616.062500", "120616.522500", "120616.982500", "120617.442500", "120617.902500", "120618.362500", "120618.822500", "120619.282500", "120619.742500", "120620.202500", "120620.662500", "120621.122500", "120621.582500", "120622.042500", "120622.502500", "120622.962500", "120623.422500", "120623.882500", "120624.342500", "120624.802500", "120625.262500", "120625.722500", "120626.182500", "120626.642500", "120627.102500", "120627.562500", "120628.022500", "120628.482500", "120628.942500", "120629.402500", "120629.862500", "120630.322500", "120630.782500", "120631.242500", "120631.702500", "120632.162500", "120632.622500", "120633.082500", "120633.542500", "120634.002500", "120634.462500", "120634.922500", "120635.382500", "120635.842500", "120636.302500", "120636.762500", "120637.222500", "120637.682500", "120638.142500", "120638.602500", "120639.062500", "120639.522500", "120639.982500", "120640.442500", "120640.902500", "120641.362500", "120641.822500", "120642.282500", "120642.742500", "120643.202500", "120643.662500", "120644.122500", "120644.582500", "120645.042500", "120645.502500", "120645.962500", "120646.422500", "120646.882500", "120647.342500", "120647.802500", "120648.262500", "120648.722500", "120649.182500", "120649.642500", "120650.102500", "120650.562500", "120651.022500", "120651.482500", "120651.942500", "120652.402500", "120652.862500", "120653.322500", "120653.782500", "120654.242500", "120654.702500", "120655.162500", "120655.622500", "120656.082500", "120656.542500", "120657.002500", "120657.462500", "120657.922500", "120658.382500", "120658.842500", "120659.302500", "120659.762500", "120700.222500", "120700.682500", "120701.142500", "120701.602500", "120702.062500", "120702.522500", "120702.982500", "120703.442500", "120703.902500", "120704.362500", "120704.822500", "120705.282500", "120705.742500", "120706.202500", "120706.662500", "120707.122500", "120707.582500", "120708.042500", "120708.502500", "120708.962500", "120709.422500", "120709.882500", "120710.342500", "120710.802500", "120711.262500", "120711.722500", "120712.182500", "120712.642500", "120713.102500", "120713.562500", "120714.022500", "120714.482500", "120714.942500", "120715.402500", "120715.862500", "120716.322500", "120716.782500", "120717.242500", "120717.702500", "120718.162500", "120718.622500", "120719.082500", "120719.542500", "120720.002500", "120720.462500", "120720.922500", "120721.382500", "120721.842500", "120722.302500", "120722.762500", "120723.222500", "120723.682500", "120724.142500", "120724.602500", "120725.062500", "120725.522500", "120725.982500", "120726.442500", "120726.902500", "120727.362500", "120727.822500", "120728.282500", "120728.742500", "120729.202500", "120729.662500", "120730.122500", "120730.582500", "120731.042500", "120731.502500", "120731.962500", "120732.422500", "120732.882500", "120733.342500", "120733.802500", "120734.262500", "120734.722500", "120735.182500", "120735.642500", "120736.102500", "120736.562500", "120737.022500", "120737.482500", "120737.942500", "120738.402500", "120738.862500", "120739.322500", "120739.782500", "120740.242500", "120740.702500", "120741.162500", "120741.622500", "120742.082500", "120742.542500", "120743.002500", "120743.462500", "120743.922500", "120744.382500", "120744.842500", "120745.302500", "120745.762500", "120746.222500", "120746.682500", "120747.142500", "120747.602500", "120748.062500", "120748.522500", "120748.982500", "120749.442500", "120749.902500", "120750.362500", "120750.822500", "120751.282500", "120751.742500", "120752.202500", "120752.662500", "120753.122500", "120753.582500", "120754.042500", "120754.502500", "120754.962500", "120755.422500", "120755.882500", "120756.342500", "120756.802500", "120757.262500", "120757.722500", "120758.182500", "120758.642500", "120759.102500", "120759.562500", "120800.022500", "120800.482500", "120800.942500", "120801.402500", "120801.862500", "120802.322500", "120802.782500", "120803.242500", "120803.702500", "120804.162500", "120804.622500", "120805.082500", "120805.542500", "120806.002500", "120806.462500", "120806.922500", "120807.382500", "120807.842500", "120808.302500", "120808.762500", "120809.222500", "120809.682500", "120810.142500", "120810.602500", "120811.062500", "120811.522500", "120811.982500", "120812.442500", "120812.902500", "120813.362500", "120813.822500", "120814.282500", "120814.742500", "120815.202500", "120815.662500", "120816.122500", "120816.582500", "120817.042500", "120817.502500", "120817.962500", "120818.422500", "120818.882500", "120819.342500", "120819.802500", "120820.262500", "120820.722500", "120821.182500", "120821.642500", "120822.102500", "120822.562500", "120823.022500", "120823.482500", "120823.942500", "120824.402500", "120824.862500", "120825.322500", "120825.782500", "120826.242500", "120826.702500", "120827.162500", "120827.622500", "120828.082500", "120828.542500", "120829.002500", "120829.462500", "120829.922500", "120830.382500", "120830.842500", "120831.302500", "120831.762500", "120832.222500", "120832.682500", "120833.142500", "120833.602500", "120834.062500", "120834.522500", "120834.982500", "120835.442500", "120835.902500", "120836.362500", "120836.822500", "120837.282500", "120837.742500", "120838.202500", "120838.662500", "120839.122500", "120839.582500", "120840.042500", "120840.502500", "120840.962500", "120841.422500", "120841.882500", "120842.342500", "120842.802500", "120843.262500", "120843.722500", "120844.182500", "120844.642500", "120845.102500", "120845.562500", "120846.022500", "120846.482500", "120846.942500", "120847.402500", "120847.862500", "120848.322500", "120848.782500", "120849.242500", "120849.702500", "120850.162500", "120850.622500", "120851.082500", "120851.542500", "120852.002500", "120852.462500", "120852.922500", "120853.382500", "120853.842500", "120854.302500", "120854.762500", "120855.222500", "120855.682500", "120856.142500", "120856.602500", "120857.062500", "120857.522500", "120857.982500", "120858.442500", "120858.902500", "120859.362500", "120859.822500", "120900.282500", "120900.742500", "120901.202500", "120901.662500", "120902.122500", "120902.582500", "120903.042500", "120903.502500", "120903.962500", "120904.422500"],
