{
  "AcquisitionMatrixPE": 82,
  "AcquisitionNumber": 1,
  "AcquisitionTime": "19:11:43.387500",
  "BandwidthPerPixelPhaseEncode": 24.888,
  "BaseResolution": 82,
  "BodyPartExamined": "BRAIN",
  "ConsistencyInfo": "N4_VE11E_LATEST_20181129",
  "ConversionSoftware": "dcm2niix",
  "ConversionSoftwareVersion": "v1.0.20201102",
  "DerivedVendorReportedEchoSpacing": 0.00049,
  "DeviceSerialNumber": "66112",
  "DwellTime": 2e-06,
  "EchoTime": 0.0272,
  "EchoTrainLength": 82,
  "EffectiveEchoSpacing": 0.00049,
  "FlipAngle": 44,
  "ImageComments": "Unaliased MB8/PE3",
  "ImageOrientationPatientDICOM": [0.993898, -0.075553, 0.08037, 0.06828, 0.993627, 0.0896876],
  "ImageType": [
    "ORIGINAL",
    "PRIMARY",
    "M",
    "MB",
    "ND",
    "NORM",
    "MOSAIC"
],
  "ImagingFrequency": 123.252,
  "InPlanePhaseEncodingDirectionDICOM": "COL",
  "InstitutionAddress": "Maynard 3,Hanover,NH,US,03755",
  "InstitutionName": "Dartmouth College - PBS",
  "InstitutionalDepartmentName": "Department",
  "MRAcquisitionType": "2D",
  "MagneticFieldStrength": 3,
  "Manufacturer": "Siemens",
  "ManufacturersModelName": "Prisma",
  "Modality": "MR",
  "MultibandAccelerationFactor": 8,
  "PartialFourier": 1,
  "PatientPosition": "HFS",
  "PercentPhaseFOV": 100,
  "PercentSampling": 100,
  "PhaseEncodingDirection": "j-",
  "PhaseEncodingSteps": 82,
  "PhaseResolution": 1,
  "PixelBandwidth": 3050,
  "ProcedureStepDescription": "Wager_Wager^1076_spacetop",
  "ProtocolName": "func_run-02_task-social_acq-ap-mb8",
  "PulseSequenceDetails": "%CustomerSeq%\\cmrr_mbep2d_bold",
  "ReceiveCoilActiveElements": "HEA;HEP",
  "ReceiveCoilName": "Head_32",
  "ReconMatrixPE": 82,
  "RepetitionTime": 0.46,
  "SAR": 0.0856565,
  "ScanOptions": "FS",
  "ScanningSequence": "EP",
  "SequenceName": "epfid2d1_82",
  "SequenceVariant": "SK\\SS",
  "SeriesDescription": "func_run-02_task-social_acq-ap-mb8",
  "SeriesNumber": 10,
  "ShimSetting": [4177, -7744, -7273, 629, -126, -253, -142, 66],
  "SliceThickness": 2.7,
  "SliceTiming": [0, 0.2525, 0.0625, 0.315, 0.125, 0.3775, 0.1875, 0, 0.2525, 0.0625, 0.315, 0.125, 0.3775, 0.1875, 0, 0.2525, 0.0625, 0.315, 0.125, 0.3775, 0.1875, 0, 0.2525, 0.0625, 0.315, 0.125, 0.3775, 0.1875, 0, 0.2525, 0.0625, 0.315, 0.125, 0.3775, 0.1875, 0, 0.2525, 0.0625, 0.315, 0.125, 0.3775, 0.1875, 0, 0.2525, 0.0625, 0.315, 0.125, 0.3775, 0.1875, 0, 0.2525, 0.0625, 0.315, 0.125, 0.3775, 0.1875],
  "SoftwareVersions": "syngo MR E11",
  "SpacingBetweenSlices": 2.7,
  "StationName": "AWP66112",
  "TaskName": "social",
  "TotalReadoutTime": 0.03969,
  "TxRefAmp": 228.088,
  "WipMemBlock": "f104b2cd-428a-4145-806c-4b9f2c58071e||Sequence: R016 ve11e/master r/434b28f1; Aug  7 2019 18:53:46 by eja",
  "dcmmeta_affine": [
    [-2.6665544509887695, 0.18319012224674225, 0.23391161859035492, 91.65484619140625],
    [0.20270316302776337, 2.665827751159668, 0.22586211562156677, -107.57952880859375],
    [0.2156268209218979, -0.2406252920627594, 2.680349111557007, -77.5068588256836],
    [0.0, 0.0, 0.0, 1.0]
],
  "dcmmeta_reorient_transform": [
    [0.0, -1.0, 0.0, 81.0],
    [1.0, 0.0, 0.0, 0.0],
    [0.0, 0.0, 1.0, 0.0],
    [0.0, 0.0, 0.0, 1.0]
],
  "dcmmeta_shape": [82, 82, 56, 872],
  "dcmmeta_slice_dim": 2,
  "dcmmeta_version": 0.6,
  "global": {
    "const": {
      "AccessionNumber": "A004058",
      "AcquisitionMatrix": [82, 0, 0, 82],
      "AngioFlag": "N",
      "BitsAllocated": 16,
      "BitsStored": 16,
      "BodyPartExamined": "BRAIN",
      "Columns": 656,
      "EchoNumbers": 1,
      "EchoTime": 27.2,
      "EchoTrainLength": 82,
      "FlipAngle": 44.0,
      "HighBit": 15,
      "ImageOrientationPatient": [0.99389758480604, -0.075552994993, 0.08036999355675, 0.06827995179916, 0.99362668098741, 0.08968760790795],
      "ImagePositionPatient": [-924.36997058529, -815.26927047641, -227.94186106978],
      "ImageType": [
        "ORIGINAL",
        "PRIMARY",
        "M",
        "MB",
        "ND",
        "NORM",
        "MOSAIC"
],
      "ImagedNucleus": "1H",
      "ImagingFrequency": 123.252206,
      "InPlanePhaseEncodingDirection": "COL",
      "MRAcquisitionType": "2D",
      "MagneticFieldStrength": 3.0,
      "Manufacturer": "SIEMENS",
      "ManufacturerModelName": "Prisma",
      "Modality": "MR",
      "NumberOfAverages": 1.0,
      "NumberOfPhaseEncodingSteps": 82,
      "PercentPhaseFieldOfView": 100.0,
      "PercentSampling": 100.0,
      "PerformedProcedureStepStartTime": "175634.219000",
      "PhotometricInterpretation": "MONOCHROME2",
      "PixelBandwidth": 3050.0,
      "PixelRepresentation": 0,
      "PixelSpacing": [2.6829268932343, 2.6829268932343],
      "ProtocolName": "func_run-02_task-social_acq-ap-mb8",
      "RepetitionTime": 460.0,
      "Rows": 656,
      "SAR": 0.08565652760617,
      "SamplesPerPixel": 1,
      "ScanOptions": "FS",
      "ScanningSequence": "EP",
      "SequenceName": "epfid2d1_82",
      "SequenceVariant": [
        "SK",
        "SS"
],
      "SeriesDescription": "func_run-02_task-social_acq-ap-mb8",
      "SeriesNumber": 10,
      "SeriesTime": "191204.686000",
      "SliceLocation": -78.00164549906,
      "SliceThickness": 2.7000000476837,
      "SmallestImagePixelValue": 0,
      "SoftwareVersions": "syngo MR E11",
      "SpacingBetweenSlices": 2.6999998711393,
      "SpecificCharacterSet": "ISO_IR 100",
      "StudyID": "3",
      "StudyTime": "175634.167000",
      "TransmitCoilName": "Body",
      "VariableFlipAngleFlag": "N",
      "WindowCenterWidthExplanation": "Algo1"
    },
    "slices": {}
  },
  "time": {
    "samples": {
      "AcquisitionNumber": [1, 2, 3, 4, 5, 6, 7, 8, 9, 10, 11, 12, 13, 14, 15, 16, 17, 18, 19, 20, 21, 22, 23, 24, 25, 26, 27, 28, 29, 30, 31, 32, 33, 34, 35, 36, 37, 38, 39, 40, 41, 42, 43, 44, 45, 46, 47, 48, 49, 50, 51, 52, 53, 54, 55, 56, 57, 58, 59, 60, 61, 62, 63, 64, 65, 66, 67, 68, 69, 70, 71, 72, 73, 74, 75, 76, 77, 78, 79, 80, 81, 82, 83, 84, 85, 86, 87, 88, 89, 90, 91, 92, 93, 94, 95, 96, 97, 98, 99, 100, 101, 102, 103, 104, 105, 106, 107, 108, 109, 110, 111, 112, 113, 114, 115, 116, 117, 118, 119, 120, 121, 122, 123, 124, 125, 126, 127, 128, 129, 130, 131, 132, 133, 134, 135, 136, 137, 138, 139, 140, 141, 142, 143, 144, 145, 146, 147, 148, 149, 150, 151, 152, 153, 154, 155, 156, 157, 158, 159, 160, 161, 162, 163, 164, 165, 166, 167, 168, 169, 170, 171, 172, 173, 174, 175, 176, 177, 178, 179, 180, 181, 182, 183, 184, 185, 186, 187, 188, 189, 190, 191, 192, 193, 194, 195, 196, 197, 198, 199, 200, 201, 202, 203, 204, 205, 206, 207, 208, 209, 210, 211, 212, 213, 214, 215, 216, 217, 218, 219, 220, 221, 222, 223, 224, 225, 226, 227, 228, 229, 230, 231, 232, 233, 234, 235, 236, 237, 238, 239, 240, 241, 242, 243, 244, 245, 246, 247, 248, 249, 250, 251, 252, 253, 254, 255, 256, 257, 258, 259, 260, 261, 262, 263, 264, 265, 266, 267, 268, 269, 270, 271, 272, 273, 274, 275, 276, 277, 278, 279, 280, 281, 282, 283, 284, 285, 286, 287, 288, 289, 290, 291, 292, 293, 294, 295, 296, 297, 298, 299, 300, 301, 302, 303, 304, 305, 306, 307, 308, 309, 310, 311, 312, 313, 314, 315, 316, 317, 318, 319, 320, 321, 322, 323, 324, 325, 326, 327, 328, 329, 330, 331, 332, 333, 334, 335, 336, 337, 338, 339, 340, 341, 342, 343, 344, 345, 346, 347, 348, 349, 350, 351, 352, 353, 354, 355, 356, 357, 358, 359, 360, 361, 362, 363, 364, 365, 366, 367, 368, 369, 370, 371, 372, 373, 374, 375, 376, 377, 378, 379, 380, 381, 382, 383, 384, 385, 386, 387, 388, 389, 390, 391, 392, 393, 394, 395, 396, 397, 398, 399, 400, 401, 402, 403, 404, 405, 406, 407, 408, 409, 410, 411, 412, 413, 414, 415, 416, 417, 418, 419, 420, 421, 422, 423, 424, 425, 426, 427, 428, 429, 430, 431, 432, 433, 434, 435, 436, 437, 438, 439, 440, 441, 442, 443, 444, 445, 446, 447, 448, 449, 450, 451, 452, 453, 454, 455, 456, 457, 458, 459, 460, 461, 462, 463, 464, 465, 466, 467, 468, 469, 470, 471, 472, 473, 474, 475, 476, 477, 478, 479, 480, 481, 482, 483, 484, 485, 486, 487, 488, 489, 490, 491, 492, 493, 494, 495, 496, 497, 498, 499, 500, 501, 502, 503, 504, 505, 506, 507, 508, 509, 510, 511, 512, 513, 514, 515, 516, 517, 518, 519, 520, 521, 522, 523, 524, 525, 526, 527, 528, 529, 530, 531, 532, 533, 534, 535, 536, 537, 538, 539, 540, 541, 542, 543, 544, 545, 546, 547, 548, 549, 550, 551, 552, 553, 554, 555, 556, 557, 558, 559, 560, 561, 562, 563, 564, 565, 566, 567, 568, 569, 570, 571, 572, 573, 574, 575, 576, 577, 578, 579, 580, 581, 582, 583, 584, 585, 586, 587, 588, 589, 590, 591, 592, 593, 594, 595, 596, 597, 598, 599, 600, 601, 602, 603, 604, 605, 606, 607, 608, 609, 610, 611, 612, 613, 614, 615, 616, 617, 618, 619, 620, 621, 622, 623, 624, 625, 626, 627, 628, 629, 630, 631, 632, 633, 634, 635, 636, 637, 638, 639, 640, 641, 642, 643, 644, 645, 646, 647, 648, 649, 650, 651, 652, 653, 654, 655, 656, 657, 658, 659, 660, 661, 662, 663, 664, 665, 666, 667, 668, 669, 670, 671, 672, 673, 674, 675, 676, 677, 678, 679, 680, 681, 682, 683, 684, 685, 686, 687, 688, 689, 690, 691, 692, 693, 694, 695, 696, 697, 698, 699, 700, 701, 702, 703, 704, 705, 706, 707, 708, 709, 710, 711, 712, 713, 714, 715, 716, 717, 718, 719, 720, 721, 722, 723, 724, 725, 726, 727, 728, 729, 730, 731, 732, 733, 734, 735, 736, 737, 738, 739, 740, 741, 742, 743, 744, 745, 746, 747, 748, 749, 750, 751, 752, 753, 754, 755, 756, 757, 758, 759, 760, 761, 762, 763, 764, 765, 766, 767, 768, 769, 770, 771, 772, 773, 774, 775, 776, 777, 778, 779, 780, 781, 782, 783, 784, 785, 786, 787, 788, 789, 790, 791, 792, 793, 794, 795, 796, 797, 798, 799, 800, 801, 802, 803, 804, 805, 806, 807, 808, 809, 810, 811, 812, 813, 814, 815, 816, 817, 818, 819, 820, 821, 822, 823, 824, 825, 826, 827, 828, 829, 830, 831, 832, 833, 834, 835, 836, 837, 838, 839, 840, 841, 842, 843, 844, 845, 846, 847, 848, 849, 850, 851, 852, 853, 854, 855, 856, 857, 858, 859, 860, 861, 862, 863, 864, 865, 866, 867, 868, 869, 870, 871, 872],
      "AcquisitionTime": ["191143.387500", "191143.847500", "191144.307500", "191144.767500", "191145.227500", "191145.687500", "191146.147500", "191146.607500", "191147.067500", "191147.527500", "191147.987500", "191148.447500", "191148.907500", "191149.367500", "191149.827500", "191150.287500", "191150.747500", "191151.207500", "191151.667500", "191152.127500", "191152.587500", "191153.047500", "191153.507500", "191153.967500", "191154.427500", "191154.887500", "191155.347500", "191155.807500", "191156.267500", "191156.727500", "191157.187500", "191157.647500", "191158.107500", "191158.567500", "191159.027500", "191159.487500", "191159.947500", "191200.407500", "191200.867500", "191201.327500", "191201.787500", "191202.247500", "191202.707500", "191203.167500", "191203.627500", "191204.087500", "191204.547500", "191205.007500", "191205.467500", "191205.927500", "191206.387500", "191206.847500", "191207.307500", "191207.767500", "191208.227500", "191208.687500", "191209.147500", "191209.607500", "191210.067500", "191210.527500", "191210.987500", "191211.447500", "191211.907500", "191212.367500", "191212.827500", "191213.287500", "191213.747500", "191214.207500", "191214.667500", "191215.127500", "191215.587500", "191216.047500", "191216.507500", "191216.967500", "191217.427500", "191217.887500", "191218.347500", "191218.807500", "191219.267500", "191219.727500", "191220.187500", "191220.647500", "191221.107500", "191221.567500", "191222.027500", "191222.487500", "191222.947500", "191223.407500", "191223.867500", "191224.327500", "191224.787500", "191225.247500", "191225.707500", "191226.167500", "191226.627500", "191227.087500", "191227.547500", "191228.007500", "191228.467500", "191228.927500", "191229.387500", "191229.847500", "191230.307500", "191230.767500", "191231.227500", "191231.687500", "191232.147500", "191232.607500", "191233.067500", "191233.527500", "191233.987500", "191234.447500", "191234.907500", "191235.367500", "191235.827500", "191236.287500", "191236.747500", "191237.207500", "191237.667500", "191238.127500", "191238.587500", "191239.047500", "191239.507500", "191239.967500", "191240.427500", "191240.887500", "191241.347500", "191241.807500", "191242.267500", "191242.727500", "191243.187500", "191243.647500", "191244.107500", "191244.567500", "191245.027500", "191245.487500", "191245.947500", "191246.407500", "191246.867500", "191247.327500", "191247.787500", "191248.247500", "191248.707500", "191249.167500", "191249.627500", "191250.087500", "191250.547500", "191251.007500", "191251.467500", "191251.927500", "191252.387500", "191252.847500", "191253.307500", "191253.767500", "191254.227500", "191254.687500", "191255.147500", "191255.607500", "191256.067500", "191256.527500", "191256.987500", "191257.447500", "191257.907500", "191258.367500", "191258.827500", "191259.287500", "191259.747500", "191300.207500", "191300.667500", "191301.127500", "191301.587500", "191302.047500", "191302.507500", "191302.967500", "191303.427500", "191303.887500", "191304.347500", "191304.807500", "191305.267500", "191305.727500", "191306.187500", "191306.647500", "191307.107500", "191307.567500", "191308.027500", "191308.487500", "191308.947500", "191309.407500", "191309.867500", "191310.327500", "191310.787500", "191311.247500", "191311.707500", "191312.167500", "191312.627500", "191313.087500", "191313.547500", "191314.007500", "191314.467500", "191314.927500", "191315.387500", "191315.847500", "191316.307500", "191316.767500", "191317.227500", "191317.687500", "191318.147500", "191318.607500", "191319.067500", "191319.527500", "191319.987500", "191320.447500", "191320.907500", "191321.367500", "191321.827500", "191322.287500", "191322.747500", "191323.207500", "191323.667500", "191324.127500", "191324.587500", "191325.047500", "191325.507500", "191325.967500", "191326.427500", "191326.887500", "191327.347500", "191327.807500", "191328.267500", "191328.727500", "191329.187500", "191329.647500", "191330.107500", "191330.567500", "191331.027500", "191331.487500", "191331.947500", "191332.407500", "191332.867500", "191333.327500", "191333.787500", "191334.247500", "191334.707500", "191335.167500", "191335.627500", "191336.087500", "191336.547500", "191337.007500", "191337.467500", "191337.927500", "191338.387500", "191338.847500", "191339.307500", "191339.767500", "191340.227500", "191340.687500", "191341.147500", "191341.607500", "191342.067500", "191342.527500", "191342.987500", "191343.447500", "191343.907500", "191344.367500", "191344.827500", "191345.287500", "191345.747500", "191346.207500", "191346.667500", "191347.127500", "191347.587500", "191348.047500", "191348.507500", "191348.967500", "191349.427500", "191349.887500", "191350.347500", "191350.807500", "191351.267500", "191351.727500", "191352.187500", "191352.647500", "191353.107500", "191353.567500", "191354.027500", "191354.487500", "191354.947500", "191355.407500", "191355.867500", "191356.327500", "191356.787500", "191357.247500", "191357.707500", "191358.167500", "191358.627500", "191359.087500", "191359.547500", "191400.007500", "191400.467500", "191400.927500", "191401.387500", "191401.847500", "191402.307500", "191402.767500", "191403.227500", "191403.687500", "191404.147500", "191404.607500", "191405.067500", "191405.527500", "191405.987500", "191406.447500", "191406.907500", "191407.367500", "191407.827500", "191408.287500", "191408.747500", "191409.207500", "191409.667500", "191410.127500", "191410.587500", "191411.047500", "191411.507500", "191411.967500", "191412.427500", "191412.887500", "191413.347500", "191413.807500", "191414.267500", "191414.727500", "191415.187500", "191415.647500", "191416.107500", "191416.567500", "191417.027500", "191417.487500", "191417.947500", "191418.407500", "191418.867500", "191419.327500", "191419.787500", "191420.247500", "191420.707500", "191421.167500", "191421.627500", "191422.087500", "191422.547500", "191423.007500", "191423.467500", "191423.927500", "191424.387500", "191424.847500", "191425.307500", "191425.767500", "191426.227500", "191426.687500", "191427.147500", "191427.607500", "191428.067500", "191428.527500", "191428.987500", "191429.447500", "191429.907500", "191430.367500", "191430.827500", "191431.287500", "191431.747500", "191432.207500", "191432.667500", "191433.127500", "191433.587500", "191434.047500", "191434.507500", "191434.967500", "191435.427500", "191435.887500", "191436.347500", "191436.807500", "191437.267500", "191437.727500", "191438.187500", "191438.647500", "191439.107500", "191439.567500", "191440.027500", "191440.487500", "191440.947500", "191441.407500", "191441.867500", "191442.327500", "191442.787500", "191443.247500", "191443.707500", "191444.167500", "191444.627500", "191445.087500", "191445.547500", "191446.007500", "191446.467500", "191446.927500", "191447.387500", "191447.847500", "191448.307500", "191448.767500", "191449.227500", "191449.687500", "191450.147500", "191450.607500", "191451.067500", "191451.527500", "191451.987500", "191452.447500", "191452.907500", "191453.367500", "191453.827500", "191454.287500", "191454.747500", "191455.207500", "191455.667500", "191456.127500", "191456.587500", "191457.047500", "191457.507500", "191457.967500", "191458.427500", "191458.887500", "191459.347500", "191459.807500", "191500.267500", "191500.727500", "191501.187500", "191501.647500", "191502.107500", "191502.567500", "191503.027500", "191503.487500", "191503.947500", "191504.407500", "191504.867500", "191505.327500", "191505.787500", "191506.247500", "191506.707500", "191507.167500", "191507.627500", "191508.087500", "191508.547500", "191509.007500", "191509.467500", "191509.927500", "191510.387500", "191510.847500", "191511.307500", "191511.767500", "191512.227500", "191512.687500", "191513.147500", "191513.607500", "191514.067500", "191514.527500", "191514.987500", "191515.447500", "191515.907500", "191516.367500", "191516.827500", "191517.287500", "191517.747500", "191518.207500", "191518.667500", "191519.127500", "191519.587500", "191520.047500", "191520.507500", "191520.967500", "191521.427500", "191521.887500", "191522.347500", "191522.807500", "191523.267500", "191523.727500", "191524.187500", "191524.647500", "191525.107500", "191525.567500", "191526.027500", "191526.487500", "191526.947500", "191527.407500", "191527.867500", "191528.327500", "191528.787500", "191529.247500", "191529.707500", "191530.167500", "191530.627500", "191531.087500", "191531.547500", "191532.007500", "191532.467500", "191532.927500", "191533.387500", "191533.847500", "191534.307500", "191534.767500", "191535.227500", "191535.687500", "191536.147500", "191536.607500", "191537.067500", "191537.527500", "191537.987500", "191538.447500", "191538.907500", "191539.367500", "191539.827500", "191540.287500", "191540.747500", "191541.207500", "191541.667500", "191542.127500", "191542.587500", "191543.047500", "191543.507500", "191543.967500", "191544.427500", "191544.887500", "191545.347500", "191545.807500", "191546.267500", "191546.727500", "191547.187500", "191547.647500", "191548.107500", "191548.567500", "191549.027500", "191549.487500", "191549.947500", "191550.407500", "191550.867500", "191551.327500", "191551.787500", "191552.247500", "191552.707500", "191553.167500", "191553.627500", "191554.087500", "191554.547500", "191555.007500", "191555.467500", "191555.927500", "191556.387500", "191556.847500", "191557.307500", "191557.767500", "191558.227500", "191558.687500", "191559.147500", "191559.607500", "191600.067500", "191600.527500", "191600.987500", "191601.447500", "191601.907500", "191602.367500", "191602.827500", "191603.287500", "191603.747500", "191604.207500", "191604.667500", "191605.127500", "191605.587500", "191606.047500", "191606.507500", "191606.967500", "191607.427500", "191607.887500", "191608.347500", "191608.807500", "191609.267500", "191609.727500", "191610.187500", "191610.647500", "191611.107500", "191611.567500", "191612.027500", "191612.487500", "191612.947500", "191613.407500", "191613.867500", "191614.327500", "191614.787500", "191615.247500", "191615.707500", "191616.167500", "191616.627500", "191617.087500", "191617.547500", "191618.007500", "191618.467500", "191618.927500", "191619.387500", "191619.847500", "191620.307500", "191620.767500", "191621.227500", "191621.687500", "191622.147500", "191622.607500", "191623.067500", "191623.527500", "191623.987500", "191624.447500", "191624.907500", "191625.367500", "191625.827500", "191626.287500", "191626.747500", "191627.207500", "191627.667500", "191628.127500", "191628.587500", "191629.047500", "191629.507500", "191629.967500", "191630.427500", "191630.887500", "191631.347500", "191631.807500", "191632.267500", "191632.727500", "191633.187500", "191633.647500", "191634.107500", "191634.567500", "191635.027500", "191635.487500", "191635.947500", "191636.407500", "191636.867500", "191637.327500", "191637.787500", "191638.247500", "191638.707500", "191639.167500", "191639.627500", "191640.087500", "191640.547500", "191641.007500", "191641.467500", "191641.927500", "191642.387500", "191642.847500", "191643.307500", "191643.767500", "191644.227500", "191644.687500", "191645.147500", "191645.607500", "191646.067500", "191646.527500", "191646.987500", "191647.447500", "191647.907500", "191648.367500", "191648.827500", "191649.287500", "191649.747500", "191650.207500", "191650.667500", "191651.127500", "191651.587500", "191652.047500", "191652.507500", "191652.967500", "191653.427500", "191653.887500", "191654.347500", "191654.807500", "191655.267500", "191655.727500", "191656.187500", "191656.647500", "191657.107500", "191657.567500", "191658.027500", "191658.487500", "191658.947500", "191659.407500", "191659.867500", "191700.327500", "191700.787500", "191701.247500", "191701.707500", "191702.167500", "191702.627500", "191703.087500", "191703.547500", "191704.007500", "191704.467500", "191704.927500", "191705.387500", "191705.847500", "191706.307500", "191706.767500", "191707.227500", "191707.687500", "191708.147500", "191708.607500", "191709.067500", "191709.527500", "191709.987500", "191710.447500", "191710.907500", "191711.367500", "191711.827500", "191712.287500", "191712.747500", "191713.207500", "191713.667500", "191714.127500", "191714.587500", "191715.047500", "191715.507500", "191715.967500", "191716.427500", "191716.887500", "191717.347500", "191717.807500", "191718.267500", "191718.727500", "191719.187500", "191719.647500", "191720.107500", "191720.567500", "191721.027500", "191721.487500", "191721.947500", "191722.407500", "191722.867500", "191723.327500", "191723.787500", "191724.247500", "191724.707500", "191725.167500", "191725.627500", "191726.087500", "191726.547500", "191727.007500", "191727.467500", "191727.927500", "191728.387500", "191728.847500", "191729.307500", "191729.767500", "191730.227500", "191730.687500", "191731.147500", "191731.607500", "191732.067500", "191732.527500", "191732.987500", "191733.447500", "191733.907500", "191734.367500", "191734.827500", "191735.287500", "191735.747500", "191736.207500", "191736.667500", "191737.127500", "191737.587500", "191738.047500", "191738.507500", "191738.967500", "191739.427500", "191739.887500", "191740.347500", "191740.807500", "191741.267500", "191741.727500", "191742.187500", "191742.647500", "191743.107500", "191743.567500", "191744.027500", "191744.487500", "191744.947500", "191745.407500", "191745.867500", "191746.327500", "191746.787500", "191747.247500", "191747.707500", "191748.167500", "191748.627500", "191749.087500", "191749.547500", "191750.007500", "191750.467500", "191750.927500", "191751.387500", "191751.847500", "191752.307500", "191752.767500", "191753.227500", "191753.687500", "191754.147500", "191754.607500", "191755.067500", "191755.527500", "191755.987500", "191756.447500", "191756.907500", "191757.367500", "191757.827500", "191758.287500", "191758.747500", "191759.207500", "191759.667500", "191800.127500", "191800.587500", "191801.047500", "191801.507500", "191801.967500", "191802.427500", "191802.887500", "191803.347500", "191803.807500", "191804.267500", "191804.727500", "191805.187500", "191805.647500", "191806.107500", "191806.567500", "191807.027500", "191807.487500", "191807.947500", "191808.407500", "191808.867500", "191809.327500", "191809.787500", "191810.247500", "191810.707500", "191811.167500", "191811.627500", "191812.087500", "191812.547500", "191813.007500", "191813.467500", "191813.927500", "191814.387500", "191814.847500", "191815.307500", "191815.767500", "191816.227500", "191816.687500", "191817.147500", "191817.607500", "191818.067500", "191818.527500", "191818.987500", "191819.447500", "191819.907500", "191820.367500", "191820.827500", "191821.287500", "191821.747500", "191822.207500", "191822.667500", "191823.127500", "191823.587500", "191824.047500"],
