{
  "AcquisitionMatrixPE": 82,
  "AcquisitionNumber": 1,
  "AcquisitionTime": "13:24:41.057500",
  "BandwidthPerPixelPhaseEncode": 24.888,
  "BaseResolution": 82,
  "BodyPartExamined": "BRAIN",
  "ConsistencyInfo": "N4_VE11E_LATEST_20181129",
  "ConversionSoftware": "dcm2niix",
  "ConversionSoftwareVersion": "v1.0.20201102",
  "DerivedVendorReportedEchoSpacing": 0.00049,
  "DeviceSerialNumber": "66112",
  "DwellTime": 2e-06,
  "EchoTime": 0.0272,
  "EchoTrainLength": 82,
  "EffectiveEchoSpacing": 0.00049,
  "FlipAngle": 44,
  "ImageComments": "Unaliased MB8/PE3",
  "ImageOrientationPatientDICOM": [0.998504, 0.0225909, -0.0497952, -0.0203926, 0.998814, 0.0442201],
  "ImageType": [
    "ORIGINAL",
    "PRIMARY",
    "M",
    "MB",
    "ND",
    "NORM",
    "MOSAIC"
],
  "ImagingFrequency": 123.252,
  "InPlanePhaseEncodingDirectionDICOM": "COL",
  "InstitutionAddress": "Maynard 3,Hanover,NH,US,03755",
  "InstitutionName": "Dartmouth College - PBS",
  "InstitutionalDepartmentName": "Department",
  "MRAcquisitionType": "2D",
  "MagneticFieldStrength": 3,
  "Manufacturer": "Siemens",
  "ManufacturersModelName": "Prisma",
  "Modality": "MR",
  "MultibandAccelerationFactor": 8,
  "PartialFourier": 1,
  "PatientPosition": "HFS",
  "PercentPhaseFOV": 100,
  "PercentSampling": 100,
  "PhaseEncodingDirection": "j-",
  "PhaseEncodingSteps": 82,
  "PhaseResolution": 1,
  "PixelBandwidth": 3050,
  "ProcedureStepDescription": "Wager_Wager^1076_spacetop",
  "ProtocolName": "func_run-03_task-faces_acq-ap-mb8",
  "PulseSequenceDetails": "%CustomerSeq%\\cmrr_mbep2d_bold",
  "ReceiveCoilActiveElements": "HEA;HEP",
  "ReceiveCoilName": "Head_32",
  "ReconMatrixPE": 82,
  "RepetitionTime": 0.46,
  "SAR": 0.0967797,
  "ScanOptions": "FS",
  "ScanningSequence": "EP",
  "SequenceName": "epfid2d1_82",
  "SequenceVariant": "SK\\SS",
  "SeriesDescription": "func_run-03_task-faces_acq-ap-mb8",
  "SeriesNumber": 20,
  "ShimSetting": [4145, -7706, -7266, 718, 16, 19, -66, 86],
  "SliceThickness": 2.7,
  "SliceTiming": [0, 0.2525, 0.0625, 0.315, 0.1275, 0.3775, 0.19, 0, 0.2525, 0.0625, 0.315, 0.1275, 0.3775, 0.19, 0, 0.2525, 0.0625, 0.315, 0.1275, 0.3775, 0.19, 0, 0.2525, 0.0625, 0.315, 0.1275, 0.3775, 0.19, 0, 0.2525, 0.0625, 0.315, 0.1275, 0.3775, 0.19, 0, 0.2525, 0.0625, 0.315, 0.1275, 0.3775, 0.19, 0, 0.2525, 0.0625, 0.315, 0.1275, 0.3775, 0.19, 0, 0.2525, 0.0625, 0.315, 0.1275, 0.3775, 0.19],
  "SoftwareVersions": "syngo MR E11",
  "SpacingBetweenSlices": 2.7,
  "StationName": "AWP66112",
  "TaskName": "faces",
  "TotalReadoutTime": 0.03969,
  "TxRefAmp": 241.411,
  "WipMemBlock": "aecd24b7-6698-44e8-a584-1be6af2e0078||Sequence: R016 ve11e/master r/434b28f1; Aug  7 2019 18:53:46 by eja",
  "dcmmeta_affine": [
    [-2.678913116455078, -0.05471191555261612, -0.1369846612215042, 120.99730682373047],
    [-0.06060962378978729, 2.679744005203247, 0.11647383868694305, -98.05760192871094],
    [-0.13359679281711578, -0.11863921582698822, 2.6940062046051025, -53.651371002197266],
    [0.0, 0.0, 0.0, 1.0]
],
  "dcmmeta_reorient_transform": [
    [0.0, -1.0, 0.0, 81.0],
    [1.0, 0.0, 0.0, 0.0],
    [0.0, 0.0, 1.0, 0.0],
    [0.0, 0.0, 0.0, 1.0]
],
  "dcmmeta_shape": [82, 82, 56, 914],
  "dcmmeta_slice_dim": 2,
  "dcmmeta_version": 0.6,
  "global": {
    "const": {
      "AccessionNumber": "A004025",
      "AcquisitionMatrix": [82, 0, 0, 82],
      "AngioFlag": "N",
      "BitsAllocated": 16,
      "BitsStored": 16,
      "BodyPartExamined": "BRAIN",
      "Columns": 656,
      "EchoNumbers": 1,
      "EchoTime": 27.2,
      "EchoTrainLength": 82,
      "FlipAngle": 44.0,
      "HighBit": 15,
      "ImageOrientationPatient": [0.99850392809584, 0.02259085967405, -0.0497951667973, -0.020392622336, 0.99881365952012, 0.04422006908954],
      "ImagePositionPatient": [-869.71136684522, -905.48315980455, -58.968322622168],
      "ImageType": [
        "ORIGINAL",
        "PRIMARY",
        "M",
        "MB",
        "ND",
        "NORM",
        "MOSAIC"
],
      "ImagedNucleus": "1H",
      "ImagingFrequency": 123.252224,
      "InPlanePhaseEncodingDirection": "COL",
      "MRAcquisitionType": "2D",
      "MagneticFieldStrength": 3.0,
      "Manufacturer": "SIEMENS",
      "ManufacturerModelName": "Prisma",
      "Modality": "MR",
      "NumberOfAverages": 1.0,
      "NumberOfPhaseEncodingSteps": 82,
      "PercentPhaseFieldOfView": 100.0,
      "PercentSampling": 100.0,
      "PerformedProcedureStepStartTime": "121824.472000",
      "PhotometricInterpretation": "MONOCHROME2",
      "PixelBandwidth": 3050.0,
      "PixelRepresentation": 0,
      "PixelSpacing": [2.6829268932343, 2.6829268932343],
      "ProtocolName": "func_run-03_task-faces_acq-ap-mb8",
      "RepetitionTime": 460.0,
      "Rows": 656,
      "SAR": 0.09677972131783,
      "SamplesPerPixel": 1,
      "ScanOptions": "FS",
      "ScanningSequence": "EP",
      "SequenceName": "epfid2d1_82",
      "SequenceVariant": [
        "SK",
        "SS"
],
      "SeriesDescription": "func_run-03_task-faces_acq-ap-mb8",
      "SeriesNumber": 20,
      "SeriesTime": "132457.776000",
      "SliceLocation": -63.901128252468,
      "SliceThickness": 2.7000000476837,
      "SmallestImagePixelValue": 0,
      "SoftwareVersions": "syngo MR E11",
      "SpacingBetweenSlices": 2.700000007023,
      "SpecificCharacterSet": "ISO_IR 100",
      "StudyID": "2",
      "StudyTime": "121824.414000",
      "TransmitCoilName": "Body",
      "VariableFlipAngleFlag": "N",
      "WindowCenterWidthExplanation": "Algo1"
    },
    "slices": {}
  },
  "time": {
    "samples": {
      "AcquisitionNumber": [1, 2, 3, 4, 5, 6, 7, 8, 9, 10, 11, 12, 13, 14, 15, 16, 17, 18, 19, 20, 21, 22, 23, 24, 25, 26, 27, 28, 29, 30, 31, 32, 33, 34, 35, 36, 37, 38, 39, 40, 41, 42, 43, 44, 45, 46, 47, 48, 49, 50, 51, 52, 53, 54, 55, 56, 57, 58, 59, 60, 61, 62, 63, 64, 65, 66, 67, 68, 69, 70, 71, 72, 73, 74, 75, 76, 77, 78, 79, 80, 81, 82, 83, 84, 85, 86, 87, 88, 89, 90, 91, 92, 93, 94, 95, 96, 97, 98, 99, 100, 101, 102, 103, 104, 105, 106, 107, 108, 109, 110, 111, 112, 113, 114, 115, 116, 117, 118, 119, 120, 121, 122, 123, 124, 125, 126, 127, 128, 129, 130, 131, 132, 133, 134, 135, 136, 137, 138, 139, 140, 141, 142, 143, 144, 145, 146, 147, 148, 149, 150, 151, 152, 153, 154, 155, 156, 157, 158, 159, 160, 161, 162, 163, 164, 165, 166, 167, 168, 169, 170, 171, 172, 173, 174, 175, 176, 177, 178, 179, 180, 181, 182, 183, 184, 185, 186, 187, 188, 189, 190, 191, 192, 193, 194, 195, 196, 197, 198, 199, 200, 201, 202, 203, 204, 205, 206, 207, 208, 209, 210, 211, 212, 213, 214, 215, 216, 217, 218, 219, 220, 221, 222, 223, 224, 225, 226, 227, 228, 229, 230, 231, 232, 233, 234, 235, 236, 237, 238, 239, 240, 241, 242, 243, 244, 245, 246, 247, 248, 249, 250, 251, 252, 253, 254, 255, 256, 257, 258, 259, 260, 261, 262, 263, 264, 265, 266, 267, 268, 269, 270, 271, 272, 273, 274, 275, 276, 277, 278, 279, 280, 281, 282, 283, 284, 285, 286, 287, 288, 289, 290, 291, 292, 293, 294, 295, 296, 297, 298, 299, 300, 301, 302, 303, 304, 305, 306, 307, 308, 309, 310, 311, 312, 313, 314, 315, 316, 317, 318, 319, 320, 321, 322, 323, 324, 325, 326, 327, 328, 329, 330, 331, 332, 333, 334, 335, 336, 337, 338, 339, 340, 341, 342, 343, 344, 345, 346, 347, 348, 349, 350, 351, 352, 353, 354, 355, 356, 357, 358, 359, 360, 361, 362, 363, 364, 365, 366, 367, 368, 369, 370, 371, 372, 373, 374, 375, 376, 377, 378, 379, 380, 381, 382, 383, 384, 385, 386, 387, 388, 389, 390, 391, 392, 393, 394, 395, 396, 397, 398, 399, 400, 401, 402, 403, 404, 405, 406, 407, 408, 409, 410, 411, 412, 413, 414, 415, 416, 417, 418, 419, 420, 421, 422, 423, 424, 425, 426, 427, 428, 429, 430, 431, 432, 433, 434, 435, 436, 437, 438, 439, 440, 441, 442, 443, 444, 445, 446, 447, 448, 449, 450, 451, 452, 453, 454, 455, 456, 457, 458, 459, 460, 461, 462, 463, 464, 465, 466, 467, 468, 469, 470, 471, 472, 473, 474, 475, 476, 477, 478, 479, 480, 481, 482, 483, 484, 485, 486, 487, 488, 489, 490, 491, 492, 493, 494, 495, 496, 497, 498, 499, 500, 501, 502, 503, 504, 505, 506, 507, 508, 509, 510, 511, 512, 513, 514, 515, 516, 517, 518, 519, 520, 521, 522, 523, 524, 525, 526, 527, 528, 529, 530, 531, 532, 533, 534, 535, 536, 537, 538, 539, 540, 541, 542, 543, 544, 545, 546, 547, 548, 549, 550, 551, 552, 553, 554, 555, 556, 557, 558, 559, 560, 561, 562, 563, 564, 565, 566, 567, 568, 569, 570, 571, 572, 573, 574, 575, 576, 577, 578, 579, 580, 581, 582, 583, 584, 585, 586, 587, 588, 589, 590, 591, 592, 593, 594, 595, 596, 597, 598, 599, 600, 601, 602, 603, 604, 605, 606, 607, 608, 609, 610, 611, 612, 613, 614, 615, 616, 617, 618, 619, 620, 621, 622, 623, 624, 625, 626, 627, 628, 629, 630, 631, 632, 633, 634, 635, 636, 637, 638, 639, 640, 641, 642, 643, 644, 645, 646, 647, 648, 649, 650, 651, 652, 653, 654, 655, 656, 657, 658, 659, 660, 661, 662, 663, 664, 665, 666, 667, 668, 669, 670, 671, 672, 673, 674, 675, 676, 677, 678, 679, 680, 681, 682, 683, 684, 685, 686, 687, 688, 689, 690, 691, 692, 693, 694, 695, 696, 697, 698, 699, 700, 701, 702, 703, 704, 705, 706, 707, 708, 709, 710, 711, 712, 713, 714, 715, 716, 717, 718, 719, 720, 721, 722, 723, 724, 725, 726, 727, 728, 729, 730, 731, 732, 733, 734, 735, 736, 737, 738, 739, 740, 741, 742, 743, 744, 745, 746, 747, 748, 749, 750, 751, 752, 753, 754, 755, 756, 757, 758, 759, 760, 761, 762, 763, 764, 765, 766, 767, 768, 769, 770, 771, 772, 773, 774, 775, 776, 777, 778, 779, 780, 781, 782, 783, 784, 785, 786, 787, 788, 789, 790, 791, 792, 793, 794, 795, 796, 797, 798, 799, 800, 801, 802, 803, 804, 805, 806, 807, 808, 809, 810, 811, 812, 813, 814, 815, 816, 817, 818, 819, 820, 821, 822, 823, 824, 825, 826, 827, 828, 829, 830, 831, 832, 833, 834, 835, 836, 837, 838, 839, 840, 841, 842, 843, 844, 845, 846, 847, 848, 849, 850, 851, 852, 853, 854, 855, 856, 857, 858, 859, 860, 861, 862, 863, 864, 865, 866, 867, 868, 869, 870, 871, 872, 873, 874, 875, 876, 877, 878, 879, 880, 881, 882, 883, 884, 885, 886, 887, 888, 889, 890, 891, 892, 893, 894, 895, 896, 897, 898, 899, 900, 901, 902, 903, 904, 905, 906, 907, 908, 909, 910, 911, 912, 913, 914],
      "AcquisitionTime": ["132441.057500", "132441.517500", "132441.977500", "132442.437500", "132442.897500", "132443.357500", "132443.817500", "132444.277500", "132444.737500", "132445.197500", "132445.657500", "132446.117500", "132446.577500", "132447.037500", "132447.497500", "132447.957500", "132448.417500", "132448.877500", "132449.337500", "132449.797500", "132450.257500", "132450.717500", "132451.177500", "132451.637500", "132452.097500", "132452.557500", "132453.017500", "132453.477500", "132453.937500", "132454.397500", "132454.857500", "132455.317500", "132455.777500", "132456.237500", "132456.697500", "132457.157500", "132457.617500", "132458.077500", "132458.537500", "132458.997500", "132459.457500", "132459.917500", "132500.377500", "132500.837500", "132501.297500", "132501.757500", "132502.217500", "132502.677500", "132503.137500", "132503.597500", "132504.057500", "132504.517500", "132504.977500", "132505.437500", "132505.897500", "132506.357500", "132506.817500", "132507.277500", "132507.737500", "132508.197500", "132508.657500", "132509.117500", "132509.577500", "132510.037500", "132510.497500", "132510.957500", "132511.417500", "132511.877500", "132512.337500", "132512.797500", "132513.257500", "132513.717500", "132514.177500", "132514.637500", "132515.097500", "132515.557500", "132516.017500", "132516.477500", "132516.937500", "132517.397500", "132517.857500", "132518.317500", "132518.777500", "132519.237500", "132519.697500", "132520.157500", "132520.617500", "132521.077500", "132521.537500", "132521.997500", "132522.457500", "132522.917500", "132523.377500", "132523.837500", "132524.297500", "132524.757500", "132525.217500", "132525.677500", "132526.137500", "132526.597500", "132527.057500", "132527.517500", "132527.977500", "132528.437500", "132528.897500", "132529.357500", "132529.817500", "132530.277500", "132530.737500", "132531.197500", "132531.657500", "132532.117500", "132532.577500", "132533.037500", "132533.497500", "132533.957500", "132534.417500", "132534.877500", "132535.337500", "132535.797500", "132536.257500", "132536.717500", "132537.177500", "132537.637500", "132538.097500", "132538.557500", "132539.017500", "132539.477500", "132539.937500", "132540.397500", "132540.857500", "132541.317500", "132541.777500", "132542.237500", "132542.697500", "132543.157500", "132543.617500", "132544.077500", "132544.537500", "132544.997500", "132545.457500", "132545.917500", "132546.377500", "132546.837500", "132547.297500", "132547.757500", "132548.217500", "132548.677500", "132549.137500", "132549.597500", "132550.057500", "132550.517500", "132550.977500", "132551.437500", "132551.897500", "132552.357500", "132552.817500", "132553.277500", "132553.737500", "132554.197500", "132554.657500", "132555.117500", "132555.577500", "132556.037500", "132556.497500", "132556.957500", "132557.417500", "132557.877500", "132558.337500", "132558.797500", "132559.257500", "132559.717500", "132600.177500", "132600.637500", "132601.097500", "132601.557500", "132602.017500", "132602.477500", "132602.937500", "132603.397500", "132603.857500", "132604.317500", "132604.777500", "132605.237500", "132605.697500", "132606.157500", "132606.617500", "132607.077500", "132607.537500", "132607.997500", "132608.457500", "132608.917500", "132609.377500", "132609.837500", "132610.297500", "132610.757500", "132611.217500", "132611.677500", "132612.137500", "132612.597500", "132613.057500", "132613.517500", "132613.977500", "132614.437500", "132614.897500", "132615.357500", "132615.817500", "132616.277500", "132616.737500", "132617.197500", "132617.657500", "132618.117500", "132618.577500", "132619.037500", "132619.497500", "132619.957500", "132620.417500", "132620.877500", "132621.337500", "132621.797500", "132622.257500", "132622.717500", "132623.177500", "132623.637500", "132624.097500", "132624.557500", "132625.017500", "132625.477500", "132625.937500", "132626.397500", "132626.857500", "132627.317500", "132627.777500", "132628.237500", "132628.697500", "132629.157500", "132629.617500", "132630.077500", "132630.537500", "132630.997500", "132631.457500", "132631.917500", "132632.377500", "132632.837500", "132633.297500", "132633.757500", "132634.217500", "132634.677500", "132635.137500", "132635.597500", "132636.057500", "132636.517500", "132636.977500", "132637.437500", "132637.897500", "132638.357500", "132638.817500", "132639.277500", "132639.737500", "132640.197500", "132640.657500", "132641.117500", "132641.577500", "132642.037500", "132642.497500", "132642.957500", "132643.417500", "132643.877500", "132644.337500", "132644.797500", "132645.257500", "132645.717500", "132646.177500", "132646.637500", "132647.097500", "132647.557500", "132648.017500", "132648.477500", "132648.937500", "132649.397500", "132649.857500", "132650.317500", "132650.777500", "132651.237500", "132651.697500", "132652.157500", "132652.617500", "132653.077500", "132653.537500", "132653.997500", "132654.457500", "132654.917500", "132655.377500", "132655.837500", "132656.297500", "132656.757500", "132657.217500", "132657.677500", "132658.137500", "132658.597500", "132659.057500", "132659.517500", "132659.977500", "132700.437500", "132700.897500", "132701.357500", "132701.817500", "132702.277500", "132702.737500", "132703.197500", "132703.657500", "132704.117500", "132704.577500", "132705.037500", "132705.497500", "132705.957500", "132706.417500", "132706.877500", "132707.337500", "132707.797500", "132708.257500", "132708.717500", "132709.177500", "132709.637500", "132710.097500", "132710.557500", "132711.017500", "132711.477500", "132711.937500", "132712.397500", "132712.857500", "132713.317500", "132713.777500", "132714.237500", "132714.697500", "132715.157500", "132715.617500", "132716.077500", "132716.537500", "132716.997500", "132717.457500", "132717.917500", "132718.377500", "132718.837500", "132719.297500", "132719.757500", "132720.217500", "132720.677500", "132721.137500", "132721.597500", "132722.057500", "132722.517500", "132722.977500", "132723.437500", "132723.897500", "132724.357500", "132724.817500", "132725.277500", "132725.737500", "132726.197500", "132726.657500", "132727.117500", "132727.577500", "132728.037500", "132728.497500", "132728.957500", "132729.417500", "132729.877500", "132730.337500", "132730.797500", "132731.257500", "132731.717500", "132732.177500", "132732.637500", "132733.097500", "132733.557500", "132734.017500", "132734.477500", "132734.937500", "132735.397500", "132735.857500", "132736.317500", "132736.777500", "132737.237500", "132737.697500", "132738.157500", "132738.617500", "132739.077500", "132739.537500", "132739.997500", "132740.457500", "132740.917500", "132741.377500", "132741.837500", "132742.297500", "132742.757500", "132743.217500", "132743.677500", "132744.137500", "132744.597500", "132745.057500", "132745.517500", "132745.977500", "132746.437500", "132746.897500", "132747.357500", "132747.817500", "132748.277500", "132748.737500", "132749.197500", "132749.657500", "132750.117500", "132750.577500", "132751.037500", "132751.497500", "132751.957500", "132752.417500", "132752.877500", "132753.337500", "132753.797500", "132754.257500", "132754.717500", "132755.177500", "132755.637500", "132756.097500", "132756.557500", "132757.017500", "132757.477500", "132757.937500", "132758.397500", "132758.857500", "132759.317500", "132759.777500", "132800.237500", "132800.697500", "132801.157500", "132801.617500", "132802.077500", "132802.537500", "132802.997500", "132803.457500", "132803.917500", "132804.377500", "132804.837500", "132805.297500", "132805.757500", "132806.217500", "132806.677500", "132807.137500", "132807.597500", "132808.057500", "132808.517500", "132808.977500", "132809.437500", "132809.897500", "132810.357500", "132810.817500", "132811.277500", "132811.737500", "132812.197500", "132812.657500", "132813.117500", "132813.577500", "132814.037500", "132814.497500", "132814.957500", "132815.417500", "132815.877500", "132816.337500", "132816.797500", "132817.257500", "132817.717500", "132818.177500", "132818.637500", "132819.097500", "132819.557500", "132820.017500", "132820.477500", "132820.937500", "132821.397500", "132821.857500", "132822.317500", "132822.777500", "132823.237500", "132823.697500", "132824.157500", "132824.617500", "132825.077500", "132825.537500", "132825.997500", "132826.457500", "132826.917500", "132827.377500", "132827.837500", "132828.297500", "132828.757500", "132829.217500", "132829.677500", "132830.137500", "132830.597500", "132831.057500", "132831.517500", "132831.977500", "132832.437500", "132832.897500", "132833.357500", "132833.817500", "132834.277500", "132834.737500", "132835.197500", "132835.657500", "132836.117500", "132836.577500", "132837.037500", "132837.497500", "132837.957500", "132838.417500", "132838.877500", "132839.337500", "132839.797500", "132840.257500", "132840.717500", "132841.177500", "132841.637500", "132842.097500", "132842.557500", "132843.017500", "132843.477500", "132843.937500", "132844.397500", "132844.857500", "132845.317500", "132845.777500", "132846.237500", "132846.697500", "132847.157500", "132847.617500", "132848.077500", "132848.537500", "132848.997500", "132849.457500", "132849.917500", "132850.377500", "132850.837500", "132851.297500", "132851.757500", "132852.217500", "132852.677500", "132853.137500", "132853.597500", "132854.057500", "132854.517500", "132854.977500", "132855.437500", "132855.897500", "132856.357500", "132856.817500", "132857.277500", "132857.737500", "132858.197500", "132858.657500", "132859.117500", "132859.577500", "132900.037500", "132900.497500", "132900.957500", "132901.417500", "132901.877500", "132902.337500", "132902.797500", "132903.257500", "132903.717500", "132904.177500", "132904.637500", "132905.097500", "132905.557500", "132906.017500", "132906.477500", "132906.937500", "132907.397500", "132907.857500", "132908.317500", "132908.777500", "132909.237500", "132909.697500", "132910.157500", "132910.617500", "132911.077500", "132911.537500", "132911.997500", "132912.457500", "132912.917500", "132913.377500", "132913.837500", "132914.297500", "132914.757500", "132915.217500", "132915.677500", "132916.137500", "132916.597500", "132917.057500", "132917.517500", "132917.977500", "132918.437500", "132918.897500", "132919.357500", "132919.817500", "132920.277500", "132920.737500", "132921.197500", "132921.657500", "132922.117500", "132922.577500", "132923.037500", "132923.497500", "132923.957500", "132924.417500", "132924.877500", "132925.337500", "132925.797500", "132926.257500", "132926.717500", "132927.177500", "132927.637500", "132928.097500", "132928.557500", "132929.017500", "132929.477500", "132929.937500", "132930.397500", "132930.857500", "132931.317500", "132931.777500", "132932.237500", "132932.697500", "132933.157500", "132933.617500", "132934.077500", "132934.537500", "132934.997500", "132935.457500", "132935.917500", "132936.377500", "132936.837500", "132937.297500", "132937.757500", "132938.217500", "132938.677500", "132939.137500", "132939.597500", "132940.057500", "132940.517500", "132940.977500", "132941.437500", "132941.897500", "132942.357500", "132942.817500", "132943.277500", "132943.737500", "132944.197500", "132944.657500", "132945.117500", "132945.577500", "132946.037500", "132946.497500", "132946.957500", "132947.417500", "132947.877500", "132948.337500", "132948.797500", "132949.257500", "132949.717500", "132950.177500", "132950.637500", "132951.097500", "132951.557500", "132952.017500", "132952.477500", "132952.937500", "132953.397500", "132953.857500", "132954.317500", "132954.777500", "132955.237500", "132955.697500", "132956.157500", "132956.617500", "132957.077500", "132957.537500", "132957.997500", "132958.457500", "132958.917500", "132959.377500", "132959.837500", "133000.297500", "133000.757500", "133001.217500", "133001.677500", "133002.137500", "133002.597500", "133003.057500", "133003.517500", "133003.977500", "133004.437500", "133004.897500", "133005.357500", "133005.817500", "133006.277500", "133006.737500", "133007.197500", "133007.657500", "133008.117500", "133008.577500", "133009.037500", "133009.497500", "133009.957500", "133010.417500", "133010.877500", "133011.337500", "133011.797500", "133012.257500", "133012.717500", "133013.177500", "133013.637500", "133014.097500", "133014.557500", "133015.017500", "133015.477500", "133015.937500", "133016.397500", "133016.857500", "133017.317500", "133017.777500", "133018.237500", "133018.697500", "133019.157500", "133019.617500", "133020.077500", "133020.537500", "133020.997500", "133021.457500", "133021.917500", "133022.377500", "133022.837500", "133023.297500", "133023.757500", "133024.217500", "133024.677500", "133025.137500", "133025.597500", "133026.057500", "133026.517500", "133026.977500", "133027.437500", "133027.897500", "133028.357500", "133028.817500", "133029.277500", "133029.737500", "133030.197500", "133030.657500", "133031.117500", "133031.577500", "133032.037500", "133032.497500", "133032.957500", "133033.417500", "133033.877500", "133034.337500", "133034.797500", "133035.257500", "133035.717500", "133036.177500", "133036.637500", "133037.097500", "133037.557500", "133038.017500", "133038.477500", "133038.937500", "133039.397500", "133039.857500", "133040.317500", "133040.777500", "133041.237500", "133041.697500", "133042.157500", "133042.617500", "133043.077500", "133043.537500", "133043.997500", "133044.457500", "133044.917500", "133045.377500", "133045.837500", "133046.297500", "133046.757500", "133047.217500", "133047.677500", "133048.137500", "133048.597500", "133049.057500", "133049.517500", "133049.977500", "133050.437500", "133050.897500", "133051.357500", "133051.817500", "133052.277500", "133052.737500", "133053.197500", "133053.657500", "133054.117500", "133054.577500", "133055.037500", "133055.497500", "133055.957500", "133056.417500", "133056.877500", "133057.337500", "133057.797500", "133058.257500", "133058.717500", "133059.177500", "133059.637500", "133100.097500", "133100.557500", "133101.017500", "133101.477500", "133101.937500", "133102.397500", "133102.857500", "133103.317500", "133103.777500", "133104.237500", "133104.697500", "133105.157500", "133105.617500", "133106.077500", "133106.537500", "133106.997500", "133107.457500", "133107.917500", "133108.377500", "133108.837500", "133109.297500", "133109.757500", "133110.217500", "133110.677500", "133111.137500", "133111.597500", "133112.057500", "133112.517500", "133112.977500", "133113.437500", "133113.897500", "133114.357500", "133114.817500", "133115.277500", "133115.737500", "133116.197500", "133116.657500", "133117.117500", "133117.577500", "133118.037500", "133118.497500", "133118.957500", "133119.417500", "133119.877500", "133120.337500", "133120.797500", "133121.257500", "133121.717500", "133122.177500", "133122.637500", "133123.097500", "133123.557500", "133124.017500", "133124.477500", "133124.937500", "133125.397500", "133125.857500", "133126.317500", "133126.777500", "133127.237500", "133127.697500", "133128.157500", "133128.617500", "133129.077500", "133129.537500", "133129.997500", "133130.457500", "133130.917500", "133131.377500", "133131.837500", "133132.297500", "133132.757500", "133133.217500", "133133.677500", "133134.137500", "133134.597500", "133135.057500", "133135.517500", "133135.977500", "133136.437500", "133136.897500", "133137.357500", "133137.817500", "133138.277500", "133138.737500", "133139.197500", "133139.657500", "133140.117500", "133140.577500", "133141.037500"],
