{
  "AcquisitionMatrixPE": 82,
  "AcquisitionNumber": 1,
  "AcquisitionTime": "14:07:35.702500",
  "BandwidthPerPixelPhaseEncode": 24.888,
  "BaseResolution": 82,
  "BodyPartExamined": "BRAIN",
  "ConsistencyInfo": "N4_VE11E_LATEST_20181129",
  "ConversionSoftware": "dcm2niix",
  "ConversionSoftwareVersion": "v1.0.20201102",
  "DerivedVendorReportedEchoSpacing": 0.00049,
  "DeviceSerialNumber": "66112",
  "DwellTime": 2e-06,
  "EchoTime": 0.0272,
  "EchoTrainLength": 82,
  "EffectiveEchoSpacing": 0.00049,
  "FlipAngle": 44,
  "ImageComments": "Unaliased MB8/PE3",
  "ImageOrientationPatientDICOM": [0.999052, 0.0123631, -0.0417473, -0.0116831, 0.999796, 0.0164922],
  "ImageType": [
    "ORIGINAL",
    "PRIMARY",
    "M",
    "MB",
    "ND",
    "NORM",
    "MOSAIC"
],
  "ImagingFrequency": 123.252,
  "InPlanePhaseEncodingDirectionDICOM": "COL",
  "InstitutionAddress": "Maynard 3,Hanover,NH,US,03755",
  "InstitutionName": "Dartmouth College - PBS",
  "InstitutionalDepartmentName": "Department",
  "MRAcquisitionType": "2D",
  "MagneticFieldStrength": 3,
  "Manufacturer": "Siemens",
  "ManufacturersModelName": "Prisma",
  "Modality": "MR",
  "MultibandAccelerationFactor": 8,
  "PartialFourier": 1,
  "PatientPosition": "HFS",
  "PercentPhaseFOV": 100,
  "PercentSampling": 100,
  "PhaseEncodingDirection": "j-",
  "PhaseEncodingSteps": 82,
  "PhaseResolution": 1,
  "PixelBandwidth": 3050,
  "ProcedureStepDescription": "Wager_Wager^1076_spacetop",
  "ProtocolName": "func_run-04_task-alignvideo_acq-ap-mb8",
  "PulseSequenceDetails": "%CustomerSeq%\\cmrr_mbep2d_bold",
  "ReceiveCoilActiveElements": "HEA;HEP",
  "ReceiveCoilName": "Head_32",
  "ReconMatrixPE": 82,
  "RepetitionTime": 0.46,
  "SAR": 0.0967797,
  "ScanOptions": "FS",
  "ScanningSequence": "EP",
  "SequenceName": "epfid2d1_82",
  "SequenceVariant": "SK\\SS",
  "SeriesDescription": "func_run-04_task-alignvideo_acq-ap-mb8",
  "SeriesNumber": 34,
  "ShimSetting": [4145, -7706, -7265, 724, 14, 25, -68, 86],
  "SliceThickness": 2.7,
  "SliceTiming": [0, 0.2525, 0.0625, 0.315, 0.125, 0.3775, 0.19, 0, 0.2525, 0.0625, 0.315, 0.125, 0.3775, 0.19, 0, 0.2525, 0.0625, 0.315, 0.125, 0.3775, 0.19, 0, 0.2525, 0.0625, 0.315, 0.125, 0.3775, 0.19, 0, 0.2525, 0.0625, 0.315, 0.125, 0.3775, 0.19, 0, 0.2525, 0.0625, 0.315, 0.125, 0.3775, 0.19, 0, 0.2525, 0.0625, 0.315, 0.125, 0.3775, 0.19, 0, 0.2525, 0.0625, 0.315, 0.125, 0.3775, 0.19],
  "SoftwareVersions": "syngo MR E11",
  "SpacingBetweenSlices": 2.7,
  "StationName": "AWP66112",
  "TaskName": "alignvideo",
  "TotalReadoutTime": 0.03969,
  "TxRefAmp": 241.411,
  "WipMemBlock": "a5cef1d7-b37b-4f72-9e16-277aa1a95c16||Sequence: R016 ve11e/master r/434b28f1; Aug  7 2019 18:53:46 by eja",
  "dcmmeta_affine": [
    [-2.68038272857666, -0.031344976276159286, -0.11324530839920044, 119.63668060302734],
    [-0.033169232308864594, 2.6823787689208984, 0.04316973313689232, -97.70323181152344],
    [-0.11200506240129471, -0.044247280806303024, 2.6972784996032715, -56.5930061340332],
    [0.0, 0.0, 0.0, 1.0]
],
  "dcmmeta_reorient_transform": [
    [0.0, -1.0, 0.0, 81.0],
    [1.0, 0.0, 0.0, 0.0],
    [0.0, 0.0, 1.0, 0.0],
    [0.0, 0.0, 0.0, 1.0]
],
  "dcmmeta_shape": [82, 82, 56, 914],
  "dcmmeta_slice_dim": 2,
  "dcmmeta_version": 0.6,
  "global": {
    "const": {
      "AccessionNumber": "A004025",
      "AcquisitionMatrix": [82, 0, 0, 82],
      "AngioFlag": "N",
      "BitsAllocated": 16,
      "BitsStored": 16,
      "BodyPartExamined": "BRAIN",
      "Columns": 656,
      "EchoNumbers": 1,
      "EchoTime": 27.2,
      "EchoTrainLength": 82,
      "FlipAngle": 44.0,
      "HighBit": 15,
      "ImageOrientationPatient": [0.99905170731616, 0.01236307727375, -0.0417473403823, -0.0116831267965, 0.99979573560425, 0.01649216831756],
      "ImagePositionPatient": [-877.3715618197, -898.93175784604, -40.730552881008],
      "ImageType": [
        "ORIGINAL",
        "PRIMARY",
        "M",
        "MB",
        "ND",
        "NORM",
        "MOSAIC"
],
      "ImagedNucleus": "1H",
      "ImagingFrequency": 123.252226,
      "InPlanePhaseEncodingDirection": "COL",
      "MRAcquisitionType": "2D",
      "MagneticFieldStrength": 3.0,
      "Manufacturer": "SIEMENS",
      "ManufacturerModelName": "Prisma",
      "Modality": "MR",
      "NumberOfAverages": 1.0,
      "NumberOfPhaseEncodingSteps": 82,
      "PercentPhaseFieldOfView": 100.0,
      "PercentSampling": 100.0,
      "PerformedProcedureStepStartTime": "121824.472000",
      "PhotometricInterpretation": "MONOCHROME2",
      "PixelBandwidth": 3050.0,
      "PixelRepresentation": 0,
      "PixelSpacing": [2.6829268932343, 2.6829268932343],
      "ProtocolName": "func_run-04_task-alignvideo_acq-ap-mb8",
      "RepetitionTime": 460.0,
      "Rows": 656,
      "SAR": 0.09677972131783,
      "SamplesPerPixel": 1,
      "ScanOptions": "FS",
      "ScanningSequence": "EP",
      "SequenceName": "epfid2d1_82",
      "SequenceVariant": [
        "SK",
        "SS"
],
      "SeriesDescription": "func_run-04_task-alignvideo_acq-ap-mb8",
      "SeriesNumber": 34,
      "SeriesTime": "140757.878000",
      "SliceLocation": -63.116007185244,
      "SliceThickness": 2.7000000476837,
      "SmallestImagePixelValue": 0,
      "SoftwareVersions": "syngo MR E11",
      "SpacingBetweenSlices": 2.6999999895985,
      "SpecificCharacterSet": "ISO_IR 100",
      "StudyID": "2",
      "StudyTime": "121824.414000",
      "TransmitCoilName": "Body",
      "VariableFlipAngleFlag": "N",
      "WindowCenterWidthExplanation": "Algo1"
    },
    "slices": {}
  },
  "time": {
    "samples": {
      "AcquisitionNumber": [1, 2, 3, 4, 5, 6, 7, 8, 9, 10, 11, 12, 13, 14, 15, 16, 17, 18, 19, 20, 21, 22, 23, 24, 25, 26, 27, 28, 29, 30, 31, 32, 33, 34, 35, 36, 37, 38, 39, 40, 41, 42, 43, 44, 45, 46, 47, 48, 49, 50, 51, 52, 53, 54, 55, 56, 57, 58, 59, 60, 61, 62, 63, 64, 65, 66, 67, 68, 69, 70, 71, 72, 73, 74, 75, 76, 77, 78, 79, 80, 81, 82, 83, 84, 85, 86, 87, 88, 89, 90, 91, 92, 93, 94, 95, 96, 97, 98, 99, 100, 101, 102, 103, 104, 105, 106, 107, 108, 109, 110, 111, 112, 113, 114, 115, 116, 117, 118, 119, 120, 121, 122, 123, 124, 125, 126, 127, 128, 129, 130, 131, 132, 133, 134, 135, 136, 137, 138, 139, 140, 141, 142, 143, 144, 145, 146, 147, 148, 149, 150, 151, 152, 153, 154, 155, 156, 157, 158, 159, 160, 161, 162, 163, 164, 165, 166, 167, 168, 169, 170, 171, 172, 173, 174, 175, 176, 177, 178, 179, 180, 181, 182, 183, 184, 185, 186, 187, 188, 189, 190, 191, 192, 193, 194, 195, 196, 197, 198, 199, 200, 201, 202, 203, 204, 205, 206, 207, 208, 209, 210, 211, 212, 213, 214, 215, 216, 217, 218, 219, 220, 221, 222, 223, 224, 225, 226, 227, 228, 229, 230, 231, 232, 233, 234, 235, 236, 237, 238, 239, 240, 241, 242, 243, 244, 245, 246, 247, 248, 249, 250, 251, 252, 253, 254, 255, 256, 257, 258, 259, 260, 261, 262, 263, 264, 265, 266, 267, 268, 269, 270, 271, 272, 273, 274, 275, 276, 277, 278, 279, 280, 281, 282, 283, 284, 285, 286, 287, 288, 289, 290, 291, 292, 293, 294, 295, 296, 297, 298, 299, 300, 301, 302, 303, 304, 305, 306, 307, 308, 309, 310, 311, 312, 313, 314, 315, 316, 317, 318, 319, 320, 321, 322, 323, 324, 325, 326, 327, 328, 329, 330, 331, 332, 333, 334, 335, 336, 337, 338, 339, 340, 341, 342, 343, 344, 345, 346, 347, 348, 349, 350, 351, 352, 353, 354, 355, 356, 357, 358, 359, 360, 361, 362, 363, 364, 365, 366, 367, 368, 369, 370, 371, 372, 373, 374, 375, 376, 377, 378, 379, 380, 381, 382, 383, 384, 385, 386, 387, 388, 389, 390, 391, 392, 393, 394, 395, 396, 397, 398, 399, 400, 401, 402, 403, 404, 405, 406, 407, 408, 409, 410, 411, 412, 413, 414, 415, 416, 417, 418, 419, 420, 421, 422, 423, 424, 425, 426, 427, 428, 429, 430, 431, 432, 433, 434, 435, 436, 437, 438, 439, 440, 441, 442, 443, 444, 445, 446, 447, 448, 449, 450, 451, 452, 453, 454, 455, 456, 457, 458, 459, 460, 461, 462, 463, 464, 465, 466, 467, 468, 469, 470, 471, 472, 473, 474, 475, 476, 477, 478, 479, 480, 481, 482, 483, 484, 485, 486, 487, 488, 489, 490, 491, 492, 493, 494, 495, 496, 497, 498, 499, 500, 501, 502, 503, 504, 505, 506, 507, 508, 509, 510, 511, 512, 513, 514, 515, 516, 517, 518, 519, 520, 521, 522, 523, 524, 525, 526, 527, 528, 529, 530, 531, 532, 533, 534, 535, 536, 537, 538, 539, 540, 541, 542, 543, 544, 545, 546, 547, 548, 549, 550, 551, 552, 553, 554, 555, 556, 557, 558, 559, 560, 561, 562, 563, 564, 565, 566, 567, 568, 569, 570, 571, 572, 573, 574, 575, 576, 577, 578, 579, 580, 581, 582, 583, 584, 585, 586, 587, 588, 589, 590, 591, 592, 593, 594, 595, 596, 597, 598, 599, 600, 601, 602, 603, 604, 605, 606, 607, 608, 609, 610, 611, 612, 613, 614, 615, 616, 617, 618, 619, 620, 621, 622, 623, 624, 625, 626, 627, 628, 629, 630, 631, 632, 633, 634, 635, 636, 637, 638, 639, 640, 641, 642, 643, 644, 645, 646, 647, 648, 649, 650, 651, 652, 653, 654, 655, 656, 657, 658, 659, 660, 661, 662, 663, 664, 665, 666, 667, 668, 669, 670, 671, 672, 673, 674, 675, 676, 677, 678, 679, 680, 681, 682, 683, 684, 685, 686, 687, 688, 689, 690, 691, 692, 693, 694, 695, 696, 697, 698, 699, 700, 701, 702, 703, 704, 705, 706, 707, 708, 709, 710, 711, 712, 713, 714, 715, 716, 717, 718, 719, 720, 721, 722, 723, 724, 725, 726, 727, 728, 729, 730, 731, 732, 733, 734, 735, 736, 737, 738, 739, 740, 741, 742, 743, 744, 745, 746, 747, 748, 749, 750, 751, 752, 753, 754, 755, 756, 757, 758, 759, 760, 761, 762, 763, 764, 765, 766, 767, 768, 769, 770, 771, 772, 773, 774, 775, 776, 777, 778, 779, 780, 781, 782, 783, 784, 785, 786, 787, 788, 789, 790, 791, 792, 793, 794, 795, 796, 797, 798, 799, 800, 801, 802, 803, 804, 805, 806, 807, 808, 809, 810, 811, 812, 813, 814, 815, 816, 817, 818, 819, 820, 821, 822, 823, 824, 825, 826, 827, 828, 829, 830, 831, 832, 833, 834, 835, 836, 837, 838, 839, 840, 841, 842, 843, 844, 845, 846, 847, 848, 849, 850, 851, 852, 853, 854, 855, 856, 857, 858, 859, 860, 861, 862, 863, 864, 865, 866, 867, 868, 869, 870, 871, 872, 873, 874, 875, 876, 877, 878, 879, 880, 881, 882, 883, 884, 885, 886, 887, 888, 889, 890, 891, 892, 893, 894, 895, 896, 897, 898, 899, 900, 901, 902, 903, 904, 905, 906, 907, 908, 909, 910, 911, 912, 913, 914],
      "AcquisitionTime": ["140735.702500", "140736.162500", "140736.622500", "140737.082500", "140737.542500", "140738.002500", "140738.462500", "140738.922500", "140739.382500", "140739.842500", "140740.302500", "140740.762500", "140741.222500", "140741.682500", "140742.142500", "140742.602500", "140743.062500", "140743.522500", "140743.982500", "140744.442500", "140744.902500", "140745.362500", "140745.822500", "140746.282500", "140746.742500", "140747.202500", "140747.662500", "140748.122500", "140748.582500", "140749.042500", "140749.502500", "140749.962500", "140750.422500", "140750.882500", "140751.342500", "140751.802500", "140752.262500", "140752.722500", "140753.182500", "140753.642500", "140754.102500", "140754.562500", "140755.022500", "140755.482500", "140755.942500", "140756.402500", "140756.862500", "140757.322500", "140757.782500", "140758.242500", "140758.702500", "140759.162500", "140759.622500", "140800.082500", "140800.542500", "140801.002500", "140801.462500", "140801.922500", "140802.382500", "140802.842500", "140803.302500", "140803.762500", "140804.222500", "140804.682500", "140805.142500", "140805.602500", "140806.062500", "140806.522500", "140806.982500", "140807.442500", "140807.902500", "140808.362500", "140808.822500", "140809.282500", "140809.742500", "140810.202500", "140810.662500", "140811.122500", "140811.582500", "140812.042500", "140812.502500", "140812.962500", "140813.422500", "140813.882500", "140814.342500", "140814.802500", "140815.262500", "140815.722500", "140816.182500", "140816.642500", "140817.102500", "140817.562500", "140818.022500", "140818.482500", "140818.942500", "140819.402500", "140819.862500", "140820.322500", "140820.782500", "140821.242500", "140821.702500", "140822.162500", "140822.622500", "140823.082500", "140823.542500", "140824.002500", "140824.462500", "140824.922500", "140825.382500", "140825.842500", "140826.302500", "140826.762500", "140827.222500", "140827.682500", "140828.142500", "140828.602500", "140829.062500", "140829.522500", "140829.982500", "140830.442500", "140830.902500", "140831.362500", "140831.822500", "140832.282500", "140832.742500", "140833.202500", "140833.662500", "140834.122500", "140834.582500", "140835.042500", "140835.502500", "140835.962500", "140836.422500", "140836.882500", "140837.342500", "140837.802500", "140838.262500", "140838.722500", "140839.182500", "140839.642500", "140840.102500", "140840.562500", "140841.022500", "140841.482500", "140841.942500", "140842.402500", "140842.862500", "140843.322500", "140843.782500", "140844.242500", "140844.702500", "140845.162500", "140845.622500", "140846.082500", "140846.542500", "140847.002500", "140847.462500", "140847.922500", "140848.382500", "140848.842500", "140849.302500", "140849.762500", "140850.222500", "140850.682500", "140851.142500", "140851.602500", "140852.062500", "140852.522500", "140852.982500", "140853.442500", "140853.902500", "140854.362500", "140854.822500", "140855.282500", "140855.742500", "140856.202500", "140856.662500", "140857.122500", "140857.582500", "140858.042500", "140858.502500", "140858.962500", "140859.422500", "140859.882500", "140900.342500", "140900.802500", "140901.262500", "140901.722500", "140902.182500", "140902.642500", "140903.102500", "140903.562500", "140904.022500", "140904.482500", "140904.942500", "140905.402500", "140905.862500", "140906.322500", "140906.782500", "140907.242500", "140907.702500", "140908.162500", "140908.622500", "140909.082500", "140909.542500", "140910.002500", "140910.462500", "140910.922500", "140911.382500", "140911.842500", "140912.302500", "140912.762500", "140913.222500", "140913.682500", "140914.142500", "140914.602500", "140915.062500", "140915.522500", "140915.982500", "140916.442500", "140916.902500", "140917.362500", "140917.822500", "140918.282500", "140918.742500", "140919.202500", "140919.662500", "140920.122500", "140920.582500", "140921.042500", "140921.502500", "140921.962500", "140922.422500", "140922.882500", "140923.342500", "140923.802500", "140924.262500", "140924.722500", "140925.182500", "140925.642500", "140926.102500", "140926.562500", "140927.022500", "140927.482500", "140927.942500", "140928.402500", "140928.862500", "140929.322500", "140929.782500", "140930.242500", "140930.702500", "140931.162500", "140931.622500", "140932.082500", "140932.542500", "140933.002500", "140933.462500", "140933.922500", "140934.382500", "140934.842500", "140935.302500", "140935.762500", "140936.222500", "140936.682500", "140937.142500", "140937.602500", "140938.062500", "140938.522500", "140938.982500", "140939.442500", "140939.902500", "140940.362500", "140940.822500", "140941.282500", "140941.742500", "140942.202500", "140942.662500", "140943.122500", "140943.582500", "140944.042500", "140944.502500", "140944.962500", "140945.422500", "140945.882500", "140946.342500", "140946.802500", "140947.262500", "140947.722500", "140948.182500", "140948.642500", "140949.102500", "140949.562500", "140950.022500", "140950.482500", "140950.942500", "140951.402500", "140951.862500", "140952.322500", "140952.782500", "140953.242500", "140953.702500", "140954.162500", "140954.622500", "140955.082500", "140955.542500", "140956.002500", "140956.462500", "140956.922500", "140957.382500", "140957.842500", "140958.302500", "140958.762500", "140959.222500", "140959.682500", "141000.142500", "141000.602500", "141001.062500", "141001.522500", "141001.982500", "141002.442500", "141002.902500", "141003.362500", "141003.822500", "141004.282500", "141004.742500", "141005.202500", "141005.662500", "141006.122500", "141006.582500", "141007.042500", "141007.502500", "141007.962500", "141008.422500", "141008.882500", "141009.342500", "141009.802500", "141010.262500", "141010.722500", "141011.182500", "141011.642500", "141012.102500", "141012.562500", "141013.022500", "141013.482500", "141013.942500", "141014.402500", "141014.862500", "141015.322500", "141015.782500", "141016.242500", "141016.702500", "141017.162500", "141017.622500", "141018.082500", "141018.542500", "141019.002500", "141019.462500", "141019.922500", "141020.382500", "141020.842500", "141021.302500", "141021.762500", "141022.222500", "141022.682500", "141023.142500", "141023.602500", "141024.062500", "141024.522500", "141024.982500", "141025.442500", "141025.902500", "141026.362500", "141026.822500", "141027.282500", "141027.742500", "141028.202500", "141028.662500", "141029.122500", "141029.582500", "141030.042500", "141030.502500", "141030.962500", "141031.422500", "141031.882500", "141032.342500", "141032.802500", "141033.262500", "141033.722500", "141034.182500", "141034.642500", "141035.102500", "141035.562500", "141036.022500", "141036.482500", "141036.942500", "141037.402500", "141037.862500", "141038.322500", "141038.782500", "141039.242500", "141039.702500", "141040.162500", "141040.622500", "141041.082500", "141041.542500", "141042.002500", "141042.462500", "141042.922500", "141043.382500", "141043.842500", "141044.302500", "141044.762500", "141045.222500", "141045.682500", "141046.142500", "141046.602500", "141047.062500", "141047.522500", "141047.982500", "141048.442500", "141048.902500", "141049.362500", "141049.822500", "141050.282500", "141050.742500", "141051.202500", "141051.662500", "141052.122500", "141052.582500", "141053.042500", "141053.502500", "141053.962500", "141054.422500", "141054.882500", "141055.342500", "141055.802500", "141056.262500", "141056.722500", "141057.182500", "141057.642500", "141058.102500", "141058.562500", "141059.022500", "141059.482500", "141059.942500", "141100.402500", "141100.862500", "141101.322500", "141101.782500", "141102.242500", "141102.702500", "141103.162500", "141103.622500", "141104.082500", "141104.542500", "141105.002500", "141105.462500", "141105.922500", "141106.382500", "141106.842500", "141107.302500", "141107.762500", "141108.222500", "141108.682500", "141109.142500", "141109.602500", "141110.062500", "141110.522500", "141110.982500", "141111.442500", "141111.902500", "141112.362500", "141112.822500", "141113.282500", "141113.742500", "141114.202500", "141114.662500", "141115.122500", "141115.582500", "141116.042500", "141116.502500", "141116.962500", "141117.422500", "141117.882500", "141118.342500", "141118.802500", "141119.262500", "141119.722500", "141120.182500", "141120.642500", "141121.102500", "141121.562500", "141122.022500", "141122.482500", "141122.942500", "141123.402500", "141123.862500", "141124.322500", "141124.782500", "141125.242500", "141125.702500", "141126.162500", "141126.622500", "141127.082500", "141127.542500", "141128.002500", "141128.462500", "141128.922500", "141129.382500", "141129.842500", "141130.302500", "141130.762500", "141131.222500", "141131.682500", "141132.142500", "141132.602500", "141133.062500", "141133.522500", "141133.982500", "141134.442500", "141134.902500", "141135.362500", "141135.822500", "141136.282500", "141136.742500", "141137.202500", "141137.662500", "141138.122500", "141138.582500", "141139.042500", "141139.502500", "141139.962500", "141140.422500", "141140.882500", "141141.342500", "141141.802500", "141142.262500", "141142.722500", "141143.182500", "141143.642500", "141144.102500", "141144.562500", "141145.022500", "141145.482500", "141145.942500", "141146.402500", "141146.862500", "141147.322500", "141147.782500", "141148.242500", "141148.702500", "141149.162500", "141149.622500", "141150.082500", "141150.542500", "141151.002500", "141151.462500", "141151.922500", "141152.382500", "141152.842500", "141153.302500", "141153.762500", "141154.222500", "141154.682500", "141155.142500", "141155.602500", "141156.062500", "141156.522500", "141156.982500", "141157.442500", "141157.902500", "141158.362500", "141158.822500", "141159.282500", "141159.742500", "141200.202500", "141200.662500", "141201.122500", "141201.582500", "141202.042500", "141202.502500", "141202.962500", "141203.422500", "141203.882500", "141204.342500", "141204.802500", "141205.262500", "141205.722500", "141206.182500", "141206.642500", "141207.102500", "141207.562500", "141208.022500", "141208.482500", "141208.942500", "141209.402500", "141209.862500", "141210.322500", "141210.782500", "141211.242500", "141211.702500", "141212.162500", "141212.622500", "141213.082500", "141213.542500", "141214.002500", "141214.462500", "141214.922500", "141215.382500", "141215.842500", "141216.302500", "141216.762500", "141217.222500", "141217.682500", "141218.142500", "141218.602500", "141219.062500", "141219.522500", "141219.982500", "141220.442500", "141220.902500", "141221.362500", "141221.822500", "141222.282500", "141222.742500", "141223.202500", "141223.662500", "141224.122500", "141224.582500", "141225.042500", "141225.502500", "141225.962500", "141226.422500", "141226.882500", "141227.342500", "141227.802500", "141228.262500", "141228.722500", "141229.182500", "141229.642500", "141230.102500", "141230.562500", "141231.022500", "141231.482500", "141231.942500", "141232.402500", "141232.862500", "141233.322500", "141233.782500", "141234.242500", "141234.702500", "141235.162500", "141235.622500", "141236.082500", "141236.542500", "141237.002500", "141237.462500", "141237.922500", "141238.382500", "141238.842500", "141239.302500", "141239.762500", "141240.222500", "141240.682500", "141241.142500", "141241.602500", "141242.062500", "141242.522500", "141242.982500", "141243.442500", "141243.902500", "141244.362500", "141244.822500", "141245.282500", "141245.742500", "141246.202500", "141246.662500", "141247.122500", "141247.582500", "141248.042500", "141248.502500", "141248.962500", "141249.422500", "141249.882500", "141250.342500", "141250.802500", "141251.262500", "141251.722500", "141252.182500", "141252.642500", "141253.102500", "141253.562500", "141254.022500", "141254.482500", "141254.942500", "141255.402500", "141255.862500", "141256.322500", "141256.782500", "141257.242500", "141257.702500", "141258.162500", "141258.622500", "141259.082500", "141259.542500", "141300.002500", "141300.462500", "141300.922500", "141301.382500", "141301.842500", "141302.302500", "141302.762500", "141303.222500", "141303.682500", "141304.142500", "141304.602500", "141305.062500", "141305.522500", "141305.982500", "141306.442500", "141306.902500", "141307.362500", "141307.822500", "141308.282500", "141308.742500", "141309.202500", "141309.662500", "141310.122500", "141310.582500", "141311.042500", "141311.502500", "141311.962500", "141312.422500", "141312.882500", "141313.342500", "141313.802500", "141314.262500", "141314.722500", "141315.182500", "141315.642500", "141316.102500", "141316.562500", "141317.022500", "141317.482500", "141317.942500", "141318.402500", "141318.862500", "141319.322500", "141319.782500", "141320.242500", "141320.702500", "141321.162500", "141321.622500", "141322.082500", "141322.542500", "141323.002500", "141323.462500", "141323.922500", "141324.382500", "141324.842500", "141325.302500", "141325.762500", "141326.222500", "141326.682500", "141327.142500", "141327.602500", "141328.062500", "141328.522500", "141328.982500", "141329.442500", "141329.902500", "141330.362500", "141330.822500", "141331.282500", "141331.742500", "141332.202500", "141332.662500", "141333.122500", "141333.582500", "141334.042500", "141334.502500", "141334.962500", "141335.422500", "141335.882500", "141336.342500", "141336.802500", "141337.262500", "141337.722500", "141338.182500", "141338.642500", "141339.102500", "141339.562500", "141340.022500", "141340.482500", "141340.942500", "141341.402500", "141341.862500", "141342.322500", "141342.782500", "141343.242500", "141343.702500", "141344.162500", "141344.622500", "141345.082500", "141345.542500", "141346.002500", "141346.462500", "141346.922500", "141347.382500", "141347.842500", "141348.302500", "141348.762500", "141349.222500", "141349.682500", "141350.142500", "141350.602500", "141351.062500", "141351.522500", "141351.982500", "141352.442500", "141352.902500", "141353.362500", "141353.822500", "141354.282500", "141354.742500", "141355.202500", "141355.662500", "141356.122500", "141356.582500", "141357.042500", "141357.502500", "141357.962500", "141358.422500", "141358.882500", "141359.342500", "141359.802500", "141400.262500", "141400.722500", "141401.182500", "141401.642500", "141402.102500", "141402.562500", "141403.022500", "141403.482500", "141403.942500", "141404.402500", "141404.862500", "141405.322500", "141405.782500", "141406.242500", "141406.702500", "141407.162500", "141407.622500", "141408.082500", "141408.542500", "141409.002500", "141409.462500", "141409.922500", "141410.382500", "141410.842500", "141411.302500", "141411.762500", "141412.222500", "141412.682500", "141413.142500", "141413.602500", "141414.062500", "141414.522500", "141414.982500", "141415.442500", "141415.902500", "141416.362500", "141416.822500", "141417.282500", "141417.742500", "141418.202500", "141418.662500", "141419.122500", "141419.582500", "141420.042500", "141420.502500", "141420.962500", "141421.422500", "141421.882500", "141422.342500", "141422.802500", "141423.262500", "141423.722500", "141424.182500", "141424.642500", "141425.102500", "141425.562500", "141426.022500", "141426.482500", "141426.942500", "141427.402500", "141427.862500", "141428.322500", "141428.782500", "141429.242500", "141429.702500", "141430.162500", "141430.622500", "141431.082500", "141431.542500", "141432.002500", "141432.462500", "141432.922500", "141433.382500", "141433.842500", "141434.302500", "141434.762500", "141435.222500", "141435.682500"],
