{
  "AcquisitionMatrixPE": 82,
  "AcquisitionNumber": 1,
  "AcquisitionTime": "13:17:10.635000",
  "BandwidthPerPixelPhaseEncode": 24.888,
  "BaseResolution": 82,
  "BodyPartExamined": "BRAIN",
  "ConsistencyInfo": "N4_VE11E_LATEST_20181129",
  "ConversionSoftware": "dcm2niix",
  "ConversionSoftwareVersion": "v1.0.20201102",
  "DerivedVendorReportedEchoSpacing": 0.00049,
  "DeviceSerialNumber": "66112",
  "DwellTime": 2e-06,
  "EchoTime": 0.0272,
  "EchoTrainLength": 82,
  "EffectiveEchoSpacing": 0.00049,
  "FlipAngle": 44,
  "ImageComments": "Unaliased MB8/PE3",
  "ImageOrientationPatientDICOM": [0.998504, 0.0225909, -0.0497952, -0.0203926, 0.998814, 0.0442201],
  "ImageType": [
    "ORIGINAL",
    "PRIMARY",
    "M",
    "MB",
    "ND",
    "NORM",
    "MOSAIC"
],
  "ImagingFrequency": 123.252,
  "InPlanePhaseEncodingDirectionDICOM": "COL",
  "InstitutionAddress": "Maynard 3,Hanover,NH,US,03755",
  "InstitutionName": "Dartmouth College - PBS",
  "InstitutionalDepartmentName": "Department",
  "MRAcquisitionType": "2D",
  "MagneticFieldStrength": 3,
  "Manufacturer": "Siemens",
  "ManufacturersModelName": "Prisma",
  "Modality": "MR",
  "MultibandAccelerationFactor": 8,
  "PartialFourier": 1,
  "PatientPosition": "HFS",
  "PercentPhaseFOV": 100,
  "PercentSampling": 100,
  "PhaseEncodingDirection": "j-",
  "PhaseEncodingSteps": 82,
  "PhaseResolution": 1,
  "PixelBandwidth": 3050,
  "ProcedureStepDescription": "Wager_Wager^1076_spacetop",
  "ProtocolName": "func_run-02_task-faces_acq-ap-mb8",
  "PulseSequenceDetails": "%CustomerSeq%\\cmrr_mbep2d_bold",
  "ReceiveCoilActiveElements": "HEA;HEP",
  "ReceiveCoilName": "Head_32",
  "ReconMatrixPE": 82,
  "RepetitionTime": 0.46,
  "SAR": 0.0967797,
  "ScanOptions": "FS",
  "ScanningSequence": "EP",
  "SequenceName": "epfid2d1_82",
  "SequenceVariant": "SK\\SS",
  "SeriesDescription": "func_run-02_task-faces_acq-ap-mb8",
  "SeriesNumber": 18,
  "ShimSetting": [4145, -7706, -7266, 718, 16, 19, -66, 86],
  "SliceThickness": 2.7,
  "SliceTiming": [0, 0.2525, 0.0625, 0.315, 0.1275, 0.3775, 0.19, 0, 0.2525, 0.0625, 0.315, 0.1275, 0.3775, 0.19, 0, 0.2525, 0.0625, 0.315, 0.1275, 0.3775, 0.19, 0, 0.2525, 0.0625, 0.315, 0.1275, 0.3775, 0.19, 0, 0.2525, 0.0625, 0.315, 0.1275, 0.3775, 0.19, 0, 0.2525, 0.0625, 0.315, 0.1275, 0.3775, 0.19, 0, 0.2525, 0.0625, 0.315, 0.1275, 0.3775, 0.19, 0, 0.2525, 0.0625, 0.315, 0.1275, 0.3775, 0.19],
  "SoftwareVersions": "syngo MR E11",
  "SpacingBetweenSlices": 2.7,
  "StationName": "AWP66112",
  "TaskName": "faces",
  "TotalReadoutTime": 0.03969,
  "TxRefAmp": 241.411,
  "WipMemBlock": "3b1b385e-5848-4612-9cb4-9760ec8d7f3a||Sequence: R016 ve11e/master r/434b28f1; Aug  7 2019 18:53:46 by eja",
  "dcmmeta_affine": [
    [-2.678913116455078, -0.05471191555261612, -0.1369846612215042, 120.99730682373047],
    [-0.06060962378978729, 2.679744005203247, 0.11647383868694305, -98.05760192871094],
    [-0.13359679281711578, -0.11863921582698822, 2.6940062046051025, -53.651371002197266],
    [0.0, 0.0, 0.0, 1.0]
],
  "dcmmeta_reorient_transform": [
    [0.0, -1.0, 0.0, 81.0],
    [1.0, 0.0, 0.0, 0.0],
    [0.0, 0.0, 1.0, 0.0],
    [0.0, 0.0, 0.0, 1.0]
],
  "dcmmeta_shape": [82, 82, 56, 914],
  "dcmmeta_slice_dim": 2,
  "dcmmeta_version": 0.6,
  "global": {
    "const": {
      "AccessionNumber": "A004025",
      "AcquisitionMatrix": [82, 0, 0, 82],
      "AngioFlag": "N",
      "BitsAllocated": 16,
      "BitsStored": 16,
      "BodyPartExamined": "BRAIN",
      "Columns": 656,
      "EchoNumbers": 1,
      "EchoTime": 27.2,
      "EchoTrainLength": 82,
      "FlipAngle": 44.0,
      "HighBit": 15,
      "ImageOrientationPatient": [0.99850392809584, 0.02259085967405, -0.0497951667973, -0.020392622336, 0.99881365952012, 0.04422006908954],
      "ImagePositionPatient": [-869.71136684522, -905.48315980455, -58.968322622168],
      "ImageType": [
        "ORIGINAL",
        "PRIMARY",
        "M",
        "MB",
        "ND",
        "NORM",
        "MOSAIC"
],
      "ImagedNucleus": "1H",
      "ImagingFrequency": 123.25222,
      "InPlanePhaseEncodingDirection": "COL",
      "MRAcquisitionType": "2D",
      "MagneticFieldStrength": 3.0,
      "Manufacturer": "SIEMENS",
      "ManufacturerModelName": "Prisma",
      "Modality": "MR",
      "NumberOfAverages": 1.0,
      "NumberOfPhaseEncodingSteps": 82,
      "PercentPhaseFieldOfView": 100.0,
      "PercentSampling": 100.0,
      "PerformedProcedureStepStartTime": "121824.472000",
      "PhotometricInterpretation": "MONOCHROME2",
      "PixelBandwidth": 3050.0,
      "PixelRepresentation": 0,
      "PixelSpacing": [2.6829268932343, 2.6829268932343],
      "ProtocolName": "func_run-02_task-faces_acq-ap-mb8",
      "RepetitionTime": 460.0,
      "Rows": 656,
      "SAR": 0.09677972131783,
      "SamplesPerPixel": 1,
      "ScanOptions": "FS",
      "ScanningSequence": "EP",
      "SequenceName": "epfid2d1_82",
      "SequenceVariant": [
        "SK",
        "SS"
],
      "SeriesDescription": "func_run-02_task-faces_acq-ap-mb8",
      "SeriesNumber": 18,
      "SeriesTime": "131717.951000",
      "SliceLocation": -63.901128252468,
      "SliceThickness": 2.7000000476837,
      "SmallestImagePixelValue": 0,
      "SoftwareVersions": "syngo MR E11",
      "SpacingBetweenSlices": 2.700000007023,
      "SpecificCharacterSet": "ISO_IR 100",
      "StudyID": "2",
      "StudyTime": "121824.414000",
      "TransmitCoilName": "Body",
      "VariableFlipAngleFlag": "N",
      "WindowCenterWidthExplanation": "Algo1"
    },
    "slices": {}
  },
  "time": {
    "samples": {
      "AcquisitionNumber": [1, 2, 3, 4, 5, 6, 7, 8, 9, 10, 11, 12, 13, 14, 15, 16, 17, 18, 19, 20, 21, 22, 23, 24, 25, 26, 27, 28, 29, 30, 31, 32, 33, 34, 35, 36, 37, 38, 39, 40, 41, 42, 43, 44, 45, 46, 47, 48, 49, 50, 51, 52, 53, 54, 55, 56, 57, 58, 59, 60, 61, 62, 63, 64, 65, 66, 67, 68, 69, 70, 71, 72, 73, 74, 75, 76, 77, 78, 79, 80, 81, 82, 83, 84, 85, 86, 87, 88, 89, 90, 91, 92, 93, 94, 95, 96, 97, 98, 99, 100, 101, 102, 103, 104, 105, 106, 107, 108, 109, 110, 111, 112, 113, 114, 115, 116, 117, 118, 119, 120, 121, 122, 123, 124, 125, 126, 127, 128, 129, 130, 131, 132, 133, 134, 135, 136, 137, 138, 139, 140, 141, 142, 143, 144, 145, 146, 147, 148, 149, 150, 151, 152, 153, 154, 155, 156, 157, 158, 159, 160, 161, 162, 163, 164, 165, 166, 167, 168, 169, 170, 171, 172, 173, 174, 175, 176, 177, 178, 179, 180, 181, 182, 183, 184, 185, 186, 187, 188, 189, 190, 191, 192, 193, 194, 195, 196, 197, 198, 199, 200, 201, 202, 203, 204, 205, 206, 207, 208, 209, 210, 211, 212, 213, 214, 215, 216, 217, 218, 219, 220, 221, 222, 223, 224, 225, 226, 227, 228, 229, 230, 231, 232, 233, 234, 235, 236, 237, 238, 239, 240, 241, 242, 243, 244, 245, 246, 247, 248, 249, 250, 251, 252, 253, 254, 255, 256, 257, 258, 259, 260, 261, 262, 263, 264, 265, 266, 267, 268, 269, 270, 271, 272, 273, 274, 275, 276, 277, 278, 279, 280, 281, 282, 283, 284, 285, 286, 287, 288, 289, 290, 291, 292, 293, 294, 295, 296, 297, 298, 299, 300, 301, 302, 303, 304, 305, 306, 307, 308, 309, 310, 311, 312, 313, 314, 315, 316, 317, 318, 319, 320, 321, 322, 323, 324, 325, 326, 327, 328, 329, 330, 331, 332, 333, 334, 335, 336, 337, 338, 339, 340, 341, 342, 343, 344, 345, 346, 347, 348, 349, 350, 351, 352, 353, 354, 355, 356, 357, 358, 359, 360, 361, 362, 363, 364, 365, 366, 367, 368, 369, 370, 371, 372, 373, 374, 375, 376, 377, 378, 379, 380, 381, 382, 383, 384, 385, 386, 387, 388, 389, 390, 391, 392, 393, 394, 395, 396, 397, 398, 399, 400, 401, 402, 403, 404, 405, 406, 407, 408, 409, 410, 411, 412, 413, 414, 415, 416, 417, 418, 419, 420, 421, 422, 423, 424, 425, 426, 427, 428, 429, 430, 431, 432, 433, 434, 435, 436, 437, 438, 439, 440, 441, 442, 443, 444, 445, 446, 447, 448, 449, 450, 451, 452, 453, 454, 455, 456, 457, 458, 459, 460, 461, 462, 463, 464, 465, 466, 467, 468, 469, 470, 471, 472, 473, 474, 475, 476, 477, 478, 479, 480, 481, 482, 483, 484, 485, 486, 487, 488, 489, 490, 491, 492, 493, 494, 495, 496, 497, 498, 499, 500, 501, 502, 503, 504, 505, 506, 507, 508, 509, 510, 511, 512, 513, 514, 515, 516, 517, 518, 519, 520, 521, 522, 523, 524, 525, 526, 527, 528, 529, 530, 531, 532, 533, 534, 535, 536, 537, 538, 539, 540, 541, 542, 543, 544, 545, 546, 547, 548, 549, 550, 551, 552, 553, 554, 555, 556, 557, 558, 559, 560, 561, 562, 563, 564, 565, 566, 567, 568, 569, 570, 571, 572, 573, 574, 575, 576, 577, 578, 579, 580, 581, 582, 583, 584, 585, 586, 587, 588, 589, 590, 591, 592, 593, 594, 595, 596, 597, 598, 599, 600, 601, 602, 603, 604, 605, 606, 607, 608, 609, 610, 611, 612, 613, 614, 615, 616, 617, 618, 619, 620, 621, 622, 623, 624, 625, 626, 627, 628, 629, 630, 631, 632, 633, 634, 635, 636, 637, 638, 639, 640, 641, 642, 643, 644, 645, 646, 647, 648, 649, 650, 651, 652, 653, 654, 655, 656, 657, 658, 659, 660, 661, 662, 663, 664, 665, 666, 667, 668, 669, 670, 671, 672, 673, 674, 675, 676, 677, 678, 679, 680, 681, 682, 683, 684, 685, 686, 687, 688, 689, 690, 691, 692, 693, 694, 695, 696, 697, 698, 699, 700, 701, 702, 703, 704, 705, 706, 707, 708, 709, 710, 711, 712, 713, 714, 715, 716, 717, 718, 719, 720, 721, 722, 723, 724, 725, 726, 727, 728, 729, 730, 731, 732, 733, 734, 735, 736, 737, 738, 739, 740, 741, 742, 743, 744, 745, 746, 747, 748, 749, 750, 751, 752, 753, 754, 755, 756, 757, 758, 759, 760, 761, 762, 763, 764, 765, 766, 767, 768, 769, 770, 771, 772, 773, 774, 775, 776, 777, 778, 779, 780, 781, 782, 783, 784, 785, 786, 787, 788, 789, 790, 791, 792, 793, 794, 795, 796, 797, 798, 799, 800, 801, 802, 803, 804, 805, 806, 807, 808, 809, 810, 811, 812, 813, 814, 815, 816, 817, 818, 819, 820, 821, 822, 823, 824, 825, 826, 827, 828, 829, 830, 831, 832, 833, 834, 835, 836, 837, 838, 839, 840, 841, 842, 843, 844, 845, 846, 847, 848, 849, 850, 851, 852, 853, 854, 855, 856, 857, 858, 859, 860, 861, 862, 863, 864, 865, 866, 867, 868, 869, 870, 871, 872, 873, 874, 875, 876, 877, 878, 879, 880, 881, 882, 883, 884, 885, 886, 887, 888, 889, 890, 891, 892, 893, 894, 895, 896, 897, 898, 899, 900, 901, 902, 903, 904, 905, 906, 907, 908, 909, 910, 911, 912, 913, 914],
      "AcquisitionTime": ["131710.635000", "131711.095000", "131711.555000", "131712.015000", "131712.475000", "131712.935000", "131713.395000", "131713.855000", "131714.315000", "131714.775000", "131715.235000", "131715.695000", "131716.155000", "131716.615000", "131717.075000", "131717.535000", "131717.995000", "131718.455000", "131718.915000", "131719.375000", "131719.835000", "131720.295000", "131720.755000", "131721.215000", "131721.675000", "131722.135000", "131722.595000", "131723.055000", "131723.515000", "131723.975000", "131724.435000", "131724.895000", "131725.355000", "131725.815000", "131726.275000", "131726.735000", "131727.195000", "131727.655000", "131728.115000", "131728.575000", "131729.035000", "131729.495000", "131729.955000", "131730.415000", "131730.875000", "131731.335000", "131731.795000", "131732.255000", "131732.715000", "131733.175000", "131733.635000", "131734.095000", "131734.555000", "131735.015000", "131735.475000", "131735.935000", "131736.395000", "131736.855000", "131737.315000", "131737.775000", "131738.235000", "131738.695000", "131739.155000", "131739.615000", "131740.075000", "131740.535000", "131740.995000", "131741.455000", "131741.915000", "131742.375000", "131742.835000", "131743.295000", "131743.755000", "131744.215000", "131744.675000", "131745.135000", "131745.595000", "131746.055000", "131746.515000", "131746.975000", "131747.435000", "131747.895000", "131748.355000", "131748.815000", "131749.275000", "131749.735000", "131750.195000", "131750.655000", "131751.115000", "131751.575000", "131752.035000", "131752.495000", "131752.955000", "131753.415000", "131753.875000", "131754.335000", "131754.795000", "131755.255000", "131755.715000", "131756.175000", "131756.635000", "131757.095000", "131757.555000", "131758.015000", "131758.475000", "131758.935000", "131759.395000", "131759.855000", "131800.315000", "131800.775000", "131801.235000", "131801.695000", "131802.155000", "131802.615000", "131803.075000", "131803.535000", "131803.995000", "131804.455000", "131804.915000", "131805.375000", "131805.835000", "131806.295000", "131806.755000", "131807.215000", "131807.675000", "131808.135000", "131808.595000", "131809.055000", "131809.515000", "131809.975000", "131810.435000", "131810.895000", "131811.355000", "131811.815000", "131812.275000", "131812.735000", "131813.195000", "131813.655000", "131814.115000", "131814.575000", "131815.035000", "131815.495000", "131815.955000", "131816.415000", "131816.875000", "131817.335000", "131817.795000", "131818.255000", "131818.715000", "131819.175000", "131819.635000", "131820.095000", "131820.555000", "131821.015000", "131821.475000", "131821.935000", "131822.395000", "131822.855000", "131823.315000", "131823.775000", "131824.235000", "131824.695000", "131825.155000", "131825.615000", "131826.075000", "131826.535000", "131826.995000", "131827.455000", "131827.915000", "131828.375000", "131828.835000", "131829.295000", "131829.755000", "131830.215000", "131830.675000", "131831.135000", "131831.595000", "131832.055000", "131832.515000", "131832.975000", "131833.435000", "131833.895000", "131834.355000", "131834.815000", "131835.275000", "131835.735000", "131836.195000", "131836.655000", "131837.115000", "131837.575000", "131838.035000", "131838.495000", "131838.955000", "131839.415000", "131839.875000", "131840.335000", "131840.795000", "131841.255000", "131841.715000", "131842.175000", "131842.635000", "131843.095000", "131843.555000", "131844.015000", "131844.475000", "131844.935000", "131845.395000", "131845.855000", "131846.315000", "131846.775000", "131847.235000", "131847.695000", "131848.155000", "131848.615000", "131849.075000", "131849.535000", "131849.995000", "131850.455000", "131850.915000", "131851.375000", "131851.835000", "131852.295000", "131852.755000", "131853.215000", "131853.675000", "131854.135000", "131854.595000", "131855.055000", "131855.515000", "131855.975000", "131856.435000", "131856.895000", "131857.355000", "131857.815000", "131858.275000", "131858.735000", "131859.195000", "131859.655000", "131900.115000", "131900.575000", "131901.035000", "131901.495000", "131901.955000", "131902.415000", "131902.875000", "131903.335000", "131903.795000", "131904.255000", "131904.715000", "131905.175000", "131905.635000", "131906.095000", "131906.555000", "131907.015000", "131907.475000", "131907.935000", "131908.395000", "131908.855000", "131909.315000", "131909.775000", "131910.235000", "131910.695000", "131911.155000", "131911.615000", "131912.075000", "131912.535000", "131912.995000", "131913.455000", "131913.915000", "131914.375000", "131914.835000", "131915.295000", "131915.755000", "131916.215000", "131916.675000", "131917.135000", "131917.595000", "131918.055000", "131918.515000", "131918.975000", "131919.435000", "131919.895000", "131920.355000", "131920.815000", "131921.275000", "131921.735000", "131922.195000", "131922.655000", "131923.115000", "131923.575000", "131924.035000", "131924.495000", "131924.955000", "131925.415000", "131925.875000", "131926.335000", "131926.795000", "131927.255000", "131927.715000", "131928.175000", "131928.635000", "131929.095000", "131929.555000", "131930.015000", "131930.475000", "131930.935000", "131931.395000", "131931.855000", "131932.315000", "131932.775000", "131933.235000", "131933.695000", "131934.155000", "131934.615000", "131935.075000", "131935.535000", "131935.995000", "131936.455000", "131936.915000", "131937.375000", "131937.835000", "131938.295000", "131938.755000", "131939.215000", "131939.675000", "131940.135000", "131940.595000", "131941.055000", "131941.515000", "131941.975000", "131942.435000", "131942.895000", "131943.355000", "131943.815000", "131944.275000", "131944.735000", "131945.195000", "131945.655000", "131946.115000", "131946.575000", "131947.035000", "131947.495000", "131947.955000", "131948.415000", "131948.875000", "131949.335000", "131949.795000", "131950.255000", "131950.715000", "131951.175000", "131951.635000", "131952.095000", "131952.555000", "131953.015000", "131953.475000", "131953.935000", "131954.395000", "131954.855000", "131955.315000", "131955.775000", "131956.235000", "131956.695000", "131957.155000", "131957.615000", "131958.075000", "131958.535000", "131958.995000", "131959.455000", "131959.915000", "132000.375000", "132000.835000", "132001.295000", "132001.755000", "132002.215000", "132002.675000", "132003.135000", "132003.595000", "132004.055000", "132004.515000", "132004.975000", "132005.435000", "132005.895000", "132006.355000", "132006.815000", "132007.275000", "132007.735000", "132008.195000", "132008.655000", "132009.115000", "132009.575000", "132010.035000", "132010.495000", "132010.955000", "132011.415000", "132011.875000", "132012.335000", "132012.795000", "132013.255000", "132013.715000", "132014.175000", "132014.635000", "132015.095000", "132015.555000", "132016.015000", "132016.475000", "132016.935000", "132017.395000", "132017.855000", "132018.315000", "132018.775000", "132019.235000", "132019.695000", "132020.155000", "132020.615000", "132021.075000", "132021.535000", "132021.995000", "132022.455000", "132022.915000", "132023.375000", "132023.835000", "132024.295000", "132024.755000", "132025.215000", "132025.675000", "132026.135000", "132026.595000", "132027.055000", "132027.515000", "132027.975000", "132028.435000", "132028.895000", "132029.355000", "132029.815000", "132030.275000", "132030.735000", "132031.195000", "132031.655000", "132032.115000", "132032.575000", "132033.035000", "132033.495000", "132033.955000", "132034.415000", "132034.875000", "132035.335000", "132035.795000", "132036.255000", "132036.715000", "132037.175000", "132037.635000", "132038.095000", "132038.555000", "132039.015000", "132039.475000", "132039.935000", "132040.395000", "132040.855000", "132041.315000", "132041.775000", "132042.235000", "132042.695000", "132043.155000", "132043.615000", "132044.075000", "132044.535000", "132044.995000", "132045.455000", "132045.915000", "132046.375000", "132046.835000", "132047.295000", "132047.755000", "132048.215000", "132048.675000", "132049.135000", "132049.595000", "132050.055000", "132050.515000", "132050.975000", "132051.435000", "132051.895000", "132052.355000", "132052.815000", "132053.275000", "132053.735000", "132054.195000", "132054.655000", "132055.115000", "132055.575000", "132056.035000", "132056.495000", "132056.955000", "132057.415000", "132057.875000", "132058.335000", "132058.795000", "132059.255000", "132059.715000", "132100.175000", "132100.635000", "132101.095000", "132101.555000", "132102.015000", "132102.475000", "132102.935000", "132103.395000", "132103.855000", "132104.315000", "132104.775000", "132105.235000", "132105.695000", "132106.155000", "132106.615000", "132107.075000", "132107.535000", "132107.995000", "132108.455000", "132108.915000", "132109.375000", "132109.835000", "132110.295000", "132110.755000", "132111.215000", "132111.675000", "132112.135000", "132112.595000", "132113.055000", "132113.515000", "132113.975000", "132114.435000", "132114.895000", "132115.355000", "132115.815000", "132116.275000", "132116.735000", "132117.195000", "132117.655000", "132118.115000", "132118.575000", "132119.035000", "132119.495000", "132119.955000", "132120.415000", "132120.875000", "132121.335000", "132121.795000", "132122.255000", "132122.715000", "132123.175000", "132123.635000", "132124.095000", "132124.555000", "132125.015000", "132125.475000", "132125.935000", "132126.395000", "132126.855000", "132127.315000", "132127.775000", "132128.235000", "132128.695000", "132129.155000", "132129.615000", "132130.075000", "132130.535000", "132130.995000", "132131.455000", "132131.915000", "132132.375000", "132132.835000", "132133.295000", "132133.755000", "132134.215000", "132134.675000", "132135.135000", "132135.595000", "132136.055000", "132136.515000", "132136.975000", "132137.435000", "132137.895000", "132138.355000", "132138.815000", "132139.275000", "132139.735000", "132140.195000", "132140.655000", "132141.115000", "132141.575000", "132142.035000", "132142.495000", "132142.955000", "132143.415000", "132143.875000", "132144.335000", "132144.795000", "132145.255000", "132145.715000", "132146.175000", "132146.635000", "132147.095000", "132147.555000", "132148.015000", "132148.475000", "132148.935000", "132149.395000", "132149.855000", "132150.315000", "132150.775000", "132151.235000", "132151.695000", "132152.155000", "132152.615000", "132153.075000", "132153.535000", "132153.995000", "132154.455000", "132154.915000", "132155.375000", "132155.835000", "132156.295000", "132156.755000", "132157.215000", "132157.675000", "132158.135000", "132158.595000", "132159.055000", "132159.515000", "132159.975000", "132200.435000", "132200.895000", "132201.355000", "132201.815000", "132202.275000", "132202.735000", "132203.195000", "132203.655000", "132204.115000", "132204.575000", "132205.035000", "132205.495000", "132205.955000", "132206.415000", "132206.875000", "132207.335000", "132207.795000", "132208.255000", "132208.715000", "132209.175000", "132209.635000", "132210.095000", "132210.555000", "132211.015000", "132211.475000", "132211.935000", "132212.395000", "132212.855000", "132213.315000", "132213.775000", "132214.235000", "132214.695000", "132215.155000", "132215.615000", "132216.075000", "132216.535000", "132216.995000", "132217.455000", "132217.915000", "132218.375000", "132218.835000", "132219.295000", "132219.755000", "132220.215000", "132220.675000", "132221.135000", "132221.595000", "132222.055000", "132222.515000", "132222.975000", "132223.435000", "132223.895000", "132224.355000", "132224.815000", "132225.275000", "132225.735000", "132226.195000", "132226.655000", "132227.115000", "132227.575000", "132228.035000", "132228.495000", "132228.955000", "132229.415000", "132229.875000", "132230.335000", "132230.795000", "132231.255000", "132231.715000", "132232.175000", "132232.635000", "132233.095000", "132233.555000", "132234.015000", "132234.475000", "132234.935000", "132235.395000", "132235.855000", "132236.315000", "132236.775000", "132237.235000", "132237.695000", "132238.155000", "132238.615000", "132239.075000", "132239.535000", "132239.995000", "132240.455000", "132240.915000", "132241.375000", "132241.835000", "132242.295000", "132242.755000", "132243.215000", "132243.675000", "132244.135000", "132244.595000", "132245.055000", "132245.515000", "132245.975000", "132246.435000", "132246.895000", "132247.355000", "132247.815000", "132248.275000", "132248.735000", "132249.195000", "132249.655000", "132250.115000", "132250.575000", "132251.035000", "132251.495000", "132251.955000", "132252.415000", "132252.875000", "132253.335000", "132253.795000", "132254.255000", "132254.715000", "132255.175000", "132255.635000", "132256.095000", "132256.555000", "132257.015000", "132257.475000", "132257.935000", "132258.395000", "132258.855000", "132259.315000", "132259.775000", "132300.235000", "132300.695000", "132301.155000", "132301.615000", "132302.075000", "132302.535000", "132302.995000", "132303.455000", "132303.915000", "132304.375000", "132304.835000", "132305.295000", "132305.755000", "132306.215000", "132306.675000", "132307.135000", "132307.595000", "132308.055000", "132308.515000", "132308.975000", "132309.435000", "132309.895000", "132310.355000", "132310.815000", "132311.275000", "132311.735000", "132312.195000", "132312.655000", "132313.115000", "132313.575000", "132314.035000", "132314.495000", "132314.955000", "132315.415000", "132315.875000", "132316.335000", "132316.795000", "132317.255000", "132317.715000", "132318.175000", "132318.635000", "132319.095000", "132319.555000", "132320.015000", "132320.475000", "132320.935000", "132321.395000", "132321.855000", "132322.315000", "132322.775000", "132323.235000", "132323.695000", "132324.155000", "132324.615000", "132325.075000", "132325.535000", "132325.995000", "132326.455000", "132326.915000", "132327.375000", "132327.835000", "132328.295000", "132328.755000", "132329.215000", "132329.675000", "132330.135000", "132330.595000", "132331.055000", "132331.515000", "132331.975000", "132332.435000", "132332.895000", "132333.355000", "132333.815000", "132334.275000", "132334.735000", "132335.195000", "132335.655000", "132336.115000", "132336.575000", "132337.035000", "132337.495000", "132337.955000", "132338.415000", "132338.875000", "132339.335000", "132339.795000", "132340.255000", "132340.715000", "132341.175000", "132341.635000", "132342.095000", "132342.555000", "132343.015000", "132343.475000", "132343.935000", "132344.395000", "132344.855000", "132345.315000", "132345.775000", "132346.235000", "132346.695000", "132347.155000", "132347.615000", "132348.075000", "132348.535000", "132348.995000", "132349.455000", "132349.915000", "132350.375000", "132350.835000", "132351.295000", "132351.755000", "132352.215000", "132352.675000", "132353.135000", "132353.595000", "132354.055000", "132354.515000", "132354.975000", "132355.435000", "132355.895000", "132356.355000", "132356.815000", "132357.275000", "132357.735000", "132358.195000", "132358.655000", "132359.115000", "132359.575000", "132400.035000", "132400.495000", "132400.955000", "132401.415000", "132401.875000", "132402.335000", "132402.795000", "132403.255000", "132403.715000", "132404.175000", "132404.635000", "132405.095000", "132405.555000", "132406.015000", "132406.475000", "132406.935000", "132407.395000", "132407.855000", "132408.315000", "132408.775000", "132409.235000", "132409.695000", "132410.155000", "132410.615000"],
