{
  "AcquisitionMatrixPE": 82,
  "AcquisitionNumber": 1,
  "AcquisitionTime": "12:31:1.287500",
  "BandwidthPerPixelPhaseEncode": 24.888,
  "BaseResolution": 82,
  "BodyPartExamined": "BRAIN",
  "ConsistencyInfo": "N4_VE11E_LATEST_20181129",
  "ConversionSoftware": "dcm2niix",
  "ConversionSoftwareVersion": "v1.0.20201102",
  "DerivedVendorReportedEchoSpacing": 0.00049,
  "DeviceSerialNumber": "66112",
  "DwellTime": 2e-06,
  "EchoTime": 0.0272,
  "EchoTrainLength": 82,
  "EffectiveEchoSpacing": 0.00049,
  "FlipAngle": 44,
  "ImageComments": "Unaliased MB8/PE3",
  "ImageOrientationPatientDICOM": [0.998504, 0.0225909, -0.0497952, -0.0203926, 0.998814, 0.0442201],
  "ImageType": [
    "ORIGINAL",
    "PRIMARY",
    "M",
    "MB",
    "ND",
    "NORM",
    "MOSAIC"
],
  "ImagingFrequency": 123.252,
  "InPlanePhaseEncodingDirectionDICOM": "COL",
  "InstitutionAddress": "Maynard 3,Hanover,NH,US,03755",
  "InstitutionName": "Dartmouth College - PBS",
  "InstitutionalDepartmentName": "Department",
  "MRAcquisitionType": "2D",
  "MagneticFieldStrength": 3,
  "Manufacturer": "Siemens",
  "ManufacturersModelName": "Prisma",
  "Modality": "MR",
  "MultibandAccelerationFactor": 8,
  "PartialFourier": 1,
  "PatientPosition": "HFS",
  "PercentPhaseFOV": 100,
  "PercentSampling": 100,
  "PhaseEncodingDirection": "j-",
  "PhaseEncodingSteps": 82,
  "PhaseResolution": 1,
  "PixelBandwidth": 3050,
  "ProcedureStepDescription": "Wager_Wager^1076_spacetop",
  "ProtocolName": "func_run-01_task-narratives_acq-ap-mb8",
  "PulseSequenceDetails": "%CustomerSeq%\\cmrr_mbep2d_bold",
  "ReceiveCoilActiveElements": "HEA;HEP",
  "ReceiveCoilName": "Head_32",
  "ReconMatrixPE": 82,
  "RepetitionTime": 0.46,
  "SAR": 0.0968112,
  "ScanOptions": "FS",
  "ScanningSequence": "EP",
  "SequenceName": "epfid2d1_82",
  "SequenceVariant": "SK\\SS",
  "SeriesDescription": "func_run-01_task-narratives_acq-ap-mb8",
  "SeriesNumber": 8,
  "ShimSetting": [4145, -7706, -7266, 718, 16, 19, -66, 86],
  "SliceThickness": 2.7,
  "SliceTiming": [0, 0.2525, 0.065, 0.315, 0.1275, 0.3775, 0.19, 0, 0.2525, 0.065, 0.315, 0.1275, 0.3775, 0.19, 0, 0.2525, 0.065, 0.315, 0.1275, 0.3775, 0.19, 0, 0.2525, 0.065, 0.315, 0.1275, 0.3775, 0.19, 0, 0.2525, 0.065, 0.315, 0.1275, 0.3775, 0.19, 0, 0.2525, 0.065, 0.315, 0.1275, 0.3775, 0.19, 0, 0.2525, 0.065, 0.315, 0.1275, 0.3775, 0.19, 0, 0.2525, 0.065, 0.315, 0.1275, 0.3775, 0.19],
  "SoftwareVersions": "syngo MR E11",
  "SpacingBetweenSlices": 2.7,
  "StationName": "AWP66112",
  "TaskName": "narratives",
  "TotalReadoutTime": 0.03969,
  "TxRefAmp": 241.411,
  "WipMemBlock": "5464b5a7-9378-4cb8-9817-ac8986797a5a||Sequence: R016 ve11e/master r/434b28f1; Aug  7 2019 18:53:46 by eja",
  "dcmmeta_affine": [
    [-2.678913116455078, -0.05471191555261612, -0.1369846612215042, 120.99730682373047],
    [-0.06060962378978729, 2.679744005203247, 0.11647383868694305, -98.05760192871094],
    [-0.13359679281711578, -0.11863921582698822, 2.6940062046051025, -53.651371002197266],
    [0.0, 0.0, 0.0, 1.0]
],
  "dcmmeta_reorient_transform": [
    [0.0, -1.0, 0.0, 81.0],
    [1.0, 0.0, 0.0, 0.0],
    [0.0, 0.0, 1.0, 0.0],
    [0.0, 0.0, 0.0, 1.0]
],
  "dcmmeta_shape": [82, 82, 56, 967],
  "dcmmeta_slice_dim": 2,
  "dcmmeta_version": 0.6,
  "global": {
    "const": {
      "AccessionNumber": "A004025",
      "AcquisitionMatrix": [82, 0, 0, 82],
      "AngioFlag": "N",
      "BitsAllocated": 16,
      "BitsStored": 16,
      "BodyPartExamined": "BRAIN",
      "Columns": 656,
      "EchoNumbers": 1,
      "EchoTime": 27.2,
      "EchoTrainLength": 82,
      "FlipAngle": 44.0,
      "HighBit": 15,
      "ImageOrientationPatient": [0.99850392809584, 0.02259085967405, -0.0497951667973, -0.020392622336, 0.99881365952012, 0.04422006908954],
      "ImagePositionPatient": [-869.71136684522, -905.48315980455, -58.968322622168],
      "ImageType": [
        "ORIGINAL",
        "PRIMARY",
        "M",
        "MB",
        "ND",
        "NORM",
        "MOSAIC"
],
      "ImagedNucleus": "1H",
      "ImagingFrequency": 123.252208,
      "InPlanePhaseEncodingDirection": "COL",
      "MRAcquisitionType": "2D",
      "MagneticFieldStrength": 3.0,
      "Manufacturer": "SIEMENS",
      "ManufacturerModelName": "Prisma",
      "Modality": "MR",
      "NumberOfAverages": 1.0,
      "NumberOfPhaseEncodingSteps": 82,
      "PercentPhaseFieldOfView": 100.0,
      "PercentSampling": 100.0,
      "PerformedProcedureStepStartTime": "121824.472000",
      "PhotometricInterpretation": "MONOCHROME2",
      "PixelBandwidth": 3050.0,
      "PixelRepresentation": 0,
      "PixelSpacing": [2.6829268932343, 2.6829268932343],
      "ProtocolName": "func_run-01_task-narratives_acq-ap-mb8",
      "RepetitionTime": 460.0,
      "Rows": 656,
      "SAR": 0.09681119297158,
      "SamplesPerPixel": 1,
      "ScanOptions": "FS",
      "ScanningSequence": "EP",
      "SequenceName": "epfid2d1_82",
      "SequenceVariant": [
        "SK",
        "SS"
],
      "SeriesDescription": "func_run-01_task-narratives_acq-ap-mb8",
      "SeriesNumber": 8,
      "SeriesTime": "123117.770000",
      "SliceLocation": -63.901128252468,
      "SliceThickness": 2.7000000476837,
      "SmallestImagePixelValue": 0,
      "SoftwareVersions": "syngo MR E11",
      "SpacingBetweenSlices": 2.700000007023,
      "SpecificCharacterSet": "ISO_IR 100",
      "StudyID": "2",
      "StudyTime": "121824.414000",
      "TransmitCoilName": "Body",
      "VariableFlipAngleFlag": "N",
      "WindowCenterWidthExplanation": "Algo1"
    },
    "slices": {}
  },
  "time": {
    "samples": {
      "AcquisitionNumber": [1, 2, 3, 4, 5, 6, 7, 8, 9, 10, 11, 12, 13, 14, 15, 16, 17, 18, 19, 20, 21, 22, 23, 24, 25, 26, 27, 28, 29, 30, 31, 32, 33, 34, 35, 36, 37, 38, 39, 40, 41, 42, 43, 44, 45, 46, 47, 48, 49, 50, 51, 52, 53, 54, 55, 56, 57, 58, 59, 60, 61, 62, 63, 64, 65, 66, 67, 68, 69, 70, 71, 72, 73, 74, 75, 76, 77, 78, 79, 80, 81, 82, 83, 84, 85, 86, 87, 88, 89, 90, 91, 92, 93, 94, 95, 96, 97, 98, 99, 100, 101, 102, 103, 104, 105, 106, 107, 108, 109, 110, 111, 112, 113, 114, 115, 116, 117, 118, 119, 120, 121, 122, 123, 124, 125, 126, 127, 128, 129, 130, 131, 132, 133, 134, 135, 136, 137, 138, 139, 140, 141, 142, 143, 144, 145, 146, 147, 148, 149, 150, 151, 152, 153, 154, 155, 156, 157, 158, 159, 160, 161, 162, 163, 164, 165, 166, 167, 168, 169, 170, 171, 172, 173, 174, 175, 176, 177, 178, 179, 180, 181, 182, 183, 184, 185, 186, 187, 188, 189, 190, 191, 192, 193, 194, 195, 196, 197, 198, 199, 200, 201, 202, 203, 204, 205, 206, 207, 208, 209, 210, 211, 212, 213, 214, 215, 216, 217, 218, 219, 220, 221, 222, 223, 224, 225, 226, 227, 228, 229, 230, 231, 232, 233, 234, 235, 236, 237, 238, 239, 240, 241, 242, 243, 244, 245, 246, 247, 248, 249, 250, 251, 252, 253, 254, 255, 256, 257, 258, 259, 260, 261, 262, 263, 264, 265, 266, 267, 268, 269, 270, 271, 272, 273, 274, 275, 276, 277, 278, 279, 280, 281, 282, 283, 284, 285, 286, 287, 288, 289, 290, 291, 292, 293, 294, 295, 296, 297, 298, 299, 300, 301, 302, 303, 304, 305, 306, 307, 308, 309, 310, 311, 312, 313, 314, 315, 316, 317, 318, 319, 320, 321, 322, 323, 324, 325, 326, 327, 328, 329, 330, 331, 332, 333, 334, 335, 336, 337, 338, 339, 340, 341, 342, 343, 344, 345, 346, 347, 348, 349, 350, 351, 352, 353, 354, 355, 356, 357, 358, 359, 360, 361, 362, 363, 364, 365, 366, 367, 368, 369, 370, 371, 372, 373, 374, 375, 376, 377, 378, 379, 380, 381, 382, 383, 384, 385, 386, 387, 388, 389, 390, 391, 392, 393, 394, 395, 396, 397, 398, 399, 400, 401, 402, 403, 404, 405, 406, 407, 408, 409, 410, 411, 412, 413, 414, 415, 416, 417, 418, 419, 420, 421, 422, 423, 424, 425, 426, 427, 428, 429, 430, 431, 432, 433, 434, 435, 436, 437, 438, 439, 440, 441, 442, 443, 444, 445, 446, 447, 448, 449, 450, 451, 452, 453, 454, 455, 456, 457, 458, 459, 460, 461, 462, 463, 464, 465, 466, 467, 468, 469, 470, 471, 472, 473, 474, 475, 476, 477, 478, 479, 480, 481, 482, 483, 484, 485, 486, 487, 488, 489, 490, 491, 492, 493, 494, 495, 496, 497, 498, 499, 500, 501, 502, 503, 504, 505, 506, 507, 508, 509, 510, 511, 512, 513, 514, 515, 516, 517, 518, 519, 520, 521, 522, 523, 524, 525, 526, 527, 528, 529, 530, 531, 532, 533, 534, 535, 536, 537, 538, 539, 540, 541, 542, 543, 544, 545, 546, 547, 548, 549, 550, 551, 552, 553, 554, 555, 556, 557, 558, 559, 560, 561, 562, 563, 564, 565, 566, 567, 568, 569, 570, 571, 572, 573, 574, 575, 576, 577, 578, 579, 580, 581, 582, 583, 584, 585, 586, 587, 588, 589, 590, 591, 592, 593, 594, 595, 596, 597, 598, 599, 600, 601, 602, 603, 604, 605, 606, 607, 608, 609, 610, 611, 612, 613, 614, 615, 616, 617, 618, 619, 620, 621, 622, 623, 624, 625, 626, 627, 628, 629, 630, 631, 632, 633, 634, 635, 636, 637, 638, 639, 640, 641, 642, 643, 644, 645, 646, 647, 648, 649, 650, 651, 652, 653, 654, 655, 656, 657, 658, 659, 660, 661, 662, 663, 664, 665, 666, 667, 668, 669, 670, 671, 672, 673, 674, 675, 676, 677, 678, 679, 680, 681, 682, 683, 684, 685, 686, 687, 688, 689, 690, 691, 692, 693, 694, 695, 696, 697, 698, 699, 700, 701, 702, 703, 704, 705, 706, 707, 708, 709, 710, 711, 712, 713, 714, 715, 716, 717, 718, 719, 720, 721, 722, 723, 724, 725, 726, 727, 728, 729, 730, 731, 732, 733, 734, 735, 736, 737, 738, 739, 740, 741, 742, 743, 744, 745, 746, 747, 748, 749, 750, 751, 752, 753, 754, 755, 756, 757, 758, 759, 760, 761, 762, 763, 764, 765, 766, 767, 768, 769, 770, 771, 772, 773, 774, 775, 776, 777, 778, 779, 780, 781, 782, 783, 784, 785, 786, 787, 788, 789, 790, 791, 792, 793, 794, 795, 796, 797, 798, 799, 800, 801, 802, 803, 804, 805, 806, 807, 808, 809, 810, 811, 812, 813, 814, 815, 816, 817, 818, 819, 820, 821, 822, 823, 824, 825, 826, 827, 828, 829, 830, 831, 832, 833, 834, 835, 836, 837, 838, 839, 840, 841, 842, 843, 844, 845, 846, 847, 848, 849, 850, 851, 852, 853, 854, 855, 856, 857, 858, 859, 860, 861, 862, 863, 864, 865, 866, 867, 868, 869, 870, 871, 872, 873, 874, 875, 876, 877, 878, 879, 880, 881, 882, 883, 884, 885, 886, 887, 888, 889, 890, 891, 892, 893, 894, 895, 896, 897, 898, 899, 900, 901, 902, 903, 904, 905, 906, 907, 908, 909, 910, 911, 912, 913, 914, 915, 916, 917, 918, 919, 920, 921, 922, 923, 924, 925, 926, 927, 928, 929, 930, 931, 932, 933, 934, 935, 936, 937, 938, 939, 940, 941, 942, 943, 944, 945, 946, 947, 948, 949, 950, 951, 952, 953, 954, 955, 956, 957, 958, 959, 960, 961, 962, 963, 964, 965, 966, 967],
      "AcquisitionTime": ["123101.287500", "123101.747500", "123102.207500", "123102.667500", "123103.127500", "123103.587500", "123104.047500", "123104.507500", "123104.967500", "123105.427500", "123105.887500", "123106.347500", "123106.807500", "123107.267500", "123107.727500", "123108.187500", "123108.647500", "123109.107500", "123109.567500", "123110.027500", "123110.487500", "123110.947500", "123111.407500", "123111.867500", "123112.327500", "123112.787500", "123113.247500", "123113.707500", "123114.167500", "123114.627500", "123115.087500", "123115.547500", "123116.007500", "123116.467500", "123116.927500", "123117.387500", "123117.847500", "123118.307500", "123118.767500", "123119.227500", "123119.687500", "123120.147500", "123120.607500", "123121.067500", "123121.527500", "123121.987500", "123122.447500", "123122.907500", "123123.367500", "123123.827500", "123124.287500", "123124.747500", "123125.207500", "123125.667500", "123126.127500", "123126.587500", "123127.047500", "123127.507500", "123127.967500", "123128.427500", "123128.887500", "123129.347500", "123129.807500", "123130.267500", "123130.727500", "123131.187500", "123131.647500", "123132.107500", "123132.567500", "123133.027500", "123133.487500", "123133.947500", "123134.407500", "123134.867500", "123135.327500", "123135.787500", "123136.247500", "123136.707500", "123137.167500", "123137.627500", "123138.087500", "123138.547500", "123139.007500", "123139.467500", "123139.927500", "123140.387500", "123140.847500", "123141.307500", "123141.767500", "123142.227500", "123142.687500", "123143.147500", "123143.607500", "123144.067500", "123144.527500", "123144.987500", "123145.447500", "123145.907500", "123146.367500", "123146.827500", "123147.287500", "123147.747500", "123148.207500", "123148.667500", "123149.127500", "123149.587500", "123150.047500", "123150.507500", "123150.967500", "123151.427500", "123151.887500", "123152.347500", "123152.807500", "123153.267500", "123153.727500", "123154.187500", "123154.647500", "123155.107500", "123155.567500", "123156.027500", "123156.487500", "123156.947500", "123157.407500", "123157.867500", "123158.327500", "123158.787500", "123159.247500", "123159.707500", "123200.167500", "123200.627500", "123201.087500", "123201.547500", "123202.007500", "123202.467500", "123202.927500", "123203.387500", "123203.847500", "123204.307500", "123204.767500", "123205.227500", "123205.687500", "123206.147500", "123206.607500", "123207.067500", "123207.527500", "123207.987500", "123208.447500", "123208.907500", "123209.367500", "123209.827500", "123210.287500", "123210.747500", "123211.207500", "123211.667500", "123212.127500", "123212.587500", "123213.047500", "123213.507500", "123213.967500", "123214.427500", "123214.887500", "123215.347500", "123215.807500", "123216.267500", "123216.727500", "123217.187500", "123217.647500", "123218.107500", "123218.567500", "123219.027500", "123219.487500", "123219.947500", "123220.407500", "123220.867500", "123221.327500", "123221.787500", "123222.247500", "123222.707500", "123223.167500", "123223.627500", "123224.087500", "123224.547500", "123225.007500", "123225.467500", "123225.927500", "123226.387500", "123226.847500", "123227.307500", "123227.767500", "123228.227500", "123228.687500", "123229.147500", "123229.607500", "123230.067500", "123230.527500", "123230.987500", "123231.447500", "123231.907500", "123232.367500", "123232.827500", "123233.287500", "123233.747500", "123234.207500", "123234.667500", "123235.127500", "123235.587500", "123236.047500", "123236.507500", "123236.967500", "123237.427500", "123237.887500", "123238.347500", "123238.807500", "123239.267500", "123239.727500", "123240.187500", "123240.647500", "123241.107500", "123241.567500", "123242.027500", "123242.487500", "123242.947500", "123243.407500", "123243.867500", "123244.327500", "123244.787500", "123245.247500", "123245.707500", "123246.167500", "123246.627500", "123247.087500", "123247.547500", "123248.007500", "123248.467500", "123248.927500", "123249.387500", "123249.847500", "123250.307500", "123250.767500", "123251.227500", "123251.687500", "123252.147500", "123252.607500", "123253.067500", "123253.527500", "123253.987500", "123254.447500", "123254.907500", "123255.367500", "123255.827500", "123256.287500", "123256.747500", "123257.207500", "123257.667500", "123258.127500", "123258.587500", "123259.047500", "123259.507500", "123259.967500", "123300.427500", "123300.887500", "123301.347500", "123301.807500", "123302.267500", "123302.727500", "123303.187500", "123303.647500", "123304.107500", "123304.567500", "123305.027500", "123305.487500", "123305.947500", "123306.407500", "123306.867500", "123307.327500", "123307.787500", "123308.247500", "123308.707500", "123309.167500", "123309.627500", "123310.087500", "123310.547500", "123311.007500", "123311.467500", "123311.927500", "123312.387500", "123312.847500", "123313.307500", "123313.767500", "123314.227500", "123314.687500", "123315.147500", "123315.607500", "123316.067500", "123316.527500", "123316.987500", "123317.447500", "123317.907500", "123318.367500", "123318.827500", "123319.287500", "123319.747500", "123320.207500", "123320.667500", "123321.127500", "123321.587500", "123322.047500", "123322.507500", "123322.967500", "123323.427500", "123323.887500", "123324.347500", "123324.807500", "123325.267500", "123325.727500", "123326.187500", "123326.647500", "123327.107500", "123327.567500", "123328.027500", "123328.487500", "123328.947500", "123329.407500", "123329.867500", "123330.327500", "123330.787500", "123331.247500", "123331.707500", "123332.167500", "123332.627500", "123333.087500", "123333.547500", "123334.007500", "123334.467500", "123334.927500", "123335.387500", "123335.847500", "123336.307500", "123336.767500", "123337.227500", "123337.687500", "123338.147500", "123338.607500", "123339.067500", "123339.527500", "123339.987500", "123340.447500", "123340.907500", "123341.367500", "123341.827500", "123342.287500", "123342.747500", "123343.207500", "123343.667500", "123344.127500", "123344.587500", "123345.047500", "123345.507500", "123345.967500", "123346.427500", "123346.887500", "123347.347500", "123347.807500", "123348.267500", "123348.727500", "123349.187500", "123349.647500", "123350.107500", "123350.567500", "123351.027500", "123351.487500", "123351.947500", "123352.407500", "123352.867500", "123353.327500", "123353.787500", "123354.247500", "123354.707500", "123355.167500", "123355.627500", "123356.087500", "123356.547500", "123357.007500", "123357.467500", "123357.927500", "123358.387500", "123358.847500", "123359.307500", "123359.767500", "123400.227500", "123400.687500", "123401.147500", "123401.607500", "123402.067500", "123402.527500", "123402.987500", "123403.447500", "123403.907500", "123404.367500", "123404.827500", "123405.287500", "123405.747500", "123406.207500", "123406.667500", "123407.127500", "123407.587500", "123408.047500", "123408.507500", "123408.967500", "123409.427500", "123409.887500", "123410.347500", "123410.807500", "123411.267500", "123411.727500", "123412.187500", "123412.647500", "123413.107500", "123413.567500", "123414.027500", "123414.487500", "123414.947500", "123415.407500", "123415.867500", "123416.327500", "123416.787500", "123417.247500", "123417.707500", "123418.167500", "123418.627500", "123419.087500", "123419.547500", "123420.007500", "123420.467500", "123420.927500", "123421.387500", "123421.847500", "123422.307500", "123422.767500", "123423.227500", "123423.687500", "123424.147500", "123424.607500", "123425.067500", "123425.527500", "123425.987500", "123426.447500", "123426.907500", "123427.367500", "123427.827500", "123428.287500", "123428.747500", "123429.207500", "123429.667500", "123430.127500", "123430.587500", "123431.047500", "123431.507500", "123431.967500", "123432.427500", "123432.887500", "123433.347500", "123433.807500", "123434.267500", "123434.727500", "123435.187500", "123435.647500", "123436.107500", "123436.567500", "123437.027500", "123437.487500", "123437.947500", "123438.407500", "123438.867500", "123439.327500", "123439.787500", "123440.247500", "123440.707500", "123441.167500", "123441.627500", "123442.087500", "123442.547500", "123443.007500", "123443.467500", "123443.927500", "123444.387500", "123444.847500", "123445.307500", "123445.767500", "123446.227500", "123446.687500", "123447.147500", "123447.607500", "123448.067500", "123448.527500", "123448.987500", "123449.447500", "123449.907500", "123450.367500", "123450.827500", "123451.287500", "123451.747500", "123452.207500", "123452.667500", "123453.127500", "123453.587500", "123454.047500", "123454.507500", "123454.967500", "123455.427500", "123455.887500", "123456.347500", "123456.807500", "123457.267500", "123457.727500", "123458.187500", "123458.647500", "123459.107500", "123459.567500", "123500.027500", "123500.487500", "123500.947500", "123501.407500", "123501.867500", "123502.327500", "123502.787500", "123503.247500", "123503.707500", "123504.167500", "123504.627500", "123505.087500", "123505.547500", "123506.007500", "123506.467500", "123506.927500", "123507.387500", "123507.847500", "123508.307500", "123508.767500", "123509.227500", "123509.687500", "123510.147500", "123510.607500", "123511.067500", "123511.527500", "123511.987500", "123512.447500", "123512.907500", "123513.367500", "123513.827500", "123514.287500", "123514.747500", "123515.207500", "123515.667500", "123516.127500", "123516.587500", "123517.047500", "123517.507500", "123517.967500", "123518.427500", "123518.887500", "123519.347500", "123519.807500", "123520.267500", "123520.727500", "123521.187500", "123521.647500", "123522.107500", "123522.567500", "123523.027500", "123523.487500", "123523.947500", "123524.407500", "123524.867500", "123525.327500", "123525.787500", "123526.247500", "123526.707500", "123527.167500", "123527.627500", "123528.087500", "123528.547500", "123529.007500", "123529.467500", "123529.927500", "123530.387500", "123530.847500", "123531.307500", "123531.767500", "123532.227500", "123532.687500", "123533.147500", "123533.607500", "123534.067500", "123534.527500", "123534.987500", "123535.447500", "123535.907500", "123536.367500", "123536.827500", "123537.287500", "123537.747500", "123538.207500", "123538.667500", "123539.127500", "123539.587500", "123540.047500", "123540.507500", "123540.967500", "123541.427500", "123541.887500", "123542.347500", "123542.807500", "123543.267500", "123543.727500", "123544.187500", "123544.647500", "123545.107500", "123545.567500", "123546.027500", "123546.487500", "123546.947500", "123547.407500", "123547.867500", "123548.327500", "123548.787500", "123549.247500", "123549.707500", "123550.167500", "123550.627500", "123551.087500", "123551.547500", "123552.007500", "123552.467500", "123552.927500", "123553.387500", "123553.847500", "123554.307500", "123554.767500", "123555.227500", "123555.687500", "123556.147500", "123556.607500", "123557.067500", "123557.527500", "123557.987500", "123558.447500", "123558.907500", "123559.367500", "123559.827500", "123600.287500", "123600.747500", "123601.207500", "123601.667500", "123602.127500", "123602.587500", "123603.047500", "123603.507500", "123603.967500", "123604.427500", "123604.887500", "123605.347500", "123605.807500", "123606.267500", "123606.727500", "123607.187500", "123607.647500", "123608.107500", "123608.567500", "123609.027500", "123609.487500", "123609.947500", "123610.407500", "123610.867500", "123611.327500", "123611.787500", "123612.247500", "123612.707500", "123613.167500", "123613.627500", "123614.087500", "123614.547500", "123615.007500", "123615.467500", "123615.927500", "123616.387500", "123616.847500", "123617.307500", "123617.767500", "123618.227500", "123618.687500", "123619.147500", "123619.607500", "123620.067500", "123620.527500", "123620.987500", "123621.447500", "123621.907500", "123622.367500", "123622.827500", "123623.287500", "123623.747500", "123624.207500", "123624.667500", "123625.127500", "123625.587500", "123626.047500", "123626.507500", "123626.967500", "123627.427500", "123627.887500", "123628.347500", "123628.807500", "123629.267500", "123629.727500", "123630.187500", "123630.647500", "123631.107500", "123631.567500", "123632.027500", "123632.487500", "123632.947500", "123633.407500", "123633.867500", "123634.327500", "123634.787500", "123635.247500", "123635.707500", "123636.167500", "123636.627500", "123637.087500", "123637.547500", "123638.007500", "123638.467500", "123638.927500", "123639.387500", "123639.847500", "123640.307500", "123640.767500", "123641.227500", "123641.687500", "123642.147500", "123642.607500", "123643.067500", "123643.527500", "123643.987500", "123644.447500", "123644.907500", "123645.367500", "123645.827500", "123646.287500", "123646.747500", "123647.207500", "123647.667500", "123648.127500", "123648.587500", "123649.047500", "123649.507500", "123649.967500", "123650.427500", "123650.887500", "123651.347500", "123651.807500", "123652.267500", "123652.727500", "123653.187500", "123653.647500", "123654.107500", "123654.567500", "123655.027500", "123655.487500", "123655.947500", "123656.407500", "123656.867500", "123657.327500", "123657.787500", "123658.247500", "123658.707500", "123659.167500", "123659.627500", "123700.087500", "123700.547500", "123701.007500", "123701.467500", "123701.927500", "123702.387500", "123702.847500", "123703.307500", "123703.767500", "123704.227500", "123704.687500", "123705.147500", "123705.607500", "123706.067500", "123706.527500", "123706.987500", "123707.447500", "123707.907500", "123708.367500", "123708.827500", "123709.287500", "123709.747500", "123710.207500", "123710.667500", "123711.127500", "123711.587500", "123712.047500", "123712.507500", "123712.967500", "123713.427500", "123713.887500", "123714.347500", "123714.807500", "123715.267500", "123715.727500", "123716.187500", "123716.647500", "123717.107500", "123717.567500", "123718.027500", "123718.487500", "123718.947500", "123719.407500", "123719.867500", "123720.327500", "123720.787500", "123721.247500", "123721.707500", "123722.167500", "123722.627500", "123723.087500", "123723.547500", "123724.007500", "123724.467500", "123724.927500", "123725.387500", "123725.847500", "123726.307500", "123726.767500", "123727.227500", "123727.687500", "123728.147500", "123728.607500", "123729.067500", "123729.527500", "123729.987500", "123730.447500", "123730.907500", "123731.367500", "123731.827500", "123732.287500", "123732.747500", "123733.207500", "123733.667500", "123734.127500", "123734.587500", "123735.047500", "123735.507500", "123735.967500", "123736.427500", "123736.887500", "123737.347500", "123737.807500", "123738.267500", "123738.727500", "123739.187500", "123739.647500", "123740.107500", "123740.567500", "123741.027500", "123741.487500", "123741.947500", "123742.407500", "123742.867500", "123743.327500", "123743.787500", "123744.247500", "123744.707500", "123745.167500", "123745.627500", "123746.087500", "123746.547500", "123747.007500", "123747.467500", "123747.927500", "123748.387500", "123748.847500", "123749.307500", "123749.767500", "123750.227500", "123750.687500", "123751.147500", "123751.607500", "123752.067500", "123752.527500", "123752.987500", "123753.447500", "123753.907500", "123754.367500", "123754.827500", "123755.287500", "123755.747500", "123756.207500", "123756.667500", "123757.127500", "123757.587500", "123758.047500", "123758.507500", "123758.967500", "123759.427500", "123759.887500", "123800.347500", "123800.807500", "123801.267500", "123801.727500", "123802.187500", "123802.647500", "123803.107500", "123803.567500", "123804.027500", "123804.487500", "123804.947500", "123805.407500", "123805.867500", "123806.327500", "123806.787500", "123807.247500", "123807.707500", "123808.167500", "123808.627500", "123809.087500", "123809.547500", "123810.007500", "123810.467500", "123810.927500", "123811.387500", "123811.847500", "123812.307500", "123812.767500", "123813.227500", "123813.687500", "123814.147500", "123814.607500", "123815.067500", "123815.527500", "123815.987500", "123816.447500", "123816.907500", "123817.367500", "123817.827500", "123818.287500", "123818.747500", "123819.207500", "123819.667500", "123820.127500", "123820.587500", "123821.047500", "123821.507500", "123821.967500", "123822.427500", "123822.887500", "123823.347500", "123823.807500", "123824.267500", "123824.727500", "123825.187500", "123825.647500"],
