{
  "AcquisitionMatrixPE": 82,
  "AcquisitionNumber": 1,
  "AcquisitionTime": "15:20:53.167500",
  "BandwidthPerPixelPhaseEncode": 24.888,
  "BaseResolution": 82,
  "BodyPartExamined": "BRAIN",
  "ConsistencyInfo": "N4_VE11C_LATEST_20160120",
  "ConversionSoftware": "dcm2niix",
  "ConversionSoftwareVersion": "v1.0.20201102",
  "DerivedVendorReportedEchoSpacing": 0.00049,
  "DeviceSerialNumber": "66112",
  "DwellTime": 2e-06,
  "EchoTime": 0.0272,
  "EchoTrainLength": 82,
  "EffectiveEchoSpacing": 0.00049,
  "FlipAngle": 44,
  "ImageComments": "Unaliased MB8/PE3",
  "ImageOrientationPatientDICOM": [0.99863, -0.0420988, 0.0310892, 0.0399346, 0.996938, 0.067229],
  "ImageType": [
    "ORIGINAL",
    "PRIMARY",
    "M",
    "MB",
    "ND",
    "NORM",
    "MOSAIC"
],
  "ImagingFrequency": 123.252,
  "InPlanePhaseEncodingDirectionDICOM": "COL",
  "InstitutionAddress": "Maynard 3,Hanover,NH,US,03755",
  "InstitutionName": "Dartmouth College - PBS",
  "InstitutionalDepartmentName": "Department",
  "MRAcquisitionType": "2D",
  "MagneticFieldStrength": 3,
  "Manufacturer": "Siemens",
  "ManufacturersModelName": "Prisma",
  "Modality": "MR",
  "MultibandAccelerationFactor": 8,
  "PartialFourier": 1,
  "PatientPosition": "HFS",
  "PercentPhaseFOV": 100,
  "PercentSampling": 100,
  "PhaseEncodingDirection": "j-",
  "PhaseEncodingSteps": 82,
  "PhaseResolution": 1,
  "PixelBandwidth": 3050,
  "ProcedureStepDescription": "Wager_Wager^1076_spacetop",
  "ProtocolName": "func_run-02_task-social_acq-ap-mb8",
  "PulseSequenceDetails": "%CustomerSeq%\\cmrr_mbep2d_bold",
  "ReceiveCoilActiveElements": "HEA;HEP",
  "ReceiveCoilName": "Head_32",
  "ReconMatrixPE": 82,
  "RepetitionTime": 0.46,
  "SAR": 0.0838411,
  "ScanOptions": "FS",
  "ScanningSequence": "EP",
  "SequenceName": "epfid2d1_82",
  "SequenceVariant": "SK\\SS",
  "SeriesDescription": "func_run-02_task-social_acq-ap-mb8",
  "SeriesNumber": 12,
  "ShimSetting": [4165, -7784, -7264, 601, -50, -349, 103, 43],
  "SliceThickness": 2.7,
  "SliceTiming": [0, 0.25, 0.0625, 0.315, 0.125, 0.3775, 0.1875, 0, 0.25, 0.0625, 0.315, 0.125, 0.3775, 0.1875, 0, 0.25, 0.0625, 0.315, 0.125, 0.3775, 0.1875, 0, 0.25, 0.0625, 0.315, 0.125, 0.3775, 0.1875, 0, 0.25, 0.0625, 0.315, 0.125, 0.3775, 0.1875, 0, 0.25, 0.0625, 0.315, 0.125, 0.3775, 0.1875, 0, 0.25, 0.0625, 0.315, 0.125, 0.3775, 0.1875, 0, 0.25, 0.0625, 0.315, 0.125, 0.3775, 0.1875],
  "SoftwareVersions": "syngo MR E11",
  "SpacingBetweenSlices": 2.7,
  "StationName": "AWP66112",
  "TaskName": "social",
  "TotalReadoutTime": 0.03969,
  "TxRefAmp": 235.544,
  "WipMemBlock": "aa27d55c-d03e-4bd9-b647-89c17b73ecca||Sequence: R016 ve11c/master r/e634e98; Dec 19 2017 11:00:25 by eja",
  "dcmmeta_affine": [
    [-2.6792502403259277, 0.10714151710271835, 0.09132548421621323, 107.06795501708984],
    [0.11294810473918915, 2.6747119426727295, 0.17791734635829926, -100.92023468017578],
    [0.08341000974178314, -0.18037042021751404, 2.6925833225250244, -70.30757141113281],
    [0.0, 0.0, 0.0, 1.0]
],
  "dcmmeta_reorient_transform": [
    [0.0, -1.0, 0.0, 81.0],
    [1.0, 0.0, 0.0, 0.0],
    [0.0, 0.0, 1.0, 0.0],
    [0.0, 0.0, 0.0, 1.0]
],
  "dcmmeta_shape": [82, 82, 56, 872],
  "dcmmeta_slice_dim": 2,
  "dcmmeta_version": 0.6,
  "global": {
    "const": {
      "AccessionNumber": "A003651",
      "AcquisitionMatrix": [82, 0, 0, 82],
      "AngioFlag": "N",
      "BitsAllocated": 16,
      "BitsStored": 16,
      "BodyPartExamined": "BRAIN",
      "Columns": 656,
      "EchoNumbers": 1,
      "EchoTime": 27.2,
      "EchoTrainLength": 82,
      "FlipAngle": 44.0,
      "HighBit": 15,
      "ImageOrientationPatient": [0.99862963621681, -0.0420988388321, 0.03108918523337, 0.03993456556378, 0.9969380600111, 0.06722897421893],
      "ImagePositionPatient": [-915.44087276091, -850.95765137771, -160.6225595903],
      "ImageType": [
        "ORIGINAL",
        "PRIMARY",
        "M",
        "MB",
        "ND",
        "NORM",
        "MOSAIC"
],
      "ImagedNucleus": "1H",
      "ImagingFrequency": 123.252178,
      "InPlanePhaseEncodingDirection": "COL",
      "MRAcquisitionType": "2D",
      "MagneticFieldStrength": 3.0,
      "Manufacturer": "SIEMENS",
      "ManufacturerModelName": "Prisma",
      "Modality": "MR",
      "NumberOfAverages": 1.0,
      "NumberOfPhaseEncodingSteps": 82,
      "PercentPhaseFieldOfView": 100.0,
      "PercentSampling": 100.0,
      "PerformedProcedureStepStartTime": "143410.944000",
      "PhotometricInterpretation": "MONOCHROME2",
      "PixelBandwidth": 3050.0,
      "PixelRepresentation": 0,
      "PixelSpacing": [2.6829268932343, 2.6829268932343],
      "ProtocolName": "func_run-02_task-social_acq-ap-mb8",
      "RepetitionTime": 460.0,
      "Rows": 656,
      "SAR": 0.08384114252292,
      "SamplesPerPixel": 1,
      "ScanOptions": "FS",
      "ScanningSequence": "EP",
      "SequenceName": "epfid2d1_82",
      "SequenceVariant": [
        "SK",
        "SS"
],
      "SeriesDescription": "func_run-02_task-social_acq-ap-mb8",
      "SeriesNumber": 12,
      "SeriesTime": "152120.471000",
      "SliceLocation": -73.14311890101,
      "SliceThickness": 2.7000000476837,
      "SmallestImagePixelValue": 0,
      "SoftwareVersions": "syngo MR E11",
      "SpacingBetweenSlices": 2.7000000511846,
      "SpecificCharacterSet": "ISO_IR 100",
      "StudyID": "2",
      "StudyTime": "143410.897000",
      "TransmitCoilName": "Body",
      "VariableFlipAngleFlag": "N",
      "WindowCenterWidthExplanation": "Algo1",
      "dBdt": 0.0},
    "slices": {}
  },
  "time": {
    "samples": {
      "AcquisitionNumber": [1, 2, 3, 4, 5, 6, 7, 8, 9, 10, 11, 12, 13, 14, 15, 16, 17, 18, 19, 20, 21, 22, 23, 24, 25, 26, 27, 28, 29, 30, 31, 32, 33, 34, 35, 36, 37, 38, 39, 40, 41, 42, 43, 44, 45, 46, 47, 48, 49, 50, 51, 52, 53, 54, 55, 56, 57, 58, 59, 60, 61, 62, 63, 64, 65, 66, 67, 68, 69, 70, 71, 72, 73, 74, 75, 76, 77, 78, 79, 80, 81, 82, 83, 84, 85, 86, 87, 88, 89, 90, 91, 92, 93, 94, 95, 96, 97, 98, 99, 100, 101, 102, 103, 104, 105, 106, 107, 108, 109, 110, 111, 112, 113, 114, 115, 116, 117, 118, 119, 120, 121, 122, 123, 124, 125, 126, 127, 128, 129, 130, 131, 132, 133, 134, 135, 136, 137, 138, 139, 140, 141, 142, 143, 144, 145, 146, 147, 148, 149, 150, 151, 152, 153, 154, 155, 156, 157, 158, 159, 160, 161, 162, 163, 164, 165, 166, 167, 168, 169, 170, 171, 172, 173, 174, 175, 176, 177, 178, 179, 180, 181, 182, 183, 184, 185, 186, 187, 188, 189, 190, 191, 192, 193, 194, 195, 196, 197, 198, 199, 200, 201, 202, 203, 204, 205, 206, 207, 208, 209, 210, 211, 212, 213, 214, 215, 216, 217, 218, 219, 220, 221, 222, 223, 224, 225, 226, 227, 228, 229, 230, 231, 232, 233, 234, 235, 236, 237, 238, 239, 240, 241, 242, 243, 244, 245, 246, 247, 248, 249, 250, 251, 252, 253, 254, 255, 256, 257, 258, 259, 260, 261, 262, 263, 264, 265, 266, 267, 268, 269, 270, 271, 272, 273, 274, 275, 276, 277, 278, 279, 280, 281, 282, 283, 284, 285, 286, 287, 288, 289, 290, 291, 292, 293, 294, 295, 296, 297, 298, 299, 300, 301, 302, 303, 304, 305, 306, 307, 308, 309, 310, 311, 312, 313, 314, 315, 316, 317, 318, 319, 320, 321, 322, 323, 324, 325, 326, 327, 328, 329, 330, 331, 332, 333, 334, 335, 336, 337, 338, 339, 340, 341, 342, 343, 344, 345, 346, 347, 348, 349, 350, 351, 352, 353, 354, 355, 356, 357, 358, 359, 360, 361, 362, 363, 364, 365, 366, 367, 368, 369, 370, 371, 372, 373, 374, 375, 376, 377, 378, 379, 380, 381, 382, 383, 384, 385, 386, 387, 388, 389, 390, 391, 392, 393, 394, 395, 396, 397, 398, 399, 400, 401, 402, 403, 404, 405, 406, 407, 408, 409, 410, 411, 412, 413, 414, 415, 416, 417, 418, 419, 420, 421, 422, 423, 424, 425, 426, 427, 428, 429, 430, 431, 432, 433, 434, 435, 436, 437, 438, 439, 440, 441, 442, 443, 444, 445, 446, 447, 448, 449, 450, 451, 452, 453, 454, 455, 456, 457, 458, 459, 460, 461, 462, 463, 464, 465, 466, 467, 468, 469, 470, 471, 472, 473, 474, 475, 476, 477, 478, 479, 480, 481, 482, 483, 484, 485, 486, 487, 488, 489, 490, 491, 492, 493, 494, 495, 496, 497, 498, 499, 500, 501, 502, 503, 504, 505, 506, 507, 508, 509, 510, 511, 512, 513, 514, 515, 516, 517, 518, 519, 520, 521, 522, 523, 524, 525, 526, 527, 528, 529, 530, 531, 532, 533, 534, 535, 536, 537, 538, 539, 540, 541, 542, 543, 544, 545, 546, 547, 548, 549, 550, 551, 552, 553, 554, 555, 556, 557, 558, 559, 560, 561, 562, 563, 564, 565, 566, 567, 568, 569, 570, 571, 572, 573, 574, 575, 576, 577, 578, 579, 580, 581, 582, 583, 584, 585, 586, 587, 588, 589, 590, 591, 592, 593, 594, 595, 596, 597, 598, 599, 600, 601, 602, 603, 604, 605, 606, 607, 608, 609, 610, 611, 612, 613, 614, 615, 616, 617, 618, 619, 620, 621, 622, 623, 624, 625, 626, 627, 628, 629, 630, 631, 632, 633, 634, 635, 636, 637, 638, 639, 640, 641, 642, 643, 644, 645, 646, 647, 648, 649, 650, 651, 652, 653, 654, 655, 656, 657, 658, 659, 660, 661, 662, 663, 664, 665, 666, 667, 668, 669, 670, 671, 672, 673, 674, 675, 676, 677, 678, 679, 680, 681, 682, 683, 684, 685, 686, 687, 688, 689, 690, 691, 692, 693, 694, 695, 696, 697, 698, 699, 700, 701, 702, 703, 704, 705, 706, 707, 708, 709, 710, 711, 712, 713, 714, 715, 716, 717, 718, 719, 720, 721, 722, 723, 724, 725, 726, 727, 728, 729, 730, 731, 732, 733, 734, 735, 736, 737, 738, 739, 740, 741, 742, 743, 744, 745, 746, 747, 748, 749, 750, 751, 752, 753, 754, 755, 756, 757, 758, 759, 760, 761, 762, 763, 764, 765, 766, 767, 768, 769, 770, 771, 772, 773, 774, 775, 776, 777, 778, 779, 780, 781, 782, 783, 784, 785, 786, 787, 788, 789, 790, 791, 792, 793, 794, 795, 796, 797, 798, 799, 800, 801, 802, 803, 804, 805, 806, 807, 808, 809, 810, 811, 812, 813, 814, 815, 816, 817, 818, 819, 820, 821, 822, 823, 824, 825, 826, 827, 828, 829, 830, 831, 832, 833, 834, 835, 836, 837, 838, 839, 840, 841, 842, 843, 844, 845, 846, 847, 848, 849, 850, 851, 852, 853, 854, 855, 856, 857, 858, 859, 860, 861, 862, 863, 864, 865, 866, 867, 868, 869, 870, 871, 872],
      "AcquisitionTime": ["152053.167500", "152053.627500", "152054.087500", "152054.547500", "152055.007500", "152055.467500", "152055.927500", "152056.387500", "152056.847500", "152057.307500", "152057.767500", "152058.227500", "152058.687500", "152059.147500", "152059.607500", "152100.067500", "152100.527500", "152100.987500", "152101.447500", "152101.907500", "152102.367500", "152102.827500", "152103.287500", "152103.747500", "152104.207500", "152104.667500", "152105.127500", "152105.587500", "152106.047500", "152106.507500", "152106.967500", "152107.427500", "152107.887500", "152108.347500", "152108.807500", "152109.267500", "152109.727500", "152110.187500", "152110.647500", "152111.107500", "152111.567500", "152112.027500", "152112.487500", "152112.947500", "152113.407500", "152113.867500", "152114.327500", "152114.787500", "152115.247500", "152115.707500", "152116.167500", "152116.627500", "152117.087500", "152117.547500", "152118.007500", "152118.467500", "152118.927500", "152119.387500", "152119.847500", "152120.307500", "152120.767500", "152121.227500", "152121.687500", "152122.147500", "152122.607500", "152123.067500", "152123.527500", "152123.987500", "152124.447500", "152124.907500", "152125.367500", "152125.827500", "152126.287500", "152126.747500", "152127.207500", "152127.667500", "152128.127500", "152128.587500", "152129.047500", "152129.507500", "152129.967500", "152130.427500", "152130.887500", "152131.347500", "152131.807500", "152132.267500", "152132.727500", "152133.187500", "152133.647500", "152134.107500", "152134.567500", "152135.027500", "152135.487500", "152135.947500", "152136.407500", "152136.867500", "152137.327500", "152137.787500", "152138.247500", "152138.707500", "152139.167500", "152139.627500", "152140.087500", "152140.547500", "152141.007500", "152141.467500", "152141.927500", "152142.387500", "152142.847500", "152143.307500", "152143.767500", "152144.227500", "152144.687500", "152145.147500", "152145.607500", "152146.067500", "152146.527500", "152146.987500", "152147.447500", "152147.907500", "152148.367500", "152148.827500", "152149.287500", "152149.747500", "152150.207500", "152150.667500", "152151.127500", "152151.587500", "152152.047500", "152152.507500", "152152.967500", "152153.427500", "152153.887500", "152154.347500", "152154.807500", "152155.267500", "152155.727500", "152156.187500", "152156.647500", "152157.107500", "152157.567500", "152158.027500", "152158.487500", "152158.947500", "152159.407500", "152159.867500", "152200.327500", "152200.787500", "152201.247500", "152201.707500", "152202.167500", "152202.627500", "152203.087500", "152203.547500", "152204.007500", "152204.467500", "152204.927500", "152205.387500", "152205.847500", "152206.307500", "152206.767500", "152207.227500", "152207.687500", "152208.147500", "152208.607500", "152209.067500", "152209.527500", "152209.987500", "152210.447500", "152210.907500", "152211.367500", "152211.827500", "152212.287500", "152212.747500", "152213.207500", "152213.667500", "152214.127500", "152214.587500", "152215.047500", "152215.507500", "152215.967500", "152216.427500", "152216.887500", "152217.347500", "152217.807500", "152218.267500", "152218.727500", "152219.187500", "152219.647500", "152220.107500", "152220.567500", "152221.027500", "152221.487500", "152221.947500", "152222.407500", "152222.867500", "152223.327500", "152223.787500", "152224.247500", "152224.707500", "152225.167500", "152225.627500", "152226.087500", "152226.547500", "152227.007500", "152227.467500", "152227.927500", "152228.387500", "152228.847500", "152229.307500", "152229.767500", "152230.227500", "152230.687500", "152231.147500", "152231.607500", "152232.067500", "152232.527500", "152232.987500", "152233.447500", "152233.907500", "152234.367500", "152234.827500", "152235.287500", "152235.747500", "152236.207500", "152236.667500", "152237.127500", "152237.587500", "152238.047500", "152238.507500", "152238.967500", "152239.427500", "152239.887500", "152240.347500", "152240.807500", "152241.267500", "152241.727500", "152242.187500", "152242.647500", "152243.107500", "152243.567500", "152244.027500", "152244.487500", "152244.947500", "152245.407500", "152245.867500", "152246.327500", "152246.787500", "152247.247500", "152247.707500", "152248.167500", "152248.627500", "152249.087500", "152249.547500", "152250.007500", "152250.467500", "152250.927500", "152251.387500", "152251.847500", "152252.307500", "152252.767500", "152253.227500", "152253.687500", "152254.147500", "152254.607500", "152255.067500", "152255.527500", "152255.987500", "152256.447500", "152256.907500", "152257.367500", "152257.827500", "152258.287500", "152258.747500", "152259.207500", "152259.667500", "152300.127500", "152300.587500", "152301.047500", "152301.507500", "152301.967500", "152302.427500", "152302.887500", "152303.347500", "152303.807500", "152304.267500", "152304.727500", "152305.187500", "152305.647500", "152306.107500", "152306.567500", "152307.027500", "152307.487500", "152307.947500", "152308.407500", "152308.867500", "152309.327500", "152309.787500", "152310.247500", "152310.707500", "152311.167500", "152311.627500", "152312.087500", "152312.547500", "152313.007500", "152313.467500", "152313.927500", "152314.387500", "152314.847500", "152315.307500", "152315.767500", "152316.227500", "152316.687500", "152317.147500", "152317.607500", "152318.067500", "152318.527500", "152318.987500", "152319.447500", "152319.907500", "152320.367500", "152320.827500", "152321.287500", "152321.747500", "152322.207500", "152322.667500", "152323.127500", "152323.587500", "152324.047500", "152324.507500", "152324.967500", "152325.427500", "152325.887500", "152326.347500", "152326.807500", "152327.267500", "152327.727500", "152328.187500", "152328.647500", "152329.107500", "152329.567500", "152330.027500", "152330.487500", "152330.947500", "152331.407500", "152331.867500", "152332.327500", "152332.787500", "152333.247500", "152333.707500", "152334.167500", "152334.627500", "152335.087500", "152335.547500", "152336.007500", "152336.467500", "152336.927500", "152337.387500", "152337.847500", "152338.307500", "152338.767500", "152339.227500", "152339.687500", "152340.147500", "152340.607500", "152341.067500", "152341.527500", "152341.987500", "152342.447500", "152342.907500", "152343.367500", "152343.827500", "152344.287500", "152344.747500", "152345.207500", "152345.667500", "152346.127500", "152346.587500", "152347.047500", "152347.507500", "152347.967500", "152348.427500", "152348.887500", "152349.347500", "152349.807500", "152350.267500", "152350.727500", "152351.187500", "152351.647500", "152352.107500", "152352.567500", "152353.027500", "152353.487500", "152353.947500", "152354.407500", "152354.867500", "152355.327500", "152355.787500", "152356.247500", "152356.707500", "152357.167500", "152357.627500", "152358.087500", "152358.547500", "152359.007500", "152359.467500", "152359.927500", "152400.387500", "152400.847500", "152401.307500", "152401.767500", "152402.227500", "152402.687500", "152403.147500", "152403.607500", "152404.067500", "152404.527500", "152404.987500", "152405.447500", "152405.907500", "152406.367500", "152406.827500", "152407.287500", "152407.747500", "152408.207500", "152408.667500", "152409.127500", "152409.587500", "152410.047500", "152410.507500", "152410.967500", "152411.427500", "152411.887500", "152412.347500", "152412.807500", "152413.267500", "152413.727500", "152414.187500", "152414.647500", "152415.107500", "152415.567500", "152416.027500", "152416.487500", "152416.947500", "152417.407500", "152417.867500", "152418.327500", "152418.787500", "152419.247500", "152419.707500", "152420.167500", "152420.627500", "152421.087500", "152421.547500", "152422.007500", "152422.467500", "152422.927500", "152423.387500", "152423.847500", "152424.307500", "152424.767500", "152425.227500", "152425.687500", "152426.147500", "152426.607500", "152427.067500", "152427.527500", "152427.987500", "152428.447500", "152428.907500", "152429.367500", "152429.827500", "152430.287500", "152430.747500", "152431.207500", "152431.667500", "152432.127500", "152432.587500", "152433.047500", "152433.507500", "152433.967500", "152434.427500", "152434.887500", "152435.347500", "152435.807500", "152436.267500", "152436.727500", "152437.187500", "152437.647500", "152438.107500", "152438.567500", "152439.027500", "152439.487500", "152439.947500", "152440.407500", "152440.867500", "152441.327500", "152441.787500", "152442.247500", "152442.707500", "152443.167500", "152443.627500", "152444.087500", "152444.547500", "152445.007500", "152445.467500", "152445.927500", "152446.387500", "152446.847500", "152447.307500", "152447.767500", "152448.227500", "152448.687500", "152449.147500", "152449.607500", "152450.067500", "152450.527500", "152450.987500", "152451.447500", "152451.907500", "152452.367500", "152452.827500", "152453.287500", "152453.747500", "152454.207500", "152454.667500", "152455.127500", "152455.587500", "152456.047500", "152456.507500", "152456.967500", "152457.427500", "152457.887500", "152458.347500", "152458.807500", "152459.267500", "152459.727500", "152500.187500", "152500.647500", "152501.107500", "152501.567500", "152502.027500", "152502.487500", "152502.947500", "152503.407500", "152503.867500", "152504.327500", "152504.787500", "152505.247500", "152505.707500", "152506.167500", "152506.627500", "152507.087500", "152507.547500", "152508.007500", "152508.467500", "152508.927500", "152509.387500", "152509.847500", "152510.307500", "152510.767500", "152511.227500", "152511.687500", "152512.147500", "152512.607500", "152513.067500", "152513.527500", "152513.987500", "152514.447500", "152514.907500", "152515.367500", "152515.827500", "152516.287500", "152516.747500", "152517.207500", "152517.667500", "152518.127500", "152518.587500", "152519.047500", "152519.507500", "152519.967500", "152520.427500", "152520.887500", "152521.347500", "152521.807500", "152522.267500", "152522.727500", "152523.187500", "152523.647500", "152524.107500", "152524.567500", "152525.027500", "152525.487500", "152525.947500", "152526.407500", "152526.867500", "152527.327500", "152527.787500", "152528.247500", "152528.707500", "152529.167500", "152529.627500", "152530.087500", "152530.547500", "152531.007500", "152531.467500", "152531.927500", "152532.387500", "152532.847500", "152533.307500", "152533.767500", "152534.227500", "152534.687500", "152535.147500", "152535.607500", "152536.067500", "152536.527500", "152536.987500", "152537.447500", "152537.907500", "152538.367500", "152538.827500", "152539.287500", "152539.747500", "152540.207500", "152540.667500", "152541.127500", "152541.587500", "152542.047500", "152542.507500", "152542.967500", "152543.427500", "152543.887500", "152544.347500", "152544.807500", "152545.267500", "152545.727500", "152546.187500", "152546.647500", "152547.107500", "152547.567500", "152548.027500", "152548.487500", "152548.947500", "152549.407500", "152549.867500", "152550.327500", "152550.787500", "152551.247500", "152551.707500", "152552.167500", "152552.627500", "152553.087500", "152553.547500", "152554.007500", "152554.467500", "152554.927500", "152555.387500", "152555.847500", "152556.307500", "152556.767500", "152557.227500", "152557.687500", "152558.147500", "152558.607500", "152559.067500", "152559.527500", "152559.987500", "152600.447500", "152600.907500", "152601.367500", "152601.827500", "152602.287500", "152602.747500", "152603.207500", "152603.667500", "152604.127500", "152604.587500", "152605.047500", "152605.507500", "152605.967500", "152606.427500", "152606.887500", "152607.347500", "152607.807500", "152608.267500", "152608.727500", "152609.187500", "152609.647500", "152610.107500", "152610.567500", "152611.027500", "152611.487500", "152611.947500", "152612.407500", "152612.867500", "152613.327500", "152613.787500", "152614.247500", "152614.707500", "152615.167500", "152615.627500", "152616.087500", "152616.547500", "152617.007500", "152617.467500", "152617.927500", "152618.387500", "152618.847500", "152619.307500", "152619.767500", "152620.227500", "152620.687500", "152621.147500", "152621.607500", "152622.067500", "152622.527500", "152622.987500", "152623.447500", "152623.907500", "152624.367500", "152624.827500", "152625.287500", "152625.747500", "152626.207500", "152626.667500", "152627.127500", "152627.587500", "152628.047500", "152628.507500", "152628.967500", "152629.427500", "152629.887500", "152630.347500", "152630.807500", "152631.267500", "152631.727500", "152632.187500", "152632.647500", "152633.107500", "152633.567500", "152634.027500", "152634.487500", "152634.947500", "152635.407500", "152635.867500", "152636.327500", "152636.787500", "152637.247500", "152637.707500", "152638.167500", "152638.627500", "152639.087500", "152639.547500", "152640.007500", "152640.467500", "152640.927500", "152641.387500", "152641.847500", "152642.307500", "152642.767500", "152643.227500", "152643.687500", "152644.147500", "152644.607500", "152645.067500", "152645.527500", "152645.987500", "152646.447500", "152646.907500", "152647.367500", "152647.827500", "152648.287500", "152648.747500", "152649.207500", "152649.667500", "152650.127500", "152650.587500", "152651.047500", "152651.507500", "152651.967500", "152652.427500", "152652.887500", "152653.347500", "152653.807500", "152654.267500", "152654.727500", "152655.187500", "152655.647500", "152656.107500", "152656.567500", "152657.027500", "152657.487500", "152657.947500", "152658.407500", "152658.867500", "152659.327500", "152659.787500", "152700.247500", "152700.707500", "152701.167500", "152701.627500", "152702.087500", "152702.547500", "152703.007500", "152703.467500", "152703.927500", "152704.387500", "152704.847500", "152705.307500", "152705.767500", "152706.227500", "152706.687500", "152707.147500", "152707.607500", "152708.067500", "152708.527500", "152708.987500", "152709.447500", "152709.907500", "152710.367500", "152710.827500", "152711.287500", "152711.747500", "152712.207500", "152712.667500", "152713.127500", "152713.587500", "152714.047500", "152714.507500", "152714.967500", "152715.427500", "152715.887500", "152716.347500", "152716.807500", "152717.267500", "152717.727500", "152718.187500", "152718.647500", "152719.107500", "152719.567500", "152720.027500", "152720.487500", "152720.947500", "152721.407500", "152721.867500", "152722.327500", "152722.787500", "152723.247500", "152723.707500", "152724.167500", "152724.627500", "152725.087500", "152725.547500", "152726.007500", "152726.467500", "152726.927500", "152727.387500", "152727.847500", "152728.307500", "152728.767500", "152729.227500", "152729.687500", "152730.147500", "152730.607500", "152731.067500", "152731.527500", "152731.987500", "152732.447500", "152732.907500", "152733.367500", "152733.827500"],
