{
  "AcquisitionMatrixPE": 140,
  "AcquisitionNumber": 1,
  "AcquisitionTime": "20:36:25.017500",
  "BandwidthPerPixelPhaseEncode": 10.352,
  "BaseResolution": 140,
  "BodyPartExamined": "BRAIN",
  "ConsistencyInfo": "N4_VE11E_LATEST_20181129",
  "ConversionSoftware": "dcm2niix",
  "ConversionSoftwareVersion": "v1.0.20201102",
  "DerivedVendorReportedEchoSpacing": 0.000689998,
  "DeviceSerialNumber": "66112",
  "DiffusionScheme": "Monopolar",
  "DwellTime": 2.1e-06,
  "EchoTime": 0.088,
  "EchoTrainLength": 105,
  "EffectiveEchoSpacing": 0.000689998,
  "FlipAngle": 90,
  "ImageComments": "Unaliased MB3/PE3",
  "ImageOrientationPatientDICOM": [0.99972, 0.0121824, 0.0202864, -0.0167521, 0.969849, 0.243132],
  "ImageType": [
    "ORIGINAL",
    "PRIMARY",
    "DIFFUSION",
    "NONE",
    "MB",
    "ND"
],
  "ImagingFrequency": 123.252,
  "InPlanePhaseEncodingDirectionDICOM": "COL",
  "InstitutionAddress": "Maynard 3,Hanover,NH,US,03755",
  "InstitutionName": "Dartmouth College - PBS",
  "InstitutionalDepartmentName": "Department",
  "IntendedFor": [
    "ses-01/dwi/sub-0090_ses-01_acq-96dirX6b0Xmb_dwi.nii.gz"
],
  "MRAcquisitionType": "2D",
  "MagneticFieldStrength": 3,
  "Manufacturer": "Siemens",
  "ManufacturersModelName": "Prisma",
  "Modality": "MR",
  "MultibandAccelerationFactor": 3,
  "PartialFourier": 0.75,
  "PatientPosition": "HFS",
  "PercentPhaseFOV": 100,
  "PercentSampling": 100,
  "PhaseEncodingDirection": "j-",
  "PhaseEncodingSteps": 105,
  "PhaseResolution": 1,
  "PixelBandwidth": 1700,
  "ProcedureStepDescription": "Wager_Wager^1076_spacetop",
  "ProtocolName": "dwi_acq-discorr-AP",
  "PulseSequenceDetails": "%CustomerSeq%\\cmrr_mbep2d_diff",
  "ReceiveCoilActiveElements": "HEA;HEP",
  "ReceiveCoilName": "Head_32",
  "ReconMatrixPE": 140,
  "RepetitionTime": 4.1,
  "SAR": 0.170484,
  "ScanOptions": "PFP\\FS",
  "ScanningSequence": "EP",
  "SequenceName": "ep_b0",
  "SequenceVariant": "SK\\SS",
  "SeriesDescription": "dwi_acq-discorr-AP",
  "SeriesNumber": 7,
  "ShimSetting": [4176, -7725, -7247, 505, 15, -69, -81, -3],
  "SliceThickness": 1.7,
  "SliceTiming": [0, 2.10938, 0.15625, 2.26562, 0.29688, 2.42188, 0.45312, 2.57812, 0.60938, 2.71875, 0.75, 2.875, 0.90625, 3.03125, 1.0625, 3.17188, 1.21875, 3.32812, 1.35938, 3.48438, 1.51562, 3.625, 1.67188, 3.78125, 1.8125, 3.9375, 1.96875, 0, 2.10938, 0.15625, 2.26562, 0.29688, 2.42188, 0.45312, 2.57812, 0.60938, 2.71875, 0.75, 2.875, 0.90625, 3.03125, 1.0625, 3.17188, 1.21875, 3.32812, 1.35938, 3.48438, 1.51562, 3.625, 1.67188, 3.78125, 1.8125, 3.9375, 1.96875, 0, 2.10938, 0.15625, 2.26562, 0.29688, 2.42188, 0.45312, 2.57812, 0.60938, 2.71875, 0.75, 2.875, 0.90625, 3.03125, 1.0625, 3.17188, 1.21875, 3.32812, 1.35938, 3.48438, 1.51562, 3.625, 1.67188, 3.78125, 1.8125, 3.9375, 1.96875],
  "SoftwareVersions": "syngo MR E11",
  "SpacingBetweenSlices": 1.7,
  "StationName": "AWP66112",
  "TotalReadoutTime": 0.0959097,
  "TxRefAmp": 252.257,
  "WipMemBlock": "58361c16-34fa-42cb-a8e5-6916d03abc37||Sequence: R016 ve11e/master r/434b28f1; Aug  7 2019 19:06:17 by eja",
  "dcmmeta_affine": [
    [-1.7138056755065918, -0.028717810288071632, 0.028411865234375, 124.50547790527344],
    [-0.02088412083685398, 1.662597417831421, 0.4137840270996094, -95.15670013427734],
    [0.034776702523231506, -0.4167979955673218, 1.6486282348632812, -34.36897277832031],
    [0.0, 0.0, 0.0, 1.0]
],
  "dcmmeta_reorient_transform": [
    [0.0, -1.0, 0.0, 139.0],
    [1.0, 0.0, 0.0, 0.0],
    [0.0, 0.0, -1.0, 80.0],
    [0.0, 0.0, 0.0, 1.0]
],
  "dcmmeta_shape": [140, 140, 81],
  "dcmmeta_slice_dim": 2,
  "dcmmeta_version": 0.6,
  "global": {
    "const": {
      "AccessionNumber": "A004215",
      "AcquisitionMatrix": [140, 0, 0, 140],
      "AcquisitionNumber": 1,
      "AngioFlag": "N",
      "BitsAllocated": 16,
      "BitsStored": 16,
      "BodyPartExamined": "BRAIN",
      "Columns": 140,
      "EchoNumbers": 1,
      "EchoTime": 88.0,
      "EchoTrainLength": 105,
      "FlipAngle": 90.0,
      "HighBit": 15,
      "ImageOrientationPatient": [0.99971998609545, 0.01218240343478, 0.02028641042337, -0.0167520555063, 0.96984850200044, 0.24313216941373],
      "ImageType": [
        "ORIGINAL",
        "PRIMARY",
        "DIFFUSION",
        "NONE",
        "MB",
        "ND"
],
      "ImagedNucleus": "1H",
      "ImagingFrequency": 123.252144,
      "InPlanePhaseEncodingDirection": "COL",
      "MRAcquisitionType": "2D",
      "MagneticFieldStrength": 3.0,
      "Manufacturer": "SIEMENS",
      "ManufacturerModelName": "Prisma",
      "Modality": "MR",
      "NumberOfAverages": 1.0,
      "NumberOfPhaseEncodingSteps": 105,
      "PercentPhaseFieldOfView": 100.0,
      "PercentSampling": 100.0,
      "PerformedProcedureStepStartTime": "201830.399000",
      "PhotometricInterpretation": "MONOCHROME2",
      "PixelBandwidth": 1700.0,
      "PixelRepresentation": 0,
      "PixelSpacing": [1.7142857313156, 1.7142857313156],
      "ProtocolName": "dwi_acq-discorr-AP",
      "RepetitionTime": 4100.0,
      "Rows": 140,
      "SAR": 0.17048409719915,
      "SamplesPerPixel": 1,
      "ScanOptions": [
        "PFP",
        "FS"
],
      "ScanningSequence": "EP",
      "SequenceName": "ep_b0",
      "SequenceVariant": [
        "SK",
        "SS"
],
      "SeriesDescription": "dwi_acq-discorr-AP",
      "SeriesNumber": 7,
      "SeriesTime": "203629.538000",
      "SliceThickness": 1.7000000476837,
      "SmallestImagePixelValue": 0,
      "SoftwareVersions": "syngo MR E11",
      "SpacingBetweenSlices": 1.7,
      "SpecificCharacterSet": "ISO_IR 100",
      "StudyID": "1",
      "StudyTime": "201830.333000",
      "TransmitCoilName": "Body",
      "VariableFlipAngleFlag": "N",
      "WindowCenterWidthExplanation": "Algo1"
    },
    "slices": {
      "AcquisitionTime": ["203625.017500", "203627.132500", "203625.167500", "203627.285000", "203625.320000", "203627.435000", "203625.470000", "203627.587500", "203625.622500", "203627.737500", "203625.772500", "203627.887500", "203625.925000", "203628.040000", "203626.075000", "203628.190000", "203626.227500", "203628.342500", "203626.377500", "203628.492500", "203626.527500", "203628.645000", "203626.680000", "203628.795000", "203626.830000", "203628.947500", "203626.982500", "203625.017500", "203627.132500", "203625.167500", "203627.285000", "203625.320000", "203627.435000", "203625.470000", "203627.587500", "203625.622500", "203627.737500", "203625.772500", "203627.887500", "203625.925000", "203628.040000", "203626.075000", "203628.190000", "203626.227500", "203628.342500", "203626.377500", "203628.492500", "203626.527500", "203628.645000", "203626.680000", "203628.795000", "203626.830000", "203628.947500", "203626.982500", "203625.017500", "203627.132500", "203625.167500", "203627.285000", "203625.320000", "203627.435000", "203625.470000", "203627.587500", "203625.622500", "203627.737500", "203625.772500", "203627.887500", "203625.925000", "203628.040000", "203626.075000", "203628.190000", "203626.227500", "203628.342500", "203626.377500", "203628.492500", "203626.527500", "203628.645000", "203626.680000", "203628.795000", "203626.830000", "203628.947500", "203626.982500"],
      "ContentTime": ["203629.541000", "203629.626000", "203629.548000", "203629.633000", "203629.554000", "203629.648000", "203629.560000", "203629.656000", "203629.566000", "203629.663000", "203629.572000", "203629.670000", "203629.578000", "203629.677000", "203629.585000", "203629.684000", "203629.591000", "203629.690000", "203629.596000", "203629.697000", "203629.602000", "203629.703000", "203629.608000", "203629.709000", "203629.614000", "203629.716000", "203629.620000", "203629.544000", "203629.628000", "203629.550000", "203629.644000", "203629.556000", "203629.651000", "203629.562000", "203629.658000", "203629.568000", "203629.665000", "203629.574000", "203629.672000", "203629.580000", "203629.679000", "203629.587000", "203629.686000", "203629.593000", "203629.692000", "203629.598000", "203629.699000", "203629.604000", "203629.705000", "203629.610000", "203629.711000", "203629.616000", "203629.718000", "203629.622000", "203629.546000", "203629.630000", "203629.552000", "203629.646000", "203629.558000", "203629.654000", "203629.564000", "203629.661000", "203629.570000", "203629.668000", "203629.576000", "203629.675000", "203629.582000", "203629.682000", "203629.589000", "203629.688000", "203629.594000", "203629.695000", "203629.600000", "203629.701000", "203629.606000", "203629.707000", "203629.612000", "203629.713000", "203629.618000", "203629.720000", "203629.624000"],
      "CsaImage.GSWDDataType": [
        "predicted",
        "predicted",
        "predicted",
        "predicted",
        "predicted",
        "predicted",
        "predicted",
        "predicted",
        "predicted",
        "predicted",
        "predicted",
        "predicted",
        "predicted",
        "predicted",
        "predicted",
        "predicted",
        "predicted",
        "predicted",
        "predicted",
        "predicted",
        "predicted",
        "predicted",
        "predicted",
        "measured",
        "predicted",
        "measured",
        "predicted",
        "predicted",
        "predicted",
        "predicted",
        "predicted",
        "predicted",
        "predicted",
        "predicted",
        "predicted",
        "predicted",
        "predicted",
        "predicted",
        "predicted",
        "predicted",
        "predicted",
        "predicted",
        "predicted",
        "predicted",
        "predicted",
        "predicted",
        "predicted",
        "predicted",
        "predicted",
        "predicted",
        "measured",
        "predicted",
        "measured",
        "predicted",
        "predicted",
        "predicted",
        "predicted",
        "predicted",
        "predicted",
        "predicted",
        "predicted",
        "predicted",
        "predicted",
        "predicted",
        "predicted",
        "predicted",
        "predicted",
        "predicted",
        "predicted",
        "predicted",
        "predicted",
        "predicted",
        "predicted",
        "predicted",
        "predicted",
        "predicted",
        "predicted",
        "measured",
        "predicted",
        "measured",
        "predicted"
],
      "CsaImage.ICE_Dims": [
        "X_1_1_1_1_1_1_1_1_1_1_1_344",
        "X_1_1_1_1_1_1_42_1_1_2_1_344",
        "X_1_1_1_1_1_1_2_1_1_3_1_344",
        "X_1_1_1_1_1_1_43_1_1_4_1_344",
        "X_1_1_1_1_1_1_3_1_1_5_1_344",
        "X_1_1_1_1_1_1_44_1_1_6_1_344",
        "X_1_1_1_1_1_1_4_1_1_7_1_344",
        "X_1_1_1_1_1_1_45_1_1_8_1_344",
        "X_1_1_1_1_1_1_5_1_1_9_1_344",
        "X_1_1_1_1_1_1_46_1_1_10_1_344",
        "X_1_1_1_1_1_1_6_1_1_11_1_344",
        "X_1_1_1_1_1_1_47_1_1_12_1_344",
        "X_1_1_1_1_1_1_7_1_1_13_1_344",
        "X_1_1_1_1_1_1_48_1_1_14_1_344",
        "X_1_1_1_1_1_1_8_1_1_15_1_344",
        "X_1_1_1_1_1_1_49_1_1_16_1_344",
        "X_1_1_1_1_1_1_9_1_1_17_1_344",
        "X_1_1_1_1_1_1_50_1_1_18_1_344",
        "X_1_1_1_1_1_1_10_1_1_19_1_344",
        "X_1_1_1_1_1_1_51_1_1_20_1_344",
        "X_1_1_1_1_1_1_11_1_1_21_1_344",
        "X_1_1_1_1_1_1_52_1_1_22_1_344",
        "X_1_1_1_1_1_1_12_1_1_23_1_344",
        "X_1_1_1_1_1_1_53_1_1_24_1_344",
        "X_1_1_1_1_1_1_13_1_1_25_1_344",
        "X_1_1_1_1_1_1_54_1_1_26_1_344",
        "X_1_1_1_1_1_1_14_1_1_27_1_344",
        "X_1_1_1_1_1_1_55_1_1_28_1_344",
        "X_1_1_1_1_1_1_15_1_1_29_1_344",
        "X_1_1_1_1_1_1_56_1_1_30_1_344",
        "X_1_1_1_1_1_1_16_1_1_31_1_344",
        "X_1_1_1_1_1_1_57_1_1_32_1_344",
        "X_1_1_1_1_1_1_17_1_1_33_1_344",
        "X_1_1_1_1_1_1_58_1_1_34_1_344",
        "X_1_1_1_1_1_1_18_1_1_35_1_344",
        "X_1_1_1_1_1_1_59_1_1_36_1_344",
        "X_1_1_1_1_1_1_19_1_1_37_1_344",
        "X_1_1_1_1_1_1_60_1_1_38_1_344",
        "X_1_1_1_1_1_1_20_1_1_39_1_344",
        "X_1_1_1_1_1_1_61_1_1_40_1_344",
        "X_1_1_1_1_1_1_21_1_1_41_1_344",
        "X_1_1_1_1_1_1_62_1_1_42_1_344",
        "X_1_1_1_1_1_1_22_1_1_43_1_344",
        "X_1_1_1_1_1_1_63_1_1_44_1_344",
        "X_1_1_1_1_1_1_23_1_1_45_1_344",
        "X_1_1_1_1_1_1_64_1_1_46_1_344",
        "X_1_1_1_1_1_1_24_1_1_47_1_344",
        "X_1_1_1_1_1_1_65_1_1_48_1_344",
        "X_1_1_1_1_1_1_25_1_1_49_1_344",
        "X_1_1_1_1_1_1_66_1_1_50_1_344",
        "X_1_1_1_1_1_1_26_1_1_51_1_344",
        "X_1_1_1_1_1_1_67_1_1_52_1_344",
        "X_1_1_1_1_1_1_27_1_1_53_1_344",
        "X_1_1_1_1_1_1_68_1_1_54_1_344",
        "X_1_1_1_1_1_1_28_1_1_55_1_344",
        "X_1_1_1_1_1_1_69_1_1_56_1_344",
        "X_1_1_1_1_1_1_29_1_1_57_1_344",
        "X_1_1_1_1_1_1_70_1_1_58_1_344",
        "X_1_1_1_1_1_1_30_1_1_59_1_344",
        "X_1_1_1_1_1_1_71_1_1_60_1_344",
        "X_1_1_1_1_1_1_31_1_1_61_1_344",
        "X_1_1_1_1_1_1_72_1_1_62_1_344",
        "X_1_1_1_1_1_1_32_1_1_63_1_344",
        "X_1_1_1_1_1_1_73_1_1_64_1_344",
        "X_1_1_1_1_1_1_33_1_1_65_1_344",
        "X_1_1_1_1_1_1_74_1_1_66_1_344",
        "X_1_1_1_1_1_1_34_1_1_67_1_344",
        "X_1_1_1_1_1_1_75_1_1_68_1_344",
        "X_1_1_1_1_1_1_35_1_1_69_1_344",
        "X_1_1_1_1_1_1_76_1_1_70_1_344",
        "X_1_1_1_1_1_1_36_1_1_71_1_344",
        "X_1_1_1_1_1_1_77_1_1_72_1_344",
        "X_1_1_1_1_1_1_37_1_1_73_1_344",
        "X_1_1_1_1_1_1_78_1_1_74_1_344",
        "X_1_1_1_1_1_1_38_1_1_75_1_344",
        "X_1_1_1_1_1_1_79_1_1_76_1_344",
        "X_1_1_1_1_1_1_39_1_1_77_1_344",
        "X_1_1_1_1_1_1_80_1_1_78_1_344",
        "X_1_1_1_1_1_1_40_1_1_79_1_344",
        "X_1_1_1_1_1_1_81_1_1_80_1_344",
        "X_1_1_1_1_1_1_41_1_1_81_1_344"
],
      "CsaImage.ProtocolSliceNumber": [0, 1, 2, 3, 4, 5, 6, 7, 8, 9, 10, 11, 12, 13, 14, 15, 16, 17, 18, 19, 20, 21, 22, 23, 24, 25, 26, 27, 28, 29, 30, 31, 32, 33, 34, 35, 36, 37, 38, 39, 40, 41, 42, 43, 44, 45, 46, 47, 48, 49, 50, 51, 52, 53, 54, 55, 56, 57, 58, 59, 60, 61, 62, 63, 64, 65, 66, 67, 68, 69, 70, 71, 72, 73, 74, 75, 76, 77, 78, 79, 80],
      "CsaImage.RFSWDDataType": [
        "predicted",
        "predicted",
        "predicted",
        "predicted",
        "predicted",
        "predicted",
        "predicted",
        "predicted",
        "predicted",
        "predicted",
        "predicted",
        "predicted",
        "predicted",
        "predicted",
        "predicted",
        "predicted",
        "predicted",
        "predicted",
        "predicted",
        "predicted",
        "predicted",
        "predicted",
        "predicted",
        "measured",
        "predicted",
        "measured",
        "predicted",
        "predicted",
        "predicted",
        "predicted",
        "predicted",
        "predicted",
        "predicted",
        "predicted",
        "predicted",
        "predicted",
        "predicted",
        "predicted",
        "predicted",
        "predicted",
        "predicted",
        "predicted",
        "predicted",
        "predicted",
        "predicted",
        "predicted",
        "predicted",
        "predicted",
        "predicted",
        "predicted",
        "measured",
        "predicted",
        "measured",
        "predicted",
        "predicted",
        "predicted",
        "predicted",
        "predicted",
        "predicted",
        "predicted",
        "predicted",
        "predicted",
        "predicted",
        "predicted",
        "predicted",
        "predicted",
        "predicted",
        "predicted",
        "predicted",
        "predicted",
        "predicted",
        "predicted",
        "predicted",
        "predicted",
        "predicted",
        "predicted",
        "predicted",
        "measured",
        "predicted",
        "measured",
        "predicted"
],
      "CsaImage.SlicePosition_PCS": [
        [-120.51370685, -135.94413173, -92.30385248],
        [-120.54211871, -136.35791766, -90.65522425],
        [-120.57053034, -136.7717036, -89.00659601],
        [-120.59894221, -137.18549144, -87.35796778],
        [-120.62735407, -137.59927737, -85.70933954],
        [-120.6557657, -138.01306331, -84.06071131],
        [-120.68417756, -138.42685115, -82.41208689],
        [-120.71258943, -138.84063708, -80.76345865],
        [-120.74100106, -139.25442493, -79.11483042],
        [-120.76941292, -139.66821086, -77.46620218],
        [-120.79782455, -140.08199679, -75.81757395],
        [-120.82623641, -140.49578464, -74.16894571],
        [-120.85464828, -140.90957057, -72.52031748],
        [-120.88305991, -141.32335841, -70.87168925],
        [-120.91147177, -141.73714435, -69.22306482],
        [-120.93988364, -142.15093028, -67.57443659],
        [-120.96829526, -142.56471812, -65.92580836],
        [-120.99670713, -142.97850406, -64.27718012],
        [-121.02511899, -143.39228999, -62.62855189],
        [-121.05353062, -143.80607783, -60.97992556],
        [-121.08194248, -144.21986377, -59.33129732],
        [-121.11035435, -144.63365161, -57.68266909],
        [-121.13876598, -145.04743755, -56.03404085],
        [-121.16717784, -145.46122348, -54.38541453],
        [-121.19558947, -145.87501132, -52.73678629],
        [-121.22400133, -146.28879726, -51.08815806],
        [-121.2524132, -146.7025851, -49.43952982],
        [-121.28082483, -147.11637103, -47.79090349],
        [-121.30923669, -147.53015697, -46.14227526],
        [-121.33764856, -147.94394481, -44.49364702],
        [-121.36606018, -148.35773074, -42.84501974],
        [-121.39447205, -148.77151858, -41.19639246],
        [-121.42288391, -149.18530452, -39.54776423],
        [-121.45129554, -149.59909045, -37.89913647],
        [-121.47970741, -150.01287639, -36.25050871],
        [-121.50811927, -150.42666423, -34.60188119],
        [-121.5365309, -150.84045207, -32.95325343],
        [-121.56494276, -151.2542361, -31.30462573],
        [-121.59335463, -151.66802394, -29.65599804],
        [-121.62176626, -152.08181178, -28.0073704],
        [-121.65017812, -152.49559962, -26.35874264],
        [-121.67858975, -152.90938365, -24.71011488],
        [-121.70700161, -153.32317149, -23.06148665],
        [-121.73541348, -153.73695933, -21.41285937],
        [-121.7638251, -154.15074336, -19.76423208],
        [-121.79223697, -154.5645312, -18.11560385],
        [-121.82064884, -154.97831905, -16.46697657],
        [-121.84906046, -155.39210307, -14.81834833],
        [-121.87747233, -155.80589091, -13.1697201],
        [-121.90588419, -156.21967876, -11.52109377],
        [-121.93429582, -156.63346278, -9.87246554],
        [-121.96270745, -157.04725062, -8.2238373],
        [-121.99111931, -157.46103847, -6.57520907],
        [-122.01953118, -157.87482631, -4.92658274],
        [-122.04794304, -158.28861034, -3.2779545],
        [-122.07635491, -158.70239818, -1.62932627],
        [-122.10476677, -159.11618602, 0.01930006],
        [-122.13317816, -159.52997005, 1.6679302],
        [-122.16159003, -159.94375789, 3.31655462],
        [-122.19000189, -160.35754573, 4.96518286],
        [-122.21841376, -160.77132976, 6.61381109],
        [-122.24682562, -161.1851176, 8.26243933],
        [-122.27523701, -161.59890544, 9.91106756],
        [-122.30364888, -162.01268947, 11.5596958],
        [-122.33206074, -162.42647731, 13.20832403],
        [-122.36047261, -162.84026515, 14.85695226],
        [-122.38888447, -163.25405299, 16.50557669],
        [-122.41729634, -163.66783702, 18.15420492],
        [-122.44570772, -164.08162486, 19.80283315],
        [-122.47411959, -164.4954127, 21.45146139],
        [-122.50253146, -164.90919673, 23.10008962],
        [-122.53094332, -165.32298457, 24.74871786],
        [-122.55935519, -165.73677241, 26.39734609],
        [-122.58776705, -166.15055644, 28.04597051],
        [-122.61617844, -166.56434428, 29.69459875],
        [-122.6445903, -166.97813213, 31.34322698],
        [-122.67300217, -167.39191615, 32.99185903],
        [-122.70141403, -167.80570399, 34.64047964],
        [-122.7298259, -168.21949184, 36.28910787],
        [-122.75823729, -168.63327968, 37.93773611],
        [-122.78664915, -169.0470637, 39.58636434]
],
      "CsaImage.TimeAfterStart": [16.4, 18.515, 16.55, 18.665, 16.7025, 18.8175, 16.8525, 18.9675, 17.005, 19.12, 17.155, 19.27, 17.305, 19.4225, 17.4575, 19.5725, 17.6075, 19.725, 17.76, 19.875, 17.91, 20.025, 18.0625, 20.1775, 18.2125, 20.3275, 18.365, 16.4, 18.515, 16.55, 18.665, 16.7025, 18.8175, 16.8525, 18.9675, 17.005, 19.12, 17.155, 19.27, 17.305, 19.4225, 17.4575, 19.5725, 17.6075, 19.725, 17.76, 19.875, 17.91, 20.025, 18.0625, 20.1775, 18.2125, 20.3275, 18.365, 16.4, 18.515, 16.55, 18.665, 16.7025, 18.8175, 16.8525, 18.9675, 17.005, 19.12, 17.155, 19.27, 17.305, 19.4225, 17.4575, 19.5725, 17.6075, 19.725, 17.76, 19.875, 17.91, 20.025, 18.0625, 20.1775, 18.2125, 20.3275, 18.365],
      "ImagePositionPatient": [
        [-120.51370684906, -135.94413172842, -92.303852483583],
        [-120.5421187143, -136.35791766286, -90.655224248719],
        [-120.57053034111, -136.77170359731, -89.006596013856],
        [-120.59894220635, -137.18549143911, -87.357967778993],
        [-120.62735407158, -137.59927737356, -85.70933954413],
        [-120.6557656984, -138.01306330801, -84.060711309266],
        [-120.68417756363, -138.4268511498, -82.4120868891],
        [-120.71258942887, -138.84063708425, -80.763458654237],
        [-120.74100105568, -139.25442492605, -79.114830419374],
        [-120.76941292092, -139.6682108605, -77.46620218451],
        [-120.79782454773, -140.08199679494, -75.817573949647],
        [-120.82623641297, -140.49578463674, -74.168945714784],
        [-120.8546482782, -140.90957057119, -72.520317479921],
        [-120.88305990502, -141.32335841299, -70.871689245057],
        [-120.91147177025, -141.73714434743, -69.223064824891],
        [-120.93988363549, -142.15093028188, -67.574436590028],
        [-120.9682952623, -142.56471812368, -65.925808355165],
        [-120.99670712754, -142.97850405813, -64.277180120301],
        [-121.02511899277, -143.39228999258, -62.628551885438],
        [-121.05353061959, -143.80607783437, -60.979925557924],
        [-121.08194248482, -144.21986376882, -59.33129732306],
        [-121.11035435005, -144.63365161062, -57.682669088197],
        [-121.13876597687, -145.04743754507, -56.034040853334],
        [-121.1671778421, -145.46122347951, -54.385414525819],
        [-121.19558946892, -145.87501132131, -52.736786290956],
        [-121.22400133415, -146.28879725576, -51.088158056093],
        [-121.25241319939, -146.70258509756, -49.439529821229],
        [-121.2808248262, -147.11637103201, -47.790903493715],
        [-121.30923669144, -147.53015696645, -46.142275258851],
        [-121.33764855667, -147.94394480825, -44.493647023988],
        [-121.36606018349, -148.3577307427, -42.845019742799],
        [-121.39447204872, -148.7715185845, -41.19639246161],
        [-121.42288391396, -149.18530451894, -39.547764226747],
        [-121.45129554077, -149.59909045339, -37.899136468721],
        [-121.47970740601, -150.01287638784, -36.250508710695],
        [-121.50811927124, -150.42666422964, -34.601881191087],
        [-121.53653089806, -150.84045207143, -32.953253433061],
        [-121.56494276329, -151.25423609853, -31.304625734639],
        [-121.59335462853, -151.66802394033, -29.655998036218],
        [-121.62176625534, -152.08181178213, -28.007370397401],
        [-121.65017812058, -152.49559962392, -26.358742639375],
        [-121.67858974739, -152.90938365102, -24.710114881349],
        [-121.70700161263, -153.32317149282, -23.061486646486],
        [-121.73541347786, -153.73695933462, -21.412859365297],
        [-121.76382510468, -154.15074336172, -19.764232084108],
        [-121.79223696991, -154.56453120351, -18.115603849244],
        [-121.82064883515, -154.97831904531, -16.466976568055],
        [-121.84906046196, -155.39210307241, -14.818348333192],
        [-121.8774723272, -155.80589091421, -13.169720098329],
        [-121.90588419243, -156.219678756, -11.521093770814],
        [-121.93429581925, -156.6334627831, -9.8724655359509],
        [-121.96270744606, -157.0472506249, -8.2238373010876],
        [-121.9911193113, -157.4610384667, -6.5752090662243],
        [-122.01953117653, -157.87482630849, -4.9265827387097],
        [-122.04794304177, -158.28861033559, -3.2779545038464],
        [-122.076354907, -158.70239817739, -1.6293262689831],
        [-122.10476677223, -159.11618601919, 0.01930005853151],
        [-122.13317816063, -159.52997004629, 1.6679302007434],
        [-122.16159002587, -159.94375788808, 3.3165546209094],
        [-122.1900018911, -160.35754572988, 4.9651828557727],
        [-122.21841375633, -160.77132975698, 6.613811090636],
        [-122.24682562157, -161.18511759878, 8.2624393254993],
        [-122.27523700997, -161.59890544057, 9.9110675603626],
        [-122.3036488752, -162.01268946767, 11.559695795226],
        [-122.33206074043, -162.42647730947, 13.208324030089],
        [-122.36047260567, -162.84026515127, 14.856952264952],
        [-122.3888844709, -163.25405299306, 16.505576685118],
        [-122.41729633614, -163.66783702016, 18.154204919982],
        [-122.44570772454, -164.08162486196, 19.802833154845],
        [-122.47411958977, -164.49541270376, 21.451461389708],
        [-122.502531455, -164.90919673086, 23.100089624572],
        [-122.53094332024, -165.32298457265, 24.748717859435],
        [-122.55935518547, -165.73677241445, 26.397346094298],
        [-122.58776705071, -166.15055644155, 28.045970514464],
        [-122.6161784391, -166.56434428335, 29.694598749327],
        [-122.64459030434, -166.97813212514, 31.343226984191],
        [-122.67300216957, -167.39191615224, 32.991859033751],
        [-122.70141403481, -167.80570399404, 34.64047963922],
        [-122.72982590004, -168.21949183584, 36.289107874083],
        [-122.75823728844, -168.63327967764, 37.937736108947],
        [-122.78664915367, -169.04706370473, 39.58636434381]
],
      "InstanceCreationTime": ["203629.541000", "203629.626000", "203629.548000", "203629.633000", "203629.554000", "203629.648000", "203629.560000", "203629.656000", "203629.566000", "203629.663000", "203629.572000", "203629.670000", "203629.578000", "203629.677000", "203629.585000", "203629.684000", "203629.591000", "203629.690000", "203629.596000", "203629.697000", "203629.602000", "203629.703000", "203629.608000", "203629.709000", "203629.614000", "203629.716000", "203629.620000", "203629.544000", "203629.628000", "203629.550000", "203629.644000", "203629.556000", "203629.651000", "203629.562000", "203629.658000", "203629.568000", "203629.665000", "203629.574000", "203629.672000", "203629.580000", "203629.679000", "203629.587000", "203629.686000", "203629.593000", "203629.692000", "203629.598000", "203629.699000", "203629.604000", "203629.705000", "203629.610000", "203629.711000", "203629.616000", "203629.718000", "203629.622000", "203629.546000", "203629.630000", "203629.552000", "203629.646000", "203629.558000", "203629.654000", "203629.564000", "203629.661000", "203629.570000", "203629.668000", "203629.576000", "203629.675000", "203629.582000", "203629.682000", "203629.589000", "203629.688000", "203629.594000", "203629.695000", "203629.600000", "203629.701000", "203629.606000", "203629.707000", "203629.612000", "203629.713000", "203629.618000", "203629.720000", "203629.624000"],
      "InstanceNumber": [1, 2, 3, 4, 5, 6, 7, 8, 9, 10, 11, 12, 13, 14, 15, 16, 17, 18, 19, 20, 21, 22, 23, 24, 25, 26, 27, 28, 29, 30, 31, 32, 33, 34, 35, 36, 37, 38, 39, 40, 41, 42, 43, 44, 45, 46, 47, 48, 49, 50, 51, 52, 53, 54, 55, 56, 57, 58, 59, 60, 61, 62, 63, 64, 65, 66, 67, 68, 69, 70, 71, 72, 73, 74, 75, 76, 77, 78, 79, 80, 81],
      "LargestImagePixelValue": [28639, 24389, 16906, 14710, 14686, 16753, 17286, 21234, 21467, 38212, 34740, 27848, 31415, 44980, 51317, 43711, 31916, 32381, 32492, 39888, 41141, 43551, 54979, 65535, 65535, 44616, 46002, 48838, 45008, 48467, 41019, 42019, 47628, 45906, 47022, 40389, 32183, 29827, 35944, 37316, 35184, 35343, 39303, 53159, 44669, 50656, 62206, 54513, 47873, 49089, 51811, 58813, 57168, 55434, 58557, 40885, 43826, 40942, 50347, 60231, 52174, 57589, 54252, 52744, 44600, 38959, 46954, 56126, 65535, 53514, 53251, 54747, 49279, 48137, 65535, 65535, 65535, 48437, 52295, 65535, 65535],
      "SliceLocation": [-54.411064982144, -52.711064661432, -51.011064344705, -49.311063559737, -47.611063239025, -45.911062922297, -44.21106583675, -42.511065516038, -40.811064735054, -39.111064414342, -37.411064097615, -35.711063312647, -34.011062991935, -32.311062210951, -30.61106558966, -28.911065268948, -27.211064487965, -25.511064167253, -23.811063846541, -22.111064915268, -20.411064594556, -18.711063809587, -17.01106349286, -15.311065021858, -13.611064240875, -11.911063920163, -10.211063135195, -8.5110646681778, -6.8110643474658, -5.1110635624976, -3.4110641706255, -1.7110643105125, -0.0110639898005, 1.6889358644993, 3.3889357227837, 5.0889358141104, 6.7889361326663, 8.4889354688911, 10.188935733628, 11.888935936577, 13.588936259118, 15.288935649161, 16.98893643413, 18.688936294243, 20.388935221858, 22.088936006827, 23.78893586694, 25.488935719411, 27.188936504379, 28.888935439637, 30.588935292108, 32.288936073091, 33.98893685806, 35.688935793317, 37.388935649773, 39.088936434741, 40.788935369999, 42.488937068196, 44.188934153743, 45.888934938712, 47.588934795167, 49.288935580136, 50.988936357134, 52.68893621359, 54.388936998559, 56.088937783527, 57.788934869074, 59.48893472553, 61.188935502529, 62.888936287497, 64.588936143953, 66.288936928921, 67.988937713889, 69.688933870924, 71.388934647923, 73.088935432891, 74.788938988768, 76.488932374894, 78.188933159862, 79.888933936861, 81.588933793317],
