{
  "AcquisitionMatrixPE": 82,
  "AcquisitionNumber": 1,
  "AcquisitionTime": "09:25:10.107500",
  "BandwidthPerPixelPhaseEncode": 24.888,
  "BaseResolution": 82,
  "BodyPartExamined": "BRAIN",
  "ConsistencyInfo": "N4_VE11E_LATEST_20181129",
  "ConversionSoftware": "dcm2niix",
  "ConversionSoftwareVersion": "v1.0.20201102",
  "DerivedVendorReportedEchoSpacing": 0.00049,
  "DeviceSerialNumber": "66112",
  "DwellTime": 2e-06,
  "EchoTime": 0.0272,
  "EchoTrainLength": 82,
  "EffectiveEchoSpacing": 0.00049,
  "FlipAngle": 44,
  "ImageComments": "Unaliased MB8/PE3",
  "ImageOrientationPatientDICOM": [0.999764, -0.0128636, 0.0174977, 0.0125641, 0.999775, 0.0171185],
  "ImageType": [
    "ORIGINAL",
    "PRIMARY",
    "M",
    "MB",
    "ND",
    "NORM",
    "MOSAIC"
],
  "ImagingFrequency": 123.259,
  "InPlanePhaseEncodingDirectionDICOM": "COL",
  "InstitutionAddress": "Maynard 3,Hanover,NH,US,03755",
  "InstitutionName": "Dartmouth College - PBS",
  "InstitutionalDepartmentName": "Department",
  "MRAcquisitionType": "2D",
  "MagneticFieldStrength": 3,
  "Manufacturer": "Siemens",
  "ManufacturersModelName": "Prisma",
  "Modality": "MR",
  "MultibandAccelerationFactor": 8,
  "PartialFourier": 1,
  "PatientPosition": "HFS",
  "PercentPhaseFOV": 100,
  "PercentSampling": 100,
  "PhaseEncodingDirection": "j-",
  "PhaseEncodingSteps": 82,
  "PhaseResolution": 1,
  "PixelBandwidth": 3050,
  "ProcedureStepDescription": "Wager_Wager^1076_spacetop",
  "ProtocolName": "func_run-02_task-faces_acq-ap-mb8",
  "PulseSequenceDetails": "%CustomerSeq%\\cmrr_mbep2d_bold",
  "ReceiveCoilActiveElements": "HEA;HEP",
  "ReceiveCoilName": "Head_32",
  "ReconMatrixPE": 82,
  "RepetitionTime": 0.46,
  "SAR": 0.0808233,
  "ScanOptions": "FS",
  "ScanningSequence": "EP",
  "SequenceName": "epfid2d1_82",
  "SequenceVariant": "SK\\SS",
  "SeriesDescription": "func_run-02_task-faces_acq-ap-mb8",
  "SeriesNumber": 20,
  "ShimSetting": [4237, -7772, -7255, 232, -150, -238, -193, 91],
  "SliceThickness": 2.7,
  "SliceTiming": [0, 0.2525, 0.0625, 0.315, 0.1275, 0.3775, 0.19, 0, 0.2525, 0.0625, 0.315, 0.1275, 0.3775, 0.19, 0, 0.2525, 0.0625, 0.315, 0.1275, 0.3775, 0.19, 0, 0.2525, 0.0625, 0.315, 0.1275, 0.3775, 0.19, 0, 0.2525, 0.0625, 0.315, 0.1275, 0.3775, 0.19, 0, 0.2525, 0.0625, 0.315, 0.1275, 0.3775, 0.19, 0, 0.2525, 0.0625, 0.315, 0.1275, 0.3775, 0.19, 0, 0.2525, 0.0625, 0.315, 0.1275, 0.3775, 0.19],
  "SoftwareVersions": "syngo MR E11",
  "SpacingBetweenSlices": 2.7,
  "StationName": "AWP66112",
  "TaskName": "faces",
  "TotalReadoutTime": 0.03969,
  "TxRefAmp": 233.725,
  "WipMemBlock": "250f913f-f379-4467-b585-d04bc3573ec2||Sequence: R016 ve11e/master r/434b28f1; Aug  7 2019 18:53:46 by eja",
  "dcmmeta_affine": [
    [-2.6822941303253174, 0.033708520233631134, 0.047827817499637604, 110.62142944335938],
    [0.034511979669332504, 2.6823220252990723, 0.04561544209718704, -100.71012878417969],
    [0.046945177018642426, -0.04592765122652054, 2.699191093444824, -91.06159210205078],
    [0.0, 0.0, 0.0, 1.0]
],
  "dcmmeta_reorient_transform": [
    [0.0, -1.0, 0.0, 81.0],
    [1.0, 0.0, 0.0, 0.0],
    [0.0, 0.0, 1.0, 0.0],
    [0.0, 0.0, 0.0, 1.0]
],
  "dcmmeta_shape": [82, 82, 56, 914],
  "dcmmeta_slice_dim": 2,
  "dcmmeta_version": 0.6,
  "global": {
    "const": {
      "AccessionNumber": "A004321",
      "AcquisitionMatrix": [82, 0, 0, 82],
      "AngioFlag": "N",
      "BitsAllocated": 16,
      "BitsStored": 16,
      "BodyPartExamined": "BRAIN",
      "Columns": 656,
      "EchoNumbers": 1,
      "EchoTime": 27.2,
      "EchoTrainLength": 82,
      "FlipAngle": 44.0,
      "HighBit": 15,
      "ImageOrientationPatient": [0.9997641510808, -0.0128635560523, 0.01749774669423, 0.01256408390556, 0.99977452516523, 0.01711848784929],
      "ImagePositionPatient": [-892.84458030776, -876.47941665532, -121.43623274225],
      "ImageType": [
        "ORIGINAL",
        "PRIMARY",
        "M",
        "MB",
        "ND",
        "NORM",
        "MOSAIC"
],
      "ImagedNucleus": "1H",
      "ImagingFrequency": 123.259155,
      "InPlanePhaseEncodingDirection": "COL",
      "MRAcquisitionType": "2D",
      "MagneticFieldStrength": 3.0,
      "Manufacturer": "SIEMENS",
      "ManufacturerModelName": "Prisma",
      "Modality": "MR",
      "NumberOfAverages": 1.0,
      "NumberOfPhaseEncodingSteps": 82,
      "PercentPhaseFieldOfView": 100.0,
      "PercentSampling": 100.0,
      "PerformedProcedureStepStartTime": "082455.412000",
      "PhotometricInterpretation": "MONOCHROME2",
      "PixelBandwidth": 3050.0,
      "PixelRepresentation": 0,
      "PixelSpacing": [2.6829268932343, 2.6829268932343],
      "ProtocolName": "func_run-02_task-faces_acq-ap-mb8",
      "RepetitionTime": 460.0,
      "Rows": 656,
      "SAR": 0.08082328782505,
      "SamplesPerPixel": 1,
      "ScanOptions": "FS",
      "ScanningSequence": "EP",
      "SequenceName": "epfid2d1_82",
      "SequenceVariant": [
        "SK",
        "SS"
],
      "SeriesDescription": "func_run-02_task-faces_acq-ap-mb8",
      "SeriesNumber": 20,
      "SeriesTime": "092538.234000",
      "SliceLocation": -90.776214324153,
      "SliceThickness": 2.7000000476837,
      "SmallestImagePixelValue": 0,
      "SoftwareVersions": "syngo MR E11",
      "SpacingBetweenSlices": 2.700000066658,
      "SpecificCharacterSet": "ISO_IR 100",
      "StudyID": "2",
      "StudyTime": "082455.271000",
      "TransmitCoilName": "Body",
      "VariableFlipAngleFlag": "N",
      "WindowCenterWidthExplanation": "Algo1"
    },
    "slices": {}
  },
  "time": {
    "samples": {
      "AcquisitionNumber": [1, 2, 3, 4, 5, 6, 7, 8, 9, 10, 11, 12, 13, 14, 15, 16, 17, 18, 19, 20, 21, 22, 23, 24, 25, 26, 27, 28, 29, 30, 31, 32, 33, 34, 35, 36, 37, 38, 39, 40, 41, 42, 43, 44, 45, 46, 47, 48, 49, 50, 51, 52, 53, 54, 55, 56, 57, 58, 59, 60, 61, 62, 63, 64, 65, 66, 67, 68, 69, 70, 71, 72, 73, 74, 75, 76, 77, 78, 79, 80, 81, 82, 83, 84, 85, 86, 87, 88, 89, 90, 91, 92, 93, 94, 95, 96, 97, 98, 99, 100, 101, 102, 103, 104, 105, 106, 107, 108, 109, 110, 111, 112, 113, 114, 115, 116, 117, 118, 119, 120, 121, 122, 123, 124, 125, 126, 127, 128, 129, 130, 131, 132, 133, 134, 135, 136, 137, 138, 139, 140, 141, 142, 143, 144, 145, 146, 147, 148, 149, 150, 151, 152, 153, 154, 155, 156, 157, 158, 159, 160, 161, 162, 163, 164, 165, 166, 167, 168, 169, 170, 171, 172, 173, 174, 175, 176, 177, 178, 179, 180, 181, 182, 183, 184, 185, 186, 187, 188, 189, 190, 191, 192, 193, 194, 195, 196, 197, 198, 199, 200, 201, 202, 203, 204, 205, 206, 207, 208, 209, 210, 211, 212, 213, 214, 215, 216, 217, 218, 219, 220, 221, 222, 223, 224, 225, 226, 227, 228, 229, 230, 231, 232, 233, 234, 235, 236, 237, 238, 239, 240, 241, 242, 243, 244, 245, 246, 247, 248, 249, 250, 251, 252, 253, 254, 255, 256, 257, 258, 259, 260, 261, 262, 263, 264, 265, 266, 267, 268, 269, 270, 271, 272, 273, 274, 275, 276, 277, 278, 279, 280, 281, 282, 283, 284, 285, 286, 287, 288, 289, 290, 291, 292, 293, 294, 295, 296, 297, 298, 299, 300, 301, 302, 303, 304, 305, 306, 307, 308, 309, 310, 311, 312, 313, 314, 315, 316, 317, 318, 319, 320, 321, 322, 323, 324, 325, 326, 327, 328, 329, 330, 331, 332, 333, 334, 335, 336, 337, 338, 339, 340, 341, 342, 343, 344, 345, 346, 347, 348, 349, 350, 351, 352, 353, 354, 355, 356, 357, 358, 359, 360, 361, 362, 363, 364, 365, 366, 367, 368, 369, 370, 371, 372, 373, 374, 375, 376, 377, 378, 379, 380, 381, 382, 383, 384, 385, 386, 387, 388, 389, 390, 391, 392, 393, 394, 395, 396, 397, 398, 399, 400, 401, 402, 403, 404, 405, 406, 407, 408, 409, 410, 411, 412, 413, 414, 415, 416, 417, 418, 419, 420, 421, 422, 423, 424, 425, 426, 427, 428, 429, 430, 431, 432, 433, 434, 435, 436, 437, 438, 439, 440, 441, 442, 443, 444, 445, 446, 447, 448, 449, 450, 451, 452, 453, 454, 455, 456, 457, 458, 459, 460, 461, 462, 463, 464, 465, 466, 467, 468, 469, 470, 471, 472, 473, 474, 475, 476, 477, 478, 479, 480, 481, 482, 483, 484, 485, 486, 487, 488, 489, 490, 491, 492, 493, 494, 495, 496, 497, 498, 499, 500, 501, 502, 503, 504, 505, 506, 507, 508, 509, 510, 511, 512, 513, 514, 515, 516, 517, 518, 519, 520, 521, 522, 523, 524, 525, 526, 527, 528, 529, 530, 531, 532, 533, 534, 535, 536, 537, 538, 539, 540, 541, 542, 543, 544, 545, 546, 547, 548, 549, 550, 551, 552, 553, 554, 555, 556, 557, 558, 559, 560, 561, 562, 563, 564, 565, 566, 567, 568, 569, 570, 571, 572, 573, 574, 575, 576, 577, 578, 579, 580, 581, 582, 583, 584, 585, 586, 587, 588, 589, 590, 591, 592, 593, 594, 595, 596, 597, 598, 599, 600, 601, 602, 603, 604, 605, 606, 607, 608, 609, 610, 611, 612, 613, 614, 615, 616, 617, 618, 619, 620, 621, 622, 623, 624, 625, 626, 627, 628, 629, 630, 631, 632, 633, 634, 635, 636, 637, 638, 639, 640, 641, 642, 643, 644, 645, 646, 647, 648, 649, 650, 651, 652, 653, 654, 655, 656, 657, 658, 659, 660, 661, 662, 663, 664, 665, 666, 667, 668, 669, 670, 671, 672, 673, 674, 675, 676, 677, 678, 679, 680, 681, 682, 683, 684, 685, 686, 687, 688, 689, 690, 691, 692, 693, 694, 695, 696, 697, 698, 699, 700, 701, 702, 703, 704, 705, 706, 707, 708, 709, 710, 711, 712, 713, 714, 715, 716, 717, 718, 719, 720, 721, 722, 723, 724, 725, 726, 727, 728, 729, 730, 731, 732, 733, 734, 735, 736, 737, 738, 739, 740, 741, 742, 743, 744, 745, 746, 747, 748, 749, 750, 751, 752, 753, 754, 755, 756, 757, 758, 759, 760, 761, 762, 763, 764, 765, 766, 767, 768, 769, 770, 771, 772, 773, 774, 775, 776, 777, 778, 779, 780, 781, 782, 783, 784, 785, 786, 787, 788, 789, 790, 791, 792, 793, 794, 795, 796, 797, 798, 799, 800, 801, 802, 803, 804, 805, 806, 807, 808, 809, 810, 811, 812, 813, 814, 815, 816, 817, 818, 819, 820, 821, 822, 823, 824, 825, 826, 827, 828, 829, 830, 831, 832, 833, 834, 835, 836, 837, 838, 839, 840, 841, 842, 843, 844, 845, 846, 847, 848, 849, 850, 851, 852, 853, 854, 855, 856, 857, 858, 859, 860, 861, 862, 863, 864, 865, 866, 867, 868, 869, 870, 871, 872, 873, 874, 875, 876, 877, 878, 879, 880, 881, 882, 883, 884, 885, 886, 887, 888, 889, 890, 891, 892, 893, 894, 895, 896, 897, 898, 899, 900, 901, 902, 903, 904, 905, 906, 907, 908, 909, 910, 911, 912, 913, 914],
      "AcquisitionTime": ["092510.107500", "092510.567500", "092511.027500", "092511.487500", "092511.947500", "092512.407500", "092512.867500", "092513.327500", "092513.787500", "092514.247500", "092514.707500", "092515.167500", "092515.627500", "092516.087500", "092516.547500", "092517.007500", "092517.467500", "092517.927500", "092518.387500", "092518.847500", "092519.307500", "092519.767500", "092520.227500", "092520.687500", "092521.147500", "092521.607500", "092522.067500", "092522.527500", "092522.987500", "092523.447500", "092523.907500", "092524.367500", "092524.827500", "092525.287500", "092525.747500", "092526.207500", "092526.667500", "092527.127500", "092527.587500", "092528.047500", "092528.507500", "092528.967500", "092529.427500", "092529.887500", "092530.347500", "092530.807500", "092531.267500", "092531.727500", "092532.187500", "092532.647500", "092533.107500", "092533.567500", "092534.027500", "092534.487500", "092534.947500", "092535.407500", "092535.867500", "092536.327500", "092536.787500", "092537.247500", "092537.707500", "092538.167500", "092538.627500", "092539.087500", "092539.547500", "092540.007500", "092540.467500", "092540.927500", "092541.387500", "092541.847500", "092542.307500", "092542.767500", "092543.227500", "092543.687500", "092544.147500", "092544.607500", "092545.067500", "092545.527500", "092545.987500", "092546.447500", "092546.907500", "092547.367500", "092547.827500", "092548.287500", "092548.747500", "092549.207500", "092549.667500", "092550.127500", "092550.587500", "092551.047500", "092551.507500", "092551.967500", "092552.427500", "092552.887500", "092553.347500", "092553.807500", "092554.267500", "092554.727500", "092555.187500", "092555.647500", "092556.107500", "092556.567500", "092557.027500", "092557.487500", "092557.947500", "092558.407500", "092558.867500", "092559.327500", "092559.787500", "092600.247500", "092600.707500", "092601.167500", "092601.627500", "092602.087500", "092602.547500", "092603.007500", "092603.467500", "092603.927500", "092604.387500", "092604.847500", "092605.307500", "092605.767500", "092606.227500", "092606.687500", "092607.147500", "092607.607500", "092608.067500", "092608.527500", "092608.987500", "092609.447500", "092609.907500", "092610.367500", "092610.827500", "092611.287500", "092611.747500", "092612.207500", "092612.667500", "092613.127500", "092613.587500", "092614.047500", "092614.507500", "092614.967500", "092615.427500", "092615.887500", "092616.347500", "092616.807500", "092617.267500", "092617.727500", "092618.187500", "092618.647500", "092619.107500", "092619.567500", "092620.027500", "092620.487500", "092620.947500", "092621.407500", "092621.867500", "092622.327500", "092622.787500", "092623.247500", "092623.707500", "092624.167500", "092624.627500", "092625.087500", "092625.547500", "092626.007500", "092626.467500", "092626.927500", "092627.387500", "092627.847500", "092628.307500", "092628.767500", "092629.227500", "092629.687500", "092630.147500", "092630.607500", "092631.067500", "092631.527500", "092631.987500", "092632.447500", "092632.907500", "092633.367500", "092633.827500", "092634.287500", "092634.747500", "092635.207500", "092635.667500", "092636.127500", "092636.587500", "092637.047500", "092637.507500", "092637.967500", "092638.427500", "092638.887500", "092639.347500", "092639.807500", "092640.267500", "092640.727500", "092641.187500", "092641.647500", "092642.107500", "092642.567500", "092643.027500", "092643.487500", "092643.947500", "092644.407500", "092644.867500", "092645.327500", "092645.787500", "092646.247500", "092646.707500", "092647.167500", "092647.627500", "092648.087500", "092648.547500", "092649.007500", "092649.467500", "092649.927500", "092650.387500", "092650.847500", "092651.307500", "092651.767500", "092652.227500", "092652.687500", "092653.147500", "092653.607500", "092654.067500", "092654.527500", "092654.987500", "092655.447500", "092655.907500", "092656.367500", "092656.827500", "092657.287500", "092657.747500", "092658.207500", "092658.667500", "092659.127500", "092659.587500", "092700.047500", "092700.507500", "092700.967500", "092701.427500", "092701.887500", "092702.347500", "092702.807500", "092703.267500", "092703.727500", "092704.187500", "092704.647500", "092705.107500", "092705.567500", "092706.027500", "092706.487500", "092706.947500", "092707.407500", "092707.867500", "092708.327500", "092708.787500", "092709.247500", "092709.707500", "092710.167500", "092710.627500", "092711.087500", "092711.547500", "092712.007500", "092712.467500", "092712.927500", "092713.387500", "092713.847500", "092714.307500", "092714.767500", "092715.227500", "092715.687500", "092716.147500", "092716.607500", "092717.067500", "092717.527500", "092717.987500", "092718.447500", "092718.907500", "092719.367500", "092719.827500", "092720.287500", "092720.747500", "092721.207500", "092721.667500", "092722.127500", "092722.587500", "092723.047500", "092723.507500", "092723.967500", "092724.427500", "092724.887500", "092725.347500", "092725.807500", "092726.267500", "092726.727500", "092727.187500", "092727.647500", "092728.107500", "092728.567500", "092729.027500", "092729.487500", "092729.947500", "092730.407500", "092730.867500", "092731.327500", "092731.787500", "092732.247500", "092732.707500", "092733.167500", "092733.627500", "092734.087500", "092734.547500", "092735.007500", "092735.467500", "092735.927500", "092736.387500", "092736.847500", "092737.307500", "092737.767500", "092738.227500", "092738.687500", "092739.147500", "092739.607500", "092740.067500", "092740.527500", "092740.987500", "092741.447500", "092741.907500", "092742.367500", "092742.827500", "092743.287500", "092743.747500", "092744.207500", "092744.667500", "092745.127500", "092745.587500", "092746.047500", "092746.507500", "092746.967500", "092747.427500", "092747.887500", "092748.347500", "092748.807500", "092749.267500", "092749.727500", "092750.187500", "092750.647500", "092751.107500", "092751.567500", "092752.027500", "092752.487500", "092752.947500", "092753.407500", "092753.867500", "092754.327500", "092754.787500", "092755.247500", "092755.707500", "092756.167500", "092756.627500", "092757.087500", "092757.547500", "092758.007500", "092758.467500", "092758.927500", "092759.387500", "092759.847500", "092800.307500", "092800.767500", "092801.227500", "092801.687500", "092802.147500", "092802.607500", "092803.067500", "092803.527500", "092803.987500", "092804.447500", "092804.907500", "092805.367500", "092805.827500", "092806.287500", "092806.747500", "092807.207500", "092807.667500", "092808.127500", "092808.587500", "092809.047500", "092809.507500", "092809.967500", "092810.427500", "092810.887500", "092811.347500", "092811.807500", "092812.267500", "092812.727500", "092813.187500", "092813.647500", "092814.107500", "092814.567500", "092815.027500", "092815.487500", "092815.947500", "092816.407500", "092816.867500", "092817.327500", "092817.787500", "092818.247500", "092818.707500", "092819.167500", "092819.627500", "092820.087500", "092820.547500", "092821.007500", "092821.467500", "092821.927500", "092822.387500", "092822.847500", "092823.307500", "092823.767500", "092824.227500", "092824.687500", "092825.147500", "092825.607500", "092826.067500", "092826.527500", "092826.987500", "092827.447500", "092827.907500", "092828.367500", "092828.827500", "092829.287500", "092829.747500", "092830.207500", "092830.667500", "092831.127500", "092831.587500", "092832.047500", "092832.507500", "092832.967500", "092833.427500", "092833.887500", "092834.347500", "092834.807500", "092835.267500", "092835.727500", "092836.187500", "092836.647500", "092837.107500", "092837.567500", "092838.027500", "092838.487500", "092838.947500", "092839.407500", "092839.867500", "092840.327500", "092840.787500", "092841.247500", "092841.707500", "092842.167500", "092842.627500", "092843.087500", "092843.547500", "092844.007500", "092844.467500", "092844.927500", "092845.387500", "092845.847500", "092846.307500", "092846.767500", "092847.227500", "092847.687500", "092848.147500", "092848.607500", "092849.067500", "092849.527500", "092849.987500", "092850.447500", "092850.907500", "092851.367500", "092851.827500", "092852.287500", "092852.747500", "092853.207500", "092853.667500", "092854.127500", "092854.587500", "092855.047500", "092855.507500", "092855.967500", "092856.427500", "092856.887500", "092857.347500", "092857.807500", "092858.267500", "092858.727500", "092859.187500", "092859.647500", "092900.107500", "092900.567500", "092901.027500", "092901.487500", "092901.947500", "092902.407500", "092902.867500", "092903.327500", "092903.787500", "092904.247500", "092904.707500", "092905.167500", "092905.627500", "092906.087500", "092906.547500", "092907.007500", "092907.467500", "092907.927500", "092908.387500", "092908.847500", "092909.307500", "092909.767500", "092910.227500", "092910.687500", "092911.147500", "092911.607500", "092912.067500", "092912.527500", "092912.987500", "092913.447500", "092913.907500", "092914.367500", "092914.827500", "092915.287500", "092915.747500", "092916.207500", "092916.667500", "092917.127500", "092917.587500", "092918.047500", "092918.507500", "092918.967500", "092919.427500", "092919.887500", "092920.347500", "092920.807500", "092921.267500", "092921.727500", "092922.187500", "092922.647500", "092923.107500", "092923.567500", "092924.027500", "092924.487500", "092924.947500", "092925.407500", "092925.867500", "092926.327500", "092926.787500", "092927.247500", "092927.707500", "092928.167500", "092928.627500", "092929.087500", "092929.547500", "092930.007500", "092930.467500", "092930.927500", "092931.387500", "092931.847500", "092932.307500", "092932.767500", "092933.227500", "092933.687500", "092934.147500", "092934.607500", "092935.067500", "092935.527500", "092935.987500", "092936.447500", "092936.907500", "092937.367500", "092937.827500", "092938.287500", "092938.747500", "092939.207500", "092939.667500", "092940.127500", "092940.587500", "092941.047500", "092941.507500", "092941.967500", "092942.427500", "092942.887500", "092943.347500", "092943.807500", "092944.267500", "092944.727500", "092945.187500", "092945.647500", "092946.107500", "092946.567500", "092947.027500", "092947.487500", "092947.947500", "092948.407500", "092948.867500", "092949.327500", "092949.787500", "092950.247500", "092950.707500", "092951.167500", "092951.627500", "092952.087500", "092952.547500", "092953.007500", "092953.467500", "092953.927500", "092954.387500", "092954.847500", "092955.307500", "092955.767500", "092956.227500", "092956.687500", "092957.147500", "092957.607500", "092958.067500", "092958.527500", "092958.987500", "092959.447500", "092959.907500", "093000.367500", "093000.827500", "093001.287500", "093001.747500", "093002.207500", "093002.667500", "093003.127500", "093003.587500", "093004.047500", "093004.507500", "093004.967500", "093005.427500", "093005.887500", "093006.347500", "093006.807500", "093007.267500", "093007.727500", "093008.187500", "093008.647500", "093009.107500", "093009.567500", "093010.027500", "093010.487500", "093010.947500", "093011.407500", "093011.867500", "093012.327500", "093012.787500", "093013.247500", "093013.707500", "093014.167500", "093014.627500", "093015.087500", "093015.547500", "093016.007500", "093016.467500", "093016.927500", "093017.387500", "093017.847500", "093018.307500", "093018.767500", "093019.227500", "093019.687500", "093020.147500", "093020.607500", "093021.067500", "093021.527500", "093021.987500", "093022.447500", "093022.907500", "093023.367500", "093023.827500", "093024.287500", "093024.747500", "093025.207500", "093025.667500", "093026.127500", "093026.587500", "093027.047500", "093027.507500", "093027.967500", "093028.427500", "093028.887500", "093029.347500", "093029.807500", "093030.267500", "093030.727500", "093031.187500", "093031.647500", "093032.107500", "093032.567500", "093033.027500", "093033.487500", "093033.947500", "093034.407500", "093034.867500", "093035.327500", "093035.787500", "093036.247500", "093036.707500", "093037.167500", "093037.627500", "093038.087500", "093038.547500", "093039.007500", "093039.467500", "093039.927500", "093040.387500", "093040.847500", "093041.307500", "093041.767500", "093042.227500", "093042.687500", "093043.147500", "093043.607500", "093044.067500", "093044.527500", "093044.987500", "093045.447500", "093045.907500", "093046.367500", "093046.827500", "093047.287500", "093047.747500", "093048.207500", "093048.667500", "093049.127500", "093049.587500", "093050.047500", "093050.507500", "093050.967500", "093051.427500", "093051.887500", "093052.347500", "093052.807500", "093053.267500", "093053.727500", "093054.187500", "093054.647500", "093055.107500", "093055.567500", "093056.027500", "093056.487500", "093056.947500", "093057.407500", "093057.867500", "093058.327500", "093058.787500", "093059.247500", "093059.707500", "093100.167500", "093100.627500", "093101.087500", "093101.547500", "093102.007500", "093102.467500", "093102.927500", "093103.387500", "093103.847500", "093104.307500", "093104.767500", "093105.227500", "093105.687500", "093106.147500", "093106.607500", "093107.067500", "093107.527500", "093107.987500", "093108.447500", "093108.907500", "093109.367500", "093109.827500", "093110.287500", "093110.747500", "093111.207500", "093111.667500", "093112.127500", "093112.587500", "093113.047500", "093113.507500", "093113.967500", "093114.427500", "093114.887500", "093115.347500", "093115.807500", "093116.267500", "093116.727500", "093117.187500", "093117.647500", "093118.107500", "093118.567500", "093119.027500", "093119.487500", "093119.947500", "093120.407500", "093120.867500", "093121.327500", "093121.787500", "093122.247500", "093122.707500", "093123.167500", "093123.627500", "093124.087500", "093124.547500", "093125.007500", "093125.467500", "093125.927500", "093126.387500", "093126.847500", "093127.307500", "093127.767500", "093128.227500", "093128.687500", "093129.147500", "093129.607500", "093130.067500", "093130.527500", "093130.987500", "093131.447500", "093131.907500", "093132.367500", "093132.827500", "093133.287500", "093133.747500", "093134.207500", "093134.667500", "093135.127500", "093135.587500", "093136.047500", "093136.507500", "093136.967500", "093137.427500", "093137.887500", "093138.347500", "093138.807500", "093139.267500", "093139.727500", "093140.187500", "093140.647500", "093141.107500", "093141.567500", "093142.027500", "093142.487500", "093142.947500", "093143.407500", "093143.867500", "093144.327500", "093144.787500", "093145.247500", "093145.707500", "093146.167500", "093146.627500", "093147.087500", "093147.547500", "093148.007500", "093148.467500", "093148.927500", "093149.387500", "093149.847500", "093150.307500", "093150.767500", "093151.227500", "093151.687500", "093152.147500", "093152.607500", "093153.067500", "093153.527500", "093153.987500", "093154.447500", "093154.907500", "093155.367500", "093155.827500", "093156.287500", "093156.747500", "093157.207500", "093157.667500", "093158.127500", "093158.587500", "093159.047500", "093159.507500", "093159.967500", "093200.427500", "093200.887500", "093201.347500", "093201.807500", "093202.267500", "093202.727500", "093203.187500", "093203.647500", "093204.107500", "093204.567500", "093205.027500", "093205.487500", "093205.947500", "093206.407500", "093206.867500", "093207.327500", "093207.787500", "093208.247500", "093208.707500", "093209.167500", "093209.627500", "093210.087500"],
