{
  "AcquisitionMatrixPE": 82,
  "AcquisitionNumber": 1,
  "AcquisitionTime": "09:42:6.632500",
  "BandwidthPerPixelPhaseEncode": 24.888,
  "BaseResolution": 82,
  "BodyPartExamined": "BRAIN",
  "ConsistencyInfo": "N4_VE11E_LATEST_20181129",
  "ConversionSoftware": "dcm2niix",
  "ConversionSoftwareVersion": "v1.0.20201102",
  "DerivedVendorReportedEchoSpacing": 0.00049,
  "DeviceSerialNumber": "66112",
  "DwellTime": 2e-06,
  "EchoTime": 0.0272,
  "EchoTrainLength": 82,
  "EffectiveEchoSpacing": 0.00049,
  "FlipAngle": 44,
  "ImageComments": "Unaliased MB8/PE3",
  "ImageOrientationPatientDICOM": [0.9998, 0.00387786, 0.0196281, -0.003839, 0.999991, -0.00201697],
  "ImageType": [
    "ORIGINAL",
    "PRIMARY",
    "M",
    "MB",
    "ND",
    "NORM",
    "MOSAIC"
],
  "ImagingFrequency": 123.259,
  "InPlanePhaseEncodingDirectionDICOM": "COL",
  "InstitutionAddress": "Maynard 3,Hanover,NH,US,03755",
  "InstitutionName": "Dartmouth College - PBS",
  "InstitutionalDepartmentName": "Department",
  "MRAcquisitionType": "2D",
  "MagneticFieldStrength": 3,
  "Manufacturer": "Siemens",
  "ManufacturersModelName": "Prisma",
  "Modality": "MR",
  "MultibandAccelerationFactor": 8,
  "PartialFourier": 1,
  "PatientPosition": "HFS",
  "PercentPhaseFOV": 100,
  "PercentSampling": 100,
  "PhaseEncodingDirection": "j-",
  "PhaseEncodingSteps": 82,
  "PhaseResolution": 1,
  "PixelBandwidth": 3050,
  "ProcedureStepDescription": "Wager_Wager^1076_spacetop",
  "ProtocolName": "func_run-01_task-alignvideo_acq-ap-mb8",
  "PulseSequenceDetails": "%CustomerSeq%\\cmrr_mbep2d_bold",
  "ReceiveCoilActiveElements": "HEA;HEP",
  "ReceiveCoilName": "Head_32",
  "ReconMatrixPE": 82,
  "RepetitionTime": 0.46,
  "SAR": 0.0807805,
  "ScanOptions": "FS",
  "ScanningSequence": "EP",
  "SequenceName": "epfid2d1_82",
  "SequenceVariant": "SK\\SS",
  "SeriesDescription": "func_run-01_task-alignvideo_acq-ap-mb8",
  "SeriesNumber": 30,
  "ShimSetting": [4238, -7774, -7257, 231, -152, -265, -191, 92],
  "SliceThickness": 2.7,
  "SliceTiming": [0, 0.2525, 0.0625, 0.315, 0.125, 0.3775, 0.19, 0, 0.2525, 0.0625, 0.315, 0.125, 0.3775, 0.19, 0, 0.2525, 0.0625, 0.315, 0.125, 0.3775, 0.19, 0, 0.2525, 0.0625, 0.315, 0.125, 0.3775, 0.19, 0, 0.2525, 0.0625, 0.315, 0.125, 0.3775, 0.19, 0, 0.2525, 0.0625, 0.315, 0.125, 0.3775, 0.19, 0, 0.2525, 0.0625, 0.315, 0.125, 0.3775, 0.19, 0, 0.2525, 0.0625, 0.315, 0.125, 0.3775, 0.19],
  "SoftwareVersions": "syngo MR E11",
  "SpacingBetweenSlices": 2.7,
  "StationName": "AWP66112",
  "TaskName": "alignvideo",
  "TotalReadoutTime": 0.03969,
  "TxRefAmp": 233.725,
  "WipMemBlock": "f6bbca4e-6d3c-4250-a5d6-e59d0c0137aa||Sequence: R016 ve11e/master r/434b28f1; Aug  7 2019 18:53:46 by eja",
  "dcmmeta_affine": [
    [-2.682389736175537, -0.010299768298864365, 0.053016409277915955, 111.30838775634766],
    [-0.010404019616544247, 2.682901620864868, -0.005241283681243658, -98.94207000732422],
    [0.05266067758202553, 0.005411388818174601, 2.699474334716797, -99.60868835449219],
    [0.0, 0.0, 0.0, 1.0]
],
  "dcmmeta_reorient_transform": [
    [0.0, -1.0, 0.0, 81.0],
    [1.0, 0.0, 0.0, 0.0],
    [0.0, 0.0, 1.0, 0.0],
    [0.0, 0.0, 0.0, 1.0]
],
  "dcmmeta_shape": [82, 82, 56, 839],
  "dcmmeta_slice_dim": 2,
  "dcmmeta_version": 0.6,
  "global": {
    "const": {
      "AccessionNumber": "A004321",
      "AcquisitionMatrix": [82, 0, 0, 82],
      "AngioFlag": "N",
      "BitsAllocated": 16,
      "BitsStored": 16,
      "BodyPartExamined": "BRAIN",
      "Columns": 656,
      "EchoNumbers": 1,
      "EchoTime": 27.2,
      "EchoTrainLength": 82,
      "FlipAngle": 44.0,
      "HighBit": 15,
      "ImageOrientationPatient": [0.99979983049166, 0.00387786183407, 0.01962807011519, -0.0038390045499, 0.99999059688939, -0.0020169722043],
      "ImagePositionPatient": [-877.36396285401, -891.35169344195, -112.7309131986],
      "ImageType": [
        "ORIGINAL",
        "PRIMARY",
        "M",
        "MB",
        "ND",
        "NORM",
        "MOSAIC"
],
      "ImagedNucleus": "1H",
      "ImagingFrequency": 123.25916,
      "InPlanePhaseEncodingDirection": "COL",
      "MRAcquisitionType": "2D",
      "MagneticFieldStrength": 3.0,
      "Manufacturer": "SIEMENS",
      "ManufacturerModelName": "Prisma",
      "Modality": "MR",
      "NumberOfAverages": 1.0,
      "NumberOfPhaseEncodingSteps": 82,
      "PercentPhaseFieldOfView": 100.0,
      "PercentSampling": 100.0,
      "PerformedProcedureStepStartTime": "082455.412000",
      "PhotometricInterpretation": "MONOCHROME2",
      "PixelBandwidth": 3050.0,
      "PixelRepresentation": 0,
      "PixelSpacing": [2.6829268932343, 2.6829268932343],
      "ProtocolName": "func_run-01_task-alignvideo_acq-ap-mb8",
      "RepetitionTime": 460.0,
      "Rows": 656,
      "SAR": 0.08078051943179,
      "SamplesPerPixel": 1,
      "ScanOptions": "FS",
      "ScanningSequence": "EP",
      "SequenceName": "epfid2d1_82",
      "SequenceVariant": [
        "SK",
        "SS"
],
      "SeriesDescription": "func_run-01_task-alignvideo_acq-ap-mb8",
      "SeriesNumber": 30,
      "SeriesTime": "094218.147000",
      "SliceLocation": -97.21161091474,
      "SliceThickness": 2.7000000476837,
      "SmallestImagePixelValue": 0,
      "SoftwareVersions": "syngo MR E11",
      "SpacingBetweenSlices": 2.7000000498362,
      "SpecificCharacterSet": "ISO_IR 100",
      "StudyID": "2",
      "StudyTime": "082455.271000",
      "TransmitCoilName": "Body",
      "VariableFlipAngleFlag": "N",
      "WindowCenterWidthExplanation": "Algo1"
    },
    "slices": {}
  },
  "time": {
    "samples": {
      "AcquisitionNumber": [1, 2, 3, 4, 5, 6, 7, 8, 9, 10, 11, 12, 13, 14, 15, 16, 17, 18, 19, 20, 21, 22, 23, 24, 25, 26, 27, 28, 29, 30, 31, 32, 33, 34, 35, 36, 37, 38, 39, 40, 41, 42, 43, 44, 45, 46, 47, 48, 49, 50, 51, 52, 53, 54, 55, 56, 57, 58, 59, 60, 61, 62, 63, 64, 65, 66, 67, 68, 69, 70, 71, 72, 73, 74, 75, 76, 77, 78, 79, 80, 81, 82, 83, 84, 85, 86, 87, 88, 89, 90, 91, 92, 93, 94, 95, 96, 97, 98, 99, 100, 101, 102, 103, 104, 105, 106, 107, 108, 109, 110, 111, 112, 113, 114, 115, 116, 117, 118, 119, 120, 121, 122, 123, 124, 125, 126, 127, 128, 129, 130, 131, 132, 133, 134, 135, 136, 137, 138, 139, 140, 141, 142, 143, 144, 145, 146, 147, 148, 149, 150, 151, 152, 153, 154, 155, 156, 157, 158, 159, 160, 161, 162, 163, 164, 165, 166, 167, 168, 169, 170, 171, 172, 173, 174, 175, 176, 177, 178, 179, 180, 181, 182, 183, 184, 185, 186, 187, 188, 189, 190, 191, 192, 193, 194, 195, 196, 197, 198, 199, 200, 201, 202, 203, 204, 205, 206, 207, 208, 209, 210, 211, 212, 213, 214, 215, 216, 217, 218, 219, 220, 221, 222, 223, 224, 225, 226, 227, 228, 229, 230, 231, 232, 233, 234, 235, 236, 237, 238, 239, 240, 241, 242, 243, 244, 245, 246, 247, 248, 249, 250, 251, 252, 253, 254, 255, 256, 257, 258, 259, 260, 261, 262, 263, 264, 265, 266, 267, 268, 269, 270, 271, 272, 273, 274, 275, 276, 277, 278, 279, 280, 281, 282, 283, 284, 285, 286, 287, 288, 289, 290, 291, 292, 293, 294, 295, 296, 297, 298, 299, 300, 301, 302, 303, 304, 305, 306, 307, 308, 309, 310, 311, 312, 313, 314, 315, 316, 317, 318, 319, 320, 321, 322, 323, 324, 325, 326, 327, 328, 329, 330, 331, 332, 333, 334, 335, 336, 337, 338, 339, 340, 341, 342, 343, 344, 345, 346, 347, 348, 349, 350, 351, 352, 353, 354, 355, 356, 357, 358, 359, 360, 361, 362, 363, 364, 365, 366, 367, 368, 369, 370, 371, 372, 373, 374, 375, 376, 377, 378, 379, 380, 381, 382, 383, 384, 385, 386, 387, 388, 389, 390, 391, 392, 393, 394, 395, 396, 397, 398, 399, 400, 401, 402, 403, 404, 405, 406, 407, 408, 409, 410, 411, 412, 413, 414, 415, 416, 417, 418, 419, 420, 421, 422, 423, 424, 425, 426, 427, 428, 429, 430, 431, 432, 433, 434, 435, 436, 437, 438, 439, 440, 441, 442, 443, 444, 445, 446, 447, 448, 449, 450, 451, 452, 453, 454, 455, 456, 457, 458, 459, 460, 461, 462, 463, 464, 465, 466, 467, 468, 469, 470, 471, 472, 473, 474, 475, 476, 477, 478, 479, 480, 481, 482, 483, 484, 485, 486, 487, 488, 489, 490, 491, 492, 493, 494, 495, 496, 497, 498, 499, 500, 501, 502, 503, 504, 505, 506, 507, 508, 509, 510, 511, 512, 513, 514, 515, 516, 517, 518, 519, 520, 521, 522, 523, 524, 525, 526, 527, 528, 529, 530, 531, 532, 533, 534, 535, 536, 537, 538, 539, 540, 541, 542, 543, 544, 545, 546, 547, 548, 549, 550, 551, 552, 553, 554, 555, 556, 557, 558, 559, 560, 561, 562, 563, 564, 565, 566, 567, 568, 569, 570, 571, 572, 573, 574, 575, 576, 577, 578, 579, 580, 581, 582, 583, 584, 585, 586, 587, 588, 589, 590, 591, 592, 593, 594, 595, 596, 597, 598, 599, 600, 601, 602, 603, 604, 605, 606, 607, 608, 609, 610, 611, 612, 613, 614, 615, 616, 617, 618, 619, 620, 621, 622, 623, 624, 625, 626, 627, 628, 629, 630, 631, 632, 633, 634, 635, 636, 637, 638, 639, 640, 641, 642, 643, 644, 645, 646, 647, 648, 649, 650, 651, 652, 653, 654, 655, 656, 657, 658, 659, 660, 661, 662, 663, 664, 665, 666, 667, 668, 669, 670, 671, 672, 673, 674, 675, 676, 677, 678, 679, 680, 681, 682, 683, 684, 685, 686, 687, 688, 689, 690, 691, 692, 693, 694, 695, 696, 697, 698, 699, 700, 701, 702, 703, 704, 705, 706, 707, 708, 709, 710, 711, 712, 713, 714, 715, 716, 717, 718, 719, 720, 721, 722, 723, 724, 725, 726, 727, 728, 729, 730, 731, 732, 733, 734, 735, 736, 737, 738, 739, 740, 741, 742, 743, 744, 745, 746, 747, 748, 749, 750, 751, 752, 753, 754, 755, 756, 757, 758, 759, 760, 761, 762, 763, 764, 765, 766, 767, 768, 769, 770, 771, 772, 773, 774, 775, 776, 777, 778, 779, 780, 781, 782, 783, 784, 785, 786, 787, 788, 789, 790, 791, 792, 793, 794, 795, 796, 797, 798, 799, 800, 801, 802, 803, 804, 805, 806, 807, 808, 809, 810, 811, 812, 813, 814, 815, 816, 817, 818, 819, 820, 821, 822, 823, 824, 825, 826, 827, 828, 829, 830, 831, 832, 833, 834, 835, 836, 837, 838, 839],
      "AcquisitionTime": ["094206.632500", "094207.092500", "094207.552500", "094208.012500", "094208.472500", "094208.932500", "094209.392500", "094209.852500", "094210.312500", "094210.772500", "094211.232500", "094211.692500", "094212.152500", "094212.612500", "094213.072500", "094213.532500", "094213.992500", "094214.452500", "094214.912500", "094215.372500", "094215.832500", "094216.292500", "094216.752500", "094217.212500", "094217.672500", "094218.132500", "094218.592500", "094219.052500", "094219.512500", "094219.972500", "094220.432500", "094220.892500", "094221.352500", "094221.812500", "094222.272500", "094222.732500", "094223.192500", "094223.652500", "094224.112500", "094224.572500", "094225.032500", "094225.492500", "094225.952500", "094226.412500", "094226.872500", "094227.332500", "094227.792500", "094228.252500", "094228.712500", "094229.172500", "094229.632500", "094230.092500", "094230.552500", "094231.012500", "094231.472500", "094231.932500", "094232.392500", "094232.852500", "094233.312500", "094233.772500", "094234.232500", "094234.692500", "094235.152500", "094235.612500", "094236.072500", "094236.532500", "094236.992500", "094237.452500", "094237.912500", "094238.372500", "094238.832500", "094239.292500", "094239.752500", "094240.212500", "094240.672500", "094241.132500", "094241.592500", "094242.052500", "094242.512500", "094242.972500", "094243.432500", "094243.892500", "094244.352500", "094244.812500", "094245.272500", "094245.732500", "094246.192500", "094246.652500", "094247.112500", "094247.572500", "094248.032500", "094248.492500", "094248.952500", "094249.412500", "094249.872500", "094250.332500", "094250.792500", "094251.252500", "094251.712500", "094252.172500", "094252.632500", "094253.092500", "094253.552500", "094254.012500", "094254.472500", "094254.932500", "094255.392500", "094255.852500", "094256.312500", "094256.772500", "094257.232500", "094257.692500", "094258.152500", "094258.612500", "094259.072500", "094259.532500", "094259.992500", "094300.452500", "094300.912500", "094301.372500", "094301.832500", "094302.292500", "094302.752500", "094303.212500", "094303.672500", "094304.132500", "094304.592500", "094305.052500", "094305.512500", "094305.972500", "094306.432500", "094306.892500", "094307.352500", "094307.812500", "094308.272500", "094308.732500", "094309.192500", "094309.652500", "094310.112500", "094310.572500", "094311.032500", "094311.492500", "094311.952500", "094312.412500", "094312.872500", "094313.332500", "094313.792500", "094314.252500", "094314.712500", "094315.172500", "094315.632500", "094316.092500", "094316.552500", "094317.012500", "094317.472500", "094317.932500", "094318.392500", "094318.852500", "094319.312500", "094319.772500", "094320.232500", "094320.692500", "094321.152500", "094321.612500", "094322.072500", "094322.532500", "094322.992500", "094323.452500", "094323.912500", "094324.372500", "094324.832500", "094325.292500", "094325.752500", "094326.212500", "094326.672500", "094327.132500", "094327.592500", "094328.052500", "094328.512500", "094328.972500", "094329.432500", "094329.892500", "094330.352500", "094330.812500", "094331.272500", "094331.732500", "094332.192500", "094332.652500", "094333.112500", "094333.572500", "094334.032500", "094334.492500", "094334.952500", "094335.412500", "094335.872500", "094336.332500", "094336.792500", "094337.252500", "094337.712500", "094338.172500", "094338.632500", "094339.092500", "094339.552500", "094340.012500", "094340.472500", "094340.932500", "094341.392500", "094341.852500", "094342.312500", "094342.772500", "094343.232500", "094343.692500", "094344.152500", "094344.612500", "094345.072500", "094345.532500", "094345.992500", "094346.452500", "094346.912500", "094347.372500", "094347.832500", "094348.292500", "094348.752500", "094349.212500", "094349.672500", "094350.132500", "094350.592500", "094351.052500", "094351.512500", "094351.972500", "094352.432500", "094352.892500", "094353.352500", "094353.812500", "094354.272500", "094354.732500", "094355.192500", "094355.652500", "094356.112500", "094356.572500", "094357.032500", "094357.492500", "094357.952500", "094358.412500", "094358.872500", "094359.332500", "094359.792500", "094400.252500", "094400.712500", "094401.172500", "094401.632500", "094402.092500", "094402.552500", "094403.012500", "094403.472500", "094403.932500", "094404.392500", "094404.852500", "094405.312500", "094405.772500", "094406.232500", "094406.692500", "094407.152500", "094407.612500", "094408.072500", "094408.532500", "094408.992500", "094409.452500", "094409.912500", "094410.372500", "094410.832500", "094411.292500", "094411.752500", "094412.212500", "094412.672500", "094413.132500", "094413.592500", "094414.052500", "094414.512500", "094414.972500", "094415.432500", "094415.892500", "094416.352500", "094416.812500", "094417.272500", "094417.732500", "094418.192500", "094418.652500", "094419.112500", "094419.572500", "094420.032500", "094420.492500", "094420.952500", "094421.412500", "094421.872500", "094422.332500", "094422.792500", "094423.252500", "094423.712500", "094424.172500", "094424.632500", "094425.092500", "094425.552500", "094426.012500", "094426.472500", "094426.932500", "094427.392500", "094427.852500", "094428.312500", "094428.772500", "094429.232500", "094429.692500", "094430.152500", "094430.612500", "094431.072500", "094431.532500", "094431.992500", "094432.452500", "094432.912500", "094433.372500", "094433.832500", "094434.292500", "094434.752500", "094435.212500", "094435.672500", "094436.132500", "094436.592500", "094437.052500", "094437.512500", "094437.972500", "094438.432500", "094438.892500", "094439.352500", "094439.812500", "094440.272500", "094440.732500", "094441.192500", "094441.652500", "094442.112500", "094442.572500", "094443.032500", "094443.492500", "094443.952500", "094444.412500", "094444.872500", "094445.332500", "094445.792500", "094446.252500", "094446.712500", "094447.172500", "094447.632500", "094448.092500", "094448.552500", "094449.012500", "094449.472500", "094449.932500", "094450.392500", "094450.852500", "094451.312500", "094451.772500", "094452.232500", "094452.692500", "094453.152500", "094453.612500", "094454.072500", "094454.532500", "094454.992500", "094455.452500", "094455.912500", "094456.372500", "094456.832500", "094457.292500", "094457.752500", "094458.212500", "094458.672500", "094459.132500", "094459.592500", "094500.052500", "094500.512500", "094500.972500", "094501.432500", "094501.892500", "094502.352500", "094502.812500", "094503.272500", "094503.732500", "094504.192500", "094504.652500", "094505.112500", "094505.572500", "094506.032500", "094506.492500", "094506.952500", "094507.412500", "094507.872500", "094508.332500", "094508.792500", "094509.252500", "094509.712500", "094510.172500", "094510.632500", "094511.092500", "094511.552500", "094512.012500", "094512.472500", "094512.932500", "094513.392500", "094513.852500", "094514.312500", "094514.772500", "094515.232500", "094515.692500", "094516.152500", "094516.612500", "094517.072500", "094517.532500", "094517.992500", "094518.452500", "094518.912500", "094519.372500", "094519.832500", "094520.292500", "094520.752500", "094521.212500", "094521.672500", "094522.132500", "094522.592500", "094523.052500", "094523.512500", "094523.972500", "094524.432500", "094524.892500", "094525.352500", "094525.812500", "094526.272500", "094526.732500", "094527.192500", "094527.652500", "094528.112500", "094528.572500", "094529.032500", "094529.492500", "094529.952500", "094530.412500", "094530.872500", "094531.332500", "094531.792500", "094532.252500", "094532.712500", "094533.172500", "094533.632500", "094534.092500", "094534.552500", "094535.012500", "094535.472500", "094535.932500", "094536.392500", "094536.852500", "094537.312500", "094537.772500", "094538.232500", "094538.692500", "094539.152500", "094539.612500", "094540.072500", "094540.532500", "094540.992500", "094541.452500", "094541.912500", "094542.372500", "094542.832500", "094543.292500", "094543.752500", "094544.212500", "094544.672500", "094545.132500", "094545.592500", "094546.052500", "094546.512500", "094546.972500", "094547.432500", "094547.892500", "094548.352500", "094548.812500", "094549.272500", "094549.732500", "094550.192500", "094550.652500", "094551.112500", "094551.572500", "094552.032500", "094552.492500", "094552.952500", "094553.412500", "094553.872500", "094554.332500", "094554.792500", "094555.252500", "094555.712500", "094556.172500", "094556.632500", "094557.092500", "094557.552500", "094558.012500", "094558.472500", "094558.932500", "094559.392500", "094559.852500", "094600.312500", "094600.772500", "094601.232500", "094601.692500", "094602.152500", "094602.612500", "094603.072500", "094603.532500", "094603.992500", "094604.452500", "094604.912500", "094605.372500", "094605.832500", "094606.292500", "094606.752500", "094607.212500", "094607.672500", "094608.132500", "094608.592500", "094609.052500", "094609.512500", "094609.972500", "094610.432500", "094610.892500", "094611.352500", "094611.812500", "094612.272500", "094612.732500", "094613.192500", "094613.652500", "094614.112500", "094614.572500", "094615.032500", "094615.492500", "094615.952500", "094616.412500", "094616.872500", "094617.332500", "094617.792500", "094618.252500", "094618.712500", "094619.172500", "094619.632500", "094620.092500", "094620.552500", "094621.012500", "094621.472500", "094621.932500", "094622.392500", "094622.852500", "094623.312500", "094623.772500", "094624.232500", "094624.692500", "094625.152500", "094625.612500", "094626.072500", "094626.532500", "094626.992500", "094627.452500", "094627.912500", "094628.372500", "094628.832500", "094629.292500", "094629.752500", "094630.212500", "094630.672500", "094631.132500", "094631.592500", "094632.052500", "094632.512500", "094632.972500", "094633.432500", "094633.892500", "094634.352500", "094634.812500", "094635.272500", "094635.732500", "094636.192500", "094636.652500", "094637.112500", "094637.572500", "094638.032500", "094638.492500", "094638.952500", "094639.412500", "094639.872500", "094640.332500", "094640.792500", "094641.252500", "094641.712500", "094642.172500", "094642.632500", "094643.092500", "094643.552500", "094644.012500", "094644.472500", "094644.932500", "094645.392500", "094645.852500", "094646.312500", "094646.772500", "094647.232500", "094647.692500", "094648.152500", "094648.612500", "094649.072500", "094649.532500", "094649.992500", "094650.452500", "094650.912500", "094651.372500", "094651.832500", "094652.292500", "094652.752500", "094653.212500", "094653.672500", "094654.132500", "094654.592500", "094655.052500", "094655.512500", "094655.972500", "094656.432500", "094656.892500", "094657.352500", "094657.812500", "094658.272500", "094658.732500", "094659.192500", "094659.652500", "094700.112500", "094700.572500", "094701.032500", "094701.492500", "094701.952500", "094702.412500", "094702.872500", "094703.332500", "094703.792500", "094704.252500", "094704.712500", "094705.172500", "094705.632500", "094706.092500", "094706.552500", "094707.012500", "094707.472500", "094707.932500", "094708.392500", "094708.852500", "094709.312500", "094709.772500", "094710.232500", "094710.692500", "094711.152500", "094711.612500", "094712.072500", "094712.532500", "094712.992500", "094713.452500", "094713.912500", "094714.372500", "094714.832500", "094715.292500", "094715.752500", "094716.212500", "094716.672500", "094717.132500", "094717.592500", "094718.052500", "094718.512500", "094718.972500", "094719.432500", "094719.892500", "094720.352500", "094720.812500", "094721.272500", "094721.732500", "094722.192500", "094722.652500", "094723.112500", "094723.572500", "094724.032500", "094724.492500", "094724.952500", "094725.412500", "094725.872500", "094726.332500", "094726.792500", "094727.252500", "094727.712500", "094728.172500", "094728.632500", "094729.092500", "094729.552500", "094730.012500", "094730.472500", "094730.932500", "094731.392500", "094731.852500", "094732.312500", "094732.772500", "094733.232500", "094733.692500", "094734.152500", "094734.612500", "094735.072500", "094735.532500", "094735.992500", "094736.452500", "094736.912500", "094737.372500", "094737.832500", "094738.292500", "094738.752500", "094739.212500", "094739.672500", "094740.132500", "094740.592500", "094741.052500", "094741.512500", "094741.972500", "094742.432500", "094742.892500", "094743.352500", "094743.812500", "094744.272500", "094744.732500", "094745.192500", "094745.652500", "094746.112500", "094746.572500", "094747.032500", "094747.492500", "094747.952500", "094748.412500", "094748.872500", "094749.332500", "094749.792500", "094750.252500", "094750.712500", "094751.172500", "094751.632500", "094752.092500", "094752.552500", "094753.012500", "094753.472500", "094753.932500", "094754.392500", "094754.852500", "094755.312500", "094755.772500", "094756.232500", "094756.692500", "094757.152500", "094757.612500", "094758.072500", "094758.532500", "094758.992500", "094759.452500", "094759.912500", "094800.372500", "094800.832500", "094801.292500", "094801.752500", "094802.212500", "094802.672500", "094803.132500", "094803.592500", "094804.052500", "094804.512500", "094804.972500", "094805.432500", "094805.892500", "094806.352500", "094806.812500", "094807.272500", "094807.732500", "094808.192500", "094808.652500", "094809.112500", "094809.572500", "094810.032500", "094810.492500", "094810.952500", "094811.412500", "094811.872500", "094812.332500", "094812.792500", "094813.252500", "094813.712500", "094814.172500", "094814.632500", "094815.092500", "094815.552500", "094816.012500", "094816.472500", "094816.932500", "094817.392500", "094817.852500", "094818.312500", "094818.772500", "094819.232500", "094819.692500", "094820.152500", "094820.612500", "094821.072500", "094821.532500", "094821.992500", "094822.452500", "094822.912500", "094823.372500", "094823.832500", "094824.292500", "094824.752500", "094825.212500", "094825.672500", "094826.132500", "094826.592500", "094827.052500", "094827.512500", "094827.972500", "094828.432500", "094828.892500", "094829.352500", "094829.812500", "094830.272500", "094830.732500", "094831.192500", "094831.652500", "094832.112500"],
