{
  "AcquisitionMatrixPE": 82,
  "AcquisitionNumber": 1,
  "AcquisitionTime": "10:12:50.760000",
  "BandwidthPerPixelPhaseEncode": 24.888,
  "BaseResolution": 82,
  "BodyPartExamined": "BRAIN",
  "ConsistencyInfo": "N4_VE11E_LATEST_20181129",
  "ConversionSoftware": "dcm2niix",
  "ConversionSoftwareVersion": "v1.0.20201102",
  "DerivedVendorReportedEchoSpacing": 0.00049,
  "DeviceSerialNumber": "66112",
  "DwellTime": 2e-06,
  "EchoTime": 0.0272,
  "EchoTrainLength": 82,
  "EffectiveEchoSpacing": 0.00049,
  "FlipAngle": 44,
  "ImageComments": "Unaliased MB8/PE3",
  "ImageOrientationPatientDICOM": [0.9998, 0.00387786, 0.0196281, -0.003839, 0.999991, -0.00201697],
  "ImageType": [
    "ORIGINAL",
    "PRIMARY",
    "M",
    "MB",
    "ND",
    "NORM",
    "MOSAIC"
],
  "ImagingFrequency": 123.259,
  "InPlanePhaseEncodingDirectionDICOM": "COL",
  "InstitutionAddress": "Maynard 3,Hanover,NH,US,03755",
  "InstitutionName": "Dartmouth College - PBS",
  "InstitutionalDepartmentName": "Department",
  "MRAcquisitionType": "2D",
  "MagneticFieldStrength": 3,
  "Manufacturer": "Siemens",
  "ManufacturersModelName": "Prisma",
  "Modality": "MR",
  "MultibandAccelerationFactor": 8,
  "PartialFourier": 1,
  "PatientPosition": "HFS",
  "PercentPhaseFOV": 100,
  "PercentSampling": 100,
  "PhaseEncodingDirection": "j-",
  "PhaseEncodingSteps": 82,
  "PhaseResolution": 1,
  "PixelBandwidth": 3050,
  "ProcedureStepDescription": "Wager_Wager^1076_spacetop",
  "ProtocolName": "func_run-04_task-alignvideo_acq-ap-mb8",
  "PulseSequenceDetails": "%CustomerSeq%\\cmrr_mbep2d_bold",
  "ReceiveCoilActiveElements": "HEA;HEP",
  "ReceiveCoilName": "Head_32",
  "ReconMatrixPE": 82,
  "RepetitionTime": 0.46,
  "SAR": 0.0808233,
  "ScanOptions": "FS",
  "ScanningSequence": "EP",
  "SequenceName": "epfid2d1_82",
  "SequenceVariant": "SK\\SS",
  "SeriesDescription": "func_run-04_task-alignvideo_acq-ap-mb8",
  "SeriesNumber": 36,
  "ShimSetting": [4238, -7774, -7257, 231, -152, -265, -191, 92],
  "SliceThickness": 2.7,
  "SliceTiming": [0, 0.25, 0.0625, 0.315, 0.125, 0.3775, 0.1875, 0, 0.25, 0.0625, 0.315, 0.125, 0.3775, 0.1875, 0, 0.25, 0.0625, 0.315, 0.125, 0.3775, 0.1875, 0, 0.25, 0.0625, 0.315, 0.125, 0.3775, 0.1875, 0, 0.25, 0.0625, 0.315, 0.125, 0.3775, 0.1875, 0, 0.25, 0.0625, 0.315, 0.125, 0.3775, 0.1875, 0, 0.25, 0.0625, 0.315, 0.125, 0.3775, 0.1875, 0, 0.25, 0.0625, 0.315, 0.125, 0.3775, 0.1875],
  "SoftwareVersions": "syngo MR E11",
  "SpacingBetweenSlices": 2.7,
  "StationName": "AWP66112",
  "TaskName": "alignvideo",
  "TotalReadoutTime": 0.03969,
  "TxRefAmp": 233.725,
  "WipMemBlock": "e0cd18cc-7b79-4e14-ae90-97394e62c20d||Sequence: R016 ve11e/master r/434b28f1; Aug  7 2019 18:53:46 by eja",
  "dcmmeta_affine": [
    [-2.682389736175537, -0.010299768298864365, 0.053016409277915955, 111.30838775634766],
    [-0.010404019616544247, 2.682901620864868, -0.005241283681243658, -98.94207000732422],
    [0.05266067758202553, 0.005411388818174601, 2.699474334716797, -99.60868835449219],
    [0.0, 0.0, 0.0, 1.0]
],
  "dcmmeta_reorient_transform": [
    [0.0, -1.0, 0.0, 81.0],
    [1.0, 0.0, 0.0, 0.0],
    [0.0, 0.0, 1.0, 0.0],
    [0.0, 0.0, 0.0, 1.0]
],
  "dcmmeta_shape": [82, 82, 56, 914],
  "dcmmeta_slice_dim": 2,
  "dcmmeta_version": 0.6,
  "global": {
    "const": {
      "AccessionNumber": "A004321",
      "AcquisitionMatrix": [82, 0, 0, 82],
      "AngioFlag": "N",
      "BitsAllocated": 16,
      "BitsStored": 16,
      "BodyPartExamined": "BRAIN",
      "Columns": 656,
      "EchoNumbers": 1,
      "EchoTime": 27.2,
      "EchoTrainLength": 82,
      "FlipAngle": 44.0,
      "HighBit": 15,
      "ImageOrientationPatient": [0.99979983049166, 0.00387786183407, 0.01962807011519, -0.0038390045499, 0.99999059688939, -0.0020169722043],
      "ImagePositionPatient": [-877.36396285401, -891.35169344195, -112.7309131986],
      "ImageType": [
        "ORIGINAL",
        "PRIMARY",
        "M",
        "MB",
        "ND",
        "NORM",
        "MOSAIC"
],
      "ImagedNucleus": "1H",
      "ImagingFrequency": 123.259166,
      "InPlanePhaseEncodingDirection": "COL",
      "MRAcquisitionType": "2D",
      "MagneticFieldStrength": 3.0,
      "Manufacturer": "SIEMENS",
      "ManufacturerModelName": "Prisma",
      "Modality": "MR",
      "NumberOfAverages": 1.0,
      "NumberOfPhaseEncodingSteps": 82,
      "PercentPhaseFieldOfView": 100.0,
      "PercentSampling": 100.0,
      "PerformedProcedureStepStartTime": "082455.412000",
      "PhotometricInterpretation": "MONOCHROME2",
      "PixelBandwidth": 3050.0,
      "PixelRepresentation": 0,
      "PixelSpacing": [2.6829268932343, 2.6829268932343],
      "ProtocolName": "func_run-04_task-alignvideo_acq-ap-mb8",
      "RepetitionTime": 460.0,
      "Rows": 656,
      "SAR": 0.08082328782505,
      "SamplesPerPixel": 1,
      "ScanOptions": "FS",
      "ScanningSequence": "EP",
      "SequenceName": "epfid2d1_82",
      "SequenceVariant": [
        "SK",
        "SS"
],
      "SeriesDescription": "func_run-04_task-alignvideo_acq-ap-mb8",
      "SeriesNumber": 36,
      "SeriesTime": "101318.188000",
      "SliceLocation": -97.21161091474,
      "SliceThickness": 2.7000000476837,
      "SmallestImagePixelValue": 0,
      "SoftwareVersions": "syngo MR E11",
      "SpacingBetweenSlices": 2.7000000498362,
      "SpecificCharacterSet": "ISO_IR 100",
      "StudyID": "2",
      "StudyTime": "082455.271000",
      "TransmitCoilName": "Body",
      "VariableFlipAngleFlag": "N",
      "WindowCenterWidthExplanation": "Algo1"
    },
    "slices": {}
  },
  "time": {
    "samples": {
      "AcquisitionNumber": [1, 2, 3, 4, 5, 6, 7, 8, 9, 10, 11, 12, 13, 14, 15, 16, 17, 18, 19, 20, 21, 22, 23, 24, 25, 26, 27, 28, 29, 30, 31, 32, 33, 34, 35, 36, 37, 38, 39, 40, 41, 42, 43, 44, 45, 46, 47, 48, 49, 50, 51, 52, 53, 54, 55, 56, 57, 58, 59, 60, 61, 62, 63, 64, 65, 66, 67, 68, 69, 70, 71, 72, 73, 74, 75, 76, 77, 78, 79, 80, 81, 82, 83, 84, 85, 86, 87, 88, 89, 90, 91, 92, 93, 94, 95, 96, 97, 98, 99, 100, 101, 102, 103, 104, 105, 106, 107, 108, 109, 110, 111, 112, 113, 114, 115, 116, 117, 118, 119, 120, 121, 122, 123, 124, 125, 126, 127, 128, 129, 130, 131, 132, 133, 134, 135, 136, 137, 138, 139, 140, 141, 142, 143, 144, 145, 146, 147, 148, 149, 150, 151, 152, 153, 154, 155, 156, 157, 158, 159, 160, 161, 162, 163, 164, 165, 166, 167, 168, 169, 170, 171, 172, 173, 174, 175, 176, 177, 178, 179, 180, 181, 182, 183, 184, 185, 186, 187, 188, 189, 190, 191, 192, 193, 194, 195, 196, 197, 198, 199, 200, 201, 202, 203, 204, 205, 206, 207, 208, 209, 210, 211, 212, 213, 214, 215, 216, 217, 218, 219, 220, 221, 222, 223, 224, 225, 226, 227, 228, 229, 230, 231, 232, 233, 234, 235, 236, 237, 238, 239, 240, 241, 242, 243, 244, 245, 246, 247, 248, 249, 250, 251, 252, 253, 254, 255, 256, 257, 258, 259, 260, 261, 262, 263, 264, 265, 266, 267, 268, 269, 270, 271, 272, 273, 274, 275, 276, 277, 278, 279, 280, 281, 282, 283, 284, 285, 286, 287, 288, 289, 290, 291, 292, 293, 294, 295, 296, 297, 298, 299, 300, 301, 302, 303, 304, 305, 306, 307, 308, 309, 310, 311, 312, 313, 314, 315, 316, 317, 318, 319, 320, 321, 322, 323, 324, 325, 326, 327, 328, 329, 330, 331, 332, 333, 334, 335, 336, 337, 338, 339, 340, 341, 342, 343, 344, 345, 346, 347, 348, 349, 350, 351, 352, 353, 354, 355, 356, 357, 358, 359, 360, 361, 362, 363, 364, 365, 366, 367, 368, 369, 370, 371, 372, 373, 374, 375, 376, 377, 378, 379, 380, 381, 382, 383, 384, 385, 386, 387, 388, 389, 390, 391, 392, 393, 394, 395, 396, 397, 398, 399, 400, 401, 402, 403, 404, 405, 406, 407, 408, 409, 410, 411, 412, 413, 414, 415, 416, 417, 418, 419, 420, 421, 422, 423, 424, 425, 426, 427, 428, 429, 430, 431, 432, 433, 434, 435, 436, 437, 438, 439, 440, 441, 442, 443, 444, 445, 446, 447, 448, 449, 450, 451, 452, 453, 454, 455, 456, 457, 458, 459, 460, 461, 462, 463, 464, 465, 466, 467, 468, 469, 470, 471, 472, 473, 474, 475, 476, 477, 478, 479, 480, 481, 482, 483, 484, 485, 486, 487, 488, 489, 490, 491, 492, 493, 494, 495, 496, 497, 498, 499, 500, 501, 502, 503, 504, 505, 506, 507, 508, 509, 510, 511, 512, 513, 514, 515, 516, 517, 518, 519, 520, 521, 522, 523, 524, 525, 526, 527, 528, 529, 530, 531, 532, 533, 534, 535, 536, 537, 538, 539, 540, 541, 542, 543, 544, 545, 546, 547, 548, 549, 550, 551, 552, 553, 554, 555, 556, 557, 558, 559, 560, 561, 562, 563, 564, 565, 566, 567, 568, 569, 570, 571, 572, 573, 574, 575, 576, 577, 578, 579, 580, 581, 582, 583, 584, 585, 586, 587, 588, 589, 590, 591, 592, 593, 594, 595, 596, 597, 598, 599, 600, 601, 602, 603, 604, 605, 606, 607, 608, 609, 610, 611, 612, 613, 614, 615, 616, 617, 618, 619, 620, 621, 622, 623, 624, 625, 626, 627, 628, 629, 630, 631, 632, 633, 634, 635, 636, 637, 638, 639, 640, 641, 642, 643, 644, 645, 646, 647, 648, 649, 650, 651, 652, 653, 654, 655, 656, 657, 658, 659, 660, 661, 662, 663, 664, 665, 666, 667, 668, 669, 670, 671, 672, 673, 674, 675, 676, 677, 678, 679, 680, 681, 682, 683, 684, 685, 686, 687, 688, 689, 690, 691, 692, 693, 694, 695, 696, 697, 698, 699, 700, 701, 702, 703, 704, 705, 706, 707, 708, 709, 710, 711, 712, 713, 714, 715, 716, 717, 718, 719, 720, 721, 722, 723, 724, 725, 726, 727, 728, 729, 730, 731, 732, 733, 734, 735, 736, 737, 738, 739, 740, 741, 742, 743, 744, 745, 746, 747, 748, 749, 750, 751, 752, 753, 754, 755, 756, 757, 758, 759, 760, 761, 762, 763, 764, 765, 766, 767, 768, 769, 770, 771, 772, 773, 774, 775, 776, 777, 778, 779, 780, 781, 782, 783, 784, 785, 786, 787, 788, 789, 790, 791, 792, 793, 794, 795, 796, 797, 798, 799, 800, 801, 802, 803, 804, 805, 806, 807, 808, 809, 810, 811, 812, 813, 814, 815, 816, 817, 818, 819, 820, 821, 822, 823, 824, 825, 826, 827, 828, 829, 830, 831, 832, 833, 834, 835, 836, 837, 838, 839, 840, 841, 842, 843, 844, 845, 846, 847, 848, 849, 850, 851, 852, 853, 854, 855, 856, 857, 858, 859, 860, 861, 862, 863, 864, 865, 866, 867, 868, 869, 870, 871, 872, 873, 874, 875, 876, 877, 878, 879, 880, 881, 882, 883, 884, 885, 886, 887, 888, 889, 890, 891, 892, 893, 894, 895, 896, 897, 898, 899, 900, 901, 902, 903, 904, 905, 906, 907, 908, 909, 910, 911, 912, 913, 914],
      "AcquisitionTime": ["101250.760000", "101251.220000", "101251.680000", "101252.140000", "101252.600000", "101253.060000", "101253.520000", "101253.980000", "101254.440000", "101254.900000", "101255.360000", "101255.820000", "101256.280000", "101256.740000", "101257.200000", "101257.660000", "101258.120000", "101258.580000", "101259.040000", "101259.500000", "101259.960000", "101300.420000", "101300.880000", "101301.340000", "101301.800000", "101302.260000", "101302.720000", "101303.180000", "101303.640000", "101304.100000", "101304.560000", "101305.020000", "101305.480000", "101305.940000", "101306.400000", "101306.860000", "101307.320000", "101307.780000", "101308.240000", "101308.700000", "101309.160000", "101309.620000", "101310.080000", "101310.540000", "101311.000000", "101311.460000", "101311.920000", "101312.380000", "101312.840000", "101313.300000", "101313.760000", "101314.220000", "101314.680000", "101315.140000", "101315.600000", "101316.060000", "101316.520000", "101316.980000", "101317.440000", "101317.900000", "101318.360000", "101318.820000", "101319.280000", "101319.740000", "101320.200000", "101320.660000", "101321.120000", "101321.580000", "101322.040000", "101322.500000", "101322.960000", "101323.420000", "101323.880000", "101324.340000", "101324.800000", "101325.260000", "101325.720000", "101326.180000", "101326.640000", "101327.100000", "101327.560000", "101328.020000", "101328.480000", "101328.940000", "101329.400000", "101329.860000", "101330.320000", "101330.780000", "101331.240000", "101331.700000", "101332.160000", "101332.620000", "101333.080000", "101333.540000", "101334.000000", "101334.460000", "101334.920000", "101335.380000", "101335.840000", "101336.300000", "101336.760000", "101337.220000", "101337.680000", "101338.140000", "101338.600000", "101339.060000", "101339.520000", "101339.980000", "101340.440000", "101340.900000", "101341.360000", "101341.820000", "101342.280000", "101342.740000", "101343.200000", "101343.660000", "101344.120000", "101344.580000", "101345.040000", "101345.500000", "101345.960000", "101346.420000", "101346.880000", "101347.340000", "101347.800000", "101348.260000", "101348.720000", "101349.180000", "101349.640000", "101350.100000", "101350.560000", "101351.020000", "101351.480000", "101351.940000", "101352.400000", "101352.860000", "101353.320000", "101353.780000", "101354.240000", "101354.700000", "101355.160000", "101355.620000", "101356.080000", "101356.540000", "101357.000000", "101357.460000", "101357.920000", "101358.380000", "101358.840000", "101359.300000", "101359.760000", "101400.220000", "101400.680000", "101401.140000", "101401.600000", "101402.060000", "101402.520000", "101402.980000", "101403.440000", "101403.900000", "101404.360000", "101404.820000", "101405.280000", "101405.740000", "101406.200000", "101406.660000", "101407.120000", "101407.580000", "101408.040000", "101408.500000", "101408.960000", "101409.420000", "101409.880000", "101410.340000", "101410.800000", "101411.260000", "101411.720000", "101412.180000", "101412.640000", "101413.100000", "101413.560000", "101414.020000", "101414.480000", "101414.940000", "101415.400000", "101415.860000", "101416.320000", "101416.780000", "101417.240000", "101417.700000", "101418.160000", "101418.620000", "101419.080000", "101419.540000", "101420.000000", "101420.460000", "101420.920000", "101421.380000", "101421.840000", "101422.300000", "101422.760000", "101423.220000", "101423.680000", "101424.140000", "101424.600000", "101425.060000", "101425.520000", "101425.980000", "101426.440000", "101426.900000", "101427.360000", "101427.820000", "101428.280000", "101428.740000", "101429.200000", "101429.660000", "101430.120000", "101430.580000", "101431.040000", "101431.500000", "101431.960000", "101432.420000", "101432.880000", "101433.340000", "101433.800000", "101434.260000", "101434.720000", "101435.180000", "101435.640000", "101436.100000", "101436.560000", "101437.020000", "101437.480000", "101437.940000", "101438.400000", "101438.860000", "101439.320000", "101439.780000", "101440.240000", "101440.700000", "101441.160000", "101441.620000", "101442.080000", "101442.540000", "101443.000000", "101443.460000", "101443.920000", "101444.380000", "101444.840000", "101445.300000", "101445.760000", "101446.220000", "101446.680000", "101447.140000", "101447.600000", "101448.060000", "101448.520000", "101448.980000", "101449.440000", "101449.900000", "101450.360000", "101450.820000", "101451.280000", "101451.740000", "101452.200000", "101452.660000", "101453.120000", "101453.580000", "101454.040000", "101454.500000", "101454.960000", "101455.420000", "101455.880000", "101456.340000", "101456.800000", "101457.260000", "101457.720000", "101458.180000", "101458.640000", "101459.100000", "101459.560000", "101500.020000", "101500.480000", "101500.940000", "101501.400000", "101501.860000", "101502.320000", "101502.780000", "101503.240000", "101503.700000", "101504.160000", "101504.620000", "101505.080000", "101505.540000", "101506.000000", "101506.460000", "101506.920000", "101507.380000", "101507.840000", "101508.300000", "101508.760000", "101509.220000", "101509.680000", "101510.140000", "101510.600000", "101511.060000", "101511.520000", "101511.980000", "101512.440000", "101512.900000", "101513.360000", "101513.820000", "101514.280000", "101514.740000", "101515.200000", "101515.660000", "101516.120000", "101516.580000", "101517.040000", "101517.500000", "101517.960000", "101518.420000", "101518.880000", "101519.340000", "101519.800000", "101520.260000", "101520.720000", "101521.180000", "101521.640000", "101522.100000", "101522.560000", "101523.020000", "101523.480000", "101523.940000", "101524.400000", "101524.860000", "101525.320000", "101525.780000", "101526.240000", "101526.700000", "101527.160000", "101527.620000", "101528.080000", "101528.540000", "101529.000000", "101529.460000", "101529.920000", "101530.380000", "101530.840000", "101531.300000", "101531.760000", "101532.220000", "101532.680000", "101533.140000", "101533.600000", "101534.060000", "101534.520000", "101534.980000", "101535.440000", "101535.900000", "101536.360000", "101536.820000", "101537.280000", "101537.740000", "101538.200000", "101538.660000", "101539.120000", "101539.580000", "101540.040000", "101540.500000", "101540.960000", "101541.420000", "101541.880000", "101542.340000", "101542.800000", "101543.260000", "101543.720000", "101544.180000", "101544.640000", "101545.100000", "101545.560000", "101546.020000", "101546.480000", "101546.940000", "101547.400000", "101547.860000", "101548.320000", "101548.780000", "101549.240000", "101549.700000", "101550.160000", "101550.620000", "101551.080000", "101551.540000", "101552.000000", "101552.460000", "101552.920000", "101553.380000", "101553.840000", "101554.300000", "101554.760000", "101555.220000", "101555.680000", "101556.140000", "101556.600000", "101557.060000", "101557.520000", "101557.980000", "101558.440000", "101558.900000", "101559.360000", "101559.820000", "101600.280000", "101600.740000", "101601.200000", "101601.660000", "101602.120000", "101602.580000", "101603.040000", "101603.500000", "101603.960000", "101604.420000", "101604.880000", "101605.340000", "101605.800000", "101606.260000", "101606.720000", "101607.180000", "101607.640000", "101608.100000", "101608.560000", "101609.020000", "101609.480000", "101609.940000", "101610.400000", "101610.860000", "101611.320000", "101611.780000", "101612.240000", "101612.700000", "101613.160000", "101613.620000", "101614.080000", "101614.540000", "101615.000000", "101615.460000", "101615.920000", "101616.380000", "101616.840000", "101617.300000", "101617.760000", "101618.220000", "101618.680000", "101619.140000", "101619.600000", "101620.060000", "101620.520000", "101620.980000", "101621.440000", "101621.900000", "101622.360000", "101622.820000", "101623.280000", "101623.740000", "101624.200000", "101624.660000", "101625.120000", "101625.580000", "101626.040000", "101626.500000", "101626.960000", "101627.420000", "101627.880000", "101628.340000", "101628.800000", "101629.260000", "101629.720000", "101630.180000", "101630.640000", "101631.100000", "101631.560000", "101632.020000", "101632.480000", "101632.940000", "101633.400000", "101633.860000", "101634.320000", "101634.780000", "101635.240000", "101635.700000", "101636.160000", "101636.620000", "101637.080000", "101637.540000", "101638.000000", "101638.460000", "101638.920000", "101639.380000", "101639.840000", "101640.300000", "101640.760000", "101641.220000", "101641.680000", "101642.140000", "101642.600000", "101643.060000", "101643.520000", "101643.980000", "101644.440000", "101644.900000", "101645.360000", "101645.820000", "101646.280000", "101646.740000", "101647.200000", "101647.660000", "101648.120000", "101648.580000", "101649.040000", "101649.500000", "101649.960000", "101650.420000", "101650.880000", "101651.340000", "101651.800000", "101652.260000", "101652.720000", "101653.180000", "101653.640000", "101654.100000", "101654.560000", "101655.020000", "101655.480000", "101655.940000", "101656.400000", "101656.860000", "101657.320000", "101657.780000", "101658.240000", "101658.700000", "101659.160000", "101659.620000", "101700.080000", "101700.540000", "101701.000000", "101701.460000", "101701.920000", "101702.380000", "101702.840000", "101703.300000", "101703.760000", "101704.220000", "101704.680000", "101705.140000", "101705.600000", "101706.060000", "101706.520000", "101706.980000", "101707.440000", "101707.900000", "101708.360000", "101708.820000", "101709.280000", "101709.740000", "101710.200000", "101710.660000", "101711.120000", "101711.580000", "101712.040000", "101712.500000", "101712.960000", "101713.420000", "101713.880000", "101714.340000", "101714.800000", "101715.260000", "101715.720000", "101716.180000", "101716.640000", "101717.100000", "101717.560000", "101718.020000", "101718.480000", "101718.940000", "101719.400000", "101719.860000", "101720.320000", "101720.780000", "101721.240000", "101721.700000", "101722.160000", "101722.620000", "101723.080000", "101723.540000", "101724.000000", "101724.460000", "101724.920000", "101725.380000", "101725.840000", "101726.300000", "101726.760000", "101727.220000", "101727.680000", "101728.140000", "101728.600000", "101729.060000", "101729.520000", "101729.980000", "101730.440000", "101730.900000", "101731.360000", "101731.820000", "101732.280000", "101732.740000", "101733.200000", "101733.660000", "101734.120000", "101734.580000", "101735.040000", "101735.500000", "101735.960000", "101736.420000", "101736.880000", "101737.340000", "101737.800000", "101738.260000", "101738.720000", "101739.180000", "101739.640000", "101740.100000", "101740.560000", "101741.020000", "101741.480000", "101741.940000", "101742.400000", "101742.860000", "101743.320000", "101743.780000", "101744.240000", "101744.700000", "101745.160000", "101745.620000", "101746.080000", "101746.540000", "101747.000000", "101747.460000", "101747.920000", "101748.380000", "101748.840000", "101749.300000", "101749.760000", "101750.220000", "101750.680000", "101751.140000", "101751.600000", "101752.060000", "101752.520000", "101752.980000", "101753.440000", "101753.900000", "101754.360000", "101754.820000", "101755.280000", "101755.740000", "101756.200000", "101756.660000", "101757.120000", "101757.580000", "101758.040000", "101758.500000", "101758.960000", "101759.420000", "101759.880000", "101800.340000", "101800.800000", "101801.260000", "101801.720000", "101802.180000", "101802.640000", "101803.100000", "101803.560000", "101804.020000", "101804.480000", "101804.940000", "101805.400000", "101805.860000", "101806.320000", "101806.780000", "101807.240000", "101807.700000", "101808.160000", "101808.620000", "101809.080000", "101809.540000", "101810.000000", "101810.460000", "101810.920000", "101811.380000", "101811.840000", "101812.300000", "101812.760000", "101813.220000", "101813.680000", "101814.140000", "101814.600000", "101815.060000", "101815.520000", "101815.980000", "101816.440000", "101816.900000", "101817.360000", "101817.820000", "101818.280000", "101818.740000", "101819.200000", "101819.660000", "101820.120000", "101820.580000", "101821.040000", "101821.500000", "101821.960000", "101822.420000", "101822.880000", "101823.340000", "101823.800000", "101824.260000", "101824.720000", "101825.180000", "101825.640000", "101826.100000", "101826.560000", "101827.020000", "101827.480000", "101827.940000", "101828.400000", "101828.860000", "101829.320000", "101829.780000", "101830.240000", "101830.700000", "101831.160000", "101831.620000", "101832.080000", "101832.540000", "101833.000000", "101833.460000", "101833.920000", "101834.380000", "101834.840000", "101835.300000", "101835.760000", "101836.220000", "101836.680000", "101837.140000", "101837.600000", "101838.060000", "101838.520000", "101838.980000", "101839.440000", "101839.900000", "101840.360000", "101840.820000", "101841.280000", "101841.740000", "101842.200000", "101842.660000", "101843.120000", "101843.580000", "101844.040000", "101844.500000", "101844.960000", "101845.420000", "101845.880000", "101846.340000", "101846.800000", "101847.260000", "101847.720000", "101848.180000", "101848.640000", "101849.100000", "101849.560000", "101850.020000", "101850.480000", "101850.940000", "101851.400000", "101851.860000", "101852.320000", "101852.780000", "101853.240000", "101853.700000", "101854.160000", "101854.620000", "101855.080000", "101855.540000", "101856.000000", "101856.460000", "101856.920000", "101857.380000", "101857.840000", "101858.300000", "101858.760000", "101859.220000", "101859.680000", "101900.140000", "101900.600000", "101901.060000", "101901.520000", "101901.980000", "101902.440000", "101902.900000", "101903.360000", "101903.820000", "101904.280000", "101904.740000", "101905.200000", "101905.660000", "101906.120000", "101906.580000", "101907.040000", "101907.500000", "101907.960000", "101908.420000", "101908.880000", "101909.340000", "101909.800000", "101910.260000", "101910.720000", "101911.180000", "101911.640000", "101912.100000", "101912.560000", "101913.020000", "101913.480000", "101913.940000", "101914.400000", "101914.860000", "101915.320000", "101915.780000", "101916.240000", "101916.700000", "101917.160000", "101917.620000", "101918.080000", "101918.540000", "101919.000000", "101919.460000", "101919.920000", "101920.380000", "101920.840000", "101921.300000", "101921.760000", "101922.220000", "101922.680000", "101923.140000", "101923.600000", "101924.060000", "101924.520000", "101924.980000", "101925.440000", "101925.900000", "101926.360000", "101926.820000", "101927.280000", "101927.740000", "101928.200000", "101928.660000", "101929.120000", "101929.580000", "101930.040000", "101930.500000", "101930.960000", "101931.420000", "101931.880000", "101932.340000", "101932.800000", "101933.260000", "101933.720000", "101934.180000", "101934.640000", "101935.100000", "101935.560000", "101936.020000", "101936.480000", "101936.940000", "101937.400000", "101937.860000", "101938.320000", "101938.780000", "101939.240000", "101939.700000", "101940.160000", "101940.620000", "101941.080000", "101941.540000", "101942.000000", "101942.460000", "101942.920000", "101943.380000", "101943.840000", "101944.300000", "101944.760000", "101945.220000", "101945.680000", "101946.140000", "101946.600000", "101947.060000", "101947.520000", "101947.980000", "101948.440000", "101948.900000", "101949.360000", "101949.820000", "101950.280000", "101950.740000"],
