{
  "AcquisitionMatrixPE": 82,
  "AcquisitionNumber": 1,
  "AcquisitionTime": "09:54:8.417500",
  "BandwidthPerPixelPhaseEncode": 24.888,
  "BaseResolution": 82,
  "BodyPartExamined": "BRAIN",
  "ConsistencyInfo": "N4_VE11E_LATEST_20181129",
  "ConversionSoftware": "dcm2niix",
  "ConversionSoftwareVersion": "v1.0.20201102",
  "DerivedVendorReportedEchoSpacing": 0.00049,
  "DeviceSerialNumber": "66112",
  "DwellTime": 2e-06,
  "EchoTime": 0.0272,
  "EchoTrainLength": 82,
  "EffectiveEchoSpacing": 0.00049,
  "FlipAngle": 44,
  "ImageComments": "Unaliased MB8/PE3",
  "ImageOrientationPatientDICOM": [0.999919, -0.0104312, -0.00731716, 0.0108206, 0.998408, 0.0553624],
  "ImageType": [
    "ORIGINAL",
    "PRIMARY",
    "M",
    "MB",
    "ND",
    "NORM",
    "MOSAIC"
],
  "ImagingFrequency": 123.252,
  "InPlanePhaseEncodingDirectionDICOM": "COL",
  "InstitutionAddress": "Maynard 3,Hanover,NH,US,03755",
  "InstitutionName": "Dartmouth College - PBS",
  "InstitutionalDepartmentName": "Department",
  "MRAcquisitionType": "2D",
  "MagneticFieldStrength": 3,
  "Manufacturer": "Siemens",
  "ManufacturersModelName": "Prisma",
  "Modality": "MR",
  "MultibandAccelerationFactor": 8,
  "PartialFourier": 1,
  "PatientPosition": "HFS",
  "PercentPhaseFOV": 100,
  "PercentSampling": 100,
  "PhaseEncodingDirection": "j-",
  "PhaseEncodingSteps": 82,
  "PhaseResolution": 1,
  "PixelBandwidth": 3050,
  "ProcedureStepDescription": "Wager_Wager^1076_spacetop",
  "ProtocolName": "func_run-01_task-alignvideo_acq-ap-mb8",
  "PulseSequenceDetails": "%CustomerSeq%\\cmrr_mbep2d_bold",
  "ReceiveCoilActiveElements": "HEA;HEP",
  "ReceiveCoilName": "Head_32",
  "ReconMatrixPE": 82,
  "RepetitionTime": 0.46,
  "SAR": 0.0913158,
  "ScanOptions": "FS",
  "ScanningSequence": "EP",
  "SequenceName": "epfid2d1_82",
  "SequenceVariant": "SK\\SS",
  "SeriesDescription": "func_run-01_task-alignvideo_acq-ap-mb8",
  "SeriesNumber": 30,
  "ShimSetting": [4152, -7746, -7304, 651, -79, -131, 72, 96],
  "SliceThickness": 2.7,
  "SliceTiming": [0, 0.25, 0.0625, 0.315, 0.125, 0.3775, 0.1875, 0, 0.25, 0.0625, 0.315, 0.125, 0.3775, 0.1875, 0, 0.25, 0.0625, 0.315, 0.125, 0.3775, 0.1875, 0, 0.25, 0.0625, 0.315, 0.125, 0.3775, 0.1875, 0, 0.25, 0.0625, 0.315, 0.125, 0.3775, 0.1875, 0, 0.25, 0.0625, 0.315, 0.125, 0.3775, 0.1875, 0, 0.25, 0.0625, 0.315, 0.125, 0.3775, 0.1875, 0, 0.25, 0.0625, 0.315, 0.125, 0.3775, 0.1875],
  "SoftwareVersions": "syngo MR E11",
  "SpacingBetweenSlices": 2.7,
  "StationName": "AWP66112",
  "TaskName": "alignvideo",
  "TotalReadoutTime": 0.03969,
  "TxRefAmp": 236.123,
  "WipMemBlock": "7ec9fc71-39d9-44b4-a575-ba7c6bec26ad||Sequence: R016 ve11e/master r/434b28f1; Aug  7 2019 18:53:46 by eja",
  "dcmmeta_affine": [
    [-2.682708978652954, 0.02903081849217415, -0.018165625631809235, 111.24127960205078],
    [0.027986183762550354, 2.678654909133911, 0.14968007802963257, -103.5846939086914],
    [-0.0196313988417387, -0.14853322505950928, 2.695786714553833, -77.10964965820312],
    [0.0, 0.0, 0.0, 1.0]
],
  "dcmmeta_reorient_transform": [
    [0.0, -1.0, 0.0, 81.0],
    [1.0, 0.0, 0.0, 0.0],
    [0.0, 0.0, 1.0, 0.0],
    [0.0, 0.0, 0.0, 1.0]
],
  "dcmmeta_shape": [82, 82, 56, 1073],
  "dcmmeta_slice_dim": 2,
  "dcmmeta_version": 0.6,
  "global": {
    "const": {
      "AccessionNumber": "A004112",
      "AcquisitionMatrix": [82, 0, 0, 82],
      "AngioFlag": "N",
      "BitsAllocated": 16,
      "BitsStored": 16,
      "BodyPartExamined": "BRAIN",
      "Columns": 656,
      "EchoNumbers": 1,
      "EchoTime": 27.2,
      "EchoTrainLength": 82,
      "FlipAngle": 44.0,
      "HighBit": 15,
      "ImageOrientationPatient": [0.99991882119815, -0.0104312137982, -0.0073171573992, 0.01082057778624, 0.99840769302109, 0.05536238445618],
      "ImagePositionPatient": [-891.86212910861, -874.12825341398, -126.13566629671],
      "ImageType": [
        "ORIGINAL",
        "PRIMARY",
        "M",
        "MB",
        "ND",
        "NORM",
        "MOSAIC"
],
      "ImagedNucleus": "1H",
      "ImagingFrequency": 123.252231,
      "InPlanePhaseEncodingDirection": "COL",
      "MRAcquisitionType": "2D",
      "MagneticFieldStrength": 3.0,
      "Manufacturer": "SIEMENS",
      "ManufacturerModelName": "Prisma",
      "Modality": "MR",
      "NumberOfAverages": 1.0,
      "NumberOfPhaseEncodingSteps": 82,
      "PercentPhaseFieldOfView": 100.0,
      "PercentSampling": 100.0,
      "PerformedProcedureStepStartTime": "083142.651000",
      "PhotometricInterpretation": "MONOCHROME2",
      "PixelBandwidth": 3050.0,
      "PixelRepresentation": 0,
      "PixelSpacing": [2.6829268932343, 2.6829268932343],
      "ProtocolName": "func_run-01_task-alignvideo_acq-ap-mb8",
      "RepetitionTime": 460.0,
      "Rows": 656,
      "SAR": 0.09131580839482,
      "SamplesPerPixel": 1,
      "ScanOptions": "FS",
      "ScanningSequence": "EP",
      "SequenceName": "epfid2d1_82",
      "SequenceVariant": [
        "SK",
        "SS"
],
      "SeriesDescription": "func_run-01_task-alignvideo_acq-ap-mb8",
      "SeriesNumber": 30,
      "SeriesTime": "095427.648000",
      "SliceLocation": -83.480184530569,
      "SliceThickness": 2.7000000476837,
      "SmallestImagePixelValue": 0,
      "SoftwareVersions": "syngo MR E11",
      "SpacingBetweenSlices": 2.7000000800458,
      "SpecificCharacterSet": "ISO_IR 100",
      "StudyID": "1",
      "StudyTime": "083142.475000",
      "TransmitCoilName": "Body",
      "VariableFlipAngleFlag": "N",
      "WindowCenterWidthExplanation": "Algo1"
    },
    "slices": {}
  },
  "time": {
    "samples": {
      "AcquisitionNumber": [1, 2, 3, 4, 5, 6, 7, 8, 9, 10, 11, 12, 13, 14, 15, 16, 17, 18, 19, 20, 21, 22, 23, 24, 25, 26, 27, 28, 29, 30, 31, 32, 33, 34, 35, 36, 37, 38, 39, 40, 41, 42, 43, 44, 45, 46, 47, 48, 49, 50, 51, 52, 53, 54, 55, 56, 57, 58, 59, 60, 61, 62, 63, 64, 65, 66, 67, 68, 69, 70, 71, 72, 73, 74, 75, 76, 77, 78, 79, 80, 81, 82, 83, 84, 85, 86, 87, 88, 89, 90, 91, 92, 93, 94, 95, 96, 97, 98, 99, 100, 101, 102, 103, 104, 105, 106, 107, 108, 109, 110, 111, 112, 113, 114, 115, 116, 117, 118, 119, 120, 121, 122, 123, 124, 125, 126, 127, 128, 129, 130, 131, 132, 133, 134, 135, 136, 137, 138, 139, 140, 141, 142, 143, 144, 145, 146, 147, 148, 149, 150, 151, 152, 153, 154, 155, 156, 157, 158, 159, 160, 161, 162, 163, 164, 165, 166, 167, 168, 169, 170, 171, 172, 173, 174, 175, 176, 177, 178, 179, 180, 181, 182, 183, 184, 185, 186, 187, 188, 189, 190, 191, 192, 193, 194, 195, 196, 197, 198, 199, 200, 201, 202, 203, 204, 205, 206, 207, 208, 209, 210, 211, 212, 213, 214, 215, 216, 217, 218, 219, 220, 221, 222, 223, 224, 225, 226, 227, 228, 229, 230, 231, 232, 233, 234, 235, 236, 237, 238, 239, 240, 241, 242, 243, 244, 245, 246, 247, 248, 249, 250, 251, 252, 253, 254, 255, 256, 257, 258, 259, 260, 261, 262, 263, 264, 265, 266, 267, 268, 269, 270, 271, 272, 273, 274, 275, 276, 277, 278, 279, 280, 281, 282, 283, 284, 285, 286, 287, 288, 289, 290, 291, 292, 293, 294, 295, 296, 297, 298, 299, 300, 301, 302, 303, 304, 305, 306, 307, 308, 309, 310, 311, 312, 313, 314, 315, 316, 317, 318, 319, 320, 321, 322, 323, 324, 325, 326, 327, 328, 329, 330, 331, 332, 333, 334, 335, 336, 337, 338, 339, 340, 341, 342, 343, 344, 345, 346, 347, 348, 349, 350, 351, 352, 353, 354, 355, 356, 357, 358, 359, 360, 361, 362, 363, 364, 365, 366, 367, 368, 369, 370, 371, 372, 373, 374, 375, 376, 377, 378, 379, 380, 381, 382, 383, 384, 385, 386, 387, 388, 389, 390, 391, 392, 393, 394, 395, 396, 397, 398, 399, 400, 401, 402, 403, 404, 405, 406, 407, 408, 409, 410, 411, 412, 413, 414, 415, 416, 417, 418, 419, 420, 421, 422, 423, 424, 425, 426, 427, 428, 429, 430, 431, 432, 433, 434, 435, 436, 437, 438, 439, 440, 441, 442, 443, 444, 445, 446, 447, 448, 449, 450, 451, 452, 453, 454, 455, 456, 457, 458, 459, 460, 461, 462, 463, 464, 465, 466, 467, 468, 469, 470, 471, 472, 473, 474, 475, 476, 477, 478, 479, 480, 481, 482, 483, 484, 485, 486, 487, 488, 489, 490, 491, 492, 493, 494, 495, 496, 497, 498, 499, 500, 501, 502, 503, 504, 505, 506, 507, 508, 509, 510, 511, 512, 513, 514, 515, 516, 517, 518, 519, 520, 521, 522, 523, 524, 525, 526, 527, 528, 529, 530, 531, 532, 533, 534, 535, 536, 537, 538, 539, 540, 541, 542, 543, 544, 545, 546, 547, 548, 549, 550, 551, 552, 553, 554, 555, 556, 557, 558, 559, 560, 561, 562, 563, 564, 565, 566, 567, 568, 569, 570, 571, 572, 573, 574, 575, 576, 577, 578, 579, 580, 581, 582, 583, 584, 585, 586, 587, 588, 589, 590, 591, 592, 593, 594, 595, 596, 597, 598, 599, 600, 601, 602, 603, 604, 605, 606, 607, 608, 609, 610, 611, 612, 613, 614, 615, 616, 617, 618, 619, 620, 621, 622, 623, 624, 625, 626, 627, 628, 629, 630, 631, 632, 633, 634, 635, 636, 637, 638, 639, 640, 641, 642, 643, 644, 645, 646, 647, 648, 649, 650, 651, 652, 653, 654, 655, 656, 657, 658, 659, 660, 661, 662, 663, 664, 665, 666, 667, 668, 669, 670, 671, 672, 673, 674, 675, 676, 677, 678, 679, 680, 681, 682, 683, 684, 685, 686, 687, 688, 689, 690, 691, 692, 693, 694, 695, 696, 697, 698, 699, 700, 701, 702, 703, 704, 705, 706, 707, 708, 709, 710, 711, 712, 713, 714, 715, 716, 717, 718, 719, 720, 721, 722, 723, 724, 725, 726, 727, 728, 729, 730, 731, 732, 733, 734, 735, 736, 737, 738, 739, 740, 741, 742, 743, 744, 745, 746, 747, 748, 749, 750, 751, 752, 753, 754, 755, 756, 757, 758, 759, 760, 761, 762, 763, 764, 765, 766, 767, 768, 769, 770, 771, 772, 773, 774, 775, 776, 777, 778, 779, 780, 781, 782, 783, 784, 785, 786, 787, 788, 789, 790, 791, 792, 793, 794, 795, 796, 797, 798, 799, 800, 801, 802, 803, 804, 805, 806, 807, 808, 809, 810, 811, 812, 813, 814, 815, 816, 817, 818, 819, 820, 821, 822, 823, 824, 825, 826, 827, 828, 829, 830, 831, 832, 833, 834, 835, 836, 837, 838, 839, 840, 841, 842, 843, 844, 845, 846, 847, 848, 849, 850, 851, 852, 853, 854, 855, 856, 857, 858, 859, 860, 861, 862, 863, 864, 865, 866, 867, 868, 869, 870, 871, 872, 873, 874, 875, 876, 877, 878, 879, 880, 881, 882, 883, 884, 885, 886, 887, 888, 889, 890, 891, 892, 893, 894, 895, 896, 897, 898, 899, 900, 901, 902, 903, 904, 905, 906, 907, 908, 909, 910, 911, 912, 913, 914, 915, 916, 917, 918, 919, 920, 921, 922, 923, 924, 925, 926, 927, 928, 929, 930, 931, 932, 933, 934, 935, 936, 937, 938, 939, 940, 941, 942, 943, 944, 945, 946, 947, 948, 949, 950, 951, 952, 953, 954, 955, 956, 957, 958, 959, 960, 961, 962, 963, 964, 965, 966, 967, 968, 969, 970, 971, 972, 973, 974, 975, 976, 977, 978, 979, 980, 981, 982, 983, 984, 985, 986, 987, 988, 989, 990, 991, 992, 993, 994, 995, 996, 997, 998, 999, 1000, 1001, 1002, 1003, 1004, 1005, 1006, 1007, 1008, 1009, 1010, 1011, 1012, 1013, 1014, 1015, 1016, 1017, 1018, 1019, 1020, 1021, 1022, 1023, 1024, 1025, 1026, 1027, 1028, 1029, 1030, 1031, 1032, 1033, 1034, 1035, 1036, 1037, 1038, 1039, 1040, 1041, 1042, 1043, 1044, 1045, 1046, 1047, 1048, 1049, 1050, 1051, 1052, 1053, 1054, 1055, 1056, 1057, 1058, 1059, 1060, 1061, 1062, 1063, 1064, 1065, 1066, 1067, 1068, 1069, 1070, 1071, 1072, 1073],
      "AcquisitionTime": ["095408.417500", "095408.877500", "095409.337500", "095409.797500", "095410.257500", "095410.717500", "095411.177500", "095411.637500", "095412.097500", "095412.557500", "095413.017500", "095413.477500", "095413.937500", "095414.397500", "095414.857500", "095415.317500", "095415.777500", "095416.237500", "095416.697500", "095417.157500", "095417.617500", "095418.077500", "095418.537500", "095418.997500", "095419.457500", "095419.917500", "095420.377500", "095420.837500", "095421.297500", "095421.757500", "095422.217500", "095422.677500", "095423.137500", "095423.597500", "095424.057500", "095424.517500", "095424.977500", "095425.437500", "095425.897500", "095426.357500", "095426.817500", "095427.277500", "095427.737500", "095428.197500", "095428.657500", "095429.117500", "095429.577500", "095430.037500", "095430.497500", "095430.957500", "095431.417500", "095431.877500", "095432.337500", "095432.797500", "095433.257500", "095433.717500", "095434.177500", "095434.637500", "095435.097500", "095435.557500", "095436.017500", "095436.477500", "095436.937500", "095437.397500", "095437.857500", "095438.317500", "095438.777500", "095439.237500", "095439.697500", "095440.157500", "095440.617500", "095441.077500", "095441.537500", "095441.997500", "095442.457500", "095442.917500", "095443.377500", "095443.837500", "095444.297500", "095444.757500", "095445.217500", "095445.677500", "095446.137500", "095446.597500", "095447.057500", "095447.517500", "095447.977500", "095448.437500", "095448.897500", "095449.357500", "095449.817500", "095450.277500", "095450.737500", "095451.197500", "095451.657500", "095452.117500", "095452.577500", "095453.037500", "095453.497500", "095453.957500", "095454.417500", "095454.877500", "095455.337500", "095455.797500", "095456.257500", "095456.717500", "095457.177500", "095457.637500", "095458.097500", "095458.557500", "095459.017500", "095459.477500", "095459.937500", "095500.397500", "095500.857500", "095501.317500", "095501.777500", "095502.237500", "095502.697500", "095503.157500", "095503.617500", "095504.077500", "095504.537500", "095504.997500", "095505.457500", "095505.917500", "095506.377500", "095506.837500", "095507.297500", "095507.757500", "095508.217500", "095508.677500", "095509.137500", "095509.597500", "095510.057500", "095510.517500", "095510.977500", "095511.437500", "095511.897500", "095512.357500", "095512.817500", "095513.277500", "095513.737500", "095514.197500", "095514.657500", "095515.117500", "095515.577500", "095516.037500", "095516.497500", "095516.957500", "095517.417500", "095517.877500", "095518.337500", "095518.797500", "095519.257500", "095519.717500", "095520.177500", "095520.637500", "095521.097500", "095521.557500", "095522.017500", "095522.477500", "095522.937500", "095523.397500", "095523.857500", "095524.317500", "095524.777500", "095525.237500", "095525.697500", "095526.157500", "095526.617500", "095527.077500", "095527.537500", "095527.997500", "095528.457500", "095528.917500", "095529.377500", "095529.837500", "095530.297500", "095530.757500", "095531.217500", "095531.677500", "095532.137500", "095532.597500", "095533.057500", "095533.517500", "095533.977500", "095534.437500", "095534.897500", "095535.357500", "095535.817500", "095536.277500", "095536.737500", "095537.197500", "095537.657500", "095538.117500", "095538.577500", "095539.037500", "095539.497500", "095539.957500", "095540.417500", "095540.877500", "095541.337500", "095541.797500", "095542.257500", "095542.717500", "095543.177500", "095543.637500", "095544.097500", "095544.557500", "095545.017500", "095545.477500", "095545.937500", "095546.397500", "095546.857500", "095547.317500", "095547.777500", "095548.237500", "095548.697500", "095549.157500", "095549.617500", "095550.077500", "095550.537500", "095550.997500", "095551.457500", "095551.917500", "095552.377500", "095552.837500", "095553.297500", "095553.757500", "095554.217500", "095554.677500", "095555.137500", "095555.597500", "095556.057500", "095556.517500", "095556.977500", "095557.437500", "095557.897500", "095558.357500", "095558.817500", "095559.277500", "095559.737500", "095600.197500", "095600.657500", "095601.117500", "095601.577500", "095602.037500", "095602.497500", "095602.957500", "095603.417500", "095603.877500", "095604.337500", "095604.797500", "095605.257500", "095605.717500", "095606.177500", "095606.637500", "095607.097500", "095607.557500", "095608.017500", "095608.477500", "095608.937500", "095609.397500", "095609.857500", "095610.317500", "095610.777500", "095611.237500", "095611.697500", "095612.157500", "095612.617500", "095613.077500", "095613.537500", "095613.997500", "095614.457500", "095614.917500", "095615.377500", "095615.837500", "095616.297500", "095616.757500", "095617.217500", "095617.677500", "095618.137500", "095618.597500", "095619.057500", "095619.517500", "095619.977500", "095620.437500", "095620.897500", "095621.357500", "095621.817500", "095622.277500", "095622.737500", "095623.197500", "095623.657500", "095624.117500", "095624.577500", "095625.037500", "095625.497500", "095625.957500", "095626.417500", "095626.877500", "095627.337500", "095627.797500", "095628.257500", "095628.717500", "095629.177500", "095629.637500", "095630.097500", "095630.557500", "095631.017500", "095631.477500", "095631.937500", "095632.397500", "095632.857500", "095633.317500", "095633.777500", "095634.237500", "095634.697500", "095635.157500", "095635.617500", "095636.077500", "095636.537500", "095636.997500", "095637.457500", "095637.917500", "095638.377500", "095638.837500", "095639.297500", "095639.757500", "095640.217500", "095640.677500", "095641.137500", "095641.597500", "095642.057500", "095642.517500", "095642.977500", "095643.437500", "095643.897500", "095644.357500", "095644.817500", "095645.277500", "095645.737500", "095646.197500", "095646.657500", "095647.117500", "095647.577500", "095648.037500", "095648.497500", "095648.957500", "095649.417500", "095649.877500", "095650.337500", "095650.797500", "095651.257500", "095651.717500", "095652.177500", "095652.637500", "095653.097500", "095653.557500", "095654.017500", "095654.477500", "095654.937500", "095655.397500", "095655.857500", "095656.317500", "095656.777500", "095657.237500", "095657.697500", "095658.157500", "095658.617500", "095659.077500", "095659.537500", "095659.997500", "095700.457500", "095700.917500", "095701.377500", "095701.837500", "095702.297500", "095702.757500", "095703.217500", "095703.677500", "095704.137500", "095704.597500", "095705.057500", "095705.517500", "095705.977500", "095706.437500", "095706.897500", "095707.357500", "095707.817500", "095708.277500", "095708.737500", "095709.197500", "095709.657500", "095710.117500", "095710.577500", "095711.037500", "095711.497500", "095711.957500", "095712.417500", "095712.877500", "095713.337500", "095713.797500", "095714.257500", "095714.717500", "095715.177500", "095715.637500", "095716.097500", "095716.557500", "095717.017500", "095717.477500", "095717.937500", "095718.397500", "095718.857500", "095719.317500", "095719.777500", "095720.237500", "095720.697500", "095721.157500", "095721.617500", "095722.077500", "095722.537500", "095722.997500", "095723.457500", "095723.917500", "095724.377500", "095724.837500", "095725.297500", "095725.757500", "095726.217500", "095726.677500", "095727.137500", "095727.597500", "095728.057500", "095728.517500", "095728.977500", "095729.437500", "095729.897500", "095730.357500", "095730.817500", "095731.277500", "095731.737500", "095732.197500", "095732.657500", "095733.117500", "095733.577500", "095734.037500", "095734.497500", "095734.957500", "095735.417500", "095735.877500", "095736.337500", "095736.797500", "095737.257500", "095737.717500", "095738.177500", "095738.637500", "095739.097500", "095739.557500", "095740.017500", "095740.477500", "095740.937500", "095741.397500", "095741.857500", "095742.317500", "095742.777500", "095743.237500", "095743.697500", "095744.157500", "095744.617500", "095745.077500", "095745.537500", "095745.997500", "095746.457500", "095746.917500", "095747.377500", "095747.837500", "095748.297500", "095748.757500", "095749.217500", "095749.677500", "095750.137500", "095750.597500", "095751.057500", "095751.517500", "095751.977500", "095752.437500", "095752.897500", "095753.357500", "095753.817500", "095754.277500", "095754.737500", "095755.197500", "095755.657500", "095756.117500", "095756.577500", "095757.037500", "095757.497500", "095757.957500", "095758.417500", "095758.877500", "095759.337500", "095759.797500", "095800.257500", "095800.717500", "095801.177500", "095801.637500", "095802.097500", "095802.557500", "095803.017500", "095803.477500", "095803.937500", "095804.397500", "095804.857500", "095805.317500", "095805.777500", "095806.237500", "095806.697500", "095807.157500", "095807.617500", "095808.077500", "095808.537500", "095808.997500", "095809.457500", "095809.917500", "095810.377500", "095810.837500", "095811.297500", "095811.757500", "095812.217500", "095812.677500", "095813.137500", "095813.597500", "095814.057500", "095814.517500", "095814.977500", "095815.437500", "095815.897500", "095816.357500", "095816.817500", "095817.277500", "095817.737500", "095818.197500", "095818.657500", "095819.117500", "095819.577500", "095820.037500", "095820.497500", "095820.957500", "095821.417500", "095821.877500", "095822.337500", "095822.797500", "095823.257500", "095823.717500", "095824.177500", "095824.637500", "095825.097500", "095825.557500", "095826.017500", "095826.477500", "095826.937500", "095827.397500", "095827.857500", "095828.317500", "095828.777500", "095829.237500", "095829.697500", "095830.157500", "095830.617500", "095831.077500", "095831.537500", "095831.997500", "095832.457500", "095832.917500", "095833.377500", "095833.837500", "095834.297500", "095834.757500", "095835.217500", "095835.677500", "095836.137500", "095836.597500", "095837.057500", "095837.517500", "095837.977500", "095838.437500", "095838.897500", "095839.357500", "095839.817500", "095840.277500", "095840.737500", "095841.197500", "095841.657500", "095842.117500", "095842.577500", "095843.037500", "095843.497500", "095843.957500", "095844.417500", "095844.877500", "095845.337500", "095845.797500", "095846.257500", "095846.717500", "095847.177500", "095847.637500", "095848.097500", "095848.557500", "095849.017500", "095849.477500", "095849.937500", "095850.397500", "095850.857500", "095851.317500", "095851.777500", "095852.237500", "095852.697500", "095853.157500", "095853.617500", "095854.077500", "095854.537500", "095854.997500", "095855.457500", "095855.917500", "095856.377500", "095856.837500", "095857.297500", "095857.757500", "095858.217500", "095858.677500", "095859.137500", "095859.597500", "095900.057500", "095900.517500", "095900.977500", "095901.437500", "095901.897500", "095902.357500", "095902.817500", "095903.277500", "095903.737500", "095904.197500", "095904.657500", "095905.117500", "095905.577500", "095906.037500", "095906.497500", "095906.957500", "095907.417500", "095907.877500", "095908.337500", "095908.797500", "095909.257500", "095909.717500", "095910.177500", "095910.637500", "095911.097500", "095911.557500", "095912.017500", "095912.477500", "095912.937500", "095913.397500", "095913.857500", "095914.317500", "095914.777500", "095915.237500", "095915.697500", "095916.157500", "095916.617500", "095917.077500", "095917.537500", "095917.997500", "095918.457500", "095918.917500", "095919.377500", "095919.837500", "095920.297500", "095920.757500", "095921.217500", "095921.677500", "095922.137500", "095922.597500", "095923.057500", "095923.517500", "095923.977500", "095924.437500", "095924.897500", "095925.357500", "095925.817500", "095926.277500", "095926.737500", "095927.197500", "095927.657500", "095928.117500", "095928.577500", "095929.037500", "095929.497500", "095929.957500", "095930.417500", "095930.877500", "095931.337500", "095931.797500", "095932.257500", "095932.717500", "095933.177500", "095933.637500", "095934.097500", "095934.557500", "095935.017500", "095935.477500", "095935.937500", "095936.397500", "095936.857500", "095937.317500", "095937.777500", "095938.237500", "095938.697500", "095939.157500", "095939.617500", "095940.077500", "095940.537500", "095940.997500", "095941.457500", "095941.917500", "095942.377500", "095942.837500", "095943.297500", "095943.757500", "095944.217500", "095944.677500", "095945.137500", "095945.597500", "095946.057500", "095946.517500", "095946.977500", "095947.437500", "095947.897500", "095948.357500", "095948.817500", "095949.277500", "095949.737500", "095950.197500", "095950.657500", "095951.117500", "095951.577500", "095952.037500", "095952.497500", "095952.957500", "095953.417500", "095953.877500", "095954.337500", "095954.797500", "095955.257500", "095955.717500", "095956.177500", "095956.637500", "095957.097500", "095957.557500", "095958.017500", "095958.477500", "095958.937500", "095959.397500", "095959.857500", "100000.317500", "100000.777500", "100001.237500", "100001.697500", "100002.157500", "100002.617500", "100003.077500", "100003.537500", "100003.997500", "100004.457500", "100004.917500", "100005.377500", "100005.837500", "100006.297500", "100006.757500", "100007.217500", "100007.677500", "100008.137500", "100008.597500", "100009.057500", "100009.517500", "100009.977500", "100010.437500", "100010.897500", "100011.357500", "100011.817500", "100012.277500", "100012.737500", "100013.197500", "100013.657500", "100014.117500", "100014.577500", "100015.037500", "100015.497500", "100015.957500", "100016.417500", "100016.877500", "100017.337500", "100017.797500", "100018.257500", "100018.717500", "100019.177500", "100019.637500", "100020.097500", "100020.557500", "100021.017500", "100021.477500", "100021.937500", "100022.397500", "100022.857500", "100023.317500", "100023.777500", "100024.237500", "100024.697500", "100025.157500", "100025.617500", "100026.077500", "100026.537500", "100026.997500", "100027.457500", "100027.917500", "100028.377500", "100028.837500", "100029.297500", "100029.757500", "100030.217500", "100030.677500", "100031.137500", "100031.597500", "100032.057500", "100032.517500", "100032.977500", "100033.437500", "100033.897500", "100034.357500", "100034.817500", "100035.277500", "100035.737500", "100036.197500", "100036.657500", "100037.117500", "100037.577500", "100038.037500", "100038.497500", "100038.957500", "100039.417500", "100039.877500", "100040.337500", "100040.797500", "100041.257500", "100041.717500", "100042.177500", "100042.637500", "100043.097500", "100043.557500", "100044.017500", "100044.477500", "100044.937500", "100045.397500", "100045.857500", "100046.317500", "100046.777500", "100047.237500", "100047.697500", "100048.157500", "100048.617500", "100049.077500", "100049.537500", "100049.997500", "100050.457500", "100050.917500", "100051.377500", "100051.837500", "100052.297500", "100052.757500", "100053.217500", "100053.677500", "100054.137500", "100054.597500", "100055.057500", "100055.517500", "100055.977500", "100056.437500", "100056.897500", "100057.357500", "100057.817500", "100058.277500", "100058.737500", "100059.197500", "100059.657500", "100100.117500", "100100.577500", "100101.037500", "100101.497500", "100101.957500", "100102.417500", "100102.877500", "100103.337500", "100103.797500", "100104.257500", "100104.717500", "100105.177500", "100105.637500", "100106.097500", "100106.557500", "100107.017500", "100107.477500", "100107.937500", "100108.397500", "100108.857500", "100109.317500", "100109.777500", "100110.237500", "100110.697500", "100111.157500", "100111.617500", "100112.077500", "100112.537500", "100112.997500", "100113.457500", "100113.917500", "100114.377500", "100114.837500", "100115.297500", "100115.757500", "100116.217500", "100116.677500", "100117.137500", "100117.597500", "100118.057500", "100118.517500", "100118.977500", "100119.437500", "100119.897500", "100120.357500", "100120.817500", "100121.277500", "100121.737500", "100122.197500", "100122.657500", "100123.117500", "100123.577500", "100124.037500", "100124.497500", "100124.957500", "100125.417500", "100125.877500", "100126.337500", "100126.797500", "100127.257500", "100127.717500", "100128.177500", "100128.637500", "100129.097500", "100129.557500", "100130.017500", "100130.477500", "100130.937500", "100131.397500", "100131.857500", "100132.317500", "100132.777500", "100133.237500", "100133.697500", "100134.157500", "100134.617500", "100135.077500", "100135.537500", "100135.997500", "100136.457500", "100136.917500", "100137.377500", "100137.837500", "100138.297500", "100138.757500", "100139.217500", "100139.677500", "100140.137500", "100140.597500", "100141.057500", "100141.517500", "100141.977500", "100142.437500", "100142.897500", "100143.357500", "100143.817500", "100144.277500", "100144.737500", "100145.197500", "100145.657500", "100146.117500", "100146.577500", "100147.037500", "100147.497500", "100147.957500", "100148.417500", "100148.877500", "100149.337500", "100149.797500", "100150.257500", "100150.717500", "100151.177500", "100151.637500", "100152.097500", "100152.557500", "100153.017500", "100153.477500", "100153.937500", "100154.397500", "100154.857500", "100155.317500", "100155.777500", "100156.237500", "100156.697500", "100157.157500", "100157.617500", "100158.077500", "100158.537500", "100158.997500", "100159.457500", "100159.917500", "100200.377500", "100200.837500", "100201.297500", "100201.757500", "100202.217500", "100202.677500", "100203.137500", "100203.597500", "100204.057500", "100204.517500", "100204.977500", "100205.437500", "100205.897500", "100206.357500", "100206.817500", "100207.277500", "100207.737500", "100208.197500", "100208.657500", "100209.117500", "100209.577500", "100210.037500", "100210.497500", "100210.957500", "100211.417500", "100211.877500", "100212.337500", "100212.797500", "100213.257500", "100213.717500", "100214.177500", "100214.637500", "100215.097500", "100215.557500", "100216.017500", "100216.477500", "100216.937500", "100217.397500", "100217.857500", "100218.317500", "100218.777500", "100219.237500", "100219.697500", "100220.157500", "100220.617500", "100221.077500", "100221.537500"],
