{
  "AcquisitionMatrixPE": 82,
  "AcquisitionNumber": 1,
  "AcquisitionTime": "09:37:6.800000",
  "BandwidthPerPixelPhaseEncode": 24.888,
  "BaseResolution": 82,
  "BodyPartExamined": "BRAIN",
  "ConsistencyInfo": "N4_VE11E_LATEST_20181129",
  "ConversionSoftware": "dcm2niix",
  "ConversionSoftwareVersion": "v1.0.20201102",
  "DerivedVendorReportedEchoSpacing": 0.00049,
  "DeviceSerialNumber": "66112",
  "DwellTime": 2e-06,
  "EchoTime": 0.0272,
  "EchoTrainLength": 82,
  "EffectiveEchoSpacing": 0.00049,
  "FlipAngle": 44,
  "ImageComments": "Unaliased MB8/PE3",
  "ImageOrientationPatientDICOM": [0.999384, 0.00417979, 0.0348344, -0.00558164, 0.999174, 0.0402436],
  "ImageType": [
    "ORIGINAL",
    "PRIMARY",
    "M",
    "MB",
    "ND",
    "NORM",
    "MOSAIC"
],
  "ImagingFrequency": 123.252,
  "InPlanePhaseEncodingDirectionDICOM": "COL",
  "InstitutionAddress": "Maynard 3,Hanover,NH,US,03755",
  "InstitutionName": "Dartmouth College - PBS",
  "InstitutionalDepartmentName": "Department",
  "MRAcquisitionType": "2D",
  "MagneticFieldStrength": 3,
  "Manufacturer": "Siemens",
  "ManufacturersModelName": "Prisma",
  "Modality": "MR",
  "MultibandAccelerationFactor": 8,
  "PartialFourier": 1,
  "PatientPosition": "HFS",
  "PercentPhaseFOV": 100,
  "PercentSampling": 100,
  "PhaseEncodingDirection": "j-",
  "PhaseEncodingSteps": 82,
  "PhaseResolution": 1,
  "PixelBandwidth": 3050,
  "ProcedureStepDescription": "Wager_Wager^1076_spacetop",
  "ProtocolName": "func_run-05_task-social_acq-ap-mb8",
  "PulseSequenceDetails": "%CustomerSeq%\\cmrr_mbep2d_bold",
  "ReceiveCoilActiveElements": "HEA;HEP",
  "ReceiveCoilName": "Head_32",
  "ReconMatrixPE": 82,
  "RepetitionTime": 0.46,
  "SAR": 0.0912094,
  "ScanOptions": "FS",
  "ScanningSequence": "EP",
  "SequenceName": "epfid2d1_82",
  "SequenceVariant": "SK\\SS",
  "SeriesDescription": "func_run-05_task-social_acq-ap-mb8",
  "SeriesNumber": 20,
  "ShimSetting": [4152, -7746, -7303, 656, -79, -127, 69, 95],
  "SliceThickness": 2.7,
  "SliceTiming": [0, 0.25, 0.0625, 0.3125, 0.125, 0.375, 0.1875, 0, 0.25, 0.0625, 0.3125, 0.125, 0.375, 0.1875, 0, 0.25, 0.0625, 0.3125, 0.125, 0.375, 0.1875, 0, 0.25, 0.0625, 0.3125, 0.125, 0.375, 0.1875, 0, 0.25, 0.0625, 0.3125, 0.125, 0.375, 0.1875, 0, 0.25, 0.0625, 0.3125, 0.125, 0.375, 0.1875, 0, 0.25, 0.0625, 0.3125, 0.125, 0.375, 0.1875, 0, 0.25, 0.0625, 0.3125, 0.125, 0.375, 0.1875],
  "SoftwareVersions": "syngo MR E11",
  "SpacingBetweenSlices": 2.7,
  "StationName": "AWP66112",
  "TaskName": "social",
  "TotalReadoutTime": 0.03969,
  "TxRefAmp": 236.123,
  "WipMemBlock": "5a1546fa-df2f-44f3-b1c3-d4bb9f940625||Sequence: R016 ve11e/master r/434b28f1; Aug  7 2019 18:53:46 by eja",
  "dcmmeta_affine": [
    [-2.6812751293182373, -0.014975127764046192, 0.0935211107134819, 109.95507049560547],
    [-0.011214072816073895, 2.680711507797241, 0.10911578685045242, -100.7954330444336],
    [0.09345820546150208, -0.10797063261270523, 2.6961727142333984, -82.14667510986328],
    [0.0, 0.0, 0.0, 1.0]
],
  "dcmmeta_reorient_transform": [
    [0.0, -1.0, 0.0, 81.0],
    [1.0, 0.0, 0.0, 0.0],
    [0.0, 0.0, 1.0, 0.0],
    [0.0, 0.0, 0.0, 1.0]
],
  "dcmmeta_shape": [82, 82, 56, 872],
  "dcmmeta_slice_dim": 2,
  "dcmmeta_version": 0.6,
  "global": {
    "const": {
      "AccessionNumber": "A004112",
      "AcquisitionMatrix": [82, 0, 0, 82],
      "AngioFlag": "N",
      "BitsAllocated": 16,
      "BitsStored": 16,
      "BodyPartExamined": "BRAIN",
      "Columns": 656,
      "EchoNumbers": 1,
      "EchoTime": 27.2,
      "EchoTrainLength": 82,
      "FlipAngle": 44.0,
      "HighBit": 15,
      "ImageOrientationPatient": [0.9993843567186, 0.00417979068475, 0.03483442113759, -0.0055816382409, 0.99917430814177, 0.04024359904335],
      "ImagePositionPatient": [-873.97019456578, -888.92488508336, -148.70237210298],
      "ImageType": [
        "ORIGINAL",
        "PRIMARY",
        "M",
        "MB",
        "ND",
        "NORM",
        "MOSAIC"
],
      "ImagedNucleus": "1H",
      "ImagingFrequency": 123.252229,
      "InPlanePhaseEncodingDirection": "COL",
      "MRAcquisitionType": "2D",
      "MagneticFieldStrength": 3.0,
      "Manufacturer": "SIEMENS",
      "ManufacturerModelName": "Prisma",
      "Modality": "MR",
      "NumberOfAverages": 1.0,
      "NumberOfPhaseEncodingSteps": 82,
      "PercentPhaseFieldOfView": 100.0,
      "PercentSampling": 100.0,
      "PerformedProcedureStepStartTime": "083142.651000",
      "PhotometricInterpretation": "MONOCHROME2",
      "PixelBandwidth": 3050.0,
      "PixelRepresentation": 0,
      "PixelSpacing": [2.6829268932343, 2.6829268932343],
      "ProtocolName": "func_run-05_task-social_acq-ap-mb8",
      "RepetitionTime": 460.0,
      "Rows": 656,
      "SAR": 0.09120943858141,
      "SamplesPerPixel": 1,
      "ScanOptions": "FS",
      "ScanningSequence": "EP",
      "SequenceName": "epfid2d1_82",
      "SequenceVariant": [
        "SK",
        "SS"
],
      "SeriesDescription": "func_run-05_task-social_acq-ap-mb8",
      "SeriesNumber": 20,
      "SeriesTime": "093727.477000",
      "SliceLocation": -82.295139721645,
      "SliceThickness": 2.7000000476837,
      "SmallestImagePixelValue": 0,
      "SoftwareVersions": "syngo MR E11",
      "SpacingBetweenSlices": 2.6999999206684,
      "SpecificCharacterSet": "ISO_IR 100",
      "StudyID": "1",
      "StudyTime": "083142.475000",
      "TransmitCoilName": "Body",
      "VariableFlipAngleFlag": "N",
      "WindowCenterWidthExplanation": "Algo1"
    },
    "slices": {}
  },
  "time": {
    "samples": {
      "AcquisitionNumber": [1, 2, 3, 4, 5, 6, 7, 8, 9, 10, 11, 12, 13, 14, 15, 16, 17, 18, 19, 20, 21, 22, 23, 24, 25, 26, 27, 28, 29, 30, 31, 32, 33, 34, 35, 36, 37, 38, 39, 40, 41, 42, 43, 44, 45, 46, 47, 48, 49, 50, 51, 52, 53, 54, 55, 56, 57, 58, 59, 60, 61, 62, 63, 64, 65, 66, 67, 68, 69, 70, 71, 72, 73, 74, 75, 76, 77, 78, 79, 80, 81, 82, 83, 84, 85, 86, 87, 88, 89, 90, 91, 92, 93, 94, 95, 96, 97, 98, 99, 100, 101, 102, 103, 104, 105, 106, 107, 108, 109, 110, 111, 112, 113, 114, 115, 116, 117, 118, 119, 120, 121, 122, 123, 124, 125, 126, 127, 128, 129, 130, 131, 132, 133, 134, 135, 136, 137, 138, 139, 140, 141, 142, 143, 144, 145, 146, 147, 148, 149, 150, 151, 152, 153, 154, 155, 156, 157, 158, 159, 160, 161, 162, 163, 164, 165, 166, 167, 168, 169, 170, 171, 172, 173, 174, 175, 176, 177, 178, 179, 180, 181, 182, 183, 184, 185, 186, 187, 188, 189, 190, 191, 192, 193, 194, 195, 196, 197, 198, 199, 200, 201, 202, 203, 204, 205, 206, 207, 208, 209, 210, 211, 212, 213, 214, 215, 216, 217, 218, 219, 220, 221, 222, 223, 224, 225, 226, 227, 228, 229, 230, 231, 232, 233, 234, 235, 236, 237, 238, 239, 240, 241, 242, 243, 244, 245, 246, 247, 248, 249, 250, 251, 252, 253, 254, 255, 256, 257, 258, 259, 260, 261, 262, 263, 264, 265, 266, 267, 268, 269, 270, 271, 272, 273, 274, 275, 276, 277, 278, 279, 280, 281, 282, 283, 284, 285, 286, 287, 288, 289, 290, 291, 292, 293, 294, 295, 296, 297, 298, 299, 300, 301, 302, 303, 304, 305, 306, 307, 308, 309, 310, 311, 312, 313, 314, 315, 316, 317, 318, 319, 320, 321, 322, 323, 324, 325, 326, 327, 328, 329, 330, 331, 332, 333, 334, 335, 336, 337, 338, 339, 340, 341, 342, 343, 344, 345, 346, 347, 348, 349, 350, 351, 352, 353, 354, 355, 356, 357, 358, 359, 360, 361, 362, 363, 364, 365, 366, 367, 368, 369, 370, 371, 372, 373, 374, 375, 376, 377, 378, 379, 380, 381, 382, 383, 384, 385, 386, 387, 388, 389, 390, 391, 392, 393, 394, 395, 396, 397, 398, 399, 400, 401, 402, 403, 404, 405, 406, 407, 408, 409, 410, 411, 412, 413, 414, 415, 416, 417, 418, 419, 420, 421, 422, 423, 424, 425, 426, 427, 428, 429, 430, 431, 432, 433, 434, 435, 436, 437, 438, 439, 440, 441, 442, 443, 444, 445, 446, 447, 448, 449, 450, 451, 452, 453, 454, 455, 456, 457, 458, 459, 460, 461, 462, 463, 464, 465, 466, 467, 468, 469, 470, 471, 472, 473, 474, 475, 476, 477, 478, 479, 480, 481, 482, 483, 484, 485, 486, 487, 488, 489, 490, 491, 492, 493, 494, 495, 496, 497, 498, 499, 500, 501, 502, 503, 504, 505, 506, 507, 508, 509, 510, 511, 512, 513, 514, 515, 516, 517, 518, 519, 520, 521, 522, 523, 524, 525, 526, 527, 528, 529, 530, 531, 532, 533, 534, 535, 536, 537, 538, 539, 540, 541, 542, 543, 544, 545, 546, 547, 548, 549, 550, 551, 552, 553, 554, 555, 556, 557, 558, 559, 560, 561, 562, 563, 564, 565, 566, 567, 568, 569, 570, 571, 572, 573, 574, 575, 576, 577, 578, 579, 580, 581, 582, 583, 584, 585, 586, 587, 588, 589, 590, 591, 592, 593, 594, 595, 596, 597, 598, 599, 600, 601, 602, 603, 604, 605, 606, 607, 608, 609, 610, 611, 612, 613, 614, 615, 616, 617, 618, 619, 620, 621, 622, 623, 624, 625, 626, 627, 628, 629, 630, 631, 632, 633, 634, 635, 636, 637, 638, 639, 640, 641, 642, 643, 644, 645, 646, 647, 648, 649, 650, 651, 652, 653, 654, 655, 656, 657, 658, 659, 660, 661, 662, 663, 664, 665, 666, 667, 668, 669, 670, 671, 672, 673, 674, 675, 676, 677, 678, 679, 680, 681, 682, 683, 684, 685, 686, 687, 688, 689, 690, 691, 692, 693, 694, 695, 696, 697, 698, 699, 700, 701, 702, 703, 704, 705, 706, 707, 708, 709, 710, 711, 712, 713, 714, 715, 716, 717, 718, 719, 720, 721, 722, 723, 724, 725, 726, 727, 728, 729, 730, 731, 732, 733, 734, 735, 736, 737, 738, 739, 740, 741, 742, 743, 744, 745, 746, 747, 748, 749, 750, 751, 752, 753, 754, 755, 756, 757, 758, 759, 760, 761, 762, 763, 764, 765, 766, 767, 768, 769, 770, 771, 772, 773, 774, 775, 776, 777, 778, 779, 780, 781, 782, 783, 784, 785, 786, 787, 788, 789, 790, 791, 792, 793, 794, 795, 796, 797, 798, 799, 800, 801, 802, 803, 804, 805, 806, 807, 808, 809, 810, 811, 812, 813, 814, 815, 816, 817, 818, 819, 820, 821, 822, 823, 824, 825, 826, 827, 828, 829, 830, 831, 832, 833, 834, 835, 836, 837, 838, 839, 840, 841, 842, 843, 844, 845, 846, 847, 848, 849, 850, 851, 852, 853, 854, 855, 856, 857, 858, 859, 860, 861, 862, 863, 864, 865, 866, 867, 868, 869, 870, 871, 872],
      "AcquisitionTime": ["093706.800000", "093707.260000", "093707.720000", "093708.180000", "093708.640000", "093709.100000", "093709.560000", "093710.020000", "093710.480000", "093710.940000", "093711.400000", "093711.860000", "093712.320000", "093712.780000", "093713.240000", "093713.700000", "093714.160000", "093714.620000", "093715.080000", "093715.540000", "093716.000000", "093716.460000", "093716.920000", "093717.380000", "093717.840000", "093718.300000", "093718.760000", "093719.220000", "093719.680000", "093720.140000", "093720.600000", "093721.060000", "093721.520000", "093721.980000", "093722.440000", "093722.900000", "093723.360000", "093723.820000", "093724.280000", "093724.740000", "093725.200000", "093725.660000", "093726.120000", "093726.580000", "093727.040000", "093727.500000", "093727.960000", "093728.420000", "093728.880000", "093729.340000", "093729.800000", "093730.260000", "093730.720000", "093731.180000", "093731.640000", "093732.100000", "093732.560000", "093733.020000", "093733.480000", "093733.940000", "093734.400000", "093734.860000", "093735.320000", "093735.780000", "093736.240000", "093736.700000", "093737.160000", "093737.620000", "093738.080000", "093738.540000", "093739.000000", "093739.460000", "093739.920000", "093740.380000", "093740.840000", "093741.300000", "093741.760000", "093742.220000", "093742.680000", "093743.140000", "093743.600000", "093744.060000", "093744.520000", "093744.980000", "093745.440000", "093745.900000", "093746.360000", "093746.820000", "093747.280000", "093747.740000", "093748.200000", "093748.660000", "093749.120000", "093749.580000", "093750.040000", "093750.500000", "093750.960000", "093751.420000", "093751.880000", "093752.340000", "093752.800000", "093753.260000", "093753.720000", "093754.180000", "093754.640000", "093755.100000", "093755.560000", "093756.020000", "093756.480000", "093756.940000", "093757.400000", "093757.860000", "093758.320000", "093758.780000", "093759.240000", "093759.700000", "093800.160000", "093800.620000", "093801.080000", "093801.540000", "093802.000000", "093802.460000", "093802.920000", "093803.380000", "093803.840000", "093804.300000", "093804.760000", "093805.220000", "093805.680000", "093806.140000", "093806.600000", "093807.060000", "093807.520000", "093807.980000", "093808.440000", "093808.900000", "093809.360000", "093809.820000", "093810.280000", "093810.740000", "093811.200000", "093811.660000", "093812.120000", "093812.580000", "093813.040000", "093813.500000", "093813.960000", "093814.420000", "093814.880000", "093815.340000", "093815.800000", "093816.260000", "093816.720000", "093817.180000", "093817.640000", "093818.100000", "093818.560000", "093819.020000", "093819.480000", "093819.940000", "093820.400000", "093820.860000", "093821.320000", "093821.780000", "093822.240000", "093822.700000", "093823.160000", "093823.620000", "093824.080000", "093824.540000", "093825.000000", "093825.460000", "093825.920000", "093826.380000", "093826.840000", "093827.300000", "093827.760000", "093828.220000", "093828.680000", "093829.140000", "093829.600000", "093830.060000", "093830.520000", "093830.980000", "093831.440000", "093831.900000", "093832.360000", "093832.820000", "093833.280000", "093833.740000", "093834.200000", "093834.660000", "093835.120000", "093835.580000", "093836.040000", "093836.500000", "093836.960000", "093837.420000", "093837.880000", "093838.340000", "093838.800000", "093839.260000", "093839.720000", "093840.180000", "093840.640000", "093841.100000", "093841.560000", "093842.020000", "093842.480000", "093842.940000", "093843.400000", "093843.860000", "093844.320000", "093844.780000", "093845.240000", "093845.700000", "093846.160000", "093846.620000", "093847.080000", "093847.540000", "093848.000000", "093848.460000", "093848.920000", "093849.380000", "093849.840000", "093850.300000", "093850.760000", "093851.220000", "093851.680000", "093852.140000", "093852.600000", "093853.060000", "093853.520000", "093853.980000", "093854.440000", "093854.900000", "093855.360000", "093855.820000", "093856.280000", "093856.740000", "093857.200000", "093857.660000", "093858.120000", "093858.580000", "093859.040000", "093859.500000", "093859.960000", "093900.420000", "093900.880000", "093901.340000", "093901.800000", "093902.260000", "093902.720000", "093903.180000", "093903.640000", "093904.100000", "093904.560000", "093905.020000", "093905.480000", "093905.940000", "093906.400000", "093906.860000", "093907.320000", "093907.780000", "093908.240000", "093908.700000", "093909.160000", "093909.620000", "093910.080000", "093910.540000", "093911.000000", "093911.460000", "093911.920000", "093912.380000", "093912.840000", "093913.300000", "093913.760000", "093914.220000", "093914.680000", "093915.140000", "093915.600000", "093916.060000", "093916.520000", "093916.980000", "093917.440000", "093917.900000", "093918.360000", "093918.820000", "093919.280000", "093919.740000", "093920.200000", "093920.660000", "093921.120000", "093921.580000", "093922.040000", "093922.500000", "093922.960000", "093923.420000", "093923.880000", "093924.340000", "093924.800000", "093925.260000", "093925.720000", "093926.180000", "093926.640000", "093927.100000", "093927.560000", "093928.020000", "093928.480000", "093928.940000", "093929.400000", "093929.860000", "093930.320000", "093930.780000", "093931.240000", "093931.700000", "093932.160000", "093932.620000", "093933.080000", "093933.540000", "093934.000000", "093934.460000", "093934.920000", "093935.380000", "093935.840000", "093936.300000", "093936.760000", "093937.220000", "093937.680000", "093938.140000", "093938.600000", "093939.060000", "093939.520000", "093939.980000", "093940.440000", "093940.900000", "093941.360000", "093941.820000", "093942.280000", "093942.740000", "093943.200000", "093943.660000", "093944.120000", "093944.580000", "093945.040000", "093945.500000", "093945.960000", "093946.420000", "093946.880000", "093947.340000", "093947.800000", "093948.260000", "093948.720000", "093949.180000", "093949.640000", "093950.100000", "093950.560000", "093951.020000", "093951.480000", "093951.940000", "093952.400000", "093952.860000", "093953.320000", "093953.780000", "093954.240000", "093954.700000", "093955.160000", "093955.620000", "093956.080000", "093956.540000", "093957.000000", "093957.460000", "093957.920000", "093958.380000", "093958.840000", "093959.300000", "093959.760000", "094000.220000", "094000.680000", "094001.140000", "094001.600000", "094002.060000", "094002.520000", "094002.980000", "094003.440000", "094003.900000", "094004.360000", "094004.820000", "094005.280000", "094005.740000", "094006.200000", "094006.660000", "094007.120000", "094007.580000", "094008.040000", "094008.500000", "094008.960000", "094009.420000", "094009.880000", "094010.340000", "094010.800000", "094011.260000", "094011.720000", "094012.180000", "094012.640000", "094013.100000", "094013.560000", "094014.020000", "094014.480000", "094014.940000", "094015.400000", "094015.860000", "094016.320000", "094016.780000", "094017.240000", "094017.700000", "094018.160000", "094018.620000", "094019.080000", "094019.540000", "094020.000000", "094020.460000", "094020.920000", "094021.380000", "094021.840000", "094022.300000", "094022.760000", "094023.220000", "094023.680000", "094024.140000", "094024.600000", "094025.060000", "094025.520000", "094025.980000", "094026.440000", "094026.900000", "094027.360000", "094027.820000", "094028.280000", "094028.740000", "094029.200000", "094029.660000", "094030.120000", "094030.580000", "094031.040000", "094031.500000", "094031.960000", "094032.420000", "094032.880000", "094033.340000", "094033.800000", "094034.260000", "094034.720000", "094035.180000", "094035.640000", "094036.100000", "094036.560000", "094037.020000", "094037.480000", "094037.940000", "094038.400000", "094038.860000", "094039.320000", "094039.780000", "094040.240000", "094040.700000", "094041.160000", "094041.620000", "094042.080000", "094042.540000", "094043.000000", "094043.460000", "094043.920000", "094044.380000", "094044.840000", "094045.300000", "094045.760000", "094046.220000", "094046.680000", "094047.140000", "094047.600000", "094048.060000", "094048.520000", "094048.980000", "094049.440000", "094049.900000", "094050.360000", "094050.820000", "094051.280000", "094051.740000", "094052.200000", "094052.660000", "094053.120000", "094053.580000", "094054.040000", "094054.500000", "094054.960000", "094055.420000", "094055.880000", "094056.340000", "094056.800000", "094057.260000", "094057.720000", "094058.180000", "094058.640000", "094059.100000", "094059.560000", "094100.020000", "094100.480000", "094100.940000", "094101.400000", "094101.860000", "094102.320000", "094102.780000", "094103.240000", "094103.700000", "094104.160000", "094104.620000", "094105.080000", "094105.540000", "094106.000000", "094106.460000", "094106.920000", "094107.380000", "094107.840000", "094108.300000", "094108.760000", "094109.220000", "094109.680000", "094110.140000", "094110.600000", "094111.060000", "094111.520000", "094111.980000", "094112.440000", "094112.900000", "094113.360000", "094113.820000", "094114.280000", "094114.740000", "094115.200000", "094115.660000", "094116.120000", "094116.580000", "094117.040000", "094117.500000", "094117.960000", "094118.420000", "094118.880000", "094119.340000", "094119.800000", "094120.260000", "094120.720000", "094121.180000", "094121.640000", "094122.100000", "094122.560000", "094123.020000", "094123.480000", "094123.940000", "094124.400000", "094124.860000", "094125.320000", "094125.780000", "094126.240000", "094126.700000", "094127.160000", "094127.620000", "094128.080000", "094128.540000", "094129.000000", "094129.460000", "094129.920000", "094130.380000", "094130.840000", "094131.300000", "094131.760000", "094132.220000", "094132.680000", "094133.140000", "094133.600000", "094134.060000", "094134.520000", "094134.980000", "094135.440000", "094135.900000", "094136.360000", "094136.820000", "094137.280000", "094137.740000", "094138.200000", "094138.660000", "094139.120000", "094139.580000", "094140.040000", "094140.500000", "094140.960000", "094141.420000", "094141.880000", "094142.340000", "094142.800000", "094143.260000", "094143.720000", "094144.180000", "094144.640000", "094145.100000", "094145.560000", "094146.020000", "094146.480000", "094146.940000", "094147.400000", "094147.860000", "094148.320000", "094148.780000", "094149.240000", "094149.700000", "094150.160000", "094150.620000", "094151.080000", "094151.540000", "094152.000000", "094152.460000", "094152.920000", "094153.380000", "094153.840000", "094154.300000", "094154.760000", "094155.220000", "094155.680000", "094156.140000", "094156.600000", "094157.060000", "094157.520000", "094157.980000", "094158.440000", "094158.900000", "094159.360000", "094159.820000", "094200.280000", "094200.740000", "094201.200000", "094201.660000", "094202.120000", "094202.580000", "094203.040000", "094203.500000", "094203.960000", "094204.420000", "094204.880000", "094205.340000", "094205.800000", "094206.260000", "094206.720000", "094207.180000", "094207.640000", "094208.100000", "094208.560000", "094209.020000", "094209.480000", "094209.940000", "094210.400000", "094210.860000", "094211.320000", "094211.780000", "094212.240000", "094212.700000", "094213.160000", "094213.620000", "094214.080000", "094214.540000", "094215.000000", "094215.460000", "094215.920000", "094216.380000", "094216.840000", "094217.300000", "094217.760000", "094218.220000", "094218.680000", "094219.140000", "094219.600000", "094220.060000", "094220.520000", "094220.980000", "094221.440000", "094221.900000", "094222.360000", "094222.820000", "094223.280000", "094223.740000", "094224.200000", "094224.660000", "094225.120000", "094225.580000", "094226.040000", "094226.500000", "094226.960000", "094227.420000", "094227.880000", "094228.340000", "094228.800000", "094229.260000", "094229.720000", "094230.180000", "094230.640000", "094231.100000", "094231.560000", "094232.020000", "094232.480000", "094232.940000", "094233.400000", "094233.860000", "094234.320000", "094234.780000", "094235.240000", "094235.700000", "094236.160000", "094236.620000", "094237.080000", "094237.540000", "094238.000000", "094238.460000", "094238.920000", "094239.380000", "094239.840000", "094240.300000", "094240.760000", "094241.220000", "094241.680000", "094242.140000", "094242.600000", "094243.060000", "094243.520000", "094243.980000", "094244.440000", "094244.900000", "094245.360000", "094245.820000", "094246.280000", "094246.740000", "094247.200000", "094247.660000", "094248.120000", "094248.580000", "094249.040000", "094249.500000", "094249.960000", "094250.420000", "094250.880000", "094251.340000", "094251.800000", "094252.260000", "094252.720000", "094253.180000", "094253.640000", "094254.100000", "094254.560000", "094255.020000", "094255.480000", "094255.940000", "094256.400000", "094256.860000", "094257.320000", "094257.780000", "094258.240000", "094258.700000", "094259.160000", "094259.620000", "094300.080000", "094300.540000", "094301.000000", "094301.460000", "094301.920000", "094302.380000", "094302.840000", "094303.300000", "094303.760000", "094304.220000", "094304.680000", "094305.140000", "094305.600000", "094306.060000", "094306.520000", "094306.980000", "094307.440000", "094307.900000", "094308.360000", "094308.820000", "094309.280000", "094309.740000", "094310.200000", "094310.660000", "094311.120000", "094311.580000", "094312.040000", "094312.500000", "094312.960000", "094313.420000", "094313.880000", "094314.340000", "094314.800000", "094315.260000", "094315.720000", "094316.180000", "094316.640000", "094317.100000", "094317.560000", "094318.020000", "094318.480000", "094318.940000", "094319.400000", "094319.860000", "094320.320000", "094320.780000", "094321.240000", "094321.700000", "094322.160000", "094322.620000", "094323.080000", "094323.540000", "094324.000000", "094324.460000", "094324.920000", "094325.380000", "094325.840000", "094326.300000", "094326.760000", "094327.220000", "094327.680000", "094328.140000", "094328.600000", "094329.060000", "094329.520000", "094329.980000", "094330.440000", "094330.900000", "094331.360000", "094331.820000", "094332.280000", "094332.740000", "094333.200000", "094333.660000", "094334.120000", "094334.580000", "094335.040000", "094335.500000", "094335.960000", "094336.420000", "094336.880000", "094337.340000", "094337.800000", "094338.260000", "094338.720000", "094339.180000", "094339.640000", "094340.100000", "094340.560000", "094341.020000", "094341.480000", "094341.940000", "094342.400000", "094342.860000", "094343.320000", "094343.780000", "094344.240000", "094344.700000", "094345.160000", "094345.620000", "094346.080000", "094346.540000", "094347.000000", "094347.460000"],
