{
  "AcquisitionMatrixPE": 82,
  "AcquisitionNumber": 1,
  "AcquisitionTime": "09:13:22.262500",
  "BandwidthPerPixelPhaseEncode": 24.888,
  "BaseResolution": 82,
  "BodyPartExamined": "BRAIN",
  "ConsistencyInfo": "N4_VE11E_LATEST_20181129",
  "ConversionSoftware": "dcm2niix",
  "ConversionSoftwareVersion": "v1.0.20201102",
  "DerivedVendorReportedEchoSpacing": 0.00049,
  "DeviceSerialNumber": "66112",
  "DwellTime": 2e-06,
  "EchoTime": 0.0272,
  "EchoTrainLength": 82,
  "EffectiveEchoSpacing": 0.00049,
  "FlipAngle": 44,
  "ImageComments": "Unaliased MB8/PE3",
  "ImageOrientationPatientDICOM": [0.999384, 0.00417979, 0.0348344, -0.00558164, 0.999174, 0.0402436],
  "ImageType": [
    "ORIGINAL",
    "PRIMARY",
    "M",
    "MB",
    "ND",
    "NORM",
    "MOSAIC"
],
  "ImagingFrequency": 123.252,
  "InPlanePhaseEncodingDirectionDICOM": "COL",
  "InstitutionAddress": "Maynard 3,Hanover,NH,US,03755",
  "InstitutionName": "Dartmouth College - PBS",
  "InstitutionalDepartmentName": "Department",
  "MRAcquisitionType": "2D",
  "MagneticFieldStrength": 3,
  "Manufacturer": "Siemens",
  "ManufacturersModelName": "Prisma",
  "Modality": "MR",
  "MultibandAccelerationFactor": 8,
  "PartialFourier": 1,
  "PatientPosition": "HFS",
  "PercentPhaseFOV": 100,
  "PercentSampling": 100,
  "PhaseEncodingDirection": "j-",
  "PhaseEncodingSteps": 82,
  "PhaseResolution": 1,
  "PixelBandwidth": 3050,
  "ProcedureStepDescription": "Wager_Wager^1076_spacetop",
  "ProtocolName": "func_run-02_task-social_acq-ap-mb8",
  "PulseSequenceDetails": "%CustomerSeq%\\cmrr_mbep2d_bold",
  "ReceiveCoilActiveElements": "HEA;HEP",
  "ReceiveCoilName": "Head_32",
  "ReconMatrixPE": 82,
  "RepetitionTime": 0.46,
  "SAR": 0.0912094,
  "ScanOptions": "FS",
  "ScanningSequence": "EP",
  "SequenceName": "epfid2d1_82",
  "SequenceVariant": "SK\\SS",
  "SeriesDescription": "func_run-02_task-social_acq-ap-mb8",
  "SeriesNumber": 14,
  "ShimSetting": [4152, -7746, -7303, 656, -79, -127, 69, 95],
  "SliceThickness": 2.7,
  "SliceTiming": [0, 0.25, 0.0625, 0.3125, 0.125, 0.3775, 0.1875, 0, 0.25, 0.0625, 0.3125, 0.125, 0.3775, 0.1875, 0, 0.25, 0.0625, 0.3125, 0.125, 0.3775, 0.1875, 0, 0.25, 0.0625, 0.3125, 0.125, 0.3775, 0.1875, 0, 0.25, 0.0625, 0.3125, 0.125, 0.3775, 0.1875, 0, 0.25, 0.0625, 0.3125, 0.125, 0.3775, 0.1875, 0, 0.25, 0.0625, 0.3125, 0.125, 0.3775, 0.1875, 0, 0.25, 0.0625, 0.3125, 0.125, 0.3775, 0.1875],
  "SoftwareVersions": "syngo MR E11",
  "SpacingBetweenSlices": 2.7,
  "StationName": "AWP66112",
  "TaskName": "social",
  "TotalReadoutTime": 0.03969,
  "TxRefAmp": 236.123,
  "WipMemBlock": "92cd177d-47ef-48d2-9d6b-97bd5994e801||Sequence: R016 ve11e/master r/434b28f1; Aug  7 2019 18:53:46 by eja",
  "dcmmeta_affine": [
    [-2.6812751293182373, -0.014975127764046192, 0.0935211107134819, 109.95507049560547],
    [-0.011214072816073895, 2.680711507797241, 0.10911578685045242, -100.7954330444336],
    [0.09345820546150208, -0.10797063261270523, 2.6961727142333984, -82.14667510986328],
    [0.0, 0.0, 0.0, 1.0]
],
  "dcmmeta_reorient_transform": [
    [0.0, -1.0, 0.0, 81.0],
    [1.0, 0.0, 0.0, 0.0],
    [0.0, 0.0, 1.0, 0.0],
    [0.0, 0.0, 0.0, 1.0]
],
  "dcmmeta_shape": [82, 82, 56, 872],
  "dcmmeta_slice_dim": 2,
  "dcmmeta_version": 0.6,
  "global": {
    "const": {
      "AccessionNumber": "A004112",
      "AcquisitionMatrix": [82, 0, 0, 82],
      "AngioFlag": "N",
      "BitsAllocated": 16,
      "BitsStored": 16,
      "BodyPartExamined": "BRAIN",
      "Columns": 656,
      "EchoNumbers": 1,
      "EchoTime": 27.2,
      "EchoTrainLength": 82,
      "FlipAngle": 44.0,
      "HighBit": 15,
      "ImageOrientationPatient": [0.9993843567186, 0.00417979068475, 0.03483442113759, -0.0055816382409, 0.99917430814177, 0.04024359904335],
      "ImagePositionPatient": [-873.97019456578, -888.92488508336, -148.70237210298],
      "ImageType": [
        "ORIGINAL",
        "PRIMARY",
        "M",
        "MB",
        "ND",
        "NORM",
        "MOSAIC"
],
      "ImagedNucleus": "1H",
      "ImagingFrequency": 123.252222,
      "InPlanePhaseEncodingDirection": "COL",
      "MRAcquisitionType": "2D",
      "MagneticFieldStrength": 3.0,
      "Manufacturer": "SIEMENS",
      "ManufacturerModelName": "Prisma",
      "Modality": "MR",
      "NumberOfAverages": 1.0,
      "NumberOfPhaseEncodingSteps": 82,
      "PercentPhaseFieldOfView": 100.0,
      "PercentSampling": 100.0,
      "PerformedProcedureStepStartTime": "083142.651000",
      "PhotometricInterpretation": "MONOCHROME2",
      "PixelBandwidth": 3050.0,
      "PixelRepresentation": 0,
      "PixelSpacing": [2.6829268932343, 2.6829268932343],
      "ProtocolName": "func_run-02_task-social_acq-ap-mb8",
      "RepetitionTime": 460.0,
      "Rows": 656,
      "SAR": 0.09120943858141,
      "SamplesPerPixel": 1,
      "ScanOptions": "FS",
      "ScanningSequence": "EP",
      "SequenceName": "epfid2d1_82",
      "SequenceVariant": [
        "SK",
        "SS"
],
      "SeriesDescription": "func_run-02_task-social_acq-ap-mb8",
      "SeriesNumber": 14,
      "SeriesTime": "091347.472000",
      "SliceLocation": -82.295139721645,
      "SliceThickness": 2.7000000476837,
      "SmallestImagePixelValue": 0,
      "SoftwareVersions": "syngo MR E11",
      "SpacingBetweenSlices": 2.6999999206684,
      "SpecificCharacterSet": "ISO_IR 100",
      "StudyID": "1",
      "StudyTime": "083142.475000",
      "TransmitCoilName": "Body",
      "VariableFlipAngleFlag": "N",
      "WindowCenterWidthExplanation": "Algo1"
    },
    "slices": {}
  },
  "time": {
    "samples": {
      "AcquisitionNumber": [1, 2, 3, 4, 5, 6, 7, 8, 9, 10, 11, 12, 13, 14, 15, 16, 17, 18, 19, 20, 21, 22, 23, 24, 25, 26, 27, 28, 29, 30, 31, 32, 33, 34, 35, 36, 37, 38, 39, 40, 41, 42, 43, 44, 45, 46, 47, 48, 49, 50, 51, 52, 53, 54, 55, 56, 57, 58, 59, 60, 61, 62, 63, 64, 65, 66, 67, 68, 69, 70, 71, 72, 73, 74, 75, 76, 77, 78, 79, 80, 81, 82, 83, 84, 85, 86, 87, 88, 89, 90, 91, 92, 93, 94, 95, 96, 97, 98, 99, 100, 101, 102, 103, 104, 105, 106, 107, 108, 109, 110, 111, 112, 113, 114, 115, 116, 117, 118, 119, 120, 121, 122, 123, 124, 125, 126, 127, 128, 129, 130, 131, 132, 133, 134, 135, 136, 137, 138, 139, 140, 141, 142, 143, 144, 145, 146, 147, 148, 149, 150, 151, 152, 153, 154, 155, 156, 157, 158, 159, 160, 161, 162, 163, 164, 165, 166, 167, 168, 169, 170, 171, 172, 173, 174, 175, 176, 177, 178, 179, 180, 181, 182, 183, 184, 185, 186, 187, 188, 189, 190, 191, 192, 193, 194, 195, 196, 197, 198, 199, 200, 201, 202, 203, 204, 205, 206, 207, 208, 209, 210, 211, 212, 213, 214, 215, 216, 217, 218, 219, 220, 221, 222, 223, 224, 225, 226, 227, 228, 229, 230, 231, 232, 233, 234, 235, 236, 237, 238, 239, 240, 241, 242, 243, 244, 245, 246, 247, 248, 249, 250, 251, 252, 253, 254, 255, 256, 257, 258, 259, 260, 261, 262, 263, 264, 265, 266, 267, 268, 269, 270, 271, 272, 273, 274, 275, 276, 277, 278, 279, 280, 281, 282, 283, 284, 285, 286, 287, 288, 289, 290, 291, 292, 293, 294, 295, 296, 297, 298, 299, 300, 301, 302, 303, 304, 305, 306, 307, 308, 309, 310, 311, 312, 313, 314, 315, 316, 317, 318, 319, 320, 321, 322, 323, 324, 325, 326, 327, 328, 329, 330, 331, 332, 333, 334, 335, 336, 337, 338, 339, 340, 341, 342, 343, 344, 345, 346, 347, 348, 349, 350, 351, 352, 353, 354, 355, 356, 357, 358, 359, 360, 361, 362, 363, 364, 365, 366, 367, 368, 369, 370, 371, 372, 373, 374, 375, 376, 377, 378, 379, 380, 381, 382, 383, 384, 385, 386, 387, 388, 389, 390, 391, 392, 393, 394, 395, 396, 397, 398, 399, 400, 401, 402, 403, 404, 405, 406, 407, 408, 409, 410, 411, 412, 413, 414, 415, 416, 417, 418, 419, 420, 421, 422, 423, 424, 425, 426, 427, 428, 429, 430, 431, 432, 433, 434, 435, 436, 437, 438, 439, 440, 441, 442, 443, 444, 445, 446, 447, 448, 449, 450, 451, 452, 453, 454, 455, 456, 457, 458, 459, 460, 461, 462, 463, 464, 465, 466, 467, 468, 469, 470, 471, 472, 473, 474, 475, 476, 477, 478, 479, 480, 481, 482, 483, 484, 485, 486, 487, 488, 489, 490, 491, 492, 493, 494, 495, 496, 497, 498, 499, 500, 501, 502, 503, 504, 505, 506, 507, 508, 509, 510, 511, 512, 513, 514, 515, 516, 517, 518, 519, 520, 521, 522, 523, 524, 525, 526, 527, 528, 529, 530, 531, 532, 533, 534, 535, 536, 537, 538, 539, 540, 541, 542, 543, 544, 545, 546, 547, 548, 549, 550, 551, 552, 553, 554, 555, 556, 557, 558, 559, 560, 561, 562, 563, 564, 565, 566, 567, 568, 569, 570, 571, 572, 573, 574, 575, 576, 577, 578, 579, 580, 581, 582, 583, 584, 585, 586, 587, 588, 589, 590, 591, 592, 593, 594, 595, 596, 597, 598, 599, 600, 601, 602, 603, 604, 605, 606, 607, 608, 609, 610, 611, 612, 613, 614, 615, 616, 617, 618, 619, 620, 621, 622, 623, 624, 625, 626, 627, 628, 629, 630, 631, 632, 633, 634, 635, 636, 637, 638, 639, 640, 641, 642, 643, 644, 645, 646, 647, 648, 649, 650, 651, 652, 653, 654, 655, 656, 657, 658, 659, 660, 661, 662, 663, 664, 665, 666, 667, 668, 669, 670, 671, 672, 673, 674, 675, 676, 677, 678, 679, 680, 681, 682, 683, 684, 685, 686, 687, 688, 689, 690, 691, 692, 693, 694, 695, 696, 697, 698, 699, 700, 701, 702, 703, 704, 705, 706, 707, 708, 709, 710, 711, 712, 713, 714, 715, 716, 717, 718, 719, 720, 721, 722, 723, 724, 725, 726, 727, 728, 729, 730, 731, 732, 733, 734, 735, 736, 737, 738, 739, 740, 741, 742, 743, 744, 745, 746, 747, 748, 749, 750, 751, 752, 753, 754, 755, 756, 757, 758, 759, 760, 761, 762, 763, 764, 765, 766, 767, 768, 769, 770, 771, 772, 773, 774, 775, 776, 777, 778, 779, 780, 781, 782, 783, 784, 785, 786, 787, 788, 789, 790, 791, 792, 793, 794, 795, 796, 797, 798, 799, 800, 801, 802, 803, 804, 805, 806, 807, 808, 809, 810, 811, 812, 813, 814, 815, 816, 817, 818, 819, 820, 821, 822, 823, 824, 825, 826, 827, 828, 829, 830, 831, 832, 833, 834, 835, 836, 837, 838, 839, 840, 841, 842, 843, 844, 845, 846, 847, 848, 849, 850, 851, 852, 853, 854, 855, 856, 857, 858, 859, 860, 861, 862, 863, 864, 865, 866, 867, 868, 869, 870, 871, 872],
      "AcquisitionTime": ["091322.262500", "091322.722500", "091323.182500", "091323.642500", "091324.102500", "091324.562500", "091325.022500", "091325.482500", "091325.942500", "091326.402500", "091326.862500", "091327.322500", "091327.782500", "091328.242500", "091328.702500", "091329.162500", "091329.622500", "091330.082500", "091330.542500", "091331.002500", "091331.462500", "091331.922500", "091332.382500", "091332.842500", "091333.302500", "091333.762500", "091334.222500", "091334.682500", "091335.142500", "091335.602500", "091336.062500", "091336.522500", "091336.982500", "091337.442500", "091337.902500", "091338.362500", "091338.822500", "091339.282500", "091339.742500", "091340.202500", "091340.662500", "091341.122500", "091341.582500", "091342.042500", "091342.502500", "091342.962500", "091343.422500", "091343.882500", "091344.342500", "091344.802500", "091345.262500", "091345.722500", "091346.182500", "091346.642500", "091347.102500", "091347.562500", "091348.022500", "091348.482500", "091348.942500", "091349.402500", "091349.862500", "091350.322500", "091350.782500", "091351.242500", "091351.702500", "091352.162500", "091352.622500", "091353.082500", "091353.542500", "091354.002500", "091354.462500", "091354.922500", "091355.382500", "091355.842500", "091356.302500", "091356.762500", "091357.222500", "091357.682500", "091358.142500", "091358.602500", "091359.062500", "091359.522500", "091359.982500", "091400.442500", "091400.902500", "091401.362500", "091401.822500", "091402.282500", "091402.742500", "091403.202500", "091403.662500", "091404.122500", "091404.582500", "091405.042500", "091405.502500", "091405.962500", "091406.422500", "091406.882500", "091407.342500", "091407.802500", "091408.262500", "091408.722500", "091409.182500", "091409.642500", "091410.102500", "091410.562500", "091411.022500", "091411.482500", "091411.942500", "091412.402500", "091412.862500", "091413.322500", "091413.782500", "091414.242500", "091414.702500", "091415.162500", "091415.622500", "091416.082500", "091416.542500", "091417.002500", "091417.462500", "091417.922500", "091418.382500", "091418.842500", "091419.302500", "091419.762500", "091420.222500", "091420.682500", "091421.142500", "091421.602500", "091422.062500", "091422.522500", "091422.982500", "091423.442500", "091423.902500", "091424.362500", "091424.822500", "091425.282500", "091425.742500", "091426.202500", "091426.662500", "091427.122500", "091427.582500", "091428.042500", "091428.502500", "091428.962500", "091429.422500", "091429.882500", "091430.342500", "091430.802500", "091431.262500", "091431.722500", "091432.182500", "091432.642500", "091433.102500", "091433.562500", "091434.022500", "091434.482500", "091434.942500", "091435.402500", "091435.862500", "091436.322500", "091436.782500", "091437.242500", "091437.702500", "091438.162500", "091438.622500", "091439.082500", "091439.542500", "091440.002500", "091440.462500", "091440.922500", "091441.382500", "091441.842500", "091442.302500", "091442.762500", "091443.222500", "091443.682500", "091444.142500", "091444.602500", "091445.062500", "091445.522500", "091445.982500", "091446.442500", "091446.902500", "091447.362500", "091447.822500", "091448.282500", "091448.742500", "091449.202500", "091449.662500", "091450.122500", "091450.582500", "091451.042500", "091451.502500", "091451.962500", "091452.422500", "091452.882500", "091453.342500", "091453.802500", "091454.262500", "091454.722500", "091455.182500", "091455.642500", "091456.102500", "091456.562500", "091457.022500", "091457.482500", "091457.942500", "091458.402500", "091458.862500", "091459.322500", "091459.782500", "091500.242500", "091500.702500", "091501.162500", "091501.622500", "091502.082500", "091502.542500", "091503.002500", "091503.462500", "091503.922500", "091504.382500", "091504.842500", "091505.302500", "091505.762500", "091506.222500", "091506.682500", "091507.142500", "091507.602500", "091508.062500", "091508.522500", "091508.982500", "091509.442500", "091509.902500", "091510.362500", "091510.822500", "091511.282500", "091511.742500", "091512.202500", "091512.662500", "091513.122500", "091513.582500", "091514.042500", "091514.502500", "091514.962500", "091515.422500", "091515.882500", "091516.342500", "091516.802500", "091517.262500", "091517.722500", "091518.182500", "091518.642500", "091519.102500", "091519.562500", "091520.022500", "091520.482500", "091520.942500", "091521.402500", "091521.862500", "091522.322500", "091522.782500", "091523.242500", "091523.702500", "091524.162500", "091524.622500", "091525.082500", "091525.542500", "091526.002500", "091526.462500", "091526.922500", "091527.382500", "091527.842500", "091528.302500", "091528.762500", "091529.222500", "091529.682500", "091530.142500", "091530.602500", "091531.062500", "091531.522500", "091531.982500", "091532.442500", "091532.902500", "091533.362500", "091533.822500", "091534.282500", "091534.742500", "091535.202500", "091535.662500", "091536.122500", "091536.582500", "091537.042500", "091537.502500", "091537.962500", "091538.422500", "091538.882500", "091539.342500", "091539.802500", "091540.262500", "091540.722500", "091541.182500", "091541.642500", "091542.102500", "091542.562500", "091543.022500", "091543.482500", "091543.942500", "091544.402500", "091544.862500", "091545.322500", "091545.782500", "091546.242500", "091546.702500", "091547.162500", "091547.622500", "091548.082500", "091548.542500", "091549.002500", "091549.462500", "091549.922500", "091550.382500", "091550.842500", "091551.302500", "091551.762500", "091552.222500", "091552.682500", "091553.142500", "091553.602500", "091554.062500", "091554.522500", "091554.982500", "091555.442500", "091555.902500", "091556.362500", "091556.822500", "091557.282500", "091557.742500", "091558.202500", "091558.662500", "091559.122500", "091559.582500", "091600.042500", "091600.502500", "091600.962500", "091601.422500", "091601.882500", "091602.342500", "091602.802500", "091603.262500", "091603.722500", "091604.182500", "091604.642500", "091605.102500", "091605.562500", "091606.022500", "091606.482500", "091606.942500", "091607.402500", "091607.862500", "091608.322500", "091608.782500", "091609.242500", "091609.702500", "091610.162500", "091610.622500", "091611.082500", "091611.542500", "091612.002500", "091612.462500", "091612.922500", "091613.382500", "091613.842500", "091614.302500", "091614.762500", "091615.222500", "091615.682500", "091616.142500", "091616.602500", "091617.062500", "091617.522500", "091617.982500", "091618.442500", "091618.902500", "091619.362500", "091619.822500", "091620.282500", "091620.742500", "091621.202500", "091621.662500", "091622.122500", "091622.582500", "091623.042500", "091623.502500", "091623.962500", "091624.422500", "091624.882500", "091625.342500", "091625.802500", "091626.262500", "091626.722500", "091627.182500", "091627.642500", "091628.102500", "091628.562500", "091629.022500", "091629.482500", "091629.942500", "091630.402500", "091630.862500", "091631.322500", "091631.782500", "091632.242500", "091632.702500", "091633.162500", "091633.622500", "091634.082500", "091634.542500", "091635.002500", "091635.462500", "091635.922500", "091636.382500", "091636.842500", "091637.302500", "091637.762500", "091638.222500", "091638.682500", "091639.142500", "091639.602500", "091640.062500", "091640.522500", "091640.982500", "091641.442500", "091641.902500", "091642.362500", "091642.822500", "091643.282500", "091643.742500", "091644.202500", "091644.662500", "091645.122500", "091645.582500", "091646.042500", "091646.502500", "091646.962500", "091647.422500", "091647.882500", "091648.342500", "091648.802500", "091649.262500", "091649.722500", "091650.182500", "091650.642500", "091651.102500", "091651.562500", "091652.022500", "091652.482500", "091652.942500", "091653.402500", "091653.862500", "091654.322500", "091654.782500", "091655.242500", "091655.702500", "091656.162500", "091656.622500", "091657.082500", "091657.542500", "091658.002500", "091658.462500", "091658.922500", "091659.382500", "091659.842500", "091700.302500", "091700.762500", "091701.222500", "091701.682500", "091702.142500", "091702.602500", "091703.062500", "091703.522500", "091703.982500", "091704.442500", "091704.902500", "091705.362500", "091705.822500", "091706.282500", "091706.742500", "091707.202500", "091707.662500", "091708.122500", "091708.582500", "091709.042500", "091709.502500", "091709.962500", "091710.422500", "091710.882500", "091711.342500", "091711.802500", "091712.262500", "091712.722500", "091713.182500", "091713.642500", "091714.102500", "091714.562500", "091715.022500", "091715.482500", "091715.942500", "091716.402500", "091716.862500", "091717.322500", "091717.782500", "091718.242500", "091718.702500", "091719.162500", "091719.622500", "091720.082500", "091720.542500", "091721.002500", "091721.462500", "091721.922500", "091722.382500", "091722.842500", "091723.302500", "091723.762500", "091724.222500", "091724.682500", "091725.142500", "091725.602500", "091726.062500", "091726.522500", "091726.982500", "091727.442500", "091727.902500", "091728.362500", "091728.822500", "091729.282500", "091729.742500", "091730.202500", "091730.662500", "091731.122500", "091731.582500", "091732.042500", "091732.502500", "091732.962500", "091733.422500", "091733.882500", "091734.342500", "091734.802500", "091735.262500", "091735.722500", "091736.182500", "091736.642500", "091737.102500", "091737.562500", "091738.022500", "091738.482500", "091738.942500", "091739.402500", "091739.862500", "091740.322500", "091740.782500", "091741.242500", "091741.702500", "091742.162500", "091742.622500", "091743.082500", "091743.542500", "091744.002500", "091744.462500", "091744.922500", "091745.382500", "091745.842500", "091746.302500", "091746.762500", "091747.222500", "091747.682500", "091748.142500", "091748.602500", "091749.062500", "091749.522500", "091749.982500", "091750.442500", "091750.902500", "091751.362500", "091751.822500", "091752.282500", "091752.742500", "091753.202500", "091753.662500", "091754.122500", "091754.582500", "091755.042500", "091755.502500", "091755.962500", "091756.422500", "091756.882500", "091757.342500", "091757.802500", "091758.262500", "091758.722500", "091759.182500", "091759.642500", "091800.102500", "091800.562500", "091801.022500", "091801.482500", "091801.942500", "091802.402500", "091802.862500", "091803.322500", "091803.782500", "091804.242500", "091804.702500", "091805.162500", "091805.622500", "091806.082500", "091806.542500", "091807.002500", "091807.462500", "091807.922500", "091808.382500", "091808.842500", "091809.302500", "091809.762500", "091810.222500", "091810.682500", "091811.142500", "091811.602500", "091812.062500", "091812.522500", "091812.982500", "091813.442500", "091813.902500", "091814.362500", "091814.822500", "091815.282500", "091815.742500", "091816.202500", "091816.662500", "091817.122500", "091817.582500", "091818.042500", "091818.502500", "091818.962500", "091819.422500", "091819.882500", "091820.342500", "091820.802500", "091821.262500", "091821.722500", "091822.182500", "091822.642500", "091823.102500", "091823.562500", "091824.022500", "091824.482500", "091824.942500", "091825.402500", "091825.862500", "091826.322500", "091826.782500", "091827.242500", "091827.702500", "091828.162500", "091828.622500", "091829.082500", "091829.542500", "091830.002500", "091830.462500", "091830.922500", "091831.382500", "091831.842500", "091832.302500", "091832.762500", "091833.222500", "091833.682500", "091834.142500", "091834.602500", "091835.062500", "091835.522500", "091835.982500", "091836.442500", "091836.902500", "091837.362500", "091837.822500", "091838.282500", "091838.742500", "091839.202500", "091839.662500", "091840.122500", "091840.582500", "091841.042500", "091841.502500", "091841.962500", "091842.422500", "091842.882500", "091843.342500", "091843.802500", "091844.262500", "091844.722500", "091845.182500", "091845.642500", "091846.102500", "091846.562500", "091847.022500", "091847.482500", "091847.942500", "091848.402500", "091848.862500", "091849.322500", "091849.782500", "091850.242500", "091850.702500", "091851.162500", "091851.622500", "091852.082500", "091852.542500", "091853.002500", "091853.462500", "091853.922500", "091854.382500", "091854.842500", "091855.302500", "091855.762500", "091856.222500", "091856.682500", "091857.142500", "091857.602500", "091858.062500", "091858.522500", "091858.982500", "091859.442500", "091859.902500", "091900.362500", "091900.822500", "091901.282500", "091901.742500", "091902.202500", "091902.662500", "091903.122500", "091903.582500", "091904.042500", "091904.502500", "091904.962500", "091905.422500", "091905.882500", "091906.342500", "091906.802500", "091907.262500", "091907.722500", "091908.182500", "091908.642500", "091909.102500", "091909.562500", "091910.022500", "091910.482500", "091910.942500", "091911.402500", "091911.862500", "091912.322500", "091912.782500", "091913.242500", "091913.702500", "091914.162500", "091914.622500", "091915.082500", "091915.542500", "091916.002500", "091916.462500", "091916.922500", "091917.382500", "091917.842500", "091918.302500", "091918.762500", "091919.222500", "091919.682500", "091920.142500", "091920.602500", "091921.062500", "091921.522500", "091921.982500", "091922.442500", "091922.902500", "091923.362500", "091923.822500", "091924.282500", "091924.742500", "091925.202500", "091925.662500", "091926.122500", "091926.582500", "091927.042500", "091927.502500", "091927.962500", "091928.422500", "091928.882500", "091929.342500", "091929.802500", "091930.262500", "091930.722500", "091931.182500", "091931.642500", "091932.102500", "091932.562500", "091933.022500", "091933.482500", "091933.942500", "091934.402500", "091934.862500", "091935.322500", "091935.782500", "091936.242500", "091936.702500", "091937.162500", "091937.622500", "091938.082500", "091938.542500", "091939.002500", "091939.462500", "091939.922500", "091940.382500", "091940.842500", "091941.302500", "091941.762500", "091942.222500", "091942.682500", "091943.142500", "091943.602500", "091944.062500", "091944.522500", "091944.982500", "091945.442500", "091945.902500", "091946.362500", "091946.822500", "091947.282500", "091947.742500", "091948.202500", "091948.662500", "091949.122500", "091949.582500", "091950.042500", "091950.502500", "091950.962500", "091951.422500", "091951.882500", "091952.342500", "091952.802500", "091953.262500", "091953.722500", "091954.182500", "091954.642500", "091955.102500", "091955.562500", "091956.022500", "091956.482500", "091956.942500", "091957.402500", "091957.862500", "091958.322500", "091958.782500", "091959.242500", "091959.702500", "092000.162500", "092000.622500", "092001.082500", "092001.542500", "092002.002500", "092002.462500", "092002.922500"],
