{
  "AcquisitionMatrixPE": 82,
  "AcquisitionNumber": 1,
  "AcquisitionTime": "09:05:58.647500",
  "BandwidthPerPixelPhaseEncode": 24.888,
  "BaseResolution": 82,
  "BodyPartExamined": "BRAIN",
  "ConsistencyInfo": "N4_VE11E_LATEST_20181129",
  "ConversionSoftware": "dcm2niix",
  "ConversionSoftwareVersion": "v1.0.20201102",
  "DerivedVendorReportedEchoSpacing": 0.00049,
  "DeviceSerialNumber": "66112",
  "DwellTime": 2e-06,
  "EchoTime": 0.0272,
  "EchoTrainLength": 82,
  "EffectiveEchoSpacing": 0.00049,
  "FlipAngle": 44,
  "ImageComments": "Unaliased MB8/PE3",
  "ImageOrientationPatientDICOM": [0.999384, 0.00417979, 0.0348344, -0.00558164, 0.999174, 0.0402436],
  "ImageType": [
    "ORIGINAL",
    "PRIMARY",
    "M",
    "MB",
    "ND",
    "NORM",
    "MOSAIC"
],
  "ImagingFrequency": 123.252,
  "InPlanePhaseEncodingDirectionDICOM": "COL",
  "InstitutionAddress": "Maynard 3,Hanover,NH,US,03755",
  "InstitutionName": "Dartmouth College - PBS",
  "InstitutionalDepartmentName": "Department",
  "MRAcquisitionType": "2D",
  "MagneticFieldStrength": 3,
  "Manufacturer": "Siemens",
  "ManufacturersModelName": "Prisma",
  "Modality": "MR",
  "MultibandAccelerationFactor": 8,
  "PartialFourier": 1,
  "PatientPosition": "HFS",
  "PercentPhaseFOV": 100,
  "PercentSampling": 100,
  "PhaseEncodingDirection": "j-",
  "PhaseEncodingSteps": 82,
  "PhaseResolution": 1,
  "PixelBandwidth": 3050,
  "ProcedureStepDescription": "Wager_Wager^1076_spacetop",
  "ProtocolName": "func_run-01_task-social_acq-ap-mb8",
  "PulseSequenceDetails": "%CustomerSeq%\\cmrr_mbep2d_bold",
  "ReceiveCoilActiveElements": "HEA;HEP",
  "ReceiveCoilName": "Head_32",
  "ReconMatrixPE": 82,
  "RepetitionTime": 0.46,
  "SAR": 0.0912094,
  "ScanOptions": "FS",
  "ScanningSequence": "EP",
  "SequenceName": "epfid2d1_82",
  "SequenceVariant": "SK\\SS",
  "SeriesDescription": "func_run-01_task-social_acq-ap-mb8",
  "SeriesNumber": 12,
  "ShimSetting": [4152, -7746, -7303, 656, -79, -127, 69, 95],
  "SliceThickness": 2.7,
  "SliceTiming": [0, 0.2525, 0.0625, 0.315, 0.125, 0.3775, 0.1875, 0, 0.2525, 0.0625, 0.315, 0.125, 0.3775, 0.1875, 0, 0.2525, 0.0625, 0.315, 0.125, 0.3775, 0.1875, 0, 0.2525, 0.0625, 0.315, 0.125, 0.3775, 0.1875, 0, 0.2525, 0.0625, 0.315, 0.125, 0.3775, 0.1875, 0, 0.2525, 0.0625, 0.315, 0.125, 0.3775, 0.1875, 0, 0.2525, 0.0625, 0.315, 0.125, 0.3775, 0.1875, 0, 0.2525, 0.0625, 0.315, 0.125, 0.3775, 0.1875],
  "SoftwareVersions": "syngo MR E11",
  "SpacingBetweenSlices": 2.7,
  "StationName": "AWP66112",
  "TaskName": "social",
  "TotalReadoutTime": 0.03969,
  "TxRefAmp": 236.123,
  "WipMemBlock": "4d9555e6-4321-4589-9813-899afa50d7d3||Sequence: R016 ve11e/master r/434b28f1; Aug  7 2019 18:53:46 by eja",
  "dcmmeta_affine": [
    [-2.6812751293182373, -0.014975127764046192, 0.0935211107134819, 109.95507049560547],
    [-0.011214072816073895, 2.680711507797241, 0.10911578685045242, -100.7954330444336],
    [0.09345820546150208, -0.10797063261270523, 2.6961727142333984, -82.14667510986328],
    [0.0, 0.0, 0.0, 1.0]
],
  "dcmmeta_reorient_transform": [
    [0.0, -1.0, 0.0, 81.0],
    [1.0, 0.0, 0.0, 0.0],
    [0.0, 0.0, 1.0, 0.0],
    [0.0, 0.0, 0.0, 1.0]
],
  "dcmmeta_shape": [82, 82, 56, 872],
  "dcmmeta_slice_dim": 2,
  "dcmmeta_version": 0.6,
  "global": {
    "const": {
      "AccessionNumber": "A004112",
      "AcquisitionMatrix": [82, 0, 0, 82],
      "AngioFlag": "N",
      "BitsAllocated": 16,
      "BitsStored": 16,
      "BodyPartExamined": "BRAIN",
      "Columns": 656,
      "EchoNumbers": 1,
      "EchoTime": 27.2,
      "EchoTrainLength": 82,
      "FlipAngle": 44.0,
      "HighBit": 15,
      "ImageOrientationPatient": [0.9993843567186, 0.00417979068475, 0.03483442113759, -0.0055816382409, 0.99917430814177, 0.04024359904335],
      "ImagePositionPatient": [-873.97019456578, -888.92488508336, -148.70237210298],
      "ImageType": [
        "ORIGINAL",
        "PRIMARY",
        "M",
        "MB",
        "ND",
        "NORM",
        "MOSAIC"
],
      "ImagedNucleus": "1H",
      "ImagingFrequency": 123.252216,
      "InPlanePhaseEncodingDirection": "COL",
      "MRAcquisitionType": "2D",
      "MagneticFieldStrength": 3.0,
      "Manufacturer": "SIEMENS",
      "ManufacturerModelName": "Prisma",
      "Modality": "MR",
      "NumberOfAverages": 1.0,
      "NumberOfPhaseEncodingSteps": 82,
      "PercentPhaseFieldOfView": 100.0,
      "PercentSampling": 100.0,
      "PerformedProcedureStepStartTime": "083142.651000",
      "PhotometricInterpretation": "MONOCHROME2",
      "PixelBandwidth": 3050.0,
      "PixelRepresentation": 0,
      "PixelSpacing": [2.6829268932343, 2.6829268932343],
      "ProtocolName": "func_run-01_task-social_acq-ap-mb8",
      "RepetitionTime": 460.0,
      "Rows": 656,
      "SAR": 0.09120943858141,
      "SamplesPerPixel": 1,
      "ScanOptions": "FS",
      "ScanningSequence": "EP",
      "SequenceName": "epfid2d1_82",
      "SequenceVariant": [
        "SK",
        "SS"
],
      "SeriesDescription": "func_run-01_task-social_acq-ap-mb8",
      "SeriesNumber": 12,
      "SeriesTime": "090627.671000",
      "SliceLocation": -82.295139721645,
      "SliceThickness": 2.7000000476837,
      "SmallestImagePixelValue": 0,
      "SoftwareVersions": "syngo MR E11",
      "SpacingBetweenSlices": 2.6999999206684,
      "SpecificCharacterSet": "ISO_IR 100",
      "StudyID": "1",
      "StudyTime": "083142.475000",
      "TransmitCoilName": "Body",
      "VariableFlipAngleFlag": "N",
      "WindowCenterWidthExplanation": "Algo1"
    },
    "slices": {}
  },
  "time": {
    "samples": {
      "AcquisitionNumber": [1, 2, 3, 4, 5, 6, 7, 8, 9, 10, 11, 12, 13, 14, 15, 16, 17, 18, 19, 20, 21, 22, 23, 24, 25, 26, 27, 28, 29, 30, 31, 32, 33, 34, 35, 36, 37, 38, 39, 40, 41, 42, 43, 44, 45, 46, 47, 48, 49, 50, 51, 52, 53, 54, 55, 56, 57, 58, 59, 60, 61, 62, 63, 64, 65, 66, 67, 68, 69, 70, 71, 72, 73, 74, 75, 76, 77, 78, 79, 80, 81, 82, 83, 84, 85, 86, 87, 88, 89, 90, 91, 92, 93, 94, 95, 96, 97, 98, 99, 100, 101, 102, 103, 104, 105, 106, 107, 108, 109, 110, 111, 112, 113, 114, 115, 116, 117, 118, 119, 120, 121, 122, 123, 124, 125, 126, 127, 128, 129, 130, 131, 132, 133, 134, 135, 136, 137, 138, 139, 140, 141, 142, 143, 144, 145, 146, 147, 148, 149, 150, 151, 152, 153, 154, 155, 156, 157, 158, 159, 160, 161, 162, 163, 164, 165, 166, 167, 168, 169, 170, 171, 172, 173, 174, 175, 176, 177, 178, 179, 180, 181, 182, 183, 184, 185, 186, 187, 188, 189, 190, 191, 192, 193, 194, 195, 196, 197, 198, 199, 200, 201, 202, 203, 204, 205, 206, 207, 208, 209, 210, 211, 212, 213, 214, 215, 216, 217, 218, 219, 220, 221, 222, 223, 224, 225, 226, 227, 228, 229, 230, 231, 232, 233, 234, 235, 236, 237, 238, 239, 240, 241, 242, 243, 244, 245, 246, 247, 248, 249, 250, 251, 252, 253, 254, 255, 256, 257, 258, 259, 260, 261, 262, 263, 264, 265, 266, 267, 268, 269, 270, 271, 272, 273, 274, 275, 276, 277, 278, 279, 280, 281, 282, 283, 284, 285, 286, 287, 288, 289, 290, 291, 292, 293, 294, 295, 296, 297, 298, 299, 300, 301, 302, 303, 304, 305, 306, 307, 308, 309, 310, 311, 312, 313, 314, 315, 316, 317, 318, 319, 320, 321, 322, 323, 324, 325, 326, 327, 328, 329, 330, 331, 332, 333, 334, 335, 336, 337, 338, 339, 340, 341, 342, 343, 344, 345, 346, 347, 348, 349, 350, 351, 352, 353, 354, 355, 356, 357, 358, 359, 360, 361, 362, 363, 364, 365, 366, 367, 368, 369, 370, 371, 372, 373, 374, 375, 376, 377, 378, 379, 380, 381, 382, 383, 384, 385, 386, 387, 388, 389, 390, 391, 392, 393, 394, 395, 396, 397, 398, 399, 400, 401, 402, 403, 404, 405, 406, 407, 408, 409, 410, 411, 412, 413, 414, 415, 416, 417, 418, 419, 420, 421, 422, 423, 424, 425, 426, 427, 428, 429, 430, 431, 432, 433, 434, 435, 436, 437, 438, 439, 440, 441, 442, 443, 444, 445, 446, 447, 448, 449, 450, 451, 452, 453, 454, 455, 456, 457, 458, 459, 460, 461, 462, 463, 464, 465, 466, 467, 468, 469, 470, 471, 472, 473, 474, 475, 476, 477, 478, 479, 480, 481, 482, 483, 484, 485, 486, 487, 488, 489, 490, 491, 492, 493, 494, 495, 496, 497, 498, 499, 500, 501, 502, 503, 504, 505, 506, 507, 508, 509, 510, 511, 512, 513, 514, 515, 516, 517, 518, 519, 520, 521, 522, 523, 524, 525, 526, 527, 528, 529, 530, 531, 532, 533, 534, 535, 536, 537, 538, 539, 540, 541, 542, 543, 544, 545, 546, 547, 548, 549, 550, 551, 552, 553, 554, 555, 556, 557, 558, 559, 560, 561, 562, 563, 564, 565, 566, 567, 568, 569, 570, 571, 572, 573, 574, 575, 576, 577, 578, 579, 580, 581, 582, 583, 584, 585, 586, 587, 588, 589, 590, 591, 592, 593, 594, 595, 596, 597, 598, 599, 600, 601, 602, 603, 604, 605, 606, 607, 608, 609, 610, 611, 612, 613, 614, 615, 616, 617, 618, 619, 620, 621, 622, 623, 624, 625, 626, 627, 628, 629, 630, 631, 632, 633, 634, 635, 636, 637, 638, 639, 640, 641, 642, 643, 644, 645, 646, 647, 648, 649, 650, 651, 652, 653, 654, 655, 656, 657, 658, 659, 660, 661, 662, 663, 664, 665, 666, 667, 668, 669, 670, 671, 672, 673, 674, 675, 676, 677, 678, 679, 680, 681, 682, 683, 684, 685, 686, 687, 688, 689, 690, 691, 692, 693, 694, 695, 696, 697, 698, 699, 700, 701, 702, 703, 704, 705, 706, 707, 708, 709, 710, 711, 712, 713, 714, 715, 716, 717, 718, 719, 720, 721, 722, 723, 724, 725, 726, 727, 728, 729, 730, 731, 732, 733, 734, 735, 736, 737, 738, 739, 740, 741, 742, 743, 744, 745, 746, 747, 748, 749, 750, 751, 752, 753, 754, 755, 756, 757, 758, 759, 760, 761, 762, 763, 764, 765, 766, 767, 768, 769, 770, 771, 772, 773, 774, 775, 776, 777, 778, 779, 780, 781, 782, 783, 784, 785, 786, 787, 788, 789, 790, 791, 792, 793, 794, 795, 796, 797, 798, 799, 800, 801, 802, 803, 804, 805, 806, 807, 808, 809, 810, 811, 812, 813, 814, 815, 816, 817, 818, 819, 820, 821, 822, 823, 824, 825, 826, 827, 828, 829, 830, 831, 832, 833, 834, 835, 836, 837, 838, 839, 840, 841, 842, 843, 844, 845, 846, 847, 848, 849, 850, 851, 852, 853, 854, 855, 856, 857, 858, 859, 860, 861, 862, 863, 864, 865, 866, 867, 868, 869, 870, 871, 872],
      "AcquisitionTime": ["090558.647500", "090559.107500", "090559.567500", "090600.027500", "090600.487500", "090600.947500", "090601.407500", "090601.867500", "090602.327500", "090602.787500", "090603.247500", "090603.707500", "090604.167500", "090604.627500", "090605.087500", "090605.547500", "090606.007500", "090606.467500", "090606.927500", "090607.387500", "090607.847500", "090608.307500", "090608.767500", "090609.227500", "090609.687500", "090610.147500", "090610.607500", "090611.067500", "090611.527500", "090611.987500", "090612.447500", "090612.907500", "090613.367500", "090613.827500", "090614.287500", "090614.747500", "090615.207500", "090615.667500", "090616.127500", "090616.587500", "090617.047500", "090617.507500", "090617.967500", "090618.427500", "090618.887500", "090619.347500", "090619.807500", "090620.267500", "090620.727500", "090621.187500", "090621.647500", "090622.107500", "090622.567500", "090623.027500", "090623.487500", "090623.947500", "090624.407500", "090624.867500", "090625.327500", "090625.787500", "090626.247500", "090626.707500", "090627.167500", "090627.627500", "090628.087500", "090628.547500", "090629.007500", "090629.467500", "090629.927500", "090630.387500", "090630.847500", "090631.307500", "090631.767500", "090632.227500", "090632.687500", "090633.147500", "090633.607500", "090634.067500", "090634.527500", "090634.987500", "090635.447500", "090635.907500", "090636.367500", "090636.827500", "090637.287500", "090637.747500", "090638.207500", "090638.667500", "090639.127500", "090639.587500", "090640.047500", "090640.507500", "090640.967500", "090641.427500", "090641.887500", "090642.347500", "090642.807500", "090643.267500", "090643.727500", "090644.187500", "090644.647500", "090645.107500", "090645.567500", "090646.027500", "090646.487500", "090646.947500", "090647.407500", "090647.867500", "090648.327500", "090648.787500", "090649.247500", "090649.707500", "090650.167500", "090650.627500", "090651.087500", "090651.547500", "090652.007500", "090652.467500", "090652.927500", "090653.387500", "090653.847500", "090654.307500", "090654.767500", "090655.227500", "090655.687500", "090656.147500", "090656.607500", "090657.067500", "090657.527500", "090657.987500", "090658.447500", "090658.907500", "090659.367500", "090659.827500", "090700.287500", "090700.747500", "090701.207500", "090701.667500", "090702.127500", "090702.587500", "090703.047500", "090703.507500", "090703.967500", "090704.427500", "090704.887500", "090705.347500", "090705.807500", "090706.267500", "090706.727500", "090707.187500", "090707.647500", "090708.107500", "090708.567500", "090709.027500", "090709.487500", "090709.947500", "090710.407500", "090710.867500", "090711.327500", "090711.787500", "090712.247500", "090712.707500", "090713.167500", "090713.627500", "090714.087500", "090714.547500", "090715.007500", "090715.467500", "090715.927500", "090716.387500", "090716.847500", "090717.307500", "090717.767500", "090718.227500", "090718.687500", "090719.147500", "090719.607500", "090720.067500", "090720.527500", "090720.987500", "090721.447500", "090721.907500", "090722.367500", "090722.827500", "090723.287500", "090723.747500", "090724.207500", "090724.667500", "090725.127500", "090725.587500", "090726.047500", "090726.507500", "090726.967500", "090727.427500", "090727.887500", "090728.347500", "090728.807500", "090729.267500", "090729.727500", "090730.187500", "090730.647500", "090731.107500", "090731.567500", "090732.027500", "090732.487500", "090732.947500", "090733.407500", "090733.867500", "090734.327500", "090734.787500", "090735.247500", "090735.707500", "090736.167500", "090736.627500", "090737.087500", "090737.547500", "090738.007500", "090738.467500", "090738.927500", "090739.387500", "090739.847500", "090740.307500", "090740.767500", "090741.227500", "090741.687500", "090742.147500", "090742.607500", "090743.067500", "090743.527500", "090743.987500", "090744.447500", "090744.907500", "090745.367500", "090745.827500", "090746.287500", "090746.747500", "090747.207500", "090747.667500", "090748.127500", "090748.587500", "090749.047500", "090749.507500", "090749.967500", "090750.427500", "090750.887500", "090751.347500", "090751.807500", "090752.267500", "090752.727500", "090753.187500", "090753.647500", "090754.107500", "090754.567500", "090755.027500", "090755.487500", "090755.947500", "090756.407500", "090756.867500", "090757.327500", "090757.787500", "090758.247500", "090758.707500", "090759.167500", "090759.627500", "090800.087500", "090800.547500", "090801.007500", "090801.467500", "090801.927500", "090802.387500", "090802.847500", "090803.307500", "090803.767500", "090804.227500", "090804.687500", "090805.147500", "090805.607500", "090806.067500", "090806.527500", "090806.987500", "090807.447500", "090807.907500", "090808.367500", "090808.827500", "090809.287500", "090809.747500", "090810.207500", "090810.667500", "090811.127500", "090811.587500", "090812.047500", "090812.507500", "090812.967500", "090813.427500", "090813.887500", "090814.347500", "090814.807500", "090815.267500", "090815.727500", "090816.187500", "090816.647500", "090817.107500", "090817.567500", "090818.027500", "090818.487500", "090818.947500", "090819.407500", "090819.867500", "090820.327500", "090820.787500", "090821.247500", "090821.707500", "090822.167500", "090822.627500", "090823.087500", "090823.547500", "090824.007500", "090824.467500", "090824.927500", "090825.387500", "090825.847500", "090826.307500", "090826.767500", "090827.227500", "090827.687500", "090828.147500", "090828.607500", "090829.067500", "090829.527500", "090829.987500", "090830.447500", "090830.907500", "090831.367500", "090831.827500", "090832.287500", "090832.747500", "090833.207500", "090833.667500", "090834.127500", "090834.587500", "090835.047500", "090835.507500", "090835.967500", "090836.427500", "090836.887500", "090837.347500", "090837.807500", "090838.267500", "090838.727500", "090839.187500", "090839.647500", "090840.107500", "090840.567500", "090841.027500", "090841.487500", "090841.947500", "090842.407500", "090842.867500", "090843.327500", "090843.787500", "090844.247500", "090844.707500", "090845.167500", "090845.627500", "090846.087500", "090846.547500", "090847.007500", "090847.467500", "090847.927500", "090848.387500", "090848.847500", "090849.307500", "090849.767500", "090850.227500", "090850.687500", "090851.147500", "090851.607500", "090852.067500", "090852.527500", "090852.987500", "090853.447500", "090853.907500", "090854.367500", "090854.827500", "090855.287500", "090855.747500", "090856.207500", "090856.667500", "090857.127500", "090857.587500", "090858.047500", "090858.507500", "090858.967500", "090859.427500", "090859.887500", "090900.347500", "090900.807500", "090901.267500", "090901.727500", "090902.187500", "090902.647500", "090903.107500", "090903.567500", "090904.027500", "090904.487500", "090904.947500", "090905.407500", "090905.867500", "090906.327500", "090906.787500", "090907.247500", "090907.707500", "090908.167500", "090908.627500", "090909.087500", "090909.547500", "090910.007500", "090910.467500", "090910.927500", "090911.387500", "090911.847500", "090912.307500", "090912.767500", "090913.227500", "090913.687500", "090914.147500", "090914.607500", "090915.067500", "090915.527500", "090915.987500", "090916.447500", "090916.907500", "090917.367500", "090917.827500", "090918.287500", "090918.747500", "090919.207500", "090919.667500", "090920.127500", "090920.587500", "090921.047500", "090921.507500", "090921.967500", "090922.427500", "090922.887500", "090923.347500", "090923.807500", "090924.267500", "090924.727500", "090925.187500", "090925.647500", "090926.107500", "090926.567500", "090927.027500", "090927.487500", "090927.947500", "090928.407500", "090928.867500", "090929.327500", "090929.787500", "090930.247500", "090930.707500", "090931.167500", "090931.627500", "090932.087500", "090932.547500", "090933.007500", "090933.467500", "090933.927500", "090934.387500", "090934.847500", "090935.307500", "090935.767500", "090936.227500", "090936.687500", "090937.147500", "090937.607500", "090938.067500", "090938.527500", "090938.987500", "090939.447500", "090939.907500", "090940.367500", "090940.827500", "090941.287500", "090941.747500", "090942.207500", "090942.667500", "090943.127500", "090943.587500", "090944.047500", "090944.507500", "090944.967500", "090945.427500", "090945.887500", "090946.347500", "090946.807500", "090947.267500", "090947.727500", "090948.187500", "090948.647500", "090949.107500", "090949.567500", "090950.027500", "090950.487500", "090950.947500", "090951.407500", "090951.867500", "090952.327500", "090952.787500", "090953.247500", "090953.707500", "090954.167500", "090954.627500", "090955.087500", "090955.547500", "090956.007500", "090956.467500", "090956.927500", "090957.387500", "090957.847500", "090958.307500", "090958.767500", "090959.227500", "090959.687500", "091000.147500", "091000.607500", "091001.067500", "091001.527500", "091001.987500", "091002.447500", "091002.907500", "091003.367500", "091003.827500", "091004.287500", "091004.747500", "091005.207500", "091005.667500", "091006.127500", "091006.587500", "091007.047500", "091007.507500", "091007.967500", "091008.427500", "091008.887500", "091009.347500", "091009.807500", "091010.267500", "091010.727500", "091011.187500", "091011.647500", "091012.107500", "091012.567500", "091013.027500", "091013.487500", "091013.947500", "091014.407500", "091014.867500", "091015.327500", "091015.787500", "091016.247500", "091016.707500", "091017.167500", "091017.627500", "091018.087500", "091018.547500", "091019.007500", "091019.467500", "091019.927500", "091020.387500", "091020.847500", "091021.307500", "091021.767500", "091022.227500", "091022.687500", "091023.147500", "091023.607500", "091024.067500", "091024.527500", "091024.987500", "091025.447500", "091025.907500", "091026.367500", "091026.827500", "091027.287500", "091027.747500", "091028.207500", "091028.667500", "091029.127500", "091029.587500", "091030.047500", "091030.507500", "091030.967500", "091031.427500", "091031.887500", "091032.347500", "091032.807500", "091033.267500", "091033.727500", "091034.187500", "091034.647500", "091035.107500", "091035.567500", "091036.027500", "091036.487500", "091036.947500", "091037.407500", "091037.867500", "091038.327500", "091038.787500", "091039.247500", "091039.707500", "091040.167500", "091040.627500", "091041.087500", "091041.547500", "091042.007500", "091042.467500", "091042.927500", "091043.387500", "091043.847500", "091044.307500", "091044.767500", "091045.227500", "091045.687500", "091046.147500", "091046.607500", "091047.067500", "091047.527500", "091047.987500", "091048.447500", "091048.907500", "091049.367500", "091049.827500", "091050.287500", "091050.747500", "091051.207500", "091051.667500", "091052.127500", "091052.587500", "091053.047500", "091053.507500", "091053.967500", "091054.427500", "091054.887500", "091055.347500", "091055.807500", "091056.267500", "091056.727500", "091057.187500", "091057.647500", "091058.107500", "091058.567500", "091059.027500", "091059.487500", "091059.947500", "091100.407500", "091100.867500", "091101.327500", "091101.787500", "091102.247500", "091102.707500", "091103.167500", "091103.627500", "091104.087500", "091104.547500", "091105.007500", "091105.467500", "091105.927500", "091106.387500", "091106.847500", "091107.307500", "091107.767500", "091108.227500", "091108.687500", "091109.147500", "091109.607500", "091110.067500", "091110.527500", "091110.987500", "091111.447500", "091111.907500", "091112.367500", "091112.827500", "091113.287500", "091113.747500", "091114.207500", "091114.667500", "091115.127500", "091115.587500", "091116.047500", "091116.507500", "091116.967500", "091117.427500", "091117.887500", "091118.347500", "091118.807500", "091119.267500", "091119.727500", "091120.187500", "091120.647500", "091121.107500", "091121.567500", "091122.027500", "091122.487500", "091122.947500", "091123.407500", "091123.867500", "091124.327500", "091124.787500", "091125.247500", "091125.707500", "091126.167500", "091126.627500", "091127.087500", "091127.547500", "091128.007500", "091128.467500", "091128.927500", "091129.387500", "091129.847500", "091130.307500", "091130.767500", "091131.227500", "091131.687500", "091132.147500", "091132.607500", "091133.067500", "091133.527500", "091133.987500", "091134.447500", "091134.907500", "091135.367500", "091135.827500", "091136.287500", "091136.747500", "091137.207500", "091137.667500", "091138.127500", "091138.587500", "091139.047500", "091139.507500", "091139.967500", "091140.427500", "091140.887500", "091141.347500", "091141.807500", "091142.267500", "091142.727500", "091143.187500", "091143.647500", "091144.107500", "091144.567500", "091145.027500", "091145.487500", "091145.947500", "091146.407500", "091146.867500", "091147.327500", "091147.787500", "091148.247500", "091148.707500", "091149.167500", "091149.627500", "091150.087500", "091150.547500", "091151.007500", "091151.467500", "091151.927500", "091152.387500", "091152.847500", "091153.307500", "091153.767500", "091154.227500", "091154.687500", "091155.147500", "091155.607500", "091156.067500", "091156.527500", "091156.987500", "091157.447500", "091157.907500", "091158.367500", "091158.827500", "091159.287500", "091159.747500", "091200.207500", "091200.667500", "091201.127500", "091201.587500", "091202.047500", "091202.507500", "091202.967500", "091203.427500", "091203.887500", "091204.347500", "091204.807500", "091205.267500", "091205.727500", "091206.187500", "091206.647500", "091207.107500", "091207.567500", "091208.027500", "091208.487500", "091208.947500", "091209.407500", "091209.867500", "091210.327500", "091210.787500", "091211.247500", "091211.707500", "091212.167500", "091212.627500", "091213.087500", "091213.547500", "091214.007500", "091214.467500", "091214.927500", "091215.387500", "091215.847500", "091216.307500", "091216.767500", "091217.227500", "091217.687500", "091218.147500", "091218.607500", "091219.067500", "091219.527500", "091219.987500", "091220.447500", "091220.907500", "091221.367500", "091221.827500", "091222.287500", "091222.747500", "091223.207500", "091223.667500", "091224.127500", "091224.587500", "091225.047500", "091225.507500", "091225.967500", "091226.427500", "091226.887500", "091227.347500", "091227.807500", "091228.267500", "091228.727500", "091229.187500", "091229.647500", "091230.107500", "091230.567500", "091231.027500", "091231.487500", "091231.947500", "091232.407500", "091232.867500", "091233.327500", "091233.787500", "091234.247500", "091234.707500", "091235.167500", "091235.627500", "091236.087500", "091236.547500", "091237.007500", "091237.467500", "091237.927500", "091238.387500", "091238.847500", "091239.307500"],
