{
  "AcquisitionMatrixPE": 82,
  "AcquisitionNumber": 1,
  "AcquisitionTime": "10:13:39.067500",
  "BandwidthPerPixelPhaseEncode": 24.888,
  "BaseResolution": 82,
  "BodyPartExamined": "BRAIN",
  "ConsistencyInfo": "N4_VE11E_LATEST_20181129",
  "ConversionSoftware": "dcm2niix",
  "ConversionSoftwareVersion": "v1.0.20201102",
  "DerivedVendorReportedEchoSpacing": 0.00049,
  "DeviceSerialNumber": "66112",
  "DwellTime": 2e-06,
  "EchoTime": 0.0272,
  "EchoTrainLength": 82,
  "EffectiveEchoSpacing": 0.00049,
  "FlipAngle": 44,
  "ImageComments": "Unaliased MB8/PE3",
  "ImageOrientationPatientDICOM": [0.999919, -0.0104312, -0.00731716, 0.0108206, 0.998408, 0.0553624],
  "ImageType": [
    "ORIGINAL",
    "PRIMARY",
    "M",
    "MB",
    "ND",
    "NORM",
    "MOSAIC"
],
  "ImagingFrequency": 123.252,
  "InPlanePhaseEncodingDirectionDICOM": "COL",
  "InstitutionAddress": "Maynard 3,Hanover,NH,US,03755",
  "InstitutionName": "Dartmouth College - PBS",
  "InstitutionalDepartmentName": "Department",
  "MRAcquisitionType": "2D",
  "MagneticFieldStrength": 3,
  "Manufacturer": "Siemens",
  "ManufacturersModelName": "Prisma",
  "Modality": "MR",
  "MultibandAccelerationFactor": 8,
  "PartialFourier": 1,
  "PatientPosition": "HFS",
  "PercentPhaseFOV": 100,
  "PercentSampling": 100,
  "PhaseEncodingDirection": "j-",
  "PhaseEncodingSteps": 82,
  "PhaseResolution": 1,
  "PixelBandwidth": 3050,
  "ProcedureStepDescription": "Wager_Wager^1076_spacetop",
  "ProtocolName": "func_run-03_task-alignvideo_acq-ap-mb8",
  "PulseSequenceDetails": "%CustomerSeq%\\cmrr_mbep2d_bold",
  "ReceiveCoilActiveElements": "HEA;HEP",
  "ReceiveCoilName": "Head_32",
  "ReconMatrixPE": 82,
  "RepetitionTime": 0.46,
  "SAR": 0.0912899,
  "ScanOptions": "FS",
  "ScanningSequence": "EP",
  "SequenceName": "epfid2d1_82",
  "SequenceVariant": "SK\\SS",
  "SeriesDescription": "func_run-03_task-alignvideo_acq-ap-mb8",
  "SeriesNumber": 34,
  "ShimSetting": [4152, -7746, -7304, 651, -79, -131, 72, 96],
  "SliceThickness": 2.7,
  "SliceTiming": [0, 0.2525, 0.0625, 0.315, 0.1275, 0.3775, 0.19, 0, 0.2525, 0.0625, 0.315, 0.1275, 0.3775, 0.19, 0, 0.2525, 0.0625, 0.315, 0.1275, 0.3775, 0.19, 0, 0.2525, 0.0625, 0.315, 0.1275, 0.3775, 0.19, 0, 0.2525, 0.0625, 0.315, 0.1275, 0.3775, 0.19, 0, 0.2525, 0.0625, 0.315, 0.1275, 0.3775, 0.19, 0, 0.2525, 0.0625, 0.315, 0.1275, 0.3775, 0.19, 0, 0.2525, 0.0625, 0.315, 0.1275, 0.3775, 0.19],
  "SoftwareVersions": "syngo MR E11",
  "SpacingBetweenSlices": 2.7,
  "StationName": "AWP66112",
  "TaskName": "alignvideo",
  "TotalReadoutTime": 0.03969,
  "TxRefAmp": 236.123,
  "WipMemBlock": "f8eef070-fe46-4e68-8dc8-64235d3ae2a6||Sequence: R016 ve11e/master r/434b28f1; Aug  7 2019 18:53:46 by eja",
  "dcmmeta_affine": [
    [-2.682708978652954, 0.02903081849217415, -0.018165625631809235, 111.24127960205078],
    [0.027986183762550354, 2.678654909133911, 0.14968007802963257, -103.5846939086914],
    [-0.0196313988417387, -0.14853322505950928, 2.695786714553833, -77.10964965820312],
    [0.0, 0.0, 0.0, 1.0]
],
  "dcmmeta_reorient_transform": [
    [0.0, -1.0, 0.0, 81.0],
    [1.0, 0.0, 0.0, 0.0],
    [0.0, 0.0, 1.0, 0.0],
    [0.0, 0.0, 0.0, 1.0]
],
  "dcmmeta_shape": [82, 82, 56, 1016],
  "dcmmeta_slice_dim": 2,
  "dcmmeta_version": 0.6,
  "global": {
    "const": {
      "AccessionNumber": "A004112",
      "AcquisitionMatrix": [82, 0, 0, 82],
      "AngioFlag": "N",
      "BitsAllocated": 16,
      "BitsStored": 16,
      "BodyPartExamined": "BRAIN",
      "Columns": 656,
      "EchoNumbers": 1,
      "EchoTime": 27.2,
      "EchoTrainLength": 82,
      "FlipAngle": 44.0,
      "HighBit": 15,
      "ImageOrientationPatient": [0.99991882119815, -0.0104312137982, -0.0073171573992, 0.01082057778624, 0.99840769302109, 0.05536238445618],
      "ImagePositionPatient": [-891.86212910861, -874.12825341398, -126.13566629671],
      "ImageType": [
        "ORIGINAL",
        "PRIMARY",
        "M",
        "MB",
        "ND",
        "NORM",
        "MOSAIC"
],
      "ImagedNucleus": "1H",
      "ImagingFrequency": 123.252237,
      "InPlanePhaseEncodingDirection": "COL",
      "MRAcquisitionType": "2D",
      "MagneticFieldStrength": 3.0,
      "Manufacturer": "SIEMENS",
      "ManufacturerModelName": "Prisma",
      "Modality": "MR",
      "NumberOfAverages": 1.0,
      "NumberOfPhaseEncodingSteps": 82,
      "PercentPhaseFieldOfView": 100.0,
      "PercentSampling": 100.0,
      "PerformedProcedureStepStartTime": "083142.651000",
      "PhotometricInterpretation": "MONOCHROME2",
      "PixelBandwidth": 3050.0,
      "PixelRepresentation": 0,
      "PixelSpacing": [2.6829268932343, 2.6829268932343],
      "ProtocolName": "func_run-03_task-alignvideo_acq-ap-mb8",
      "RepetitionTime": 460.0,
      "Rows": 656,
      "SAR": 0.09128986213742,
      "SamplesPerPixel": 1,
      "ScanOptions": "FS",
      "ScanningSequence": "EP",
      "SequenceName": "epfid2d1_82",
      "SequenceVariant": [
        "SK",
        "SS"
],
      "SeriesDescription": "func_run-03_task-alignvideo_acq-ap-mb8",
      "SeriesNumber": 34,
      "SeriesTime": "101407.553000",
      "SliceLocation": -83.480184530569,
      "SliceThickness": 2.7000000476837,
      "SmallestImagePixelValue": 0,
      "SoftwareVersions": "syngo MR E11",
      "SpacingBetweenSlices": 2.7000000800458,
      "SpecificCharacterSet": "ISO_IR 100",
      "StudyID": "1",
      "StudyTime": "083142.475000",
      "TransmitCoilName": "Body",
      "VariableFlipAngleFlag": "N",
      "WindowCenterWidthExplanation": "Algo1"
    },
    "slices": {}
  },
  "time": {
    "samples": {
      "AcquisitionNumber": [1, 2, 3, 4, 5, 6, 7, 8, 9, 10, 11, 12, 13, 14, 15, 16, 17, 18, 19, 20, 21, 22, 23, 24, 25, 26, 27, 28, 29, 30, 31, 32, 33, 34, 35, 36, 37, 38, 39, 40, 41, 42, 43, 44, 45, 46, 47, 48, 49, 50, 51, 52, 53, 54, 55, 56, 57, 58, 59, 60, 61, 62, 63, 64, 65, 66, 67, 68, 69, 70, 71, 72, 73, 74, 75, 76, 77, 78, 79, 80, 81, 82, 83, 84, 85, 86, 87, 88, 89, 90, 91, 92, 93, 94, 95, 96, 97, 98, 99, 100, 101, 102, 103, 104, 105, 106, 107, 108, 109, 110, 111, 112, 113, 114, 115, 116, 117, 118, 119, 120, 121, 122, 123, 124, 125, 126, 127, 128, 129, 130, 131, 132, 133, 134, 135, 136, 137, 138, 139, 140, 141, 142, 143, 144, 145, 146, 147, 148, 149, 150, 151, 152, 153, 154, 155, 156, 157, 158, 159, 160, 161, 162, 163, 164, 165, 166, 167, 168, 169, 170, 171, 172, 173, 174, 175, 176, 177, 178, 179, 180, 181, 182, 183, 184, 185, 186, 187, 188, 189, 190, 191, 192, 193, 194, 195, 196, 197, 198, 199, 200, 201, 202, 203, 204, 205, 206, 207, 208, 209, 210, 211, 212, 213, 214, 215, 216, 217, 218, 219, 220, 221, 222, 223, 224, 225, 226, 227, 228, 229, 230, 231, 232, 233, 234, 235, 236, 237, 238, 239, 240, 241, 242, 243, 244, 245, 246, 247, 248, 249, 250, 251, 252, 253, 254, 255, 256, 257, 258, 259, 260, 261, 262, 263, 264, 265, 266, 267, 268, 269, 270, 271, 272, 273, 274, 275, 276, 277, 278, 279, 280, 281, 282, 283, 284, 285, 286, 287, 288, 289, 290, 291, 292, 293, 294, 295, 296, 297, 298, 299, 300, 301, 302, 303, 304, 305, 306, 307, 308, 309, 310, 311, 312, 313, 314, 315, 316, 317, 318, 319, 320, 321, 322, 323, 324, 325, 326, 327, 328, 329, 330, 331, 332, 333, 334, 335, 336, 337, 338, 339, 340, 341, 342, 343, 344, 345, 346, 347, 348, 349, 350, 351, 352, 353, 354, 355, 356, 357, 358, 359, 360, 361, 362, 363, 364, 365, 366, 367, 368, 369, 370, 371, 372, 373, 374, 375, 376, 377, 378, 379, 380, 381, 382, 383, 384, 385, 386, 387, 388, 389, 390, 391, 392, 393, 394, 395, 396, 397, 398, 399, 400, 401, 402, 403, 404, 405, 406, 407, 408, 409, 410, 411, 412, 413, 414, 415, 416, 417, 418, 419, 420, 421, 422, 423, 424, 425, 426, 427, 428, 429, 430, 431, 432, 433, 434, 435, 436, 437, 438, 439, 440, 441, 442, 443, 444, 445, 446, 447, 448, 449, 450, 451, 452, 453, 454, 455, 456, 457, 458, 459, 460, 461, 462, 463, 464, 465, 466, 467, 468, 469, 470, 471, 472, 473, 474, 475, 476, 477, 478, 479, 480, 481, 482, 483, 484, 485, 486, 487, 488, 489, 490, 491, 492, 493, 494, 495, 496, 497, 498, 499, 500, 501, 502, 503, 504, 505, 506, 507, 508, 509, 510, 511, 512, 513, 514, 515, 516, 517, 518, 519, 520, 521, 522, 523, 524, 525, 526, 527, 528, 529, 530, 531, 532, 533, 534, 535, 536, 537, 538, 539, 540, 541, 542, 543, 544, 545, 546, 547, 548, 549, 550, 551, 552, 553, 554, 555, 556, 557, 558, 559, 560, 561, 562, 563, 564, 565, 566, 567, 568, 569, 570, 571, 572, 573, 574, 575, 576, 577, 578, 579, 580, 581, 582, 583, 584, 585, 586, 587, 588, 589, 590, 591, 592, 593, 594, 595, 596, 597, 598, 599, 600, 601, 602, 603, 604, 605, 606, 607, 608, 609, 610, 611, 612, 613, 614, 615, 616, 617, 618, 619, 620, 621, 622, 623, 624, 625, 626, 627, 628, 629, 630, 631, 632, 633, 634, 635, 636, 637, 638, 639, 640, 641, 642, 643, 644, 645, 646, 647, 648, 649, 650, 651, 652, 653, 654, 655, 656, 657, 658, 659, 660, 661, 662, 663, 664, 665, 666, 667, 668, 669, 670, 671, 672, 673, 674, 675, 676, 677, 678, 679, 680, 681, 682, 683, 684, 685, 686, 687, 688, 689, 690, 691, 692, 693, 694, 695, 696, 697, 698, 699, 700, 701, 702, 703, 704, 705, 706, 707, 708, 709, 710, 711, 712, 713, 714, 715, 716, 717, 718, 719, 720, 721, 722, 723, 724, 725, 726, 727, 728, 729, 730, 731, 732, 733, 734, 735, 736, 737, 738, 739, 740, 741, 742, 743, 744, 745, 746, 747, 748, 749, 750, 751, 752, 753, 754, 755, 756, 757, 758, 759, 760, 761, 762, 763, 764, 765, 766, 767, 768, 769, 770, 771, 772, 773, 774, 775, 776, 777, 778, 779, 780, 781, 782, 783, 784, 785, 786, 787, 788, 789, 790, 791, 792, 793, 794, 795, 796, 797, 798, 799, 800, 801, 802, 803, 804, 805, 806, 807, 808, 809, 810, 811, 812, 813, 814, 815, 816, 817, 818, 819, 820, 821, 822, 823, 824, 825, 826, 827, 828, 829, 830, 831, 832, 833, 834, 835, 836, 837, 838, 839, 840, 841, 842, 843, 844, 845, 846, 847, 848, 849, 850, 851, 852, 853, 854, 855, 856, 857, 858, 859, 860, 861, 862, 863, 864, 865, 866, 867, 868, 869, 870, 871, 872, 873, 874, 875, 876, 877, 878, 879, 880, 881, 882, 883, 884, 885, 886, 887, 888, 889, 890, 891, 892, 893, 894, 895, 896, 897, 898, 899, 900, 901, 902, 903, 904, 905, 906, 907, 908, 909, 910, 911, 912, 913, 914, 915, 916, 917, 918, 919, 920, 921, 922, 923, 924, 925, 926, 927, 928, 929, 930, 931, 932, 933, 934, 935, 936, 937, 938, 939, 940, 941, 942, 943, 944, 945, 946, 947, 948, 949, 950, 951, 952, 953, 954, 955, 956, 957, 958, 959, 960, 961, 962, 963, 964, 965, 966, 967, 968, 969, 970, 971, 972, 973, 974, 975, 976, 977, 978, 979, 980, 981, 982, 983, 984, 985, 986, 987, 988, 989, 990, 991, 992, 993, 994, 995, 996, 997, 998, 999, 1000, 1001, 1002, 1003, 1004, 1005, 1006, 1007, 1008, 1009, 1010, 1011, 1012, 1013, 1014, 1015, 1016],
      "AcquisitionTime": ["101339.067500", "101339.527500", "101339.987500", "101340.447500", "101340.907500", "101341.367500", "101341.827500", "101342.287500", "101342.747500", "101343.207500", "101343.667500", "101344.127500", "101344.587500", "101345.047500", "101345.507500", "101345.967500", "101346.427500", "101346.887500", "101347.347500", "101347.807500", "101348.267500", "101348.727500", "101349.187500", "101349.647500", "101350.107500", "101350.567500", "101351.027500", "101351.487500", "101351.947500", "101352.407500", "101352.867500", "101353.327500", "101353.787500", "101354.247500", "101354.707500", "101355.167500", "101355.627500", "101356.087500", "101356.547500", "101357.007500", "101357.467500", "101357.927500", "101358.387500", "101358.847500", "101359.307500", "101359.767500", "101400.227500", "101400.687500", "101401.147500", "101401.607500", "101402.067500", "101402.527500", "101402.987500", "101403.447500", "101403.907500", "101404.367500", "101404.827500", "101405.287500", "101405.747500", "101406.207500", "101406.667500", "101407.127500", "101407.587500", "101408.047500", "101408.507500", "101408.967500", "101409.427500", "101409.887500", "101410.347500", "101410.807500", "101411.267500", "101411.727500", "101412.187500", "101412.647500", "101413.107500", "101413.567500", "101414.027500", "101414.487500", "101414.947500", "101415.407500", "101415.867500", "101416.327500", "101416.787500", "101417.247500", "101417.707500", "101418.167500", "101418.627500", "101419.087500", "101419.547500", "101420.007500", "101420.467500", "101420.927500", "101421.387500", "101421.847500", "101422.307500", "101422.767500", "101423.227500", "101423.687500", "101424.147500", "101424.607500", "101425.067500", "101425.527500", "101425.987500", "101426.447500", "101426.907500", "101427.367500", "101427.827500", "101428.287500", "101428.747500", "101429.207500", "101429.667500", "101430.127500", "101430.587500", "101431.047500", "101431.507500", "101431.967500", "101432.427500", "101432.887500", "101433.347500", "101433.807500", "101434.267500", "101434.727500", "101435.187500", "101435.647500", "101436.107500", "101436.567500", "101437.027500", "101437.487500", "101437.947500", "101438.407500", "101438.867500", "101439.327500", "101439.787500", "101440.247500", "101440.707500", "101441.167500", "101441.627500", "101442.087500", "101442.547500", "101443.007500", "101443.467500", "101443.927500", "101444.387500", "101444.847500", "101445.307500", "101445.767500", "101446.227500", "101446.687500", "101447.147500", "101447.607500", "101448.067500", "101448.527500", "101448.987500", "101449.447500", "101449.907500", "101450.367500", "101450.827500", "101451.287500", "101451.747500", "101452.207500", "101452.667500", "101453.127500", "101453.587500", "101454.047500", "101454.507500", "101454.967500", "101455.427500", "101455.887500", "101456.347500", "101456.807500", "101457.267500", "101457.727500", "101458.187500", "101458.647500", "101459.107500", "101459.567500", "101500.027500", "101500.487500", "101500.947500", "101501.407500", "101501.867500", "101502.327500", "101502.787500", "101503.247500", "101503.707500", "101504.167500", "101504.627500", "101505.087500", "101505.547500", "101506.007500", "101506.467500", "101506.927500", "101507.387500", "101507.847500", "101508.307500", "101508.767500", "101509.227500", "101509.687500", "101510.147500", "101510.607500", "101511.067500", "101511.527500", "101511.987500", "101512.447500", "101512.907500", "101513.367500", "101513.827500", "101514.287500", "101514.747500", "101515.207500", "101515.667500", "101516.127500", "101516.587500", "101517.047500", "101517.507500", "101517.967500", "101518.427500", "101518.887500", "101519.347500", "101519.807500", "101520.267500", "101520.727500", "101521.187500", "101521.647500", "101522.107500", "101522.567500", "101523.027500", "101523.487500", "101523.947500", "101524.407500", "101524.867500", "101525.327500", "101525.787500", "101526.247500", "101526.707500", "101527.167500", "101527.627500", "101528.087500", "101528.547500", "101529.007500", "101529.467500", "101529.927500", "101530.387500", "101530.847500", "101531.307500", "101531.767500", "101532.227500", "101532.687500", "101533.147500", "101533.607500", "101534.067500", "101534.527500", "101534.987500", "101535.447500", "101535.907500", "101536.367500", "101536.827500", "101537.287500", "101537.747500", "101538.207500", "101538.667500", "101539.127500", "101539.587500", "101540.047500", "101540.507500", "101540.967500", "101541.427500", "101541.887500", "101542.347500", "101542.807500", "101543.267500", "101543.727500", "101544.187500", "101544.647500", "101545.107500", "101545.567500", "101546.027500", "101546.487500", "101546.947500", "101547.407500", "101547.867500", "101548.327500", "101548.787500", "101549.247500", "101549.707500", "101550.167500", "101550.627500", "101551.087500", "101551.547500", "101552.007500", "101552.467500", "101552.927500", "101553.387500", "101553.847500", "101554.307500", "101554.767500", "101555.227500", "101555.687500", "101556.147500", "101556.607500", "101557.067500", "101557.527500", "101557.987500", "101558.447500", "101558.907500", "101559.367500", "101559.827500", "101600.287500", "101600.747500", "101601.207500", "101601.667500", "101602.127500", "101602.587500", "101603.047500", "101603.507500", "101603.967500", "101604.427500", "101604.887500", "101605.347500", "101605.807500", "101606.267500", "101606.727500", "101607.187500", "101607.647500", "101608.107500", "101608.567500", "101609.027500", "101609.487500", "101609.947500", "101610.407500", "101610.867500", "101611.327500", "101611.787500", "101612.247500", "101612.707500", "101613.167500", "101613.627500", "101614.087500", "101614.547500", "101615.007500", "101615.467500", "101615.927500", "101616.387500", "101616.847500", "101617.307500", "101617.767500", "101618.227500", "101618.687500", "101619.147500", "101619.607500", "101620.067500", "101620.527500", "101620.987500", "101621.447500", "101621.907500", "101622.367500", "101622.827500", "101623.287500", "101623.747500", "101624.207500", "101624.667500", "101625.127500", "101625.587500", "101626.047500", "101626.507500", "101626.967500", "101627.427500", "101627.887500", "101628.347500", "101628.807500", "101629.267500", "101629.727500", "101630.187500", "101630.647500", "101631.107500", "101631.567500", "101632.027500", "101632.487500", "101632.947500", "101633.407500", "101633.867500", "101634.327500", "101634.787500", "101635.247500", "101635.707500", "101636.167500", "101636.627500", "101637.087500", "101637.547500", "101638.007500", "101638.467500", "101638.927500", "101639.387500", "101639.847500", "101640.307500", "101640.767500", "101641.227500", "101641.687500", "101642.147500", "101642.607500", "101643.067500", "101643.527500", "101643.987500", "101644.447500", "101644.907500", "101645.367500", "101645.827500", "101646.287500", "101646.747500", "101647.207500", "101647.667500", "101648.127500", "101648.587500", "101649.047500", "101649.507500", "101649.967500", "101650.427500", "101650.887500", "101651.347500", "101651.807500", "101652.267500", "101652.727500", "101653.187500", "101653.647500", "101654.107500", "101654.567500", "101655.027500", "101655.487500", "101655.947500", "101656.407500", "101656.867500", "101657.327500", "101657.787500", "101658.247500", "101658.707500", "101659.167500", "101659.627500", "101700.087500", "101700.547500", "101701.007500", "101701.467500", "101701.927500", "101702.387500", "101702.847500", "101703.307500", "101703.767500", "101704.227500", "101704.687500", "101705.147500", "101705.607500", "101706.067500", "101706.527500", "101706.987500", "101707.447500", "101707.907500", "101708.367500", "101708.827500", "101709.287500", "101709.747500", "101710.207500", "101710.667500", "101711.127500", "101711.587500", "101712.047500", "101712.507500", "101712.967500", "101713.427500", "101713.887500", "101714.347500", "101714.807500", "101715.267500", "101715.727500", "101716.187500", "101716.647500", "101717.107500", "101717.567500", "101718.027500", "101718.487500", "101718.947500", "101719.407500", "101719.867500", "101720.327500", "101720.787500", "101721.247500", "101721.707500", "101722.167500", "101722.627500", "101723.087500", "101723.547500", "101724.007500", "101724.467500", "101724.927500", "101725.387500", "101725.847500", "101726.307500", "101726.767500", "101727.227500", "101727.687500", "101728.147500", "101728.607500", "101729.067500", "101729.527500", "101729.987500", "101730.447500", "101730.907500", "101731.367500", "101731.827500", "101732.287500", "101732.747500", "101733.207500", "101733.667500", "101734.127500", "101734.587500", "101735.047500", "101735.507500", "101735.967500", "101736.427500", "101736.887500", "101737.347500", "101737.807500", "101738.267500", "101738.727500", "101739.187500", "101739.647500", "101740.107500", "101740.567500", "101741.027500", "101741.487500", "101741.947500", "101742.407500", "101742.867500", "101743.327500", "101743.787500", "101744.247500", "101744.707500", "101745.167500", "101745.627500", "101746.087500", "101746.547500", "101747.007500", "101747.467500", "101747.927500", "101748.387500", "101748.847500", "101749.307500", "101749.767500", "101750.227500", "101750.687500", "101751.147500", "101751.607500", "101752.067500", "101752.527500", "101752.987500", "101753.447500", "101753.907500", "101754.367500", "101754.827500", "101755.287500", "101755.747500", "101756.207500", "101756.667500", "101757.127500", "101757.587500", "101758.047500", "101758.507500", "101758.967500", "101759.427500", "101759.887500", "101800.347500", "101800.807500", "101801.267500", "101801.727500", "101802.187500", "101802.647500", "101803.107500", "101803.567500", "101804.027500", "101804.487500", "101804.947500", "101805.407500", "101805.867500", "101806.327500", "101806.787500", "101807.247500", "101807.707500", "101808.167500", "101808.627500", "101809.087500", "101809.547500", "101810.007500", "101810.467500", "101810.927500", "101811.387500", "101811.847500", "101812.307500", "101812.767500", "101813.227500", "101813.687500", "101814.147500", "101814.607500", "101815.067500", "101815.527500", "101815.987500", "101816.447500", "101816.907500", "101817.367500", "101817.827500", "101818.287500", "101818.747500", "101819.207500", "101819.667500", "101820.127500", "101820.587500", "101821.047500", "101821.507500", "101821.967500", "101822.427500", "101822.887500", "101823.347500", "101823.807500", "101824.267500", "101824.727500", "101825.187500", "101825.647500", "101826.107500", "101826.567500", "101827.027500", "101827.487500", "101827.947500", "101828.407500", "101828.867500", "101829.327500", "101829.787500", "101830.247500", "101830.707500", "101831.167500", "101831.627500", "101832.087500", "101832.547500", "101833.007500", "101833.467500", "101833.927500", "101834.387500", "101834.847500", "101835.307500", "101835.767500", "101836.227500", "101836.687500", "101837.147500", "101837.607500", "101838.067500", "101838.527500", "101838.987500", "101839.447500", "101839.907500", "101840.367500", "101840.827500", "101841.287500", "101841.747500", "101842.207500", "101842.667500", "101843.127500", "101843.587500", "101844.047500", "101844.507500", "101844.967500", "101845.427500", "101845.887500", "101846.347500", "101846.807500", "101847.267500", "101847.727500", "101848.187500", "101848.647500", "101849.107500", "101849.567500", "101850.027500", "101850.487500", "101850.947500", "101851.407500", "101851.867500", "101852.327500", "101852.787500", "101853.247500", "101853.707500", "101854.167500", "101854.627500", "101855.087500", "101855.547500", "101856.007500", "101856.467500", "101856.927500", "101857.387500", "101857.847500", "101858.307500", "101858.767500", "101859.227500", "101859.687500", "101900.147500", "101900.607500", "101901.067500", "101901.527500", "101901.987500", "101902.447500", "101902.907500", "101903.367500", "101903.827500", "101904.287500", "101904.747500", "101905.207500", "101905.667500", "101906.127500", "101906.587500", "101907.047500", "101907.507500", "101907.967500", "101908.427500", "101908.887500", "101909.347500", "101909.807500", "101910.267500", "101910.727500", "101911.187500", "101911.647500", "101912.107500", "101912.567500", "101913.027500", "101913.487500", "101913.947500", "101914.407500", "101914.867500", "101915.327500", "101915.787500", "101916.247500", "101916.707500", "101917.167500", "101917.627500", "101918.087500", "101918.547500", "101919.007500", "101919.467500", "101919.927500", "101920.387500", "101920.847500", "101921.307500", "101921.767500", "101922.227500", "101922.687500", "101923.147500", "101923.607500", "101924.067500", "101924.527500", "101924.987500", "101925.447500", "101925.907500", "101926.367500", "101926.827500", "101927.287500", "101927.747500", "101928.207500", "101928.667500", "101929.127500", "101929.587500", "101930.047500", "101930.507500", "101930.967500", "101931.427500", "101931.887500", "101932.347500", "101932.807500", "101933.267500", "101933.727500", "101934.187500", "101934.647500", "101935.107500", "101935.567500", "101936.027500", "101936.487500", "101936.947500", "101937.407500", "101937.867500", "101938.327500", "101938.787500", "101939.247500", "101939.707500", "101940.167500", "101940.627500", "101941.087500", "101941.547500", "101942.007500", "101942.467500", "101942.927500", "101943.387500", "101943.847500", "101944.307500", "101944.767500", "101945.227500", "101945.687500", "101946.147500", "101946.607500", "101947.067500", "101947.527500", "101947.987500", "101948.447500", "101948.907500", "101949.367500", "101949.827500", "101950.287500", "101950.747500", "101951.207500", "101951.667500", "101952.127500", "101952.587500", "101953.047500", "101953.507500", "101953.967500", "101954.427500", "101954.887500", "101955.347500", "101955.807500", "101956.267500", "101956.727500", "101957.187500", "101957.647500", "101958.107500", "101958.567500", "101959.027500", "101959.487500", "101959.947500", "102000.407500", "102000.867500", "102001.327500", "102001.787500", "102002.247500", "102002.707500", "102003.167500", "102003.627500", "102004.087500", "102004.547500", "102005.007500", "102005.467500", "102005.927500", "102006.387500", "102006.847500", "102007.307500", "102007.767500", "102008.227500", "102008.687500", "102009.147500", "102009.607500", "102010.067500", "102010.527500", "102010.987500", "102011.447500", "102011.907500", "102012.367500", "102012.827500", "102013.287500", "102013.747500", "102014.207500", "102014.667500", "102015.127500", "102015.587500", "102016.047500", "102016.507500", "102016.967500", "102017.427500", "102017.887500", "102018.347500", "102018.807500", "102019.267500", "102019.727500", "102020.187500", "102020.647500", "102021.107500", "102021.567500", "102022.027500", "102022.487500", "102022.947500", "102023.407500", "102023.867500", "102024.327500", "102024.787500", "102025.247500", "102025.707500", "102026.167500", "102026.627500", "102027.087500", "102027.547500", "102028.007500", "102028.467500", "102028.927500", "102029.387500", "102029.847500", "102030.307500", "102030.767500", "102031.227500", "102031.687500", "102032.147500", "102032.607500", "102033.067500", "102033.527500", "102033.987500", "102034.447500", "102034.907500", "102035.367500", "102035.827500", "102036.287500", "102036.747500", "102037.207500", "102037.667500", "102038.127500", "102038.587500", "102039.047500", "102039.507500", "102039.967500", "102040.427500", "102040.887500", "102041.347500", "102041.807500", "102042.267500", "102042.727500", "102043.187500", "102043.647500", "102044.107500", "102044.567500", "102045.027500", "102045.487500", "102045.947500", "102046.407500", "102046.867500", "102047.327500", "102047.787500", "102048.247500", "102048.707500", "102049.167500", "102049.627500", "102050.087500", "102050.547500", "102051.007500", "102051.467500", "102051.927500", "102052.387500", "102052.847500", "102053.307500", "102053.767500", "102054.227500", "102054.687500", "102055.147500", "102055.607500", "102056.067500", "102056.527500", "102056.987500", "102057.447500", "102057.907500", "102058.367500", "102058.827500", "102059.287500", "102059.747500", "102100.207500", "102100.667500", "102101.127500", "102101.587500", "102102.047500", "102102.507500", "102102.967500", "102103.427500", "102103.887500", "102104.347500", "102104.807500", "102105.267500", "102105.727500", "102106.187500", "102106.647500", "102107.107500", "102107.567500", "102108.027500", "102108.487500", "102108.947500", "102109.407500", "102109.867500", "102110.327500", "102110.787500", "102111.247500", "102111.707500", "102112.167500", "102112.627500", "102113.087500", "102113.547500", "102114.007500", "102114.467500", "102114.927500", "102115.387500", "102115.847500", "102116.307500", "102116.767500", "102117.227500", "102117.687500", "102118.147500", "102118.607500", "102119.067500", "102119.527500", "102119.987500", "102120.447500", "102120.907500", "102121.367500", "102121.827500", "102122.287500", "102122.747500", "102123.207500", "102123.667500", "102124.127500", "102124.587500", "102125.047500", "102125.507500", "102125.967500"],
