{
  "AcquisitionMatrixPE": 82,
  "AcquisitionNumber": 1,
  "AcquisitionTime": "09:20:45.017500",
  "BandwidthPerPixelPhaseEncode": 24.888,
  "BaseResolution": 82,
  "BodyPartExamined": "BRAIN",
  "ConsistencyInfo": "N4_VE11E_LATEST_20181129",
  "ConversionSoftware": "dcm2niix",
  "ConversionSoftwareVersion": "v1.0.20201102",
  "DerivedVendorReportedEchoSpacing": 0.00049,
  "DeviceSerialNumber": "66112",
  "DwellTime": 2e-06,
  "EchoTime": 0.0272,
  "EchoTrainLength": 82,
  "EffectiveEchoSpacing": 0.00049,
  "FlipAngle": 44,
  "ImageComments": "Unaliased MB8/PE3",
  "ImageOrientationPatientDICOM": [0.999384, 0.00417979, 0.0348344, -0.00558164, 0.999174, 0.0402436],
  "ImageType": [
    "ORIGINAL",
    "PRIMARY",
    "M",
    "MB",
    "ND",
    "NORM",
    "MOSAIC"
],
  "ImagingFrequency": 123.252,
  "InPlanePhaseEncodingDirectionDICOM": "COL",
  "InstitutionAddress": "Maynard 3,Hanover,NH,US,03755",
  "InstitutionName": "Dartmouth College - PBS",
  "InstitutionalDepartmentName": "Department",
  "MRAcquisitionType": "2D",
  "MagneticFieldStrength": 3,
  "Manufacturer": "Siemens",
  "ManufacturersModelName": "Prisma",
  "Modality": "MR",
  "MultibandAccelerationFactor": 8,
  "PartialFourier": 1,
  "PatientPosition": "HFS",
  "PercentPhaseFOV": 100,
  "PercentSampling": 100,
  "PhaseEncodingDirection": "j-",
  "PhaseEncodingSteps": 82,
  "PhaseResolution": 1,
  "PixelBandwidth": 3050,
  "ProcedureStepDescription": "Wager_Wager^1076_spacetop",
  "ProtocolName": "func_run-03_task-social_acq-ap-mb8",
  "PulseSequenceDetails": "%CustomerSeq%\\cmrr_mbep2d_bold",
  "ReceiveCoilActiveElements": "HEA;HEP",
  "ReceiveCoilName": "Head_32",
  "ReconMatrixPE": 82,
  "RepetitionTime": 0.46,
  "SAR": 0.0912094,
  "ScanOptions": "FS",
  "ScanningSequence": "EP",
  "SequenceName": "epfid2d1_82",
  "SequenceVariant": "SK\\SS",
  "SeriesDescription": "func_run-03_task-social_acq-ap-mb8",
  "SeriesNumber": 16,
  "ShimSetting": [4152, -7746, -7303, 656, -79, -127, 69, 95],
  "SliceThickness": 2.7,
  "SliceTiming": [0, 0.2525, 0.065, 0.315, 0.1275, 0.3775, 0.19, 0, 0.2525, 0.065, 0.315, 0.1275, 0.3775, 0.19, 0, 0.2525, 0.065, 0.315, 0.1275, 0.3775, 0.19, 0, 0.2525, 0.065, 0.315, 0.1275, 0.3775, 0.19, 0, 0.2525, 0.065, 0.315, 0.1275, 0.3775, 0.19, 0, 0.2525, 0.065, 0.315, 0.1275, 0.3775, 0.19, 0, 0.2525, 0.065, 0.315, 0.1275, 0.3775, 0.19, 0, 0.2525, 0.065, 0.315, 0.1275, 0.3775, 0.19],
  "SoftwareVersions": "syngo MR E11",
  "SpacingBetweenSlices": 2.7,
  "StationName": "AWP66112",
  "TaskName": "social",
  "TotalReadoutTime": 0.03969,
  "TxRefAmp": 236.123,
  "WipMemBlock": "6d91695b-b1b9-4299-851e-610f07549a81||Sequence: R016 ve11e/master r/434b28f1; Aug  7 2019 18:53:46 by eja",
  "dcmmeta_affine": [
    [-2.6812751293182373, -0.014975127764046192, 0.0935211107134819, 109.95507049560547],
    [-0.011214072816073895, 2.680711507797241, 0.10911578685045242, -100.7954330444336],
    [0.09345820546150208, -0.10797063261270523, 2.6961727142333984, -82.14667510986328],
    [0.0, 0.0, 0.0, 1.0]
],
  "dcmmeta_reorient_transform": [
    [0.0, -1.0, 0.0, 81.0],
    [1.0, 0.0, 0.0, 0.0],
    [0.0, 0.0, 1.0, 0.0],
    [0.0, 0.0, 0.0, 1.0]
],
  "dcmmeta_shape": [82, 82, 56, 872],
  "dcmmeta_slice_dim": 2,
  "dcmmeta_version": 0.6,
  "global": {
    "const": {
      "AccessionNumber": "A004112",
      "AcquisitionMatrix": [82, 0, 0, 82],
      "AngioFlag": "N",
      "BitsAllocated": 16,
      "BitsStored": 16,
      "BodyPartExamined": "BRAIN",
      "Columns": 656,
      "EchoNumbers": 1,
      "EchoTime": 27.2,
      "EchoTrainLength": 82,
      "FlipAngle": 44.0,
      "HighBit": 15,
      "ImageOrientationPatient": [0.9993843567186, 0.00417979068475, 0.03483442113759, -0.0055816382409, 0.99917430814177, 0.04024359904335],
      "ImagePositionPatient": [-873.97019456578, -888.92488508336, -148.70237210298],
      "ImageType": [
        "ORIGINAL",
        "PRIMARY",
        "M",
        "MB",
        "ND",
        "NORM",
        "MOSAIC"
],
      "ImagedNucleus": "1H",
      "ImagingFrequency": 123.252224,
      "InPlanePhaseEncodingDirection": "COL",
      "MRAcquisitionType": "2D",
      "MagneticFieldStrength": 3.0,
      "Manufacturer": "SIEMENS",
      "ManufacturerModelName": "Prisma",
      "Modality": "MR",
      "NumberOfAverages": 1.0,
      "NumberOfPhaseEncodingSteps": 82,
      "PercentPhaseFieldOfView": 100.0,
      "PercentSampling": 100.0,
      "PerformedProcedureStepStartTime": "083142.651000",
      "PhotometricInterpretation": "MONOCHROME2",
      "PixelBandwidth": 3050.0,
      "PixelRepresentation": 0,
      "PixelSpacing": [2.6829268932343, 2.6829268932343],
      "ProtocolName": "func_run-03_task-social_acq-ap-mb8",
      "RepetitionTime": 460.0,
      "Rows": 656,
      "SAR": 0.09120943858141,
      "SamplesPerPixel": 1,
      "ScanOptions": "FS",
      "ScanningSequence": "EP",
      "SequenceName": "epfid2d1_82",
      "SequenceVariant": [
        "SK",
        "SS"
],
      "SeriesDescription": "func_run-03_task-social_acq-ap-mb8",
      "SeriesNumber": 16,
      "SeriesTime": "092107.552000",
      "SliceLocation": -82.295139721645,
      "SliceThickness": 2.7000000476837,
      "SmallestImagePixelValue": 0,
      "SoftwareVersions": "syngo MR E11",
      "SpacingBetweenSlices": 2.6999999206684,
      "SpecificCharacterSet": "ISO_IR 100",
      "StudyID": "1",
      "StudyTime": "083142.475000",
      "TransmitCoilName": "Body",
      "VariableFlipAngleFlag": "N",
      "WindowCenterWidthExplanation": "Algo1"
    },
    "slices": {}
  },
  "time": {
    "samples": {
      "AcquisitionNumber": [1, 2, 3, 4, 5, 6, 7, 8, 9, 10, 11, 12, 13, 14, 15, 16, 17, 18, 19, 20, 21, 22, 23, 24, 25, 26, 27, 28, 29, 30, 31, 32, 33, 34, 35, 36, 37, 38, 39, 40, 41, 42, 43, 44, 45, 46, 47, 48, 49, 50, 51, 52, 53, 54, 55, 56, 57, 58, 59, 60, 61, 62, 63, 64, 65, 66, 67, 68, 69, 70, 71, 72, 73, 74, 75, 76, 77, 78, 79, 80, 81, 82, 83, 84, 85, 86, 87, 88, 89, 90, 91, 92, 93, 94, 95, 96, 97, 98, 99, 100, 101, 102, 103, 104, 105, 106, 107, 108, 109, 110, 111, 112, 113, 114, 115, 116, 117, 118, 119, 120, 121, 122, 123, 124, 125, 126, 127, 128, 129, 130, 131, 132, 133, 134, 135, 136, 137, 138, 139, 140, 141, 142, 143, 144, 145, 146, 147, 148, 149, 150, 151, 152, 153, 154, 155, 156, 157, 158, 159, 160, 161, 162, 163, 164, 165, 166, 167, 168, 169, 170, 171, 172, 173, 174, 175, 176, 177, 178, 179, 180, 181, 182, 183, 184, 185, 186, 187, 188, 189, 190, 191, 192, 193, 194, 195, 196, 197, 198, 199, 200, 201, 202, 203, 204, 205, 206, 207, 208, 209, 210, 211, 212, 213, 214, 215, 216, 217, 218, 219, 220, 221, 222, 223, 224, 225, 226, 227, 228, 229, 230, 231, 232, 233, 234, 235, 236, 237, 238, 239, 240, 241, 242, 243, 244, 245, 246, 247, 248, 249, 250, 251, 252, 253, 254, 255, 256, 257, 258, 259, 260, 261, 262, 263, 264, 265, 266, 267, 268, 269, 270, 271, 272, 273, 274, 275, 276, 277, 278, 279, 280, 281, 282, 283, 284, 285, 286, 287, 288, 289, 290, 291, 292, 293, 294, 295, 296, 297, 298, 299, 300, 301, 302, 303, 304, 305, 306, 307, 308, 309, 310, 311, 312, 313, 314, 315, 316, 317, 318, 319, 320, 321, 322, 323, 324, 325, 326, 327, 328, 329, 330, 331, 332, 333, 334, 335, 336, 337, 338, 339, 340, 341, 342, 343, 344, 345, 346, 347, 348, 349, 350, 351, 352, 353, 354, 355, 356, 357, 358, 359, 360, 361, 362, 363, 364, 365, 366, 367, 368, 369, 370, 371, 372, 373, 374, 375, 376, 377, 378, 379, 380, 381, 382, 383, 384, 385, 386, 387, 388, 389, 390, 391, 392, 393, 394, 395, 396, 397, 398, 399, 400, 401, 402, 403, 404, 405, 406, 407, 408, 409, 410, 411, 412, 413, 414, 415, 416, 417, 418, 419, 420, 421, 422, 423, 424, 425, 426, 427, 428, 429, 430, 431, 432, 433, 434, 435, 436, 437, 438, 439, 440, 441, 442, 443, 444, 445, 446, 447, 448, 449, 450, 451, 452, 453, 454, 455, 456, 457, 458, 459, 460, 461, 462, 463, 464, 465, 466, 467, 468, 469, 470, 471, 472, 473, 474, 475, 476, 477, 478, 479, 480, 481, 482, 483, 484, 485, 486, 487, 488, 489, 490, 491, 492, 493, 494, 495, 496, 497, 498, 499, 500, 501, 502, 503, 504, 505, 506, 507, 508, 509, 510, 511, 512, 513, 514, 515, 516, 517, 518, 519, 520, 521, 522, 523, 524, 525, 526, 527, 528, 529, 530, 531, 532, 533, 534, 535, 536, 537, 538, 539, 540, 541, 542, 543, 544, 545, 546, 547, 548, 549, 550, 551, 552, 553, 554, 555, 556, 557, 558, 559, 560, 561, 562, 563, 564, 565, 566, 567, 568, 569, 570, 571, 572, 573, 574, 575, 576, 577, 578, 579, 580, 581, 582, 583, 584, 585, 586, 587, 588, 589, 590, 591, 592, 593, 594, 595, 596, 597, 598, 599, 600, 601, 602, 603, 604, 605, 606, 607, 608, 609, 610, 611, 612, 613, 614, 615, 616, 617, 618, 619, 620, 621, 622, 623, 624, 625, 626, 627, 628, 629, 630, 631, 632, 633, 634, 635, 636, 637, 638, 639, 640, 641, 642, 643, 644, 645, 646, 647, 648, 649, 650, 651, 652, 653, 654, 655, 656, 657, 658, 659, 660, 661, 662, 663, 664, 665, 666, 667, 668, 669, 670, 671, 672, 673, 674, 675, 676, 677, 678, 679, 680, 681, 682, 683, 684, 685, 686, 687, 688, 689, 690, 691, 692, 693, 694, 695, 696, 697, 698, 699, 700, 701, 702, 703, 704, 705, 706, 707, 708, 709, 710, 711, 712, 713, 714, 715, 716, 717, 718, 719, 720, 721, 722, 723, 724, 725, 726, 727, 728, 729, 730, 731, 732, 733, 734, 735, 736, 737, 738, 739, 740, 741, 742, 743, 744, 745, 746, 747, 748, 749, 750, 751, 752, 753, 754, 755, 756, 757, 758, 759, 760, 761, 762, 763, 764, 765, 766, 767, 768, 769, 770, 771, 772, 773, 774, 775, 776, 777, 778, 779, 780, 781, 782, 783, 784, 785, 786, 787, 788, 789, 790, 791, 792, 793, 794, 795, 796, 797, 798, 799, 800, 801, 802, 803, 804, 805, 806, 807, 808, 809, 810, 811, 812, 813, 814, 815, 816, 817, 818, 819, 820, 821, 822, 823, 824, 825, 826, 827, 828, 829, 830, 831, 832, 833, 834, 835, 836, 837, 838, 839, 840, 841, 842, 843, 844, 845, 846, 847, 848, 849, 850, 851, 852, 853, 854, 855, 856, 857, 858, 859, 860, 861, 862, 863, 864, 865, 866, 867, 868, 869, 870, 871, 872],
      "AcquisitionTime": ["092045.017500", "092045.477500", "092045.937500", "092046.397500", "092046.857500", "092047.317500", "092047.777500", "092048.237500", "092048.697500", "092049.157500", "092049.617500", "092050.077500", "092050.537500", "092050.997500", "092051.457500", "092051.917500", "092052.377500", "092052.837500", "092053.297500", "092053.757500", "092054.217500", "092054.677500", "092055.137500", "092055.597500", "092056.057500", "092056.517500", "092056.977500", "092057.437500", "092057.897500", "092058.357500", "092058.817500", "092059.277500", "092059.737500", "092100.197500", "092100.657500", "092101.117500", "092101.577500", "092102.037500", "092102.497500", "092102.957500", "092103.417500", "092103.877500", "092104.337500", "092104.797500", "092105.257500", "092105.717500", "092106.177500", "092106.637500", "092107.097500", "092107.557500", "092108.017500", "092108.477500", "092108.937500", "092109.397500", "092109.857500", "092110.317500", "092110.777500", "092111.237500", "092111.697500", "092112.157500", "092112.617500", "092113.077500", "092113.537500", "092113.997500", "092114.457500", "092114.917500", "092115.377500", "092115.837500", "092116.297500", "092116.757500", "092117.217500", "092117.677500", "092118.137500", "092118.597500", "092119.057500", "092119.517500", "092119.977500", "092120.437500", "092120.897500", "092121.357500", "092121.817500", "092122.277500", "092122.737500", "092123.197500", "092123.657500", "092124.117500", "092124.577500", "092125.037500", "092125.497500", "092125.957500", "092126.417500", "092126.877500", "092127.337500", "092127.797500", "092128.257500", "092128.717500", "092129.177500", "092129.637500", "092130.097500", "092130.557500", "092131.017500", "092131.477500", "092131.937500", "092132.397500", "092132.857500", "092133.317500", "092133.777500", "092134.237500", "092134.697500", "092135.157500", "092135.617500", "092136.077500", "092136.537500", "092136.997500", "092137.457500", "092137.917500", "092138.377500", "092138.837500", "092139.297500", "092139.757500", "092140.217500", "092140.677500", "092141.137500", "092141.597500", "092142.057500", "092142.517500", "092142.977500", "092143.437500", "092143.897500", "092144.357500", "092144.817500", "092145.277500", "092145.737500", "092146.197500", "092146.657500", "092147.117500", "092147.577500", "092148.037500", "092148.497500", "092148.957500", "092149.417500", "092149.877500", "092150.337500", "092150.797500", "092151.257500", "092151.717500", "092152.177500", "092152.637500", "092153.097500", "092153.557500", "092154.017500", "092154.477500", "092154.937500", "092155.397500", "092155.857500", "092156.317500", "092156.777500", "092157.237500", "092157.697500", "092158.157500", "092158.617500", "092159.077500", "092159.537500", "092159.997500", "092200.457500", "092200.917500", "092201.377500", "092201.837500", "092202.297500", "092202.757500", "092203.217500", "092203.677500", "092204.137500", "092204.597500", "092205.057500", "092205.517500", "092205.977500", "092206.437500", "092206.897500", "092207.357500", "092207.817500", "092208.277500", "092208.737500", "092209.197500", "092209.657500", "092210.117500", "092210.577500", "092211.037500", "092211.497500", "092211.957500", "092212.417500", "092212.877500", "092213.337500", "092213.797500", "092214.257500", "092214.717500", "092215.177500", "092215.637500", "092216.097500", "092216.557500", "092217.017500", "092217.477500", "092217.937500", "092218.397500", "092218.857500", "092219.317500", "092219.777500", "092220.237500", "092220.697500", "092221.157500", "092221.617500", "092222.077500", "092222.537500", "092222.997500", "092223.457500", "092223.917500", "092224.377500", "092224.837500", "092225.297500", "092225.757500", "092226.217500", "092226.677500", "092227.137500", "092227.597500", "092228.057500", "092228.517500", "092228.977500", "092229.437500", "092229.897500", "092230.357500", "092230.817500", "092231.277500", "092231.737500", "092232.197500", "092232.657500", "092233.117500", "092233.577500", "092234.037500", "092234.497500", "092234.957500", "092235.417500", "092235.877500", "092236.337500", "092236.797500", "092237.257500", "092237.717500", "092238.177500", "092238.637500", "092239.097500", "092239.557500", "092240.017500", "092240.477500", "092240.937500", "092241.397500", "092241.857500", "092242.317500", "092242.777500", "092243.237500", "092243.697500", "092244.157500", "092244.617500", "092245.077500", "092245.537500", "092245.997500", "092246.457500", "092246.917500", "092247.377500", "092247.837500", "092248.297500", "092248.757500", "092249.217500", "092249.677500", "092250.137500", "092250.597500", "092251.057500", "092251.517500", "092251.977500", "092252.437500", "092252.897500", "092253.357500", "092253.817500", "092254.277500", "092254.737500", "092255.197500", "092255.657500", "092256.117500", "092256.577500", "092257.037500", "092257.497500", "092257.957500", "092258.417500", "092258.877500", "092259.337500", "092259.797500", "092300.257500", "092300.717500", "092301.177500", "092301.637500", "092302.097500", "092302.557500", "092303.017500", "092303.477500", "092303.937500", "092304.397500", "092304.857500", "092305.317500", "092305.777500", "092306.237500", "092306.697500", "092307.157500", "092307.617500", "092308.077500", "092308.537500", "092308.997500", "092309.457500", "092309.917500", "092310.377500", "092310.837500", "092311.297500", "092311.757500", "092312.217500", "092312.677500", "092313.137500", "092313.597500", "092314.057500", "092314.517500", "092314.977500", "092315.437500", "092315.897500", "092316.357500", "092316.817500", "092317.277500", "092317.737500", "092318.197500", "092318.657500", "092319.117500", "092319.577500", "092320.037500", "092320.497500", "092320.957500", "092321.417500", "092321.877500", "092322.337500", "092322.797500", "092323.257500", "092323.717500", "092324.177500", "092324.637500", "092325.097500", "092325.557500", "092326.017500", "092326.477500", "092326.937500", "092327.397500", "092327.857500", "092328.317500", "092328.777500", "092329.237500", "092329.697500", "092330.157500", "092330.617500", "092331.077500", "092331.537500", "092331.997500", "092332.457500", "092332.917500", "092333.377500", "092333.837500", "092334.297500", "092334.757500", "092335.217500", "092335.677500", "092336.137500", "092336.597500", "092337.057500", "092337.517500", "092337.977500", "092338.437500", "092338.897500", "092339.357500", "092339.817500", "092340.277500", "092340.737500", "092341.197500", "092341.657500", "092342.117500", "092342.577500", "092343.037500", "092343.497500", "092343.957500", "092344.417500", "092344.877500", "092345.337500", "092345.797500", "092346.257500", "092346.717500", "092347.177500", "092347.637500", "092348.097500", "092348.557500", "092349.017500", "092349.477500", "092349.937500", "092350.397500", "092350.857500", "092351.317500", "092351.777500", "092352.237500", "092352.697500", "092353.157500", "092353.617500", "092354.077500", "092354.537500", "092354.997500", "092355.457500", "092355.917500", "092356.377500", "092356.837500", "092357.297500", "092357.757500", "092358.217500", "092358.677500", "092359.137500", "092359.597500", "092400.057500", "092400.517500", "092400.977500", "092401.437500", "092401.897500", "092402.357500", "092402.817500", "092403.277500", "092403.737500", "092404.197500", "092404.657500", "092405.117500", "092405.577500", "092406.037500", "092406.497500", "092406.957500", "092407.417500", "092407.877500", "092408.337500", "092408.797500", "092409.257500", "092409.717500", "092410.177500", "092410.637500", "092411.097500", "092411.557500", "092412.017500", "092412.477500", "092412.937500", "092413.397500", "092413.857500", "092414.317500", "092414.777500", "092415.237500", "092415.697500", "092416.157500", "092416.617500", "092417.077500", "092417.537500", "092417.997500", "092418.457500", "092418.917500", "092419.377500", "092419.837500", "092420.297500", "092420.757500", "092421.217500", "092421.677500", "092422.137500", "092422.597500", "092423.057500", "092423.517500", "092423.977500", "092424.437500", "092424.897500", "092425.357500", "092425.817500", "092426.277500", "092426.737500", "092427.197500", "092427.657500", "092428.117500", "092428.577500", "092429.037500", "092429.497500", "092429.957500", "092430.417500", "092430.877500", "092431.337500", "092431.797500", "092432.257500", "092432.717500", "092433.177500", "092433.637500", "092434.097500", "092434.557500", "092435.017500", "092435.477500", "092435.937500", "092436.397500", "092436.857500", "092437.317500", "092437.777500", "092438.237500", "092438.697500", "092439.157500", "092439.617500", "092440.077500", "092440.537500", "092440.997500", "092441.457500", "092441.917500", "092442.377500", "092442.837500", "092443.297500", "092443.757500", "092444.217500", "092444.677500", "092445.137500", "092445.597500", "092446.057500", "092446.517500", "092446.977500", "092447.437500", "092447.897500", "092448.357500", "092448.817500", "092449.277500", "092449.737500", "092450.197500", "092450.657500", "092451.117500", "092451.577500", "092452.037500", "092452.497500", "092452.957500", "092453.417500", "092453.877500", "092454.337500", "092454.797500", "092455.257500", "092455.717500", "092456.177500", "092456.637500", "092457.097500", "092457.557500", "092458.017500", "092458.477500", "092458.937500", "092459.397500", "092459.857500", "092500.317500", "092500.777500", "092501.237500", "092501.697500", "092502.157500", "092502.617500", "092503.077500", "092503.537500", "092503.997500", "092504.457500", "092504.917500", "092505.377500", "092505.837500", "092506.297500", "092506.757500", "092507.217500", "092507.677500", "092508.137500", "092508.597500", "092509.057500", "092509.517500", "092509.977500", "092510.437500", "092510.897500", "092511.357500", "092511.817500", "092512.277500", "092512.737500", "092513.197500", "092513.657500", "092514.117500", "092514.577500", "092515.037500", "092515.497500", "092515.957500", "092516.417500", "092516.877500", "092517.337500", "092517.797500", "092518.257500", "092518.717500", "092519.177500", "092519.637500", "092520.097500", "092520.557500", "092521.017500", "092521.477500", "092521.937500", "092522.397500", "092522.857500", "092523.317500", "092523.777500", "092524.237500", "092524.697500", "092525.157500", "092525.617500", "092526.077500", "092526.537500", "092526.997500", "092527.457500", "092527.917500", "092528.377500", "092528.837500", "092529.297500", "092529.757500", "092530.217500", "092530.677500", "092531.137500", "092531.597500", "092532.057500", "092532.517500", "092532.977500", "092533.437500", "092533.897500", "092534.357500", "092534.817500", "092535.277500", "092535.737500", "092536.197500", "092536.657500", "092537.117500", "092537.577500", "092538.037500", "092538.497500", "092538.957500", "092539.417500", "092539.877500", "092540.337500", "092540.797500", "092541.257500", "092541.717500", "092542.177500", "092542.637500", "092543.097500", "092543.557500", "092544.017500", "092544.477500", "092544.937500", "092545.397500", "092545.857500", "092546.317500", "092546.777500", "092547.237500", "092547.697500", "092548.157500", "092548.617500", "092549.077500", "092549.537500", "092549.997500", "092550.457500", "092550.917500", "092551.377500", "092551.837500", "092552.297500", "092552.757500", "092553.217500", "092553.677500", "092554.137500", "092554.597500", "092555.057500", "092555.517500", "092555.977500", "092556.437500", "092556.897500", "092557.357500", "092557.817500", "092558.277500", "092558.737500", "092559.197500", "092559.657500", "092600.117500", "092600.577500", "092601.037500", "092601.497500", "092601.957500", "092602.417500", "092602.877500", "092603.337500", "092603.797500", "092604.257500", "092604.717500", "092605.177500", "092605.637500", "092606.097500", "092606.557500", "092607.017500", "092607.477500", "092607.937500", "092608.397500", "092608.857500", "092609.317500", "092609.777500", "092610.237500", "092610.697500", "092611.157500", "092611.617500", "092612.077500", "092612.537500", "092612.997500", "092613.457500", "092613.917500", "092614.377500", "092614.837500", "092615.297500", "092615.757500", "092616.217500", "092616.677500", "092617.137500", "092617.597500", "092618.057500", "092618.517500", "092618.977500", "092619.437500", "092619.897500", "092620.357500", "092620.817500", "092621.277500", "092621.737500", "092622.197500", "092622.657500", "092623.117500", "092623.577500", "092624.037500", "092624.497500", "092624.957500", "092625.417500", "092625.877500", "092626.337500", "092626.797500", "092627.257500", "092627.717500", "092628.177500", "092628.637500", "092629.097500", "092629.557500", "092630.017500", "092630.477500", "092630.937500", "092631.397500", "092631.857500", "092632.317500", "092632.777500", "092633.237500", "092633.697500", "092634.157500", "092634.617500", "092635.077500", "092635.537500", "092635.997500", "092636.457500", "092636.917500", "092637.377500", "092637.837500", "092638.297500", "092638.757500", "092639.217500", "092639.677500", "092640.137500", "092640.597500", "092641.057500", "092641.517500", "092641.977500", "092642.437500", "092642.897500", "092643.357500", "092643.817500", "092644.277500", "092644.737500", "092645.197500", "092645.657500", "092646.117500", "092646.577500", "092647.037500", "092647.497500", "092647.957500", "092648.417500", "092648.877500", "092649.337500", "092649.797500", "092650.257500", "092650.717500", "092651.177500", "092651.637500", "092652.097500", "092652.557500", "092653.017500", "092653.477500", "092653.937500", "092654.397500", "092654.857500", "092655.317500", "092655.777500", "092656.237500", "092656.697500", "092657.157500", "092657.617500", "092658.077500", "092658.537500", "092658.997500", "092659.457500", "092659.917500", "092700.377500", "092700.837500", "092701.297500", "092701.757500", "092702.217500", "092702.677500", "092703.137500", "092703.597500", "092704.057500", "092704.517500", "092704.977500", "092705.437500", "092705.897500", "092706.357500", "092706.817500", "092707.277500", "092707.737500", "092708.197500", "092708.657500", "092709.117500", "092709.577500", "092710.037500", "092710.497500", "092710.957500", "092711.417500", "092711.877500", "092712.337500", "092712.797500", "092713.257500", "092713.717500", "092714.177500", "092714.637500", "092715.097500", "092715.557500", "092716.017500", "092716.477500", "092716.937500", "092717.397500", "092717.857500", "092718.317500", "092718.777500", "092719.237500", "092719.697500", "092720.157500", "092720.617500", "092721.077500", "092721.537500", "092721.997500", "092722.457500", "092722.917500", "092723.377500", "092723.837500", "092724.297500", "092724.757500", "092725.217500", "092725.677500"],
