{
  "AcquisitionMatrixPE": 82,
  "AcquisitionNumber": 1,
  "AcquisitionTime": "22:08:22.395000",
  "BandwidthPerPixelPhaseEncode": 24.888,
  "BaseResolution": 82,
  "BodyPartExamined": "BRAIN",
  "ConsistencyInfo": "N4_VE11E_LATEST_20181129",
  "ConversionSoftware": "dcm2niix",
  "ConversionSoftwareVersion": "v1.0.20201102",
  "DerivedVendorReportedEchoSpacing": 0.00049,
  "DeviceSerialNumber": "66112",
  "DwellTime": 2e-06,
  "EchoTime": 0.0272,
  "EchoTrainLength": 82,
  "EffectiveEchoSpacing": 0.00049,
  "FlipAngle": 44,
  "ImageComments": "Unaliased MB8/PE3",
  "ImageOrientationPatientDICOM": [0.99672, 0.0737048, 0.0334294, -0.0770434, 0.990599, 0.113036],
  "ImageType": [
    "ORIGINAL",
    "PRIMARY",
    "M",
    "MB",
    "ND",
    "NORM",
    "MOSAIC"
],
  "ImagingFrequency": 123.252,
  "InPlanePhaseEncodingDirectionDICOM": "COL",
  "InstitutionAddress": "Maynard 3,Hanover,NH,US,03755",
  "InstitutionName": "Dartmouth College - PBS",
  "InstitutionalDepartmentName": "Department",
  "MRAcquisitionType": "2D",
  "MagneticFieldStrength": 3,
  "Manufacturer": "Siemens",
  "ManufacturersModelName": "Prisma",
  "Modality": "MR",
  "MultibandAccelerationFactor": 8,
  "PartialFourier": 1,
  "PatientPosition": "HFS",
  "PercentPhaseFOV": 100,
  "PercentSampling": 100,
  "PhaseEncodingDirection": "j-",
  "PhaseEncodingSteps": 82,
  "PhaseResolution": 1,
  "PixelBandwidth": 3050,
  "ProcedureStepDescription": "Wager_Wager^1076_spacetop",
  "ProtocolName": "func_run-03_task-social_acq-ap-mb8",
  "PulseSequenceDetails": "%CustomerSeq%\\cmrr_mbep2d_bold",
  "ReceiveCoilActiveElements": "HEA;HEP",
  "ReceiveCoilName": "Head_32",
  "ReconMatrixPE": 82,
  "RepetitionTime": 0.46,
  "SAR": 0.108354,
  "ScanOptions": "FS",
  "ScanningSequence": "EP",
  "SequenceName": "epfid2d1_82",
  "SequenceVariant": "SK\\SS",
  "SeriesDescription": "func_run-03_task-social_acq-ap-mb8",
  "SeriesNumber": 16,
  "ShimSetting": [4170, -7780, -7204, 618, -4, -321, 152, 9],
  "SliceThickness": 2.7,
  "SliceTiming": [0, 0.25, 0.0625, 0.3125, 0.125, 0.375, 0.1875, 0, 0.25, 0.0625, 0.3125, 0.125, 0.375, 0.1875, 0, 0.25, 0.0625, 0.3125, 0.125, 0.375, 0.1875, 0, 0.25, 0.0625, 0.3125, 0.125, 0.375, 0.1875, 0, 0.25, 0.0625, 0.3125, 0.125, 0.375, 0.1875, 0, 0.25, 0.0625, 0.3125, 0.125, 0.375, 0.1875, 0, 0.25, 0.0625, 0.3125, 0.125, 0.375, 0.1875, 0, 0.25, 0.0625, 0.3125, 0.125, 0.375, 0.1875],
  "SoftwareVersions": "syngo MR E11",
  "SpacingBetweenSlices": 2.7,
  "StationName": "AWP66112",
  "TaskName": "social",
  "TotalReadoutTime": 0.03969,
  "TxRefAmp": 252.803,
  "WipMemBlock": "ece17b3f-6200-4579-ac72-65dcebd13998||Sequence: R016 ve11e/master r/434b28f1; Aug  7 2019 18:53:46 by eja",
  "dcmmeta_affine": [
    [-2.674125909805298, -0.20670177042484283, 0.06691629439592361, 118.68367767333984],
    [-0.19774459302425385, 2.657705783843994, 0.31115010380744934, -89.28997802734375],
    [0.08968855440616608, -0.3032675087451935, 2.6811766624450684, -53.45760726928711],
    [0.0, 0.0, 0.0, 1.0]
],
  "dcmmeta_reorient_transform": [
    [0.0, -1.0, 0.0, 81.0],
    [1.0, 0.0, 0.0, 0.0],
    [0.0, 0.0, 1.0, 0.0],
    [0.0, 0.0, 0.0, 1.0]
],
  "dcmmeta_shape": [82, 82, 56, 872],
  "dcmmeta_slice_dim": 2,
  "dcmmeta_version": 0.6,
  "global": {
    "const": {
      "AccessionNumber": "A004080",
      "AcquisitionMatrix": [82, 0, 0, 82],
      "AngioFlag": "N",
      "BitsAllocated": 16,
      "BitsStored": 16,
      "BodyPartExamined": "BRAIN",
      "Columns": 656,
      "EchoNumbers": 1,
      "EchoTime": 27.2,
      "EchoTrainLength": 82,
      "FlipAngle": 44.0,
      "HighBit": 15,
      "ImageOrientationPatient": [0.99671965934614, 0.07370480275771, 0.03342936917384, -0.077043386095, 0.99059939641771, 0.11303606714622],
      "ImagePositionPatient": [-810.09158121148, -945.49843842955, -190.80066262666],
      "ImageType": [
        "ORIGINAL",
        "PRIMARY",
        "M",
        "MB",
        "ND",
        "NORM",
        "MOSAIC"
],
      "ImagedNucleus": "1H",
      "ImagingFrequency": 123.252175,
      "InPlanePhaseEncodingDirection": "COL",
      "MRAcquisitionType": "2D",
      "MagneticFieldStrength": 3.0,
      "Manufacturer": "SIEMENS",
      "ManufacturerModelName": "Prisma",
      "Modality": "MR",
      "NumberOfAverages": 1.0,
      "NumberOfPhaseEncodingSteps": 82,
      "PercentPhaseFieldOfView": 100.0,
      "PercentSampling": 100.0,
      "PerformedProcedureStepStartTime": "213338.133000",
      "PhotometricInterpretation": "MONOCHROME2",
      "PixelBandwidth": 3050.0,
      "PixelRepresentation": 0,
      "PixelSpacing": [2.6829268932343, 2.6829268932343],
      "ProtocolName": "func_run-03_task-social_acq-ap-mb8",
      "RepetitionTime": 460.0,
      "Rows": 656,
      "SAR": 0.10835409362463,
      "SamplesPerPixel": 1,
      "ScanOptions": "FS",
      "ScanningSequence": "EP",
      "SequenceName": "epfid2d1_82",
      "SequenceVariant": [
        "SK",
        "SS"
],
      "SeriesDescription": "func_run-03_task-social_acq-ap-mb8",
      "SeriesNumber": 16,
      "SeriesTime": "220849.552000",
      "SliceLocation": -60.433332277056,
      "SliceThickness": 2.7000000476837,
      "SmallestImagePixelValue": 0,
      "SoftwareVersions": "syngo MR E11",
      "SpacingBetweenSlices": 2.699999976983,
      "SpecificCharacterSet": "ISO_IR 100",
      "StudyID": "1",
      "StudyTime": "213338.068000",
      "TransmitCoilName": "Body",
      "VariableFlipAngleFlag": "N",
      "WindowCenterWidthExplanation": "Algo1"
    },
    "slices": {}
  },
  "time": {
    "samples": {
      "AcquisitionNumber": [1, 2, 3, 4, 5, 6, 7, 8, 9, 10, 11, 12, 13, 14, 15, 16, 17, 18, 19, 20, 21, 22, 23, 24, 25, 26, 27, 28, 29, 30, 31, 32, 33, 34, 35, 36, 37, 38, 39, 40, 41, 42, 43, 44, 45, 46, 47, 48, 49, 50, 51, 52, 53, 54, 55, 56, 57, 58, 59, 60, 61, 62, 63, 64, 65, 66, 67, 68, 69, 70, 71, 72, 73, 74, 75, 76, 77, 78, 79, 80, 81, 82, 83, 84, 85, 86, 87, 88, 89, 90, 91, 92, 93, 94, 95, 96, 97, 98, 99, 100, 101, 102, 103, 104, 105, 106, 107, 108, 109, 110, 111, 112, 113, 114, 115, 116, 117, 118, 119, 120, 121, 122, 123, 124, 125, 126, 127, 128, 129, 130, 131, 132, 133, 134, 135, 136, 137, 138, 139, 140, 141, 142, 143, 144, 145, 146, 147, 148, 149, 150, 151, 152, 153, 154, 155, 156, 157, 158, 159, 160, 161, 162, 163, 164, 165, 166, 167, 168, 169, 170, 171, 172, 173, 174, 175, 176, 177, 178, 179, 180, 181, 182, 183, 184, 185, 186, 187, 188, 189, 190, 191, 192, 193, 194, 195, 196, 197, 198, 199, 200, 201, 202, 203, 204, 205, 206, 207, 208, 209, 210, 211, 212, 213, 214, 215, 216, 217, 218, 219, 220, 221, 222, 223, 224, 225, 226, 227, 228, 229, 230, 231, 232, 233, 234, 235, 236, 237, 238, 239, 240, 241, 242, 243, 244, 245, 246, 247, 248, 249, 250, 251, 252, 253, 254, 255, 256, 257, 258, 259, 260, 261, 262, 263, 264, 265, 266, 267, 268, 269, 270, 271, 272, 273, 274, 275, 276, 277, 278, 279, 280, 281, 282, 283, 284, 285, 286, 287, 288, 289, 290, 291, 292, 293, 294, 295, 296, 297, 298, 299, 300, 301, 302, 303, 304, 305, 306, 307, 308, 309, 310, 311, 312, 313, 314, 315, 316, 317, 318, 319, 320, 321, 322, 323, 324, 325, 326, 327, 328, 329, 330, 331, 332, 333, 334, 335, 336, 337, 338, 339, 340, 341, 342, 343, 344, 345, 346, 347, 348, 349, 350, 351, 352, 353, 354, 355, 356, 357, 358, 359, 360, 361, 362, 363, 364, 365, 366, 367, 368, 369, 370, 371, 372, 373, 374, 375, 376, 377, 378, 379, 380, 381, 382, 383, 384, 385, 386, 387, 388, 389, 390, 391, 392, 393, 394, 395, 396, 397, 398, 399, 400, 401, 402, 403, 404, 405, 406, 407, 408, 409, 410, 411, 412, 413, 414, 415, 416, 417, 418, 419, 420, 421, 422, 423, 424, 425, 426, 427, 428, 429, 430, 431, 432, 433, 434, 435, 436, 437, 438, 439, 440, 441, 442, 443, 444, 445, 446, 447, 448, 449, 450, 451, 452, 453, 454, 455, 456, 457, 458, 459, 460, 461, 462, 463, 464, 465, 466, 467, 468, 469, 470, 471, 472, 473, 474, 475, 476, 477, 478, 479, 480, 481, 482, 483, 484, 485, 486, 487, 488, 489, 490, 491, 492, 493, 494, 495, 496, 497, 498, 499, 500, 501, 502, 503, 504, 505, 506, 507, 508, 509, 510, 511, 512, 513, 514, 515, 516, 517, 518, 519, 520, 521, 522, 523, 524, 525, 526, 527, 528, 529, 530, 531, 532, 533, 534, 535, 536, 537, 538, 539, 540, 541, 542, 543, 544, 545, 546, 547, 548, 549, 550, 551, 552, 553, 554, 555, 556, 557, 558, 559, 560, 561, 562, 563, 564, 565, 566, 567, 568, 569, 570, 571, 572, 573, 574, 575, 576, 577, 578, 579, 580, 581, 582, 583, 584, 585, 586, 587, 588, 589, 590, 591, 592, 593, 594, 595, 596, 597, 598, 599, 600, 601, 602, 603, 604, 605, 606, 607, 608, 609, 610, 611, 612, 613, 614, 615, 616, 617, 618, 619, 620, 621, 622, 623, 624, 625, 626, 627, 628, 629, 630, 631, 632, 633, 634, 635, 636, 637, 638, 639, 640, 641, 642, 643, 644, 645, 646, 647, 648, 649, 650, 651, 652, 653, 654, 655, 656, 657, 658, 659, 660, 661, 662, 663, 664, 665, 666, 667, 668, 669, 670, 671, 672, 673, 674, 675, 676, 677, 678, 679, 680, 681, 682, 683, 684, 685, 686, 687, 688, 689, 690, 691, 692, 693, 694, 695, 696, 697, 698, 699, 700, 701, 702, 703, 704, 705, 706, 707, 708, 709, 710, 711, 712, 713, 714, 715, 716, 717, 718, 719, 720, 721, 722, 723, 724, 725, 726, 727, 728, 729, 730, 731, 732, 733, 734, 735, 736, 737, 738, 739, 740, 741, 742, 743, 744, 745, 746, 747, 748, 749, 750, 751, 752, 753, 754, 755, 756, 757, 758, 759, 760, 761, 762, 763, 764, 765, 766, 767, 768, 769, 770, 771, 772, 773, 774, 775, 776, 777, 778, 779, 780, 781, 782, 783, 784, 785, 786, 787, 788, 789, 790, 791, 792, 793, 794, 795, 796, 797, 798, 799, 800, 801, 802, 803, 804, 805, 806, 807, 808, 809, 810, 811, 812, 813, 814, 815, 816, 817, 818, 819, 820, 821, 822, 823, 824, 825, 826, 827, 828, 829, 830, 831, 832, 833, 834, 835, 836, 837, 838, 839, 840, 841, 842, 843, 844, 845, 846, 847, 848, 849, 850, 851, 852, 853, 854, 855, 856, 857, 858, 859, 860, 861, 862, 863, 864, 865, 866, 867, 868, 869, 870, 871, 872],
      "AcquisitionTime": ["220822.395000", "220822.855000", "220823.315000", "220823.775000", "220824.235000", "220824.695000", "220825.155000", "220825.615000", "220826.075000", "220826.535000", "220826.995000", "220827.455000", "220827.915000", "220828.375000", "220828.835000", "220829.295000", "220829.755000", "220830.215000", "220830.675000", "220831.135000", "220831.595000", "220832.055000", "220832.515000", "220832.975000", "220833.435000", "220833.895000", "220834.355000", "220834.815000", "220835.275000", "220835.735000", "220836.195000", "220836.655000", "220837.115000", "220837.575000", "220838.035000", "220838.495000", "220838.955000", "220839.415000", "220839.875000", "220840.335000", "220840.795000", "220841.255000", "220841.715000", "220842.175000", "220842.635000", "220843.095000", "220843.555000", "220844.015000", "220844.475000", "220844.935000", "220845.395000", "220845.855000", "220846.315000", "220846.775000", "220847.235000", "220847.695000", "220848.155000", "220848.615000", "220849.075000", "220849.535000", "220849.995000", "220850.455000", "220850.915000", "220851.375000", "220851.835000", "220852.295000", "220852.755000", "220853.215000", "220853.675000", "220854.135000", "220854.595000", "220855.055000", "220855.515000", "220855.975000", "220856.435000", "220856.895000", "220857.355000", "220857.815000", "220858.275000", "220858.735000", "220859.195000", "220859.655000", "220900.115000", "220900.575000", "220901.035000", "220901.495000", "220901.955000", "220902.415000", "220902.875000", "220903.335000", "220903.795000", "220904.255000", "220904.715000", "220905.175000", "220905.635000", "220906.095000", "220906.555000", "220907.015000", "220907.475000", "220907.935000", "220908.395000", "220908.855000", "220909.315000", "220909.775000", "220910.235000", "220910.695000", "220911.155000", "220911.615000", "220912.075000", "220912.535000", "220912.995000", "220913.455000", "220913.915000", "220914.375000", "220914.835000", "220915.295000", "220915.755000", "220916.215000", "220916.675000", "220917.135000", "220917.595000", "220918.055000", "220918.515000", "220918.975000", "220919.435000", "220919.895000", "220920.355000", "220920.815000", "220921.275000", "220921.735000", "220922.195000", "220922.655000", "220923.115000", "220923.575000", "220924.035000", "220924.495000", "220924.955000", "220925.415000", "220925.875000", "220926.335000", "220926.795000", "220927.255000", "220927.715000", "220928.175000", "220928.635000", "220929.095000", "220929.555000", "220930.015000", "220930.475000", "220930.935000", "220931.395000", "220931.855000", "220932.315000", "220932.775000", "220933.235000", "220933.695000", "220934.155000", "220934.615000", "220935.075000", "220935.535000", "220935.995000", "220936.455000", "220936.915000", "220937.375000", "220937.835000", "220938.295000", "220938.755000", "220939.215000", "220939.675000", "220940.135000", "220940.595000", "220941.055000", "220941.515000", "220941.975000", "220942.435000", "220942.895000", "220943.355000", "220943.815000", "220944.275000", "220944.735000", "220945.195000", "220945.655000", "220946.115000", "220946.575000", "220947.035000", "220947.495000", "220947.955000", "220948.415000", "220948.875000", "220949.335000", "220949.795000", "220950.255000", "220950.715000", "220951.175000", "220951.635000", "220952.095000", "220952.555000", "220953.015000", "220953.475000", "220953.935000", "220954.395000", "220954.855000", "220955.315000", "220955.775000", "220956.235000", "220956.695000", "220957.155000", "220957.615000", "220958.075000", "220958.535000", "220958.995000", "220959.455000", "220959.915000", "221000.375000", "221000.835000", "221001.295000", "221001.755000", "221002.215000", "221002.675000", "221003.135000", "221003.595000", "221004.055000", "221004.515000", "221004.975000", "221005.435000", "221005.895000", "221006.355000", "221006.815000", "221007.275000", "221007.735000", "221008.195000", "221008.655000", "221009.115000", "221009.575000", "221010.035000", "221010.495000", "221010.955000", "221011.415000", "221011.875000", "221012.335000", "221012.795000", "221013.255000", "221013.715000", "221014.175000", "221014.635000", "221015.095000", "221015.555000", "221016.015000", "221016.475000", "221016.935000", "221017.395000", "221017.855000", "221018.315000", "221018.775000", "221019.235000", "221019.695000", "221020.155000", "221020.615000", "221021.075000", "221021.535000", "221021.995000", "221022.455000", "221022.915000", "221023.375000", "221023.835000", "221024.295000", "221024.755000", "221025.215000", "221025.675000", "221026.135000", "221026.595000", "221027.055000", "221027.515000", "221027.975000", "221028.435000", "221028.895000", "221029.355000", "221029.815000", "221030.275000", "221030.735000", "221031.195000", "221031.655000", "221032.115000", "221032.575000", "221033.035000", "221033.495000", "221033.955000", "221034.415000", "221034.875000", "221035.335000", "221035.795000", "221036.255000", "221036.715000", "221037.175000", "221037.635000", "221038.095000", "221038.555000", "221039.015000", "221039.475000", "221039.935000", "221040.395000", "221040.855000", "221041.315000", "221041.775000", "221042.235000", "221042.695000", "221043.155000", "221043.615000", "221044.075000", "221044.535000", "221044.995000", "221045.455000", "221045.915000", "221046.375000", "221046.835000", "221047.295000", "221047.755000", "221048.215000", "221048.675000", "221049.135000", "221049.595000", "221050.055000", "221050.515000", "221050.975000", "221051.435000", "221051.895000", "221052.355000", "221052.815000", "221053.275000", "221053.735000", "221054.195000", "221054.655000", "221055.115000", "221055.575000", "221056.035000", "221056.495000", "221056.955000", "221057.415000", "221057.875000", "221058.335000", "221058.795000", "221059.255000", "221059.715000", "221100.175000", "221100.635000", "221101.095000", "221101.555000", "221102.015000", "221102.475000", "221102.935000", "221103.395000", "221103.855000", "221104.315000", "221104.775000", "221105.235000", "221105.695000", "221106.155000", "221106.615000", "221107.075000", "221107.535000", "221107.995000", "221108.455000", "221108.915000", "221109.375000", "221109.835000", "221110.295000", "221110.755000", "221111.215000", "221111.675000", "221112.135000", "221112.595000", "221113.055000", "221113.515000", "221113.975000", "221114.435000", "221114.895000", "221115.355000", "221115.815000", "221116.275000", "221116.735000", "221117.195000", "221117.655000", "221118.115000", "221118.575000", "221119.035000", "221119.495000", "221119.955000", "221120.415000", "221120.875000", "221121.335000", "221121.795000", "221122.255000", "221122.715000", "221123.175000", "221123.635000", "221124.095000", "221124.555000", "221125.015000", "221125.475000", "221125.935000", "221126.395000", "221126.855000", "221127.315000", "221127.775000", "221128.235000", "221128.695000", "221129.155000", "221129.615000", "221130.075000", "221130.535000", "221130.995000", "221131.455000", "221131.915000", "221132.375000", "221132.835000", "221133.295000", "221133.755000", "221134.215000", "221134.675000", "221135.135000", "221135.595000", "221136.055000", "221136.515000", "221136.975000", "221137.435000", "221137.895000", "221138.355000", "221138.815000", "221139.275000", "221139.735000", "221140.195000", "221140.655000", "221141.115000", "221141.575000", "221142.035000", "221142.495000", "221142.955000", "221143.415000", "221143.875000", "221144.335000", "221144.795000", "221145.255000", "221145.715000", "221146.175000", "221146.635000", "221147.095000", "221147.555000", "221148.015000", "221148.475000", "221148.935000", "221149.395000", "221149.855000", "221150.315000", "221150.775000", "221151.235000", "221151.695000", "221152.155000", "221152.615000", "221153.075000", "221153.535000", "221153.995000", "221154.455000", "221154.915000", "221155.375000", "221155.835000", "221156.295000", "221156.755000", "221157.215000", "221157.675000", "221158.135000", "221158.595000", "221159.055000", "221159.515000", "221159.975000", "221200.435000", "221200.895000", "221201.355000", "221201.815000", "221202.275000", "221202.735000", "221203.195000", "221203.655000", "221204.115000", "221204.575000", "221205.035000", "221205.495000", "221205.955000", "221206.415000", "221206.875000", "221207.335000", "221207.795000", "221208.255000", "221208.715000", "221209.175000", "221209.635000", "221210.095000", "221210.555000", "221211.015000", "221211.475000", "221211.935000", "221212.395000", "221212.855000", "221213.315000", "221213.775000", "221214.235000", "221214.695000", "221215.155000", "221215.615000", "221216.075000", "221216.535000", "221216.995000", "221217.455000", "221217.915000", "221218.375000", "221218.835000", "221219.295000", "221219.755000", "221220.215000", "221220.675000", "221221.135000", "221221.595000", "221222.055000", "221222.515000", "221222.975000", "221223.435000", "221223.895000", "221224.355000", "221224.815000", "221225.275000", "221225.735000", "221226.195000", "221226.655000", "221227.115000", "221227.575000", "221228.035000", "221228.495000", "221228.955000", "221229.415000", "221229.875000", "221230.335000", "221230.795000", "221231.255000", "221231.715000", "221232.175000", "221232.635000", "221233.095000", "221233.555000", "221234.015000", "221234.475000", "221234.935000", "221235.395000", "221235.855000", "221236.315000", "221236.775000", "221237.235000", "221237.695000", "221238.155000", "221238.615000", "221239.075000", "221239.535000", "221239.995000", "221240.455000", "221240.915000", "221241.375000", "221241.835000", "221242.295000", "221242.755000", "221243.215000", "221243.675000", "221244.135000", "221244.595000", "221245.055000", "221245.515000", "221245.975000", "221246.435000", "221246.895000", "221247.355000", "221247.815000", "221248.275000", "221248.735000", "221249.195000", "221249.655000", "221250.115000", "221250.575000", "221251.035000", "221251.495000", "221251.955000", "221252.415000", "221252.875000", "221253.335000", "221253.795000", "221254.255000", "221254.715000", "221255.175000", "221255.635000", "221256.095000", "221256.555000", "221257.015000", "221257.475000", "221257.935000", "221258.395000", "221258.855000", "221259.315000", "221259.775000", "221300.235000", "221300.695000", "221301.155000", "221301.615000", "221302.075000", "221302.535000", "221302.995000", "221303.455000", "221303.915000", "221304.375000", "221304.835000", "221305.295000", "221305.755000", "221306.215000", "221306.675000", "221307.135000", "221307.595000", "221308.055000", "221308.515000", "221308.975000", "221309.435000", "221309.895000", "221310.355000", "221310.815000", "221311.275000", "221311.735000", "221312.195000", "221312.655000", "221313.115000", "221313.575000", "221314.035000", "221314.495000", "221314.955000", "221315.415000", "221315.875000", "221316.335000", "221316.795000", "221317.255000", "221317.715000", "221318.175000", "221318.635000", "221319.095000", "221319.555000", "221320.015000", "221320.475000", "221320.935000", "221321.395000", "221321.855000", "221322.315000", "221322.775000", "221323.235000", "221323.695000", "221324.155000", "221324.615000", "221325.075000", "221325.535000", "221325.995000", "221326.455000", "221326.915000", "221327.375000", "221327.835000", "221328.295000", "221328.755000", "221329.215000", "221329.675000", "221330.135000", "221330.595000", "221331.055000", "221331.515000", "221331.975000", "221332.435000", "221332.895000", "221333.355000", "221333.815000", "221334.275000", "221334.735000", "221335.195000", "221335.655000", "221336.115000", "221336.575000", "221337.035000", "221337.495000", "221337.955000", "221338.415000", "221338.875000", "221339.335000", "221339.795000", "221340.255000", "221340.715000", "221341.175000", "221341.635000", "221342.095000", "221342.555000", "221343.015000", "221343.475000", "221343.935000", "221344.395000", "221344.855000", "221345.315000", "221345.775000", "221346.235000", "221346.695000", "221347.155000", "221347.615000", "221348.075000", "221348.535000", "221348.995000", "221349.455000", "221349.915000", "221350.375000", "221350.835000", "221351.295000", "221351.755000", "221352.215000", "221352.675000", "221353.135000", "221353.595000", "221354.055000", "221354.515000", "221354.975000", "221355.435000", "221355.895000", "221356.355000", "221356.815000", "221357.275000", "221357.735000", "221358.195000", "221358.655000", "221359.115000", "221359.575000", "221400.035000", "221400.495000", "221400.955000", "221401.415000", "221401.875000", "221402.335000", "221402.795000", "221403.255000", "221403.715000", "221404.175000", "221404.635000", "221405.095000", "221405.555000", "221406.015000", "221406.475000", "221406.935000", "221407.395000", "221407.855000", "221408.315000", "221408.775000", "221409.235000", "221409.695000", "221410.155000", "221410.615000", "221411.075000", "221411.535000", "221411.995000", "221412.455000", "221412.915000", "221413.375000", "221413.835000", "221414.295000", "221414.755000", "221415.215000", "221415.675000", "221416.135000", "221416.595000", "221417.055000", "221417.515000", "221417.975000", "221418.435000", "221418.895000", "221419.355000", "221419.815000", "221420.275000", "221420.735000", "221421.195000", "221421.655000", "221422.115000", "221422.575000", "221423.035000", "221423.495000", "221423.955000", "221424.415000", "221424.875000", "221425.335000", "221425.795000", "221426.255000", "221426.715000", "221427.175000", "221427.635000", "221428.095000", "221428.555000", "221429.015000", "221429.475000", "221429.935000", "221430.395000", "221430.855000", "221431.315000", "221431.775000", "221432.235000", "221432.695000", "221433.155000", "221433.615000", "221434.075000", "221434.535000", "221434.995000", "221435.455000", "221435.915000", "221436.375000", "221436.835000", "221437.295000", "221437.755000", "221438.215000", "221438.675000", "221439.135000", "221439.595000", "221440.055000", "221440.515000", "221440.975000", "221441.435000", "221441.895000", "221442.355000", "221442.815000", "221443.275000", "221443.735000", "221444.195000", "221444.655000", "221445.115000", "221445.575000", "221446.035000", "221446.495000", "221446.955000", "221447.415000", "221447.875000", "221448.335000", "221448.795000", "221449.255000", "221449.715000", "221450.175000", "221450.635000", "221451.095000", "221451.555000", "221452.015000", "221452.475000", "221452.935000", "221453.395000", "221453.855000", "221454.315000", "221454.775000", "221455.235000", "221455.695000", "221456.155000", "221456.615000", "221457.075000", "221457.535000", "221457.995000", "221458.455000", "221458.915000", "221459.375000", "221459.835000", "221500.295000", "221500.755000", "221501.215000", "221501.675000", "221502.135000", "221502.595000", "221503.055000"],
