{
  "AcquisitionMatrixPE": 82,
  "AcquisitionNumber": 1,
  "AcquisitionTime": "23:13:52.112500",
  "BandwidthPerPixelPhaseEncode": 24.888,
  "BaseResolution": 82,
  "BodyPartExamined": "BRAIN",
  "ConsistencyInfo": "N4_VE11E_LATEST_20181129",
  "ConversionSoftware": "dcm2niix",
  "ConversionSoftwareVersion": "v1.0.20201102",
  "DerivedVendorReportedEchoSpacing": 0.00049,
  "DeviceSerialNumber": "66112",
  "DwellTime": 2e-06,
  "EchoTime": 0.0272,
  "EchoTrainLength": 82,
  "EffectiveEchoSpacing": 0.00049,
  "FlipAngle": 44,
  "ImageComments": "Unaliased MB8/PE3",
  "ImageOrientationPatientDICOM": [0.99672, 0.0737048, 0.0334294, -0.0770434, 0.990599, 0.113036],
  "ImageType": [
    "ORIGINAL",
    "PRIMARY",
    "M",
    "MB",
    "ND",
    "NORM",
    "MOSAIC"
],
  "ImagingFrequency": 123.252,
  "InPlanePhaseEncodingDirectionDICOM": "COL",
  "InstitutionAddress": "Maynard 3,Hanover,NH,US,03755",
  "InstitutionName": "Dartmouth College - PBS",
  "InstitutionalDepartmentName": "Department",
  "MRAcquisitionType": "2D",
  "MagneticFieldStrength": 3,
  "Manufacturer": "Siemens",
  "ManufacturersModelName": "Prisma",
  "Modality": "MR",
  "MultibandAccelerationFactor": 8,
  "PartialFourier": 1,
  "PatientPosition": "HFS",
  "PercentPhaseFOV": 100,
  "PercentSampling": 100,
  "PhaseEncodingDirection": "j-",
  "PhaseEncodingSteps": 82,
  "PhaseResolution": 1,
  "PixelBandwidth": 3050,
  "ProcedureStepDescription": "Wager_Wager^1076_spacetop",
  "ProtocolName": "func_run-03_task-alignvideo_acq-ap-mb8",
  "PulseSequenceDetails": "%CustomerSeq%\\cmrr_mbep2d_bold",
  "ReceiveCoilActiveElements": "HEA;HEP",
  "ReceiveCoilName": "Head_32",
  "ReconMatrixPE": 82,
  "RepetitionTime": 0.46,
  "SAR": 0.10845,
  "ScanOptions": "FS",
  "ScanningSequence": "EP",
  "SequenceName": "epfid2d1_82",
  "SequenceVariant": "SK\\SS",
  "SeriesDescription": "func_run-03_task-alignvideo_acq-ap-mb8",
  "SeriesNumber": 36,
  "ShimSetting": [4170, -7780, -7204, 618, -4, -321, 152, 9],
  "SliceThickness": 2.7,
  "SliceTiming": [0, 0.2525, 0.065, 0.315, 0.1275, 0.3775, 0.19, 0, 0.2525, 0.065, 0.315, 0.1275, 0.3775, 0.19, 0, 0.2525, 0.065, 0.315, 0.1275, 0.3775, 0.19, 0, 0.2525, 0.065, 0.315, 0.1275, 0.3775, 0.19, 0, 0.2525, 0.065, 0.315, 0.1275, 0.3775, 0.19, 0, 0.2525, 0.065, 0.315, 0.1275, 0.3775, 0.19, 0, 0.2525, 0.065, 0.315, 0.1275, 0.3775, 0.19, 0, 0.2525, 0.065, 0.315, 0.1275, 0.3775, 0.19],
  "SoftwareVersions": "syngo MR E11",
  "SpacingBetweenSlices": 2.7,
  "StationName": "AWP66112",
  "TaskName": "alignvideo",
  "TotalReadoutTime": 0.03969,
  "TxRefAmp": 252.803,
  "WipMemBlock": "f1c4ba3f-d794-438f-9673-25a8ebc5f6cd||Sequence: R016 ve11e/master r/434b28f1; Aug  7 2019 18:53:46 by eja",
  "dcmmeta_affine": [
    [-2.674125909805298, -0.20670177042484283, 0.06691629439592361, 118.68367767333984],
    [-0.19774459302425385, 2.657705783843994, 0.31115010380744934, -89.28997802734375],
    [0.08968855440616608, -0.3032675087451935, 2.6811766624450684, -53.45760726928711],
    [0.0, 0.0, 0.0, 1.0]
],
  "dcmmeta_reorient_transform": [
    [0.0, -1.0, 0.0, 81.0],
    [1.0, 0.0, 0.0, 0.0],
    [0.0, 0.0, 1.0, 0.0],
    [0.0, 0.0, 0.0, 1.0]
],
  "dcmmeta_shape": [82, 82, 56, 1016],
  "dcmmeta_slice_dim": 2,
  "dcmmeta_version": 0.6,
  "global": {
    "const": {
      "AccessionNumber": "A004080",
      "AcquisitionMatrix": [82, 0, 0, 82],
      "AngioFlag": "N",
      "BitsAllocated": 16,
      "BitsStored": 16,
      "BodyPartExamined": "BRAIN",
      "Columns": 656,
      "EchoNumbers": 1,
      "EchoTime": 27.2,
      "EchoTrainLength": 82,
      "FlipAngle": 44.0,
      "HighBit": 15,
      "ImageOrientationPatient": [0.99671965934614, 0.07370480275771, 0.03342936917384, -0.077043386095, 0.99059939641771, 0.11303606714622],
      "ImagePositionPatient": [-810.09158121148, -945.49843842955, -190.80066262666],
      "ImageType": [
        "ORIGINAL",
        "PRIMARY",
        "M",
        "MB",
        "ND",
        "NORM",
        "MOSAIC"
],
      "ImagedNucleus": "1H",
      "ImagingFrequency": 123.252183,
      "InPlanePhaseEncodingDirection": "COL",
      "MRAcquisitionType": "2D",
      "MagneticFieldStrength": 3.0,
      "Manufacturer": "SIEMENS",
      "ManufacturerModelName": "Prisma",
      "Modality": "MR",
      "NumberOfAverages": 1.0,
      "NumberOfPhaseEncodingSteps": 82,
      "PercentPhaseFieldOfView": 100.0,
      "PercentSampling": 100.0,
      "PerformedProcedureStepStartTime": "213338.133000",
      "PhotometricInterpretation": "MONOCHROME2",
      "PixelBandwidth": 3050.0,
      "PixelRepresentation": 0,
      "PixelSpacing": [2.6829268932343, 2.6829268932343],
      "ProtocolName": "func_run-03_task-alignvideo_acq-ap-mb8",
      "RepetitionTime": 460.0,
      "Rows": 656,
      "SAR": 0.10844963028686,
      "SamplesPerPixel": 1,
      "ScanOptions": "FS",
      "ScanningSequence": "EP",
      "SequenceName": "epfid2d1_82",
      "SequenceVariant": [
        "SK",
        "SS"
],
      "SeriesDescription": "func_run-03_task-alignvideo_acq-ap-mb8",
      "SeriesNumber": 36,
      "SeriesTime": "231409.389000",
      "SliceLocation": -60.433332277056,
      "SliceThickness": 2.7000000476837,
      "SmallestImagePixelValue": 0,
      "SoftwareVersions": "syngo MR E11",
      "SpacingBetweenSlices": 2.699999976983,
      "SpecificCharacterSet": "ISO_IR 100",
      "StudyID": "1",
      "StudyTime": "213338.068000",
      "TransmitCoilName": "Body",
      "VariableFlipAngleFlag": "N",
      "WindowCenterWidthExplanation": "Algo1"
    },
    "slices": {}
  },
  "time": {
    "samples": {
      "AcquisitionNumber": [1, 2, 3, 4, 5, 6, 7, 8, 9, 10, 11, 12, 13, 14, 15, 16, 17, 18, 19, 20, 21, 22, 23, 24, 25, 26, 27, 28, 29, 30, 31, 32, 33, 34, 35, 36, 37, 38, 39, 40, 41, 42, 43, 44, 45, 46, 47, 48, 49, 50, 51, 52, 53, 54, 55, 56, 57, 58, 59, 60, 61, 62, 63, 64, 65, 66, 67, 68, 69, 70, 71, 72, 73, 74, 75, 76, 77, 78, 79, 80, 81, 82, 83, 84, 85, 86, 87, 88, 89, 90, 91, 92, 93, 94, 95, 96, 97, 98, 99, 100, 101, 102, 103, 104, 105, 106, 107, 108, 109, 110, 111, 112, 113, 114, 115, 116, 117, 118, 119, 120, 121, 122, 123, 124, 125, 126, 127, 128, 129, 130, 131, 132, 133, 134, 135, 136, 137, 138, 139, 140, 141, 142, 143, 144, 145, 146, 147, 148, 149, 150, 151, 152, 153, 154, 155, 156, 157, 158, 159, 160, 161, 162, 163, 164, 165, 166, 167, 168, 169, 170, 171, 172, 173, 174, 175, 176, 177, 178, 179, 180, 181, 182, 183, 184, 185, 186, 187, 188, 189, 190, 191, 192, 193, 194, 195, 196, 197, 198, 199, 200, 201, 202, 203, 204, 205, 206, 207, 208, 209, 210, 211, 212, 213, 214, 215, 216, 217, 218, 219, 220, 221, 222, 223, 224, 225, 226, 227, 228, 229, 230, 231, 232, 233, 234, 235, 236, 237, 238, 239, 240, 241, 242, 243, 244, 245, 246, 247, 248, 249, 250, 251, 252, 253, 254, 255, 256, 257, 258, 259, 260, 261, 262, 263, 264, 265, 266, 267, 268, 269, 270, 271, 272, 273, 274, 275, 276, 277, 278, 279, 280, 281, 282, 283, 284, 285, 286, 287, 288, 289, 290, 291, 292, 293, 294, 295, 296, 297, 298, 299, 300, 301, 302, 303, 304, 305, 306, 307, 308, 309, 310, 311, 312, 313, 314, 315, 316, 317, 318, 319, 320, 321, 322, 323, 324, 325, 326, 327, 328, 329, 330, 331, 332, 333, 334, 335, 336, 337, 338, 339, 340, 341, 342, 343, 344, 345, 346, 347, 348, 349, 350, 351, 352, 353, 354, 355, 356, 357, 358, 359, 360, 361, 362, 363, 364, 365, 366, 367, 368, 369, 370, 371, 372, 373, 374, 375, 376, 377, 378, 379, 380, 381, 382, 383, 384, 385, 386, 387, 388, 389, 390, 391, 392, 393, 394, 395, 396, 397, 398, 399, 400, 401, 402, 403, 404, 405, 406, 407, 408, 409, 410, 411, 412, 413, 414, 415, 416, 417, 418, 419, 420, 421, 422, 423, 424, 425, 426, 427, 428, 429, 430, 431, 432, 433, 434, 435, 436, 437, 438, 439, 440, 441, 442, 443, 444, 445, 446, 447, 448, 449, 450, 451, 452, 453, 454, 455, 456, 457, 458, 459, 460, 461, 462, 463, 464, 465, 466, 467, 468, 469, 470, 471, 472, 473, 474, 475, 476, 477, 478, 479, 480, 481, 482, 483, 484, 485, 486, 487, 488, 489, 490, 491, 492, 493, 494, 495, 496, 497, 498, 499, 500, 501, 502, 503, 504, 505, 506, 507, 508, 509, 510, 511, 512, 513, 514, 515, 516, 517, 518, 519, 520, 521, 522, 523, 524, 525, 526, 527, 528, 529, 530, 531, 532, 533, 534, 535, 536, 537, 538, 539, 540, 541, 542, 543, 544, 545, 546, 547, 548, 549, 550, 551, 552, 553, 554, 555, 556, 557, 558, 559, 560, 561, 562, 563, 564, 565, 566, 567, 568, 569, 570, 571, 572, 573, 574, 575, 576, 577, 578, 579, 580, 581, 582, 583, 584, 585, 586, 587, 588, 589, 590, 591, 592, 593, 594, 595, 596, 597, 598, 599, 600, 601, 602, 603, 604, 605, 606, 607, 608, 609, 610, 611, 612, 613, 614, 615, 616, 617, 618, 619, 620, 621, 622, 623, 624, 625, 626, 627, 628, 629, 630, 631, 632, 633, 634, 635, 636, 637, 638, 639, 640, 641, 642, 643, 644, 645, 646, 647, 648, 649, 650, 651, 652, 653, 654, 655, 656, 657, 658, 659, 660, 661, 662, 663, 664, 665, 666, 667, 668, 669, 670, 671, 672, 673, 674, 675, 676, 677, 678, 679, 680, 681, 682, 683, 684, 685, 686, 687, 688, 689, 690, 691, 692, 693, 694, 695, 696, 697, 698, 699, 700, 701, 702, 703, 704, 705, 706, 707, 708, 709, 710, 711, 712, 713, 714, 715, 716, 717, 718, 719, 720, 721, 722, 723, 724, 725, 726, 727, 728, 729, 730, 731, 732, 733, 734, 735, 736, 737, 738, 739, 740, 741, 742, 743, 744, 745, 746, 747, 748, 749, 750, 751, 752, 753, 754, 755, 756, 757, 758, 759, 760, 761, 762, 763, 764, 765, 766, 767, 768, 769, 770, 771, 772, 773, 774, 775, 776, 777, 778, 779, 780, 781, 782, 783, 784, 785, 786, 787, 788, 789, 790, 791, 792, 793, 794, 795, 796, 797, 798, 799, 800, 801, 802, 803, 804, 805, 806, 807, 808, 809, 810, 811, 812, 813, 814, 815, 816, 817, 818, 819, 820, 821, 822, 823, 824, 825, 826, 827, 828, 829, 830, 831, 832, 833, 834, 835, 836, 837, 838, 839, 840, 841, 842, 843, 844, 845, 846, 847, 848, 849, 850, 851, 852, 853, 854, 855, 856, 857, 858, 859, 860, 861, 862, 863, 864, 865, 866, 867, 868, 869, 870, 871, 872, 873, 874, 875, 876, 877, 878, 879, 880, 881, 882, 883, 884, 885, 886, 887, 888, 889, 890, 891, 892, 893, 894, 895, 896, 897, 898, 899, 900, 901, 902, 903, 904, 905, 906, 907, 908, 909, 910, 911, 912, 913, 914, 915, 916, 917, 918, 919, 920, 921, 922, 923, 924, 925, 926, 927, 928, 929, 930, 931, 932, 933, 934, 935, 936, 937, 938, 939, 940, 941, 942, 943, 944, 945, 946, 947, 948, 949, 950, 951, 952, 953, 954, 955, 956, 957, 958, 959, 960, 961, 962, 963, 964, 965, 966, 967, 968, 969, 970, 971, 972, 973, 974, 975, 976, 977, 978, 979, 980, 981, 982, 983, 984, 985, 986, 987, 988, 989, 990, 991, 992, 993, 994, 995, 996, 997, 998, 999, 1000, 1001, 1002, 1003, 1004, 1005, 1006, 1007, 1008, 1009, 1010, 1011, 1012, 1013, 1014, 1015, 1016],
      "AcquisitionTime": ["231352.112500", "231352.572500", "231353.032500", "231353.492500", "231353.952500", "231354.412500", "231354.872500", "231355.332500", "231355.792500", "231356.252500", "231356.712500", "231357.172500", "231357.632500", "231358.092500", "231358.552500", "231359.012500", "231359.472500", "231359.932500", "231400.392500", "231400.852500", "231401.312500", "231401.772500", "231402.232500", "231402.692500", "231403.152500", "231403.612500", "231404.072500", "231404.532500", "231404.992500", "231405.452500", "231405.912500", "231406.372500", "231406.832500", "231407.292500", "231407.752500", "231408.212500", "231408.672500", "231409.132500", "231409.592500", "231410.052500", "231410.512500", "231410.972500", "231411.432500", "231411.892500", "231412.352500", "231412.812500", "231413.272500", "231413.732500", "231414.192500", "231414.652500", "231415.112500", "231415.572500", "231416.032500", "231416.492500", "231416.952500", "231417.412500", "231417.872500", "231418.332500", "231418.792500", "231419.252500", "231419.712500", "231420.172500", "231420.632500", "231421.092500", "231421.552500", "231422.012500", "231422.472500", "231422.932500", "231423.392500", "231423.852500", "231424.312500", "231424.772500", "231425.232500", "231425.692500", "231426.152500", "231426.612500", "231427.072500", "231427.532500", "231427.992500", "231428.452500", "231428.912500", "231429.372500", "231429.832500", "231430.292500", "231430.752500", "231431.212500", "231431.672500", "231432.132500", "231432.592500", "231433.052500", "231433.512500", "231433.972500", "231434.432500", "231434.892500", "231435.352500", "231435.812500", "231436.272500", "231436.732500", "231437.192500", "231437.652500", "231438.112500", "231438.572500", "231439.032500", "231439.492500", "231439.952500", "231440.412500", "231440.872500", "231441.332500", "231441.792500", "231442.252500", "231442.712500", "231443.172500", "231443.632500", "231444.092500", "231444.552500", "231445.012500", "231445.472500", "231445.932500", "231446.392500", "231446.852500", "231447.312500", "231447.772500", "231448.232500", "231448.692500", "231449.152500", "231449.612500", "231450.072500", "231450.532500", "231450.992500", "231451.452500", "231451.912500", "231452.372500", "231452.832500", "231453.292500", "231453.752500", "231454.212500", "231454.672500", "231455.132500", "231455.592500", "231456.052500", "231456.512500", "231456.972500", "231457.432500", "231457.892500", "231458.352500", "231458.812500", "231459.272500", "231459.732500", "231500.192500", "231500.652500", "231501.112500", "231501.572500", "231502.032500", "231502.492500", "231502.952500", "231503.412500", "231503.872500", "231504.332500", "231504.792500", "231505.252500", "231505.712500", "231506.172500", "231506.632500", "231507.092500", "231507.552500", "231508.012500", "231508.472500", "231508.932500", "231509.392500", "231509.852500", "231510.312500", "231510.772500", "231511.232500", "231511.692500", "231512.152500", "231512.612500", "231513.072500", "231513.532500", "231513.992500", "231514.452500", "231514.912500", "231515.372500", "231515.832500", "231516.292500", "231516.752500", "231517.212500", "231517.672500", "231518.132500", "231518.592500", "231519.052500", "231519.512500", "231519.972500", "231520.432500", "231520.892500", "231521.352500", "231521.812500", "231522.272500", "231522.732500", "231523.192500", "231523.652500", "231524.112500", "231524.572500", "231525.032500", "231525.492500", "231525.952500", "231526.412500", "231526.872500", "231527.332500", "231527.792500", "231528.252500", "231528.712500", "231529.172500", "231529.632500", "231530.092500", "231530.552500", "231531.012500", "231531.472500", "231531.932500", "231532.392500", "231532.852500", "231533.312500", "231533.772500", "231534.232500", "231534.692500", "231535.152500", "231535.612500", "231536.072500", "231536.532500", "231536.992500", "231537.452500", "231537.912500", "231538.372500", "231538.832500", "231539.292500", "231539.752500", "231540.212500", "231540.672500", "231541.132500", "231541.592500", "231542.052500", "231542.512500", "231542.972500", "231543.432500", "231543.892500", "231544.352500", "231544.812500", "231545.272500", "231545.732500", "231546.192500", "231546.652500", "231547.112500", "231547.572500", "231548.032500", "231548.492500", "231548.952500", "231549.412500", "231549.872500", "231550.332500", "231550.792500", "231551.252500", "231551.712500", "231552.172500", "231552.632500", "231553.092500", "231553.552500", "231554.012500", "231554.472500", "231554.932500", "231555.392500", "231555.852500", "231556.312500", "231556.772500", "231557.232500", "231557.692500", "231558.152500", "231558.612500", "231559.072500", "231559.532500", "231559.992500", "231600.452500", "231600.912500", "231601.372500", "231601.832500", "231602.292500", "231602.752500", "231603.212500", "231603.672500", "231604.132500", "231604.592500", "231605.052500", "231605.512500", "231605.972500", "231606.432500", "231606.892500", "231607.352500", "231607.812500", "231608.272500", "231608.732500", "231609.192500", "231609.652500", "231610.112500", "231610.572500", "231611.032500", "231611.492500", "231611.952500", "231612.412500", "231612.872500", "231613.332500", "231613.792500", "231614.252500", "231614.712500", "231615.172500", "231615.632500", "231616.092500", "231616.552500", "231617.012500", "231617.472500", "231617.932500", "231618.392500", "231618.852500", "231619.312500", "231619.772500", "231620.232500", "231620.692500", "231621.152500", "231621.612500", "231622.072500", "231622.532500", "231622.992500", "231623.452500", "231623.912500", "231624.372500", "231624.832500", "231625.292500", "231625.752500", "231626.212500", "231626.672500", "231627.132500", "231627.592500", "231628.052500", "231628.512500", "231628.972500", "231629.432500", "231629.892500", "231630.352500", "231630.812500", "231631.272500", "231631.732500", "231632.192500", "231632.652500", "231633.112500", "231633.572500", "231634.032500", "231634.492500", "231634.952500", "231635.412500", "231635.872500", "231636.332500", "231636.792500", "231637.252500", "231637.712500", "231638.172500", "231638.632500", "231639.092500", "231639.552500", "231640.012500", "231640.472500", "231640.932500", "231641.392500", "231641.852500", "231642.312500", "231642.772500", "231643.232500", "231643.692500", "231644.152500", "231644.612500", "231645.072500", "231645.532500", "231645.992500", "231646.452500", "231646.912500", "231647.372500", "231647.832500", "231648.292500", "231648.752500", "231649.212500", "231649.672500", "231650.132500", "231650.592500", "231651.052500", "231651.512500", "231651.972500", "231652.432500", "231652.892500", "231653.352500", "231653.812500", "231654.272500", "231654.732500", "231655.192500", "231655.652500", "231656.112500", "231656.572500", "231657.032500", "231657.492500", "231657.952500", "231658.412500", "231658.872500", "231659.332500", "231659.792500", "231700.252500", "231700.712500", "231701.172500", "231701.632500", "231702.092500", "231702.552500", "231703.012500", "231703.472500", "231703.932500", "231704.392500", "231704.852500", "231705.312500", "231705.772500", "231706.232500", "231706.692500", "231707.152500", "231707.612500", "231708.072500", "231708.532500", "231708.992500", "231709.452500", "231709.912500", "231710.372500", "231710.832500", "231711.292500", "231711.752500", "231712.212500", "231712.672500", "231713.132500", "231713.592500", "231714.052500", "231714.512500", "231714.972500", "231715.432500", "231715.892500", "231716.352500", "231716.812500", "231717.272500", "231717.732500", "231718.192500", "231718.652500", "231719.112500", "231719.572500", "231720.032500", "231720.492500", "231720.952500", "231721.412500", "231721.872500", "231722.332500", "231722.792500", "231723.252500", "231723.712500", "231724.172500", "231724.632500", "231725.092500", "231725.552500", "231726.012500", "231726.472500", "231726.932500", "231727.392500", "231727.852500", "231728.312500", "231728.772500", "231729.232500", "231729.692500", "231730.152500", "231730.612500", "231731.072500", "231731.532500", "231731.992500", "231732.452500", "231732.912500", "231733.372500", "231733.832500", "231734.292500", "231734.752500", "231735.212500", "231735.672500", "231736.132500", "231736.592500", "231737.052500", "231737.512500", "231737.972500", "231738.432500", "231738.892500", "231739.352500", "231739.812500", "231740.272500", "231740.732500", "231741.192500", "231741.652500", "231742.112500", "231742.572500", "231743.032500", "231743.492500", "231743.952500", "231744.412500", "231744.872500", "231745.332500", "231745.792500", "231746.252500", "231746.712500", "231747.172500", "231747.632500", "231748.092500", "231748.552500", "231749.012500", "231749.472500", "231749.932500", "231750.392500", "231750.852500", "231751.312500", "231751.772500", "231752.232500", "231752.692500", "231753.152500", "231753.612500", "231754.072500", "231754.532500", "231754.992500", "231755.452500", "231755.912500", "231756.372500", "231756.832500", "231757.292500", "231757.752500", "231758.212500", "231758.672500", "231759.132500", "231759.592500", "231800.052500", "231800.512500", "231800.972500", "231801.432500", "231801.892500", "231802.352500", "231802.812500", "231803.272500", "231803.732500", "231804.192500", "231804.652500", "231805.112500", "231805.572500", "231806.032500", "231806.492500", "231806.952500", "231807.412500", "231807.872500", "231808.332500", "231808.792500", "231809.252500", "231809.712500", "231810.172500", "231810.632500", "231811.092500", "231811.552500", "231812.012500", "231812.472500", "231812.932500", "231813.392500", "231813.852500", "231814.312500", "231814.772500", "231815.232500", "231815.692500", "231816.152500", "231816.612500", "231817.072500", "231817.532500", "231817.992500", "231818.452500", "231818.912500", "231819.372500", "231819.832500", "231820.292500", "231820.752500", "231821.212500", "231821.672500", "231822.132500", "231822.592500", "231823.052500", "231823.512500", "231823.972500", "231824.432500", "231824.892500", "231825.352500", "231825.812500", "231826.272500", "231826.732500", "231827.192500", "231827.652500", "231828.112500", "231828.572500", "231829.032500", "231829.492500", "231829.952500", "231830.412500", "231830.872500", "231831.332500", "231831.792500", "231832.252500", "231832.712500", "231833.172500", "231833.632500", "231834.092500", "231834.552500", "231835.012500", "231835.472500", "231835.932500", "231836.392500", "231836.852500", "231837.312500", "231837.772500", "231838.232500", "231838.692500", "231839.152500", "231839.612500", "231840.072500", "231840.532500", "231840.992500", "231841.452500", "231841.912500", "231842.372500", "231842.832500", "231843.292500", "231843.752500", "231844.212500", "231844.672500", "231845.132500", "231845.592500", "231846.052500", "231846.512500", "231846.972500", "231847.432500", "231847.892500", "231848.352500", "231848.812500", "231849.272500", "231849.732500", "231850.192500", "231850.652500", "231851.112500", "231851.572500", "231852.032500", "231852.492500", "231852.952500", "231853.412500", "231853.872500", "231854.332500", "231854.792500", "231855.252500", "231855.712500", "231856.172500", "231856.632500", "231857.092500", "231857.552500", "231858.012500", "231858.472500", "231858.932500", "231859.392500", "231859.852500", "231900.312500", "231900.772500", "231901.232500", "231901.692500", "231902.152500", "231902.612500", "231903.072500", "231903.532500", "231903.992500", "231904.452500", "231904.912500", "231905.372500", "231905.832500", "231906.292500", "231906.752500", "231907.212500", "231907.672500", "231908.132500", "231908.592500", "231909.052500", "231909.512500", "231909.972500", "231910.432500", "231910.892500", "231911.352500", "231911.812500", "231912.272500", "231912.732500", "231913.192500", "231913.652500", "231914.112500", "231914.572500", "231915.032500", "231915.492500", "231915.952500", "231916.412500", "231916.872500", "231917.332500", "231917.792500", "231918.252500", "231918.712500", "231919.172500", "231919.632500", "231920.092500", "231920.552500", "231921.012500", "231921.472500", "231921.932500", "231922.392500", "231922.852500", "231923.312500", "231923.772500", "231924.232500", "231924.692500", "231925.152500", "231925.612500", "231926.072500", "231926.532500", "231926.992500", "231927.452500", "231927.912500", "231928.372500", "231928.832500", "231929.292500", "231929.752500", "231930.212500", "231930.672500", "231931.132500", "231931.592500", "231932.052500", "231932.512500", "231932.972500", "231933.432500", "231933.892500", "231934.352500", "231934.812500", "231935.272500", "231935.732500", "231936.192500", "231936.652500", "231937.112500", "231937.572500", "231938.032500", "231938.492500", "231938.952500", "231939.412500", "231939.872500", "231940.332500", "231940.792500", "231941.252500", "231941.712500", "231942.172500", "231942.632500", "231943.092500", "231943.552500", "231944.012500", "231944.472500", "231944.932500", "231945.392500", "231945.852500", "231946.312500", "231946.772500", "231947.232500", "231947.692500", "231948.152500", "231948.612500", "231949.072500", "231949.532500", "231949.992500", "231950.452500", "231950.912500", "231951.372500", "231951.832500", "231952.292500", "231952.752500", "231953.212500", "231953.672500", "231954.132500", "231954.592500", "231955.052500", "231955.512500", "231955.972500", "231956.432500", "231956.892500", "231957.352500", "231957.812500", "231958.272500", "231958.732500", "231959.192500", "231959.652500", "232000.112500", "232000.572500", "232001.032500", "232001.492500", "232001.952500", "232002.412500", "232002.872500", "232003.332500", "232003.792500", "232004.252500", "232004.712500", "232005.172500", "232005.632500", "232006.092500", "232006.552500", "232007.012500", "232007.472500", "232007.932500", "232008.392500", "232008.852500", "232009.312500", "232009.772500", "232010.232500", "232010.692500", "232011.152500", "232011.612500", "232012.072500", "232012.532500", "232012.992500", "232013.452500", "232013.912500", "232014.372500", "232014.832500", "232015.292500", "232015.752500", "232016.212500", "232016.672500", "232017.132500", "232017.592500", "232018.052500", "232018.512500", "232018.972500", "232019.432500", "232019.892500", "232020.352500", "232020.812500", "232021.272500", "232021.732500", "232022.192500", "232022.652500", "232023.112500", "232023.572500", "232024.032500", "232024.492500", "232024.952500", "232025.412500", "232025.872500", "232026.332500", "232026.792500", "232027.252500", "232027.712500", "232028.172500", "232028.632500", "232029.092500", "232029.552500", "232030.012500", "232030.472500", "232030.932500", "232031.392500", "232031.852500", "232032.312500", "232032.772500", "232033.232500", "232033.692500", "232034.152500", "232034.612500", "232035.072500", "232035.532500", "232035.992500", "232036.452500", "232036.912500", "232037.372500", "232037.832500", "232038.292500", "232038.752500", "232039.212500", "232039.672500", "232040.132500", "232040.592500", "232041.052500", "232041.512500", "232041.972500", "232042.432500", "232042.892500", "232043.352500", "232043.812500", "232044.272500", "232044.732500", "232045.192500", "232045.652500", "232046.112500", "232046.572500", "232047.032500", "232047.492500", "232047.952500", "232048.412500", "232048.872500", "232049.332500", "232049.792500", "232050.252500", "232050.712500", "232051.172500", "232051.632500", "232052.092500", "232052.552500", "232053.012500", "232053.472500", "232053.932500", "232054.392500", "232054.852500", "232055.312500", "232055.772500", "232056.232500", "232056.692500", "232057.152500", "232057.612500", "232058.072500", "232058.532500", "232058.992500", "232059.452500", "232059.912500", "232100.372500", "232100.832500", "232101.292500", "232101.752500", "232102.212500", "232102.672500", "232103.132500", "232103.592500", "232104.052500", "232104.512500", "232104.972500", "232105.432500", "232105.892500", "232106.352500", "232106.812500", "232107.272500", "232107.732500", "232108.192500", "232108.652500", "232109.112500", "232109.572500", "232110.032500", "232110.492500", "232110.952500", "232111.412500", "232111.872500", "232112.332500", "232112.792500", "232113.252500", "232113.712500", "232114.172500", "232114.632500", "232115.092500", "232115.552500", "232116.012500", "232116.472500", "232116.932500", "232117.392500", "232117.852500", "232118.312500", "232118.772500", "232119.232500", "232119.692500", "232120.152500", "232120.612500", "232121.072500", "232121.532500", "232121.992500", "232122.452500", "232122.912500", "232123.372500", "232123.832500", "232124.292500", "232124.752500", "232125.212500", "232125.672500", "232126.132500", "232126.592500", "232127.052500", "232127.512500", "232127.972500", "232128.432500", "232128.892500", "232129.352500", "232129.812500", "232130.272500", "232130.732500", "232131.192500", "232131.652500", "232132.112500", "232132.572500", "232133.032500", "232133.492500", "232133.952500", "232134.412500", "232134.872500", "232135.332500", "232135.792500", "232136.252500", "232136.712500", "232137.172500", "232137.632500", "232138.092500", "232138.552500", "232139.012500"],
