{
  "AcquisitionMatrixPE": 82,
  "AcquisitionNumber": 1,
  "AcquisitionTime": "22:32:53.342500",
  "BandwidthPerPixelPhaseEncode": 24.888,
  "BaseResolution": 82,
  "BodyPartExamined": "BRAIN",
  "ConsistencyInfo": "N4_VE11E_LATEST_20181129",
  "ConversionSoftware": "dcm2niix",
  "ConversionSoftwareVersion": "v1.0.20201102",
  "DerivedVendorReportedEchoSpacing": 0.00049,
  "DeviceSerialNumber": "66112",
  "DwellTime": 2e-06,
  "EchoTime": 0.0272,
  "EchoTrainLength": 82,
  "EffectiveEchoSpacing": 0.00049,
  "FlipAngle": 44,
  "ImageComments": "Unaliased MB8/PE3",
  "ImageOrientationPatientDICOM": [0.99672, 0.0737048, 0.0334294, -0.0770434, 0.990599, 0.113036],
  "ImageType": [
    "ORIGINAL",
    "PRIMARY",
    "M",
    "MB",
    "ND",
    "NORM",
    "MOSAIC"
],
  "ImagingFrequency": 123.252,
  "InPlanePhaseEncodingDirectionDICOM": "COL",
  "InstitutionAddress": "Maynard 3,Hanover,NH,US,03755",
  "InstitutionName": "Dartmouth College - PBS",
  "InstitutionalDepartmentName": "Department",
  "MRAcquisitionType": "2D",
  "MagneticFieldStrength": 3,
  "Manufacturer": "Siemens",
  "ManufacturersModelName": "Prisma",
  "Modality": "MR",
  "MultibandAccelerationFactor": 8,
  "PartialFourier": 1,
  "PatientPosition": "HFS",
  "PercentPhaseFOV": 100,
  "PercentSampling": 100,
  "PhaseEncodingDirection": "j-",
  "PhaseEncodingSteps": 82,
  "PhaseResolution": 1,
  "PixelBandwidth": 3050,
  "ProcedureStepDescription": "Wager_Wager^1076_spacetop",
  "ProtocolName": "func_run-06_task-social_acq-ap-mb8",
  "PulseSequenceDetails": "%CustomerSeq%\\cmrr_mbep2d_bold",
  "ReceiveCoilActiveElements": "HEA;HEP",
  "ReceiveCoilName": "Head_32",
  "ReconMatrixPE": 82,
  "RepetitionTime": 0.46,
  "SAR": 0.108354,
  "ScanOptions": "FS",
  "ScanningSequence": "EP",
  "SequenceName": "epfid2d1_82",
  "SequenceVariant": "SK\\SS",
  "SeriesDescription": "func_run-06_task-social_acq-ap-mb8",
  "SeriesNumber": 22,
  "ShimSetting": [4170, -7780, -7204, 618, -4, -321, 152, 9],
  "SliceThickness": 2.7,
  "SliceTiming": [0, 0.25, 0.0625, 0.3125, 0.125, 0.3775, 0.1875, 0, 0.25, 0.0625, 0.3125, 0.125, 0.3775, 0.1875, 0, 0.25, 0.0625, 0.3125, 0.125, 0.3775, 0.1875, 0, 0.25, 0.0625, 0.3125, 0.125, 0.3775, 0.1875, 0, 0.25, 0.0625, 0.3125, 0.125, 0.3775, 0.1875, 0, 0.25, 0.0625, 0.3125, 0.125, 0.3775, 0.1875, 0, 0.25, 0.0625, 0.3125, 0.125, 0.3775, 0.1875, 0, 0.25, 0.0625, 0.3125, 0.125, 0.3775, 0.1875],
  "SoftwareVersions": "syngo MR E11",
  "SpacingBetweenSlices": 2.7,
  "StationName": "AWP66112",
  "TaskName": "social",
  "TotalReadoutTime": 0.03969,
  "TxRefAmp": 252.803,
  "WipMemBlock": "ef35efe5-88cc-400f-8740-f5950ba7e25e||Sequence: R016 ve11e/master r/434b28f1; Aug  7 2019 18:53:46 by eja",
  "dcmmeta_affine": [
    [-2.674125909805298, -0.20670177042484283, 0.06691629439592361, 118.68367767333984],
    [-0.19774459302425385, 2.657705783843994, 0.31115010380744934, -89.28997802734375],
    [0.08968855440616608, -0.3032675087451935, 2.6811766624450684, -53.45760726928711],
    [0.0, 0.0, 0.0, 1.0]
],
  "dcmmeta_reorient_transform": [
    [0.0, -1.0, 0.0, 81.0],
    [1.0, 0.0, 0.0, 0.0],
    [0.0, 0.0, 1.0, 0.0],
    [0.0, 0.0, 0.0, 1.0]
],
  "dcmmeta_shape": [82, 82, 56, 872],
  "dcmmeta_slice_dim": 2,
  "dcmmeta_version": 0.6,
  "global": {
    "const": {
      "AccessionNumber": "A004080",
      "AcquisitionMatrix": [82, 0, 0, 82],
      "AngioFlag": "N",
      "BitsAllocated": 16,
      "BitsStored": 16,
      "BodyPartExamined": "BRAIN",
      "Columns": 656,
      "EchoNumbers": 1,
      "EchoTime": 27.2,
      "EchoTrainLength": 82,
      "FlipAngle": 44.0,
      "HighBit": 15,
      "ImageOrientationPatient": [0.99671965934614, 0.07370480275771, 0.03342936917384, -0.077043386095, 0.99059939641771, 0.11303606714622],
      "ImagePositionPatient": [-810.09158121148, -945.49843842955, -190.80066262666],
      "ImageType": [
        "ORIGINAL",
        "PRIMARY",
        "M",
        "MB",
        "ND",
        "NORM",
        "MOSAIC"
],
      "ImagedNucleus": "1H",
      "ImagingFrequency": 123.252178,
      "InPlanePhaseEncodingDirection": "COL",
      "MRAcquisitionType": "2D",
      "MagneticFieldStrength": 3.0,
      "Manufacturer": "SIEMENS",
      "ManufacturerModelName": "Prisma",
      "Modality": "MR",
      "NumberOfAverages": 1.0,
      "NumberOfPhaseEncodingSteps": 82,
      "PercentPhaseFieldOfView": 100.0,
      "PercentSampling": 100.0,
      "PerformedProcedureStepStartTime": "213338.133000",
      "PhotometricInterpretation": "MONOCHROME2",
      "PixelBandwidth": 3050.0,
      "PixelRepresentation": 0,
      "PixelSpacing": [2.6829268932343, 2.6829268932343],
      "ProtocolName": "func_run-06_task-social_acq-ap-mb8",
      "RepetitionTime": 460.0,
      "Rows": 656,
      "SAR": 0.10835409362463,
      "SamplesPerPixel": 1,
      "ScanOptions": "FS",
      "ScanningSequence": "EP",
      "SequenceName": "epfid2d1_82",
      "SequenceVariant": [
        "SK",
        "SS"
],
      "SeriesDescription": "func_run-06_task-social_acq-ap-mb8",
      "SeriesNumber": 22,
      "SeriesTime": "223309.555000",
      "SliceLocation": -60.433332277056,
      "SliceThickness": 2.7000000476837,
      "SmallestImagePixelValue": 0,
      "SoftwareVersions": "syngo MR E11",
      "SpacingBetweenSlices": 2.699999976983,
      "SpecificCharacterSet": "ISO_IR 100",
      "StudyID": "1",
      "StudyTime": "213338.068000",
      "TransmitCoilName": "Body",
      "VariableFlipAngleFlag": "N",
      "WindowCenterWidthExplanation": "Algo1"
    },
    "slices": {}
  },
  "time": {
    "samples": {
      "AcquisitionNumber": [1, 2, 3, 4, 5, 6, 7, 8, 9, 10, 11, 12, 13, 14, 15, 16, 17, 18, 19, 20, 21, 22, 23, 24, 25, 26, 27, 28, 29, 30, 31, 32, 33, 34, 35, 36, 37, 38, 39, 40, 41, 42, 43, 44, 45, 46, 47, 48, 49, 50, 51, 52, 53, 54, 55, 56, 57, 58, 59, 60, 61, 62, 63, 64, 65, 66, 67, 68, 69, 70, 71, 72, 73, 74, 75, 76, 77, 78, 79, 80, 81, 82, 83, 84, 85, 86, 87, 88, 89, 90, 91, 92, 93, 94, 95, 96, 97, 98, 99, 100, 101, 102, 103, 104, 105, 106, 107, 108, 109, 110, 111, 112, 113, 114, 115, 116, 117, 118, 119, 120, 121, 122, 123, 124, 125, 126, 127, 128, 129, 130, 131, 132, 133, 134, 135, 136, 137, 138, 139, 140, 141, 142, 143, 144, 145, 146, 147, 148, 149, 150, 151, 152, 153, 154, 155, 156, 157, 158, 159, 160, 161, 162, 163, 164, 165, 166, 167, 168, 169, 170, 171, 172, 173, 174, 175, 176, 177, 178, 179, 180, 181, 182, 183, 184, 185, 186, 187, 188, 189, 190, 191, 192, 193, 194, 195, 196, 197, 198, 199, 200, 201, 202, 203, 204, 205, 206, 207, 208, 209, 210, 211, 212, 213, 214, 215, 216, 217, 218, 219, 220, 221, 222, 223, 224, 225, 226, 227, 228, 229, 230, 231, 232, 233, 234, 235, 236, 237, 238, 239, 240, 241, 242, 243, 244, 245, 246, 247, 248, 249, 250, 251, 252, 253, 254, 255, 256, 257, 258, 259, 260, 261, 262, 263, 264, 265, 266, 267, 268, 269, 270, 271, 272, 273, 274, 275, 276, 277, 278, 279, 280, 281, 282, 283, 284, 285, 286, 287, 288, 289, 290, 291, 292, 293, 294, 295, 296, 297, 298, 299, 300, 301, 302, 303, 304, 305, 306, 307, 308, 309, 310, 311, 312, 313, 314, 315, 316, 317, 318, 319, 320, 321, 322, 323, 324, 325, 326, 327, 328, 329, 330, 331, 332, 333, 334, 335, 336, 337, 338, 339, 340, 341, 342, 343, 344, 345, 346, 347, 348, 349, 350, 351, 352, 353, 354, 355, 356, 357, 358, 359, 360, 361, 362, 363, 364, 365, 366, 367, 368, 369, 370, 371, 372, 373, 374, 375, 376, 377, 378, 379, 380, 381, 382, 383, 384, 385, 386, 387, 388, 389, 390, 391, 392, 393, 394, 395, 396, 397, 398, 399, 400, 401, 402, 403, 404, 405, 406, 407, 408, 409, 410, 411, 412, 413, 414, 415, 416, 417, 418, 419, 420, 421, 422, 423, 424, 425, 426, 427, 428, 429, 430, 431, 432, 433, 434, 435, 436, 437, 438, 439, 440, 441, 442, 443, 444, 445, 446, 447, 448, 449, 450, 451, 452, 453, 454, 455, 456, 457, 458, 459, 460, 461, 462, 463, 464, 465, 466, 467, 468, 469, 470, 471, 472, 473, 474, 475, 476, 477, 478, 479, 480, 481, 482, 483, 484, 485, 486, 487, 488, 489, 490, 491, 492, 493, 494, 495, 496, 497, 498, 499, 500, 501, 502, 503, 504, 505, 506, 507, 508, 509, 510, 511, 512, 513, 514, 515, 516, 517, 518, 519, 520, 521, 522, 523, 524, 525, 526, 527, 528, 529, 530, 531, 532, 533, 534, 535, 536, 537, 538, 539, 540, 541, 542, 543, 544, 545, 546, 547, 548, 549, 550, 551, 552, 553, 554, 555, 556, 557, 558, 559, 560, 561, 562, 563, 564, 565, 566, 567, 568, 569, 570, 571, 572, 573, 574, 575, 576, 577, 578, 579, 580, 581, 582, 583, 584, 585, 586, 587, 588, 589, 590, 591, 592, 593, 594, 595, 596, 597, 598, 599, 600, 601, 602, 603, 604, 605, 606, 607, 608, 609, 610, 611, 612, 613, 614, 615, 616, 617, 618, 619, 620, 621, 622, 623, 624, 625, 626, 627, 628, 629, 630, 631, 632, 633, 634, 635, 636, 637, 638, 639, 640, 641, 642, 643, 644, 645, 646, 647, 648, 649, 650, 651, 652, 653, 654, 655, 656, 657, 658, 659, 660, 661, 662, 663, 664, 665, 666, 667, 668, 669, 670, 671, 672, 673, 674, 675, 676, 677, 678, 679, 680, 681, 682, 683, 684, 685, 686, 687, 688, 689, 690, 691, 692, 693, 694, 695, 696, 697, 698, 699, 700, 701, 702, 703, 704, 705, 706, 707, 708, 709, 710, 711, 712, 713, 714, 715, 716, 717, 718, 719, 720, 721, 722, 723, 724, 725, 726, 727, 728, 729, 730, 731, 732, 733, 734, 735, 736, 737, 738, 739, 740, 741, 742, 743, 744, 745, 746, 747, 748, 749, 750, 751, 752, 753, 754, 755, 756, 757, 758, 759, 760, 761, 762, 763, 764, 765, 766, 767, 768, 769, 770, 771, 772, 773, 774, 775, 776, 777, 778, 779, 780, 781, 782, 783, 784, 785, 786, 787, 788, 789, 790, 791, 792, 793, 794, 795, 796, 797, 798, 799, 800, 801, 802, 803, 804, 805, 806, 807, 808, 809, 810, 811, 812, 813, 814, 815, 816, 817, 818, 819, 820, 821, 822, 823, 824, 825, 826, 827, 828, 829, 830, 831, 832, 833, 834, 835, 836, 837, 838, 839, 840, 841, 842, 843, 844, 845, 846, 847, 848, 849, 850, 851, 852, 853, 854, 855, 856, 857, 858, 859, 860, 861, 862, 863, 864, 865, 866, 867, 868, 869, 870, 871, 872],
      "AcquisitionTime": ["223253.342500", "223253.802500", "223254.262500", "223254.722500", "223255.182500", "223255.642500", "223256.102500", "223256.562500", "223257.022500", "223257.482500", "223257.942500", "223258.402500", "223258.862500", "223259.322500", "223259.782500", "223300.242500", "223300.702500", "223301.162500", "223301.622500", "223302.082500", "223302.542500", "223303.002500", "223303.462500", "223303.922500", "223304.382500", "223304.842500", "223305.302500", "223305.762500", "223306.222500", "223306.682500", "223307.142500", "223307.602500", "223308.062500", "223308.522500", "223308.982500", "223309.442500", "223309.902500", "223310.362500", "223310.822500", "223311.282500", "223311.742500", "223312.202500", "223312.662500", "223313.122500", "223313.582500", "223314.042500", "223314.502500", "223314.962500", "223315.422500", "223315.882500", "223316.342500", "223316.802500", "223317.262500", "223317.722500", "223318.182500", "223318.642500", "223319.102500", "223319.562500", "223320.022500", "223320.482500", "223320.942500", "223321.402500", "223321.862500", "223322.322500", "223322.782500", "223323.242500", "223323.702500", "223324.162500", "223324.622500", "223325.082500", "223325.542500", "223326.002500", "223326.462500", "223326.922500", "223327.382500", "223327.842500", "223328.302500", "223328.762500", "223329.222500", "223329.682500", "223330.142500", "223330.602500", "223331.062500", "223331.522500", "223331.982500", "223332.442500", "223332.902500", "223333.362500", "223333.822500", "223334.282500", "223334.742500", "223335.202500", "223335.662500", "223336.122500", "223336.582500", "223337.042500", "223337.502500", "223337.962500", "223338.422500", "223338.882500", "223339.342500", "223339.802500", "223340.262500", "223340.722500", "223341.182500", "223341.642500", "223342.102500", "223342.562500", "223343.022500", "223343.482500", "223343.942500", "223344.402500", "223344.862500", "223345.322500", "223345.782500", "223346.242500", "223346.702500", "223347.162500", "223347.622500", "223348.082500", "223348.542500", "223349.002500", "223349.462500", "223349.922500", "223350.382500", "223350.842500", "223351.302500", "223351.762500", "223352.222500", "223352.682500", "223353.142500", "223353.602500", "223354.062500", "223354.522500", "223354.982500", "223355.442500", "223355.902500", "223356.362500", "223356.822500", "223357.282500", "223357.742500", "223358.202500", "223358.662500", "223359.122500", "223359.582500", "223400.042500", "223400.502500", "223400.962500", "223401.422500", "223401.882500", "223402.342500", "223402.802500", "223403.262500", "223403.722500", "223404.182500", "223404.642500", "223405.102500", "223405.562500", "223406.022500", "223406.482500", "223406.942500", "223407.402500", "223407.862500", "223408.322500", "223408.782500", "223409.242500", "223409.702500", "223410.162500", "223410.622500", "223411.082500", "223411.542500", "223412.002500", "223412.462500", "223412.922500", "223413.382500", "223413.842500", "223414.302500", "223414.762500", "223415.222500", "223415.682500", "223416.142500", "223416.602500", "223417.062500", "223417.522500", "223417.982500", "223418.442500", "223418.902500", "223419.362500", "223419.822500", "223420.282500", "223420.742500", "223421.202500", "223421.662500", "223422.122500", "223422.582500", "223423.042500", "223423.502500", "223423.962500", "223424.422500", "223424.882500", "223425.342500", "223425.802500", "223426.262500", "223426.722500", "223427.182500", "223427.642500", "223428.102500", "223428.562500", "223429.022500", "223429.482500", "223429.942500", "223430.402500", "223430.862500", "223431.322500", "223431.782500", "223432.242500", "223432.702500", "223433.162500", "223433.622500", "223434.082500", "223434.542500", "223435.002500", "223435.462500", "223435.922500", "223436.382500", "223436.842500", "223437.302500", "223437.762500", "223438.222500", "223438.682500", "223439.142500", "223439.602500", "223440.062500", "223440.522500", "223440.982500", "223441.442500", "223441.902500", "223442.362500", "223442.822500", "223443.282500", "223443.742500", "223444.202500", "223444.662500", "223445.122500", "223445.582500", "223446.042500", "223446.502500", "223446.962500", "223447.422500", "223447.882500", "223448.342500", "223448.802500", "223449.262500", "223449.722500", "223450.182500", "223450.642500", "223451.102500", "223451.562500", "223452.022500", "223452.482500", "223452.942500", "223453.402500", "223453.862500", "223454.322500", "223454.782500", "223455.242500", "223455.702500", "223456.162500", "223456.622500", "223457.082500", "223457.542500", "223458.002500", "223458.462500", "223458.922500", "223459.382500", "223459.842500", "223500.302500", "223500.762500", "223501.222500", "223501.682500", "223502.142500", "223502.602500", "223503.062500", "223503.522500", "223503.982500", "223504.442500", "223504.902500", "223505.362500", "223505.822500", "223506.282500", "223506.742500", "223507.202500", "223507.662500", "223508.122500", "223508.582500", "223509.042500", "223509.502500", "223509.962500", "223510.422500", "223510.882500", "223511.342500", "223511.802500", "223512.262500", "223512.722500", "223513.182500", "223513.642500", "223514.102500", "223514.562500", "223515.022500", "223515.482500", "223515.942500", "223516.402500", "223516.862500", "223517.322500", "223517.782500", "223518.242500", "223518.702500", "223519.162500", "223519.622500", "223520.082500", "223520.542500", "223521.002500", "223521.462500", "223521.922500", "223522.382500", "223522.842500", "223523.302500", "223523.762500", "223524.222500", "223524.682500", "223525.142500", "223525.602500", "223526.062500", "223526.522500", "223526.982500", "223527.442500", "223527.902500", "223528.362500", "223528.822500", "223529.282500", "223529.742500", "223530.202500", "223530.662500", "223531.122500", "223531.582500", "223532.042500", "223532.502500", "223532.962500", "223533.422500", "223533.882500", "223534.342500", "223534.802500", "223535.262500", "223535.722500", "223536.182500", "223536.642500", "223537.102500", "223537.562500", "223538.022500", "223538.482500", "223538.942500", "223539.402500", "223539.862500", "223540.322500", "223540.782500", "223541.242500", "223541.702500", "223542.162500", "223542.622500", "223543.082500", "223543.542500", "223544.002500", "223544.462500", "223544.922500", "223545.382500", "223545.842500", "223546.302500", "223546.762500", "223547.222500", "223547.682500", "223548.142500", "223548.602500", "223549.062500", "223549.522500", "223549.982500", "223550.442500", "223550.902500", "223551.362500", "223551.822500", "223552.282500", "223552.742500", "223553.202500", "223553.662500", "223554.122500", "223554.582500", "223555.042500", "223555.502500", "223555.962500", "223556.422500", "223556.882500", "223557.342500", "223557.802500", "223558.262500", "223558.722500", "223559.182500", "223559.642500", "223600.102500", "223600.562500", "223601.022500", "223601.482500", "223601.942500", "223602.402500", "223602.862500", "223603.322500", "223603.782500", "223604.242500", "223604.702500", "223605.162500", "223605.622500", "223606.082500", "223606.542500", "223607.002500", "223607.462500", "223607.922500", "223608.382500", "223608.842500", "223609.302500", "223609.762500", "223610.222500", "223610.682500", "223611.142500", "223611.602500", "223612.062500", "223612.522500", "223612.982500", "223613.442500", "223613.902500", "223614.362500", "223614.822500", "223615.282500", "223615.742500", "223616.202500", "223616.662500", "223617.122500", "223617.582500", "223618.042500", "223618.502500", "223618.962500", "223619.422500", "223619.882500", "223620.342500", "223620.802500", "223621.262500", "223621.722500", "223622.182500", "223622.642500", "223623.102500", "223623.562500", "223624.022500", "223624.482500", "223624.942500", "223625.402500", "223625.862500", "223626.322500", "223626.782500", "223627.242500", "223627.702500", "223628.162500", "223628.622500", "223629.082500", "223629.542500", "223630.002500", "223630.462500", "223630.922500", "223631.382500", "223631.842500", "223632.302500", "223632.762500", "223633.222500", "223633.682500", "223634.142500", "223634.602500", "223635.062500", "223635.522500", "223635.982500", "223636.442500", "223636.902500", "223637.362500", "223637.822500", "223638.282500", "223638.742500", "223639.202500", "223639.662500", "223640.122500", "223640.582500", "223641.042500", "223641.502500", "223641.962500", "223642.422500", "223642.882500", "223643.342500", "223643.802500", "223644.262500", "223644.722500", "223645.182500", "223645.642500", "223646.102500", "223646.562500", "223647.022500", "223647.482500", "223647.942500", "223648.402500", "223648.862500", "223649.322500", "223649.782500", "223650.242500", "223650.702500", "223651.162500", "223651.622500", "223652.082500", "223652.542500", "223653.002500", "223653.462500", "223653.922500", "223654.382500", "223654.842500", "223655.302500", "223655.762500", "223656.222500", "223656.682500", "223657.142500", "223657.602500", "223658.062500", "223658.522500", "223658.982500", "223659.442500", "223659.902500", "223700.362500", "223700.822500", "223701.282500", "223701.742500", "223702.202500", "223702.662500", "223703.122500", "223703.582500", "223704.042500", "223704.502500", "223704.962500", "223705.422500", "223705.882500", "223706.342500", "223706.802500", "223707.262500", "223707.722500", "223708.182500", "223708.642500", "223709.102500", "223709.562500", "223710.022500", "223710.482500", "223710.942500", "223711.402500", "223711.862500", "223712.322500", "223712.782500", "223713.242500", "223713.702500", "223714.162500", "223714.622500", "223715.082500", "223715.542500", "223716.002500", "223716.462500", "223716.922500", "223717.382500", "223717.842500", "223718.302500", "223718.762500", "223719.222500", "223719.682500", "223720.142500", "223720.602500", "223721.062500", "223721.522500", "223721.982500", "223722.442500", "223722.902500", "223723.362500", "223723.822500", "223724.282500", "223724.742500", "223725.202500", "223725.662500", "223726.122500", "223726.582500", "223727.042500", "223727.502500", "223727.962500", "223728.422500", "223728.882500", "223729.342500", "223729.802500", "223730.262500", "223730.722500", "223731.182500", "223731.642500", "223732.102500", "223732.562500", "223733.022500", "223733.482500", "223733.942500", "223734.402500", "223734.862500", "223735.322500", "223735.782500", "223736.242500", "223736.702500", "223737.162500", "223737.622500", "223738.082500", "223738.542500", "223739.002500", "223739.462500", "223739.922500", "223740.382500", "223740.842500", "223741.302500", "223741.762500", "223742.222500", "223742.682500", "223743.142500", "223743.602500", "223744.062500", "223744.522500", "223744.982500", "223745.442500", "223745.902500", "223746.362500", "223746.822500", "223747.282500", "223747.742500", "223748.202500", "223748.662500", "223749.122500", "223749.582500", "223750.042500", "223750.502500", "223750.962500", "223751.422500", "223751.882500", "223752.342500", "223752.802500", "223753.262500", "223753.722500", "223754.182500", "223754.642500", "223755.102500", "223755.562500", "223756.022500", "223756.482500", "223756.942500", "223757.402500", "223757.862500", "223758.322500", "223758.782500", "223759.242500", "223759.702500", "223800.162500", "223800.622500", "223801.082500", "223801.542500", "223802.002500", "223802.462500", "223802.922500", "223803.382500", "223803.842500", "223804.302500", "223804.762500", "223805.222500", "223805.682500", "223806.142500", "223806.602500", "223807.062500", "223807.522500", "223807.982500", "223808.442500", "223808.902500", "223809.362500", "223809.822500", "223810.282500", "223810.742500", "223811.202500", "223811.662500", "223812.122500", "223812.582500", "223813.042500", "223813.502500", "223813.962500", "223814.422500", "223814.882500", "223815.342500", "223815.802500", "223816.262500", "223816.722500", "223817.182500", "223817.642500", "223818.102500", "223818.562500", "223819.022500", "223819.482500", "223819.942500", "223820.402500", "223820.862500", "223821.322500", "223821.782500", "223822.242500", "223822.702500", "223823.162500", "223823.622500", "223824.082500", "223824.542500", "223825.002500", "223825.462500", "223825.922500", "223826.382500", "223826.842500", "223827.302500", "223827.762500", "223828.222500", "223828.682500", "223829.142500", "223829.602500", "223830.062500", "223830.522500", "223830.982500", "223831.442500", "223831.902500", "223832.362500", "223832.822500", "223833.282500", "223833.742500", "223834.202500", "223834.662500", "223835.122500", "223835.582500", "223836.042500", "223836.502500", "223836.962500", "223837.422500", "223837.882500", "223838.342500", "223838.802500", "223839.262500", "223839.722500", "223840.182500", "223840.642500", "223841.102500", "223841.562500", "223842.022500", "223842.482500", "223842.942500", "223843.402500", "223843.862500", "223844.322500", "223844.782500", "223845.242500", "223845.702500", "223846.162500", "223846.622500", "223847.082500", "223847.542500", "223848.002500", "223848.462500", "223848.922500", "223849.382500", "223849.842500", "223850.302500", "223850.762500", "223851.222500", "223851.682500", "223852.142500", "223852.602500", "223853.062500", "223853.522500", "223853.982500", "223854.442500", "223854.902500", "223855.362500", "223855.822500", "223856.282500", "223856.742500", "223857.202500", "223857.662500", "223858.122500", "223858.582500", "223859.042500", "223859.502500", "223859.962500", "223900.422500", "223900.882500", "223901.342500", "223901.802500", "223902.262500", "223902.722500", "223903.182500", "223903.642500", "223904.102500", "223904.562500", "223905.022500", "223905.482500", "223905.942500", "223906.402500", "223906.862500", "223907.322500", "223907.782500", "223908.242500", "223908.702500", "223909.162500", "223909.622500", "223910.082500", "223910.542500", "223911.002500", "223911.462500", "223911.922500", "223912.382500", "223912.842500", "223913.302500", "223913.762500", "223914.222500", "223914.682500", "223915.142500", "223915.602500", "223916.062500", "223916.522500", "223916.982500", "223917.442500", "223917.902500", "223918.362500", "223918.822500", "223919.282500", "223919.742500", "223920.202500", "223920.662500", "223921.122500", "223921.582500", "223922.042500", "223922.502500", "223922.962500", "223923.422500", "223923.882500", "223924.342500", "223924.802500", "223925.262500", "223925.722500", "223926.182500", "223926.642500", "223927.102500", "223927.562500", "223928.022500", "223928.482500", "223928.942500", "223929.402500", "223929.862500", "223930.322500", "223930.782500", "223931.242500", "223931.702500", "223932.162500", "223932.622500", "223933.082500", "223933.542500", "223934.002500"],
