{
  "AcquisitionMatrixPE": 82,
  "AcquisitionNumber": 1,
  "AcquisitionTime": "22:53:24.460000",
  "BandwidthPerPixelPhaseEncode": 24.888,
  "BaseResolution": 82,
  "BodyPartExamined": "BRAIN",
  "ConsistencyInfo": "N4_VE11E_LATEST_20181129",
  "ConversionSoftware": "dcm2niix",
  "ConversionSoftwareVersion": "v1.0.20201102",
  "DerivedVendorReportedEchoSpacing": 0.00049,
  "DeviceSerialNumber": "66112",
  "DwellTime": 2e-06,
  "EchoTime": 0.0272,
  "EchoTrainLength": 82,
  "EffectiveEchoSpacing": 0.00049,
  "FlipAngle": 44,
  "ImageComments": "Unaliased MB8/PE3",
  "ImageOrientationPatientDICOM": [0.99672, 0.0737048, 0.0334294, -0.0770434, 0.990599, 0.113036],
  "ImageType": [
    "ORIGINAL",
    "PRIMARY",
    "M",
    "MB",
    "ND",
    "NORM",
    "MOSAIC"
],
  "ImagingFrequency": 123.252,
  "InPlanePhaseEncodingDirectionDICOM": "COL",
  "InstitutionAddress": "Maynard 3,Hanover,NH,US,03755",
  "InstitutionName": "Dartmouth College - PBS",
  "InstitutionalDepartmentName": "Department",
  "MRAcquisitionType": "2D",
  "MagneticFieldStrength": 3,
  "Manufacturer": "Siemens",
  "ManufacturersModelName": "Prisma",
  "Modality": "MR",
  "MultibandAccelerationFactor": 8,
  "PartialFourier": 1,
  "PatientPosition": "HFS",
  "PercentPhaseFOV": 100,
  "PercentSampling": 100,
  "PhaseEncodingDirection": "j-",
  "PhaseEncodingSteps": 82,
  "PhaseResolution": 1,
  "PixelBandwidth": 3050,
  "ProcedureStepDescription": "Wager_Wager^1076_spacetop",
  "ProtocolName": "func_run-01_task-alignvideo_acq-ap-mb8",
  "PulseSequenceDetails": "%CustomerSeq%\\cmrr_mbep2d_bold",
  "ReceiveCoilActiveElements": "HEA;HEP",
  "ReceiveCoilName": "Head_32",
  "ReconMatrixPE": 82,
  "RepetitionTime": 0.46,
  "SAR": 0.10848,
  "ScanOptions": "FS",
  "ScanningSequence": "EP",
  "SequenceName": "epfid2d1_82",
  "SequenceVariant": "SK\\SS",
  "SeriesDescription": "func_run-01_task-alignvideo_acq-ap-mb8",
  "SeriesNumber": 32,
  "ShimSetting": [4170, -7780, -7204, 618, -4, -321, 152, 9],
  "SliceThickness": 2.7,
  "SliceTiming": [0, 0.25, 0.0625, 0.3125, 0.125, 0.375, 0.1875, 0, 0.25, 0.0625, 0.3125, 0.125, 0.375, 0.1875, 0, 0.25, 0.0625, 0.3125, 0.125, 0.375, 0.1875, 0, 0.25, 0.0625, 0.3125, 0.125, 0.375, 0.1875, 0, 0.25, 0.0625, 0.3125, 0.125, 0.375, 0.1875, 0, 0.25, 0.0625, 0.3125, 0.125, 0.375, 0.1875, 0, 0.25, 0.0625, 0.3125, 0.125, 0.375, 0.1875, 0, 0.25, 0.0625, 0.3125, 0.125, 0.375, 0.1875],
  "SoftwareVersions": "syngo MR E11",
  "SpacingBetweenSlices": 2.7,
  "StationName": "AWP66112",
  "TaskName": "alignvideo",
  "TotalReadoutTime": 0.03969,
  "TxRefAmp": 252.803,
  "WipMemBlock": "59385124-9bf0-497b-a384-6db562a5a84b||Sequence: R016 ve11e/master r/434b28f1; Aug  7 2019 18:53:46 by eja",
  "dcmmeta_affine": [
    [-2.674125909805298, -0.20670177042484283, 0.06691629439592361, 118.68367767333984],
    [-0.19774459302425385, 2.657705783843994, 0.31115010380744934, -89.28997802734375],
    [0.08968855440616608, -0.3032675087451935, 2.6811766624450684, -53.45760726928711],
    [0.0, 0.0, 0.0, 1.0]
],
  "dcmmeta_reorient_transform": [
    [0.0, -1.0, 0.0, 81.0],
    [1.0, 0.0, 0.0, 0.0],
    [0.0, 0.0, 1.0, 0.0],
    [0.0, 0.0, 0.0, 1.0]
],
  "dcmmeta_shape": [82, 82, 56, 1073],
  "dcmmeta_slice_dim": 2,
  "dcmmeta_version": 0.6,
  "global": {
    "const": {
      "AccessionNumber": "A004080",
      "AcquisitionMatrix": [82, 0, 0, 82],
      "AngioFlag": "N",
      "BitsAllocated": 16,
      "BitsStored": 16,
      "BodyPartExamined": "BRAIN",
      "Columns": 656,
      "EchoNumbers": 1,
      "EchoTime": 27.2,
      "EchoTrainLength": 82,
      "FlipAngle": 44.0,
      "HighBit": 15,
      "ImageOrientationPatient": [0.99671965934614, 0.07370480275771, 0.03342936917384, -0.077043386095, 0.99059939641771, 0.11303606714622],
      "ImagePositionPatient": [-810.09158121148, -945.49843842955, -190.80066262666],
      "ImageType": [
        "ORIGINAL",
        "PRIMARY",
        "M",
        "MB",
        "ND",
        "NORM",
        "MOSAIC"
],
      "ImagedNucleus": "1H",
      "ImagingFrequency": 123.25217,
      "InPlanePhaseEncodingDirection": "COL",
      "MRAcquisitionType": "2D",
      "MagneticFieldStrength": 3.0,
      "Manufacturer": "SIEMENS",
      "ManufacturerModelName": "Prisma",
      "Modality": "MR",
      "NumberOfAverages": 1.0,
      "NumberOfPhaseEncodingSteps": 82,
      "PercentPhaseFieldOfView": 100.0,
      "PercentSampling": 100.0,
      "PerformedProcedureStepStartTime": "213338.133000",
      "PhotometricInterpretation": "MONOCHROME2",
      "PixelBandwidth": 3050.0,
      "PixelRepresentation": 0,
      "PixelSpacing": [2.6829268932343, 2.6829268932343],
      "ProtocolName": "func_run-01_task-alignvideo_acq-ap-mb8",
      "RepetitionTime": 460.0,
      "Rows": 656,
      "SAR": 0.10848045055259,
      "SamplesPerPixel": 1,
      "ScanOptions": "FS",
      "ScanningSequence": "EP",
      "SequenceName": "epfid2d1_82",
      "SequenceVariant": [
        "SK",
        "SS"
],
      "SeriesDescription": "func_run-01_task-alignvideo_acq-ap-mb8",
      "SeriesNumber": 32,
      "SeriesTime": "225349.507000",
      "SliceLocation": -60.433332277056,
      "SliceThickness": 2.7000000476837,
      "SmallestImagePixelValue": 0,
      "SoftwareVersions": "syngo MR E11",
      "SpacingBetweenSlices": 2.699999976983,
      "SpecificCharacterSet": "ISO_IR 100",
      "StudyID": "1",
      "StudyTime": "213338.068000",
      "TransmitCoilName": "Body",
      "VariableFlipAngleFlag": "N",
      "WindowCenterWidthExplanation": "Algo1"
    },
    "slices": {}
  },
  "time": {
    "samples": {
      "AcquisitionNumber": [1, 2, 3, 4, 5, 6, 7, 8, 9, 10, 11, 12, 13, 14, 15, 16, 17, 18, 19, 20, 21, 22, 23, 24, 25, 26, 27, 28, 29, 30, 31, 32, 33, 34, 35, 36, 37, 38, 39, 40, 41, 42, 43, 44, 45, 46, 47, 48, 49, 50, 51, 52, 53, 54, 55, 56, 57, 58, 59, 60, 61, 62, 63, 64, 65, 66, 67, 68, 69, 70, 71, 72, 73, 74, 75, 76, 77, 78, 79, 80, 81, 82, 83, 84, 85, 86, 87, 88, 89, 90, 91, 92, 93, 94, 95, 96, 97, 98, 99, 100, 101, 102, 103, 104, 105, 106, 107, 108, 109, 110, 111, 112, 113, 114, 115, 116, 117, 118, 119, 120, 121, 122, 123, 124, 125, 126, 127, 128, 129, 130, 131, 132, 133, 134, 135, 136, 137, 138, 139, 140, 141, 142, 143, 144, 145, 146, 147, 148, 149, 150, 151, 152, 153, 154, 155, 156, 157, 158, 159, 160, 161, 162, 163, 164, 165, 166, 167, 168, 169, 170, 171, 172, 173, 174, 175, 176, 177, 178, 179, 180, 181, 182, 183, 184, 185, 186, 187, 188, 189, 190, 191, 192, 193, 194, 195, 196, 197, 198, 199, 200, 201, 202, 203, 204, 205, 206, 207, 208, 209, 210, 211, 212, 213, 214, 215, 216, 217, 218, 219, 220, 221, 222, 223, 224, 225, 226, 227, 228, 229, 230, 231, 232, 233, 234, 235, 236, 237, 238, 239, 240, 241, 242, 243, 244, 245, 246, 247, 248, 249, 250, 251, 252, 253, 254, 255, 256, 257, 258, 259, 260, 261, 262, 263, 264, 265, 266, 267, 268, 269, 270, 271, 272, 273, 274, 275, 276, 277, 278, 279, 280, 281, 282, 283, 284, 285, 286, 287, 288, 289, 290, 291, 292, 293, 294, 295, 296, 297, 298, 299, 300, 301, 302, 303, 304, 305, 306, 307, 308, 309, 310, 311, 312, 313, 314, 315, 316, 317, 318, 319, 320, 321, 322, 323, 324, 325, 326, 327, 328, 329, 330, 331, 332, 333, 334, 335, 336, 337, 338, 339, 340, 341, 342, 343, 344, 345, 346, 347, 348, 349, 350, 351, 352, 353, 354, 355, 356, 357, 358, 359, 360, 361, 362, 363, 364, 365, 366, 367, 368, 369, 370, 371, 372, 373, 374, 375, 376, 377, 378, 379, 380, 381, 382, 383, 384, 385, 386, 387, 388, 389, 390, 391, 392, 393, 394, 395, 396, 397, 398, 399, 400, 401, 402, 403, 404, 405, 406, 407, 408, 409, 410, 411, 412, 413, 414, 415, 416, 417, 418, 419, 420, 421, 422, 423, 424, 425, 426, 427, 428, 429, 430, 431, 432, 433, 434, 435, 436, 437, 438, 439, 440, 441, 442, 443, 444, 445, 446, 447, 448, 449, 450, 451, 452, 453, 454, 455, 456, 457, 458, 459, 460, 461, 462, 463, 464, 465, 466, 467, 468, 469, 470, 471, 472, 473, 474, 475, 476, 477, 478, 479, 480, 481, 482, 483, 484, 485, 486, 487, 488, 489, 490, 491, 492, 493, 494, 495, 496, 497, 498, 499, 500, 501, 502, 503, 504, 505, 506, 507, 508, 509, 510, 511, 512, 513, 514, 515, 516, 517, 518, 519, 520, 521, 522, 523, 524, 525, 526, 527, 528, 529, 530, 531, 532, 533, 534, 535, 536, 537, 538, 539, 540, 541, 542, 543, 544, 545, 546, 547, 548, 549, 550, 551, 552, 553, 554, 555, 556, 557, 558, 559, 560, 561, 562, 563, 564, 565, 566, 567, 568, 569, 570, 571, 572, 573, 574, 575, 576, 577, 578, 579, 580, 581, 582, 583, 584, 585, 586, 587, 588, 589, 590, 591, 592, 593, 594, 595, 596, 597, 598, 599, 600, 601, 602, 603, 604, 605, 606, 607, 608, 609, 610, 611, 612, 613, 614, 615, 616, 617, 618, 619, 620, 621, 622, 623, 624, 625, 626, 627, 628, 629, 630, 631, 632, 633, 634, 635, 636, 637, 638, 639, 640, 641, 642, 643, 644, 645, 646, 647, 648, 649, 650, 651, 652, 653, 654, 655, 656, 657, 658, 659, 660, 661, 662, 663, 664, 665, 666, 667, 668, 669, 670, 671, 672, 673, 674, 675, 676, 677, 678, 679, 680, 681, 682, 683, 684, 685, 686, 687, 688, 689, 690, 691, 692, 693, 694, 695, 696, 697, 698, 699, 700, 701, 702, 703, 704, 705, 706, 707, 708, 709, 710, 711, 712, 713, 714, 715, 716, 717, 718, 719, 720, 721, 722, 723, 724, 725, 726, 727, 728, 729, 730, 731, 732, 733, 734, 735, 736, 737, 738, 739, 740, 741, 742, 743, 744, 745, 746, 747, 748, 749, 750, 751, 752, 753, 754, 755, 756, 757, 758, 759, 760, 761, 762, 763, 764, 765, 766, 767, 768, 769, 770, 771, 772, 773, 774, 775, 776, 777, 778, 779, 780, 781, 782, 783, 784, 785, 786, 787, 788, 789, 790, 791, 792, 793, 794, 795, 796, 797, 798, 799, 800, 801, 802, 803, 804, 805, 806, 807, 808, 809, 810, 811, 812, 813, 814, 815, 816, 817, 818, 819, 820, 821, 822, 823, 824, 825, 826, 827, 828, 829, 830, 831, 832, 833, 834, 835, 836, 837, 838, 839, 840, 841, 842, 843, 844, 845, 846, 847, 848, 849, 850, 851, 852, 853, 854, 855, 856, 857, 858, 859, 860, 861, 862, 863, 864, 865, 866, 867, 868, 869, 870, 871, 872, 873, 874, 875, 876, 877, 878, 879, 880, 881, 882, 883, 884, 885, 886, 887, 888, 889, 890, 891, 892, 893, 894, 895, 896, 897, 898, 899, 900, 901, 902, 903, 904, 905, 906, 907, 908, 909, 910, 911, 912, 913, 914, 915, 916, 917, 918, 919, 920, 921, 922, 923, 924, 925, 926, 927, 928, 929, 930, 931, 932, 933, 934, 935, 936, 937, 938, 939, 940, 941, 942, 943, 944, 945, 946, 947, 948, 949, 950, 951, 952, 953, 954, 955, 956, 957, 958, 959, 960, 961, 962, 963, 964, 965, 966, 967, 968, 969, 970, 971, 972, 973, 974, 975, 976, 977, 978, 979, 980, 981, 982, 983, 984, 985, 986, 987, 988, 989, 990, 991, 992, 993, 994, 995, 996, 997, 998, 999, 1000, 1001, 1002, 1003, 1004, 1005, 1006, 1007, 1008, 1009, 1010, 1011, 1012, 1013, 1014, 1015, 1016, 1017, 1018, 1019, 1020, 1021, 1022, 1023, 1024, 1025, 1026, 1027, 1028, 1029, 1030, 1031, 1032, 1033, 1034, 1035, 1036, 1037, 1038, 1039, 1040, 1041, 1042, 1043, 1044, 1045, 1046, 1047, 1048, 1049, 1050, 1051, 1052, 1053, 1054, 1055, 1056, 1057, 1058, 1059, 1060, 1061, 1062, 1063, 1064, 1065, 1066, 1067, 1068, 1069, 1070, 1071, 1072, 1073],
      "AcquisitionTime": ["225324.460000", "225324.920000", "225325.380000", "225325.840000", "225326.300000", "225326.760000", "225327.220000", "225327.680000", "225328.140000", "225328.600000", "225329.060000", "225329.520000", "225329.980000", "225330.440000", "225330.900000", "225331.360000", "225331.820000", "225332.280000", "225332.740000", "225333.200000", "225333.660000", "225334.120000", "225334.580000", "225335.040000", "225335.500000", "225335.960000", "225336.420000", "225336.880000", "225337.340000", "225337.800000", "225338.260000", "225338.720000", "225339.180000", "225339.640000", "225340.100000", "225340.560000", "225341.020000", "225341.480000", "225341.940000", "225342.400000", "225342.860000", "225343.320000", "225343.780000", "225344.240000", "225344.700000", "225345.160000", "225345.620000", "225346.080000", "225346.540000", "225347.000000", "225347.460000", "225347.920000", "225348.380000", "225348.840000", "225349.300000", "225349.760000", "225350.220000", "225350.680000", "225351.140000", "225351.600000", "225352.060000", "225352.520000", "225352.980000", "225353.440000", "225353.900000", "225354.360000", "225354.820000", "225355.280000", "225355.740000", "225356.200000", "225356.660000", "225357.120000", "225357.580000", "225358.040000", "225358.500000", "225358.960000", "225359.420000", "225359.880000", "225400.340000", "225400.800000", "225401.260000", "225401.720000", "225402.180000", "225402.640000", "225403.100000", "225403.560000", "225404.020000", "225404.480000", "225404.940000", "225405.400000", "225405.860000", "225406.320000", "225406.780000", "225407.240000", "225407.700000", "225408.160000", "225408.620000", "225409.080000", "225409.540000", "225410.000000", "225410.460000", "225410.920000", "225411.380000", "225411.840000", "225412.300000", "225412.760000", "225413.220000", "225413.680000", "225414.140000", "225414.600000", "225415.060000", "225415.520000", "225415.980000", "225416.440000", "225416.900000", "225417.360000", "225417.820000", "225418.280000", "225418.740000", "225419.200000", "225419.660000", "225420.120000", "225420.580000", "225421.040000", "225421.500000", "225421.960000", "225422.420000", "225422.880000", "225423.340000", "225423.800000", "225424.260000", "225424.720000", "225425.180000", "225425.640000", "225426.100000", "225426.560000", "225427.020000", "225427.480000", "225427.940000", "225428.400000", "225428.860000", "225429.320000", "225429.780000", "225430.240000", "225430.700000", "225431.160000", "225431.620000", "225432.080000", "225432.540000", "225433.000000", "225433.460000", "225433.920000", "225434.380000", "225434.840000", "225435.300000", "225435.760000", "225436.220000", "225436.680000", "225437.140000", "225437.600000", "225438.060000", "225438.520000", "225438.980000", "225439.440000", "225439.900000", "225440.360000", "225440.820000", "225441.280000", "225441.740000", "225442.200000", "225442.660000", "225443.120000", "225443.580000", "225444.040000", "225444.500000", "225444.960000", "225445.420000", "225445.880000", "225446.340000", "225446.800000", "225447.260000", "225447.720000", "225448.180000", "225448.640000", "225449.100000", "225449.560000", "225450.020000", "225450.480000", "225450.940000", "225451.400000", "225451.860000", "225452.320000", "225452.780000", "225453.240000", "225453.700000", "225454.160000", "225454.620000", "225455.080000", "225455.540000", "225456.000000", "225456.460000", "225456.920000", "225457.380000", "225457.840000", "225458.300000", "225458.760000", "225459.220000", "225459.680000", "225500.140000", "225500.600000", "225501.060000", "225501.520000", "225501.980000", "225502.440000", "225502.900000", "225503.360000", "225503.820000", "225504.280000", "225504.740000", "225505.200000", "225505.660000", "225506.120000", "225506.580000", "225507.040000", "225507.500000", "225507.960000", "225508.420000", "225508.880000", "225509.340000", "225509.800000", "225510.260000", "225510.720000", "225511.180000", "225511.640000", "225512.100000", "225512.560000", "225513.020000", "225513.480000", "225513.940000", "225514.400000", "225514.860000", "225515.320000", "225515.780000", "225516.240000", "225516.700000", "225517.160000", "225517.620000", "225518.080000", "225518.540000", "225519.000000", "225519.460000", "225519.920000", "225520.380000", "225520.840000", "225521.300000", "225521.760000", "225522.220000", "225522.680000", "225523.140000", "225523.600000", "225524.060000", "225524.520000", "225524.980000", "225525.440000", "225525.900000", "225526.360000", "225526.820000", "225527.280000", "225527.740000", "225528.200000", "225528.660000", "225529.120000", "225529.580000", "225530.040000", "225530.500000", "225530.960000", "225531.420000", "225531.880000", "225532.340000", "225532.800000", "225533.260000", "225533.720000", "225534.180000", "225534.640000", "225535.100000", "225535.560000", "225536.020000", "225536.480000", "225536.940000", "225537.400000", "225537.860000", "225538.320000", "225538.780000", "225539.240000", "225539.700000", "225540.160000", "225540.620000", "225541.080000", "225541.540000", "225542.000000", "225542.460000", "225542.920000", "225543.380000", "225543.840000", "225544.300000", "225544.760000", "225545.220000", "225545.680000", "225546.140000", "225546.600000", "225547.060000", "225547.520000", "225547.980000", "225548.440000", "225548.900000", "225549.360000", "225549.820000", "225550.280000", "225550.740000", "225551.200000", "225551.660000", "225552.120000", "225552.580000", "225553.040000", "225553.500000", "225553.960000", "225554.420000", "225554.880000", "225555.340000", "225555.800000", "225556.260000", "225556.720000", "225557.180000", "225557.640000", "225558.100000", "225558.560000", "225559.020000", "225559.480000", "225559.940000", "225600.400000", "225600.860000", "225601.320000", "225601.780000", "225602.240000", "225602.700000", "225603.160000", "225603.620000", "225604.080000", "225604.540000", "225605.000000", "225605.460000", "225605.920000", "225606.380000", "225606.840000", "225607.300000", "225607.760000", "225608.220000", "225608.680000", "225609.140000", "225609.600000", "225610.060000", "225610.520000", "225610.980000", "225611.440000", "225611.900000", "225612.360000", "225612.820000", "225613.280000", "225613.740000", "225614.200000", "225614.660000", "225615.120000", "225615.580000", "225616.040000", "225616.500000", "225616.960000", "225617.420000", "225617.880000", "225618.340000", "225618.800000", "225619.260000", "225619.720000", "225620.180000", "225620.640000", "225621.100000", "225621.560000", "225622.020000", "225622.480000", "225622.940000", "225623.400000", "225623.860000", "225624.320000", "225624.780000", "225625.240000", "225625.700000", "225626.160000", "225626.620000", "225627.080000", "225627.540000", "225628.000000", "225628.460000", "225628.920000", "225629.380000", "225629.840000", "225630.300000", "225630.760000", "225631.220000", "225631.680000", "225632.140000", "225632.600000", "225633.060000", "225633.520000", "225633.980000", "225634.440000", "225634.900000", "225635.360000", "225635.820000", "225636.280000", "225636.740000", "225637.200000", "225637.660000", "225638.120000", "225638.580000", "225639.040000", "225639.500000", "225639.960000", "225640.420000", "225640.880000", "225641.340000", "225641.800000", "225642.260000", "225642.720000", "225643.180000", "225643.640000", "225644.100000", "225644.560000", "225645.020000", "225645.480000", "225645.940000", "225646.400000", "225646.860000", "225647.320000", "225647.780000", "225648.240000", "225648.700000", "225649.160000", "225649.620000", "225650.080000", "225650.540000", "225651.000000", "225651.460000", "225651.920000", "225652.380000", "225652.840000", "225653.300000", "225653.760000", "225654.220000", "225654.680000", "225655.140000", "225655.600000", "225656.060000", "225656.520000", "225656.980000", "225657.440000", "225657.900000", "225658.360000", "225658.820000", "225659.280000", "225659.740000", "225700.200000", "225700.660000", "225701.120000", "225701.580000", "225702.040000", "225702.500000", "225702.960000", "225703.420000", "225703.880000", "225704.340000", "225704.800000", "225705.260000", "225705.720000", "225706.180000", "225706.640000", "225707.100000", "225707.560000", "225708.020000", "225708.480000", "225708.940000", "225709.400000", "225709.860000", "225710.320000", "225710.780000", "225711.240000", "225711.700000", "225712.160000", "225712.620000", "225713.080000", "225713.540000", "225714.000000", "225714.460000", "225714.920000", "225715.380000", "225715.840000", "225716.300000", "225716.760000", "225717.220000", "225717.680000", "225718.140000", "225718.600000", "225719.060000", "225719.520000", "225719.980000", "225720.440000", "225720.900000", "225721.360000", "225721.820000", "225722.280000", "225722.740000", "225723.200000", "225723.660000", "225724.120000", "225724.580000", "225725.040000", "225725.500000", "225725.960000", "225726.420000", "225726.880000", "225727.340000", "225727.800000", "225728.260000", "225728.720000", "225729.180000", "225729.640000", "225730.100000", "225730.560000", "225731.020000", "225731.480000", "225731.940000", "225732.400000", "225732.860000", "225733.320000", "225733.780000", "225734.240000", "225734.700000", "225735.160000", "225735.620000", "225736.080000", "225736.540000", "225737.000000", "225737.460000", "225737.920000", "225738.380000", "225738.840000", "225739.300000", "225739.760000", "225740.220000", "225740.680000", "225741.140000", "225741.600000", "225742.060000", "225742.520000", "225742.980000", "225743.440000", "225743.900000", "225744.360000", "225744.820000", "225745.280000", "225745.740000", "225746.200000", "225746.660000", "225747.120000", "225747.580000", "225748.040000", "225748.500000", "225748.960000", "225749.420000", "225749.880000", "225750.340000", "225750.800000", "225751.260000", "225751.720000", "225752.180000", "225752.640000", "225753.100000", "225753.560000", "225754.020000", "225754.480000", "225754.940000", "225755.400000", "225755.860000", "225756.320000", "225756.780000", "225757.240000", "225757.700000", "225758.160000", "225758.620000", "225759.080000", "225759.540000", "225800.000000", "225800.460000", "225800.920000", "225801.380000", "225801.840000", "225802.300000", "225802.760000", "225803.220000", "225803.680000", "225804.140000", "225804.600000", "225805.060000", "225805.520000", "225805.980000", "225806.440000", "225806.900000", "225807.360000", "225807.820000", "225808.280000", "225808.740000", "225809.200000", "225809.660000", "225810.120000", "225810.580000", "225811.040000", "225811.500000", "225811.960000", "225812.420000", "225812.880000", "225813.340000", "225813.800000", "225814.260000", "225814.720000", "225815.180000", "225815.640000", "225816.100000", "225816.560000", "225817.020000", "225817.480000", "225817.940000", "225818.400000", "225818.860000", "225819.320000", "225819.780000", "225820.240000", "225820.700000", "225821.160000", "225821.620000", "225822.080000", "225822.540000", "225823.000000", "225823.460000", "225823.920000", "225824.380000", "225824.840000", "225825.300000", "225825.760000", "225826.220000", "225826.680000", "225827.140000", "225827.600000", "225828.060000", "225828.520000", "225828.980000", "225829.440000", "225829.900000", "225830.360000", "225830.820000", "225831.280000", "225831.740000", "225832.200000", "225832.660000", "225833.120000", "225833.580000", "225834.040000", "225834.500000", "225834.960000", "225835.420000", "225835.880000", "225836.340000", "225836.800000", "225837.260000", "225837.720000", "225838.180000", "225838.640000", "225839.100000", "225839.560000", "225840.020000", "225840.480000", "225840.940000", "225841.400000", "225841.860000", "225842.320000", "225842.780000", "225843.240000", "225843.700000", "225844.160000", "225844.620000", "225845.080000", "225845.540000", "225846.000000", "225846.460000", "225846.920000", "225847.380000", "225847.840000", "225848.300000", "225848.760000", "225849.220000", "225849.680000", "225850.140000", "225850.600000", "225851.060000", "225851.520000", "225851.980000", "225852.440000", "225852.900000", "225853.360000", "225853.820000", "225854.280000", "225854.740000", "225855.200000", "225855.660000", "225856.120000", "225856.580000", "225857.040000", "225857.500000", "225857.960000", "225858.420000", "225858.880000", "225859.340000", "225859.800000", "225900.260000", "225900.720000", "225901.180000", "225901.640000", "225902.100000", "225902.560000", "225903.020000", "225903.480000", "225903.940000", "225904.400000", "225904.860000", "225905.320000", "225905.780000", "225906.240000", "225906.700000", "225907.160000", "225907.620000", "225908.080000", "225908.540000", "225909.000000", "225909.460000", "225909.920000", "225910.380000", "225910.840000", "225911.300000", "225911.760000", "225912.220000", "225912.680000", "225913.140000", "225913.600000", "225914.060000", "225914.520000", "225914.980000", "225915.440000", "225915.900000", "225916.360000", "225916.820000", "225917.280000", "225917.740000", "225918.200000", "225918.660000", "225919.120000", "225919.580000", "225920.040000", "225920.500000", "225920.960000", "225921.420000", "225921.880000", "225922.340000", "225922.800000", "225923.260000", "225923.720000", "225924.180000", "225924.640000", "225925.100000", "225925.560000", "225926.020000", "225926.480000", "225926.940000", "225927.400000", "225927.860000", "225928.320000", "225928.780000", "225929.240000", "225929.700000", "225930.160000", "225930.620000", "225931.080000", "225931.540000", "225932.000000", "225932.460000", "225932.920000", "225933.380000", "225933.840000", "225934.300000", "225934.760000", "225935.220000", "225935.680000", "225936.140000", "225936.600000", "225937.060000", "225937.520000", "225937.980000", "225938.440000", "225938.900000", "225939.360000", "225939.820000", "225940.280000", "225940.740000", "225941.200000", "225941.660000", "225942.120000", "225942.580000", "225943.040000", "225943.500000", "225943.960000", "225944.420000", "225944.880000", "225945.340000", "225945.800000", "225946.260000", "225946.720000", "225947.180000", "225947.640000", "225948.100000", "225948.560000", "225949.020000", "225949.480000", "225949.940000", "225950.400000", "225950.860000", "225951.320000", "225951.780000", "225952.240000", "225952.700000", "225953.160000", "225953.620000", "225954.080000", "225954.540000", "225955.000000", "225955.460000", "225955.920000", "225956.380000", "225956.840000", "225957.300000", "225957.760000", "225958.220000", "225958.680000", "225959.140000", "225959.600000", "230000.060000", "230000.520000", "230000.980000", "230001.440000", "230001.900000", "230002.360000", "230002.820000", "230003.280000", "230003.740000", "230004.200000", "230004.660000", "230005.120000", "230005.580000", "230006.040000", "230006.500000", "230006.960000", "230007.420000", "230007.880000", "230008.340000", "230008.800000", "230009.260000", "230009.720000", "230010.180000", "230010.640000", "230011.100000", "230011.560000", "230012.020000", "230012.480000", "230012.940000", "230013.400000", "230013.860000", "230014.320000", "230014.780000", "230015.240000", "230015.700000", "230016.160000", "230016.620000", "230017.080000", "230017.540000", "230018.000000", "230018.460000", "230018.920000", "230019.380000", "230019.840000", "230020.300000", "230020.760000", "230021.220000", "230021.680000", "230022.140000", "230022.600000", "230023.060000", "230023.520000", "230023.980000", "230024.440000", "230024.900000", "230025.360000", "230025.820000", "230026.280000", "230026.740000", "230027.200000", "230027.660000", "230028.120000", "230028.580000", "230029.040000", "230029.500000", "230029.960000", "230030.420000", "230030.880000", "230031.340000", "230031.800000", "230032.260000", "230032.720000", "230033.180000", "230033.640000", "230034.100000", "230034.560000", "230035.020000", "230035.480000", "230035.940000", "230036.400000", "230036.860000", "230037.320000", "230037.780000", "230038.240000", "230038.700000", "230039.160000", "230039.620000", "230040.080000", "230040.540000", "230041.000000", "230041.460000", "230041.920000", "230042.380000", "230042.840000", "230043.300000", "230043.760000", "230044.220000", "230044.680000", "230045.140000", "230045.600000", "230046.060000", "230046.520000", "230046.980000", "230047.440000", "230047.900000", "230048.360000", "230048.820000", "230049.280000", "230049.740000", "230050.200000", "230050.660000", "230051.120000", "230051.580000", "230052.040000", "230052.500000", "230052.960000", "230053.420000", "230053.880000", "230054.340000", "230054.800000", "230055.260000", "230055.720000", "230056.180000", "230056.640000", "230057.100000", "230057.560000", "230058.020000", "230058.480000", "230058.940000", "230059.400000", "230059.860000", "230100.320000", "230100.780000", "230101.240000", "230101.700000", "230102.160000", "230102.620000", "230103.080000", "230103.540000", "230104.000000", "230104.460000", "230104.920000", "230105.380000", "230105.840000", "230106.300000", "230106.760000", "230107.220000", "230107.680000", "230108.140000", "230108.600000", "230109.060000", "230109.520000", "230109.980000", "230110.440000", "230110.900000", "230111.360000", "230111.820000", "230112.280000", "230112.740000", "230113.200000", "230113.660000", "230114.120000", "230114.580000", "230115.040000", "230115.500000", "230115.960000", "230116.420000", "230116.880000", "230117.340000", "230117.800000", "230118.260000", "230118.720000", "230119.180000", "230119.640000", "230120.100000", "230120.560000", "230121.020000", "230121.480000", "230121.940000", "230122.400000", "230122.860000", "230123.320000", "230123.780000", "230124.240000", "230124.700000", "230125.160000", "230125.620000", "230126.080000", "230126.540000", "230127.000000", "230127.460000", "230127.920000", "230128.380000", "230128.840000", "230129.300000", "230129.760000", "230130.220000", "230130.680000", "230131.140000", "230131.600000", "230132.060000", "230132.520000", "230132.980000", "230133.440000", "230133.900000", "230134.360000", "230134.820000", "230135.280000", "230135.740000", "230136.200000", "230136.660000", "230137.120000", "230137.580000"],
