{
  "AcquisitionMatrixPE": 82,
  "AcquisitionNumber": 1,
  "AcquisitionTime": "22:00:54.587500",
  "BandwidthPerPixelPhaseEncode": 24.888,
  "BaseResolution": 82,
  "BodyPartExamined": "BRAIN",
  "ConsistencyInfo": "N4_VE11E_LATEST_20181129",
  "ConversionSoftware": "dcm2niix",
  "ConversionSoftwareVersion": "v1.0.20201102",
  "DerivedVendorReportedEchoSpacing": 0.00049,
  "DeviceSerialNumber": "66112",
  "DwellTime": 2e-06,
  "EchoTime": 0.0272,
  "EchoTrainLength": 82,
  "EffectiveEchoSpacing": 0.00049,
  "FlipAngle": 44,
  "ImageComments": "Unaliased MB8/PE3",
  "ImageOrientationPatientDICOM": [0.99672, 0.0737048, 0.0334294, -0.0770434, 0.990599, 0.113036],
  "ImageType": [
    "ORIGINAL",
    "PRIMARY",
    "M",
    "MB",
    "ND",
    "NORM",
    "MOSAIC"
],
  "ImagingFrequency": 123.252,
  "InPlanePhaseEncodingDirectionDICOM": "COL",
  "InstitutionAddress": "Maynard 3,Hanover,NH,US,03755",
  "InstitutionName": "Dartmouth College - PBS",
  "InstitutionalDepartmentName": "Department",
  "MRAcquisitionType": "2D",
  "MagneticFieldStrength": 3,
  "Manufacturer": "Siemens",
  "ManufacturersModelName": "Prisma",
  "Modality": "MR",
  "MultibandAccelerationFactor": 8,
  "PartialFourier": 1,
  "PatientPosition": "HFS",
  "PercentPhaseFOV": 100,
  "PercentSampling": 100,
  "PhaseEncodingDirection": "j-",
  "PhaseEncodingSteps": 82,
  "PhaseResolution": 1,
  "PixelBandwidth": 3050,
  "ProcedureStepDescription": "Wager_Wager^1076_spacetop",
  "ProtocolName": "func_run-02_task-social_acq-ap-mb8",
  "PulseSequenceDetails": "%CustomerSeq%\\cmrr_mbep2d_bold",
  "ReceiveCoilActiveElements": "HEA;HEP",
  "ReceiveCoilName": "Head_32",
  "ReconMatrixPE": 82,
  "RepetitionTime": 0.46,
  "SAR": 0.108354,
  "ScanOptions": "FS",
  "ScanningSequence": "EP",
  "SequenceName": "epfid2d1_82",
  "SequenceVariant": "SK\\SS",
  "SeriesDescription": "func_run-02_task-social_acq-ap-mb8",
  "SeriesNumber": 14,
  "ShimSetting": [4170, -7780, -7204, 618, -4, -321, 152, 9],
  "SliceThickness": 2.7,
  "SliceTiming": [0, 0.2525, 0.065, 0.315, 0.1275, 0.3775, 0.19, 0, 0.2525, 0.065, 0.315, 0.1275, 0.3775, 0.19, 0, 0.2525, 0.065, 0.315, 0.1275, 0.3775, 0.19, 0, 0.2525, 0.065, 0.315, 0.1275, 0.3775, 0.19, 0, 0.2525, 0.065, 0.315, 0.1275, 0.3775, 0.19, 0, 0.2525, 0.065, 0.315, 0.1275, 0.3775, 0.19, 0, 0.2525, 0.065, 0.315, 0.1275, 0.3775, 0.19, 0, 0.2525, 0.065, 0.315, 0.1275, 0.3775, 0.19],
  "SoftwareVersions": "syngo MR E11",
  "SpacingBetweenSlices": 2.7,
  "StationName": "AWP66112",
  "TaskName": "social",
  "TotalReadoutTime": 0.03969,
  "TxRefAmp": 252.803,
  "WipMemBlock": "5c13f453-0128-408d-ad08-43b1a0296f02||Sequence: R016 ve11e/master r/434b28f1; Aug  7 2019 18:53:46 by eja",
  "dcmmeta_affine": [
    [-2.674125909805298, -0.20670177042484283, 0.06691629439592361, 118.68367767333984],
    [-0.19774459302425385, 2.657705783843994, 0.31115010380744934, -89.28997802734375],
    [0.08968855440616608, -0.3032675087451935, 2.6811766624450684, -53.45760726928711],
    [0.0, 0.0, 0.0, 1.0]
],
  "dcmmeta_reorient_transform": [
    [0.0, -1.0, 0.0, 81.0],
    [1.0, 0.0, 0.0, 0.0],
    [0.0, 0.0, 1.0, 0.0],
    [0.0, 0.0, 0.0, 1.0]
],
  "dcmmeta_shape": [82, 82, 56, 872],
  "dcmmeta_slice_dim": 2,
  "dcmmeta_version": 0.6,
  "global": {
    "const": {
      "AccessionNumber": "A004080",
      "AcquisitionMatrix": [82, 0, 0, 82],
      "AngioFlag": "N",
      "BitsAllocated": 16,
      "BitsStored": 16,
      "BodyPartExamined": "BRAIN",
      "Columns": 656,
      "EchoNumbers": 1,
      "EchoTime": 27.2,
      "EchoTrainLength": 82,
      "FlipAngle": 44.0,
      "HighBit": 15,
      "ImageOrientationPatient": [0.99671965934614, 0.07370480275771, 0.03342936917384, -0.077043386095, 0.99059939641771, 0.11303606714622],
      "ImagePositionPatient": [-810.09158121148, -945.49843842955, -190.80066262666],
      "ImageType": [
        "ORIGINAL",
        "PRIMARY",
        "M",
        "MB",
        "ND",
        "NORM",
        "MOSAIC"
],
      "ImagedNucleus": "1H",
      "ImagingFrequency": 123.252173,
      "InPlanePhaseEncodingDirection": "COL",
      "MRAcquisitionType": "2D",
      "MagneticFieldStrength": 3.0,
      "Manufacturer": "SIEMENS",
      "ManufacturerModelName": "Prisma",
      "Modality": "MR",
      "NumberOfAverages": 1.0,
      "NumberOfPhaseEncodingSteps": 82,
      "PercentPhaseFieldOfView": 100.0,
      "PercentSampling": 100.0,
      "PerformedProcedureStepStartTime": "213338.133000",
      "PhotometricInterpretation": "MONOCHROME2",
      "PixelBandwidth": 3050.0,
      "PixelRepresentation": 0,
      "PixelSpacing": [2.6829268932343, 2.6829268932343],
      "ProtocolName": "func_run-02_task-social_acq-ap-mb8",
      "RepetitionTime": 460.0,
      "Rows": 656,
      "SAR": 0.10835409362463,
      "SamplesPerPixel": 1,
      "ScanOptions": "FS",
      "ScanningSequence": "EP",
      "SequenceName": "epfid2d1_82",
      "SequenceVariant": [
        "SK",
        "SS"
],
      "SeriesDescription": "func_run-02_task-social_acq-ap-mb8",
      "SeriesNumber": 14,
      "SeriesTime": "220109.464000",
      "SliceLocation": -60.433332277056,
      "SliceThickness": 2.7000000476837,
      "SmallestImagePixelValue": 0,
      "SoftwareVersions": "syngo MR E11",
      "SpacingBetweenSlices": 2.699999976983,
      "SpecificCharacterSet": "ISO_IR 100",
      "StudyID": "1",
      "StudyTime": "213338.068000",
      "TransmitCoilName": "Body",
      "VariableFlipAngleFlag": "N",
      "WindowCenterWidthExplanation": "Algo1"
    },
    "slices": {}
  },
  "time": {
    "samples": {
      "AcquisitionNumber": [1, 2, 3, 4, 5, 6, 7, 8, 9, 10, 11, 12, 13, 14, 15, 16, 17, 18, 19, 20, 21, 22, 23, 24, 25, 26, 27, 28, 29, 30, 31, 32, 33, 34, 35, 36, 37, 38, 39, 40, 41, 42, 43, 44, 45, 46, 47, 48, 49, 50, 51, 52, 53, 54, 55, 56, 57, 58, 59, 60, 61, 62, 63, 64, 65, 66, 67, 68, 69, 70, 71, 72, 73, 74, 75, 76, 77, 78, 79, 80, 81, 82, 83, 84, 85, 86, 87, 88, 89, 90, 91, 92, 93, 94, 95, 96, 97, 98, 99, 100, 101, 102, 103, 104, 105, 106, 107, 108, 109, 110, 111, 112, 113, 114, 115, 116, 117, 118, 119, 120, 121, 122, 123, 124, 125, 126, 127, 128, 129, 130, 131, 132, 133, 134, 135, 136, 137, 138, 139, 140, 141, 142, 143, 144, 145, 146, 147, 148, 149, 150, 151, 152, 153, 154, 155, 156, 157, 158, 159, 160, 161, 162, 163, 164, 165, 166, 167, 168, 169, 170, 171, 172, 173, 174, 175, 176, 177, 178, 179, 180, 181, 182, 183, 184, 185, 186, 187, 188, 189, 190, 191, 192, 193, 194, 195, 196, 197, 198, 199, 200, 201, 202, 203, 204, 205, 206, 207, 208, 209, 210, 211, 212, 213, 214, 215, 216, 217, 218, 219, 220, 221, 222, 223, 224, 225, 226, 227, 228, 229, 230, 231, 232, 233, 234, 235, 236, 237, 238, 239, 240, 241, 242, 243, 244, 245, 246, 247, 248, 249, 250, 251, 252, 253, 254, 255, 256, 257, 258, 259, 260, 261, 262, 263, 264, 265, 266, 267, 268, 269, 270, 271, 272, 273, 274, 275, 276, 277, 278, 279, 280, 281, 282, 283, 284, 285, 286, 287, 288, 289, 290, 291, 292, 293, 294, 295, 296, 297, 298, 299, 300, 301, 302, 303, 304, 305, 306, 307, 308, 309, 310, 311, 312, 313, 314, 315, 316, 317, 318, 319, 320, 321, 322, 323, 324, 325, 326, 327, 328, 329, 330, 331, 332, 333, 334, 335, 336, 337, 338, 339, 340, 341, 342, 343, 344, 345, 346, 347, 348, 349, 350, 351, 352, 353, 354, 355, 356, 357, 358, 359, 360, 361, 362, 363, 364, 365, 366, 367, 368, 369, 370, 371, 372, 373, 374, 375, 376, 377, 378, 379, 380, 381, 382, 383, 384, 385, 386, 387, 388, 389, 390, 391, 392, 393, 394, 395, 396, 397, 398, 399, 400, 401, 402, 403, 404, 405, 406, 407, 408, 409, 410, 411, 412, 413, 414, 415, 416, 417, 418, 419, 420, 421, 422, 423, 424, 425, 426, 427, 428, 429, 430, 431, 432, 433, 434, 435, 436, 437, 438, 439, 440, 441, 442, 443, 444, 445, 446, 447, 448, 449, 450, 451, 452, 453, 454, 455, 456, 457, 458, 459, 460, 461, 462, 463, 464, 465, 466, 467, 468, 469, 470, 471, 472, 473, 474, 475, 476, 477, 478, 479, 480, 481, 482, 483, 484, 485, 486, 487, 488, 489, 490, 491, 492, 493, 494, 495, 496, 497, 498, 499, 500, 501, 502, 503, 504, 505, 506, 507, 508, 509, 510, 511, 512, 513, 514, 515, 516, 517, 518, 519, 520, 521, 522, 523, 524, 525, 526, 527, 528, 529, 530, 531, 532, 533, 534, 535, 536, 537, 538, 539, 540, 541, 542, 543, 544, 545, 546, 547, 548, 549, 550, 551, 552, 553, 554, 555, 556, 557, 558, 559, 560, 561, 562, 563, 564, 565, 566, 567, 568, 569, 570, 571, 572, 573, 574, 575, 576, 577, 578, 579, 580, 581, 582, 583, 584, 585, 586, 587, 588, 589, 590, 591, 592, 593, 594, 595, 596, 597, 598, 599, 600, 601, 602, 603, 604, 605, 606, 607, 608, 609, 610, 611, 612, 613, 614, 615, 616, 617, 618, 619, 620, 621, 622, 623, 624, 625, 626, 627, 628, 629, 630, 631, 632, 633, 634, 635, 636, 637, 638, 639, 640, 641, 642, 643, 644, 645, 646, 647, 648, 649, 650, 651, 652, 653, 654, 655, 656, 657, 658, 659, 660, 661, 662, 663, 664, 665, 666, 667, 668, 669, 670, 671, 672, 673, 674, 675, 676, 677, 678, 679, 680, 681, 682, 683, 684, 685, 686, 687, 688, 689, 690, 691, 692, 693, 694, 695, 696, 697, 698, 699, 700, 701, 702, 703, 704, 705, 706, 707, 708, 709, 710, 711, 712, 713, 714, 715, 716, 717, 718, 719, 720, 721, 722, 723, 724, 725, 726, 727, 728, 729, 730, 731, 732, 733, 734, 735, 736, 737, 738, 739, 740, 741, 742, 743, 744, 745, 746, 747, 748, 749, 750, 751, 752, 753, 754, 755, 756, 757, 758, 759, 760, 761, 762, 763, 764, 765, 766, 767, 768, 769, 770, 771, 772, 773, 774, 775, 776, 777, 778, 779, 780, 781, 782, 783, 784, 785, 786, 787, 788, 789, 790, 791, 792, 793, 794, 795, 796, 797, 798, 799, 800, 801, 802, 803, 804, 805, 806, 807, 808, 809, 810, 811, 812, 813, 814, 815, 816, 817, 818, 819, 820, 821, 822, 823, 824, 825, 826, 827, 828, 829, 830, 831, 832, 833, 834, 835, 836, 837, 838, 839, 840, 841, 842, 843, 844, 845, 846, 847, 848, 849, 850, 851, 852, 853, 854, 855, 856, 857, 858, 859, 860, 861, 862, 863, 864, 865, 866, 867, 868, 869, 870, 871, 872],
      "AcquisitionTime": ["220054.587500", "220055.047500", "220055.507500", "220055.967500", "220056.427500", "220056.887500", "220057.347500", "220057.807500", "220058.267500", "220058.727500", "220059.187500", "220059.647500", "220100.107500", "220100.567500", "220101.027500", "220101.487500", "220101.947500", "220102.407500", "220102.867500", "220103.327500", "220103.787500", "220104.247500", "220104.707500", "220105.167500", "220105.627500", "220106.087500", "220106.547500", "220107.007500", "220107.467500", "220107.927500", "220108.387500", "220108.847500", "220109.307500", "220109.767500", "220110.227500", "220110.687500", "220111.147500", "220111.607500", "220112.067500", "220112.527500", "220112.987500", "220113.447500", "220113.907500", "220114.367500", "220114.827500", "220115.287500", "220115.747500", "220116.207500", "220116.667500", "220117.127500", "220117.587500", "220118.047500", "220118.507500", "220118.967500", "220119.427500", "220119.887500", "220120.347500", "220120.807500", "220121.267500", "220121.727500", "220122.187500", "220122.647500", "220123.107500", "220123.567500", "220124.027500", "220124.487500", "220124.947500", "220125.407500", "220125.867500", "220126.327500", "220126.787500", "220127.247500", "220127.707500", "220128.167500", "220128.627500", "220129.087500", "220129.547500", "220130.007500", "220130.467500", "220130.927500", "220131.387500", "220131.847500", "220132.307500", "220132.767500", "220133.227500", "220133.687500", "220134.147500", "220134.607500", "220135.067500", "220135.527500", "220135.987500", "220136.447500", "220136.907500", "220137.367500", "220137.827500", "220138.287500", "220138.747500", "220139.207500", "220139.667500", "220140.127500", "220140.587500", "220141.047500", "220141.507500", "220141.967500", "220142.427500", "220142.887500", "220143.347500", "220143.807500", "220144.267500", "220144.727500", "220145.187500", "220145.647500", "220146.107500", "220146.567500", "220147.027500", "220147.487500", "220147.947500", "220148.407500", "220148.867500", "220149.327500", "220149.787500", "220150.247500", "220150.707500", "220151.167500", "220151.627500", "220152.087500", "220152.547500", "220153.007500", "220153.467500", "220153.927500", "220154.387500", "220154.847500", "220155.307500", "220155.767500", "220156.227500", "220156.687500", "220157.147500", "220157.607500", "220158.067500", "220158.527500", "220158.987500", "220159.447500", "220159.907500", "220200.367500", "220200.827500", "220201.287500", "220201.747500", "220202.207500", "220202.667500", "220203.127500", "220203.587500", "220204.047500", "220204.507500", "220204.967500", "220205.427500", "220205.887500", "220206.347500", "220206.807500", "220207.267500", "220207.727500", "220208.187500", "220208.647500", "220209.107500", "220209.567500", "220210.027500", "220210.487500", "220210.947500", "220211.407500", "220211.867500", "220212.327500", "220212.787500", "220213.247500", "220213.707500", "220214.167500", "220214.627500", "220215.087500", "220215.547500", "220216.007500", "220216.467500", "220216.927500", "220217.387500", "220217.847500", "220218.307500", "220218.767500", "220219.227500", "220219.687500", "220220.147500", "220220.607500", "220221.067500", "220221.527500", "220221.987500", "220222.447500", "220222.907500", "220223.367500", "220223.827500", "220224.287500", "220224.747500", "220225.207500", "220225.667500", "220226.127500", "220226.587500", "220227.047500", "220227.507500", "220227.967500", "220228.427500", "220228.887500", "220229.347500", "220229.807500", "220230.267500", "220230.727500", "220231.187500", "220231.647500", "220232.107500", "220232.567500", "220233.027500", "220233.487500", "220233.947500", "220234.407500", "220234.867500", "220235.327500", "220235.787500", "220236.247500", "220236.707500", "220237.167500", "220237.627500", "220238.087500", "220238.547500", "220239.007500", "220239.467500", "220239.927500", "220240.387500", "220240.847500", "220241.307500", "220241.767500", "220242.227500", "220242.687500", "220243.147500", "220243.607500", "220244.067500", "220244.527500", "220244.987500", "220245.447500", "220245.907500", "220246.367500", "220246.827500", "220247.287500", "220247.747500", "220248.207500", "220248.667500", "220249.127500", "220249.587500", "220250.047500", "220250.507500", "220250.967500", "220251.427500", "220251.887500", "220252.347500", "220252.807500", "220253.267500", "220253.727500", "220254.187500", "220254.647500", "220255.107500", "220255.567500", "220256.027500", "220256.487500", "220256.947500", "220257.407500", "220257.867500", "220258.327500", "220258.787500", "220259.247500", "220259.707500", "220300.167500", "220300.627500", "220301.087500", "220301.547500", "220302.007500", "220302.467500", "220302.927500", "220303.387500", "220303.847500", "220304.307500", "220304.767500", "220305.227500", "220305.687500", "220306.147500", "220306.607500", "220307.067500", "220307.527500", "220307.987500", "220308.447500", "220308.907500", "220309.367500", "220309.827500", "220310.287500", "220310.747500", "220311.207500", "220311.667500", "220312.127500", "220312.587500", "220313.047500", "220313.507500", "220313.967500", "220314.427500", "220314.887500", "220315.347500", "220315.807500", "220316.267500", "220316.727500", "220317.187500", "220317.647500", "220318.107500", "220318.567500", "220319.027500", "220319.487500", "220319.947500", "220320.407500", "220320.867500", "220321.327500", "220321.787500", "220322.247500", "220322.707500", "220323.167500", "220323.627500", "220324.087500", "220324.547500", "220325.007500", "220325.467500", "220325.927500", "220326.387500", "220326.847500", "220327.307500", "220327.767500", "220328.227500", "220328.687500", "220329.147500", "220329.607500", "220330.067500", "220330.527500", "220330.987500", "220331.447500", "220331.907500", "220332.367500", "220332.827500", "220333.287500", "220333.747500", "220334.207500", "220334.667500", "220335.127500", "220335.587500", "220336.047500", "220336.507500", "220336.967500", "220337.427500", "220337.887500", "220338.347500", "220338.807500", "220339.267500", "220339.727500", "220340.187500", "220340.647500", "220341.107500", "220341.567500", "220342.027500", "220342.487500", "220342.947500", "220343.407500", "220343.867500", "220344.327500", "220344.787500", "220345.247500", "220345.707500", "220346.167500", "220346.627500", "220347.087500", "220347.547500", "220348.007500", "220348.467500", "220348.927500", "220349.387500", "220349.847500", "220350.307500", "220350.767500", "220351.227500", "220351.687500", "220352.147500", "220352.607500", "220353.067500", "220353.527500", "220353.987500", "220354.447500", "220354.907500", "220355.367500", "220355.827500", "220356.287500", "220356.747500", "220357.207500", "220357.667500", "220358.127500", "220358.587500", "220359.047500", "220359.507500", "220359.967500", "220400.427500", "220400.887500", "220401.347500", "220401.807500", "220402.267500", "220402.727500", "220403.187500", "220403.647500", "220404.107500", "220404.567500", "220405.027500", "220405.487500", "220405.947500", "220406.407500", "220406.867500", "220407.327500", "220407.787500", "220408.247500", "220408.707500", "220409.167500", "220409.627500", "220410.087500", "220410.547500", "220411.007500", "220411.467500", "220411.927500", "220412.387500", "220412.847500", "220413.307500", "220413.767500", "220414.227500", "220414.687500", "220415.147500", "220415.607500", "220416.067500", "220416.527500", "220416.987500", "220417.447500", "220417.907500", "220418.367500", "220418.827500", "220419.287500", "220419.747500", "220420.207500", "220420.667500", "220421.127500", "220421.587500", "220422.047500", "220422.507500", "220422.967500", "220423.427500", "220423.887500", "220424.347500", "220424.807500", "220425.267500", "220425.727500", "220426.187500", "220426.647500", "220427.107500", "220427.567500", "220428.027500", "220428.487500", "220428.947500", "220429.407500", "220429.867500", "220430.327500", "220430.787500", "220431.247500", "220431.707500", "220432.167500", "220432.627500", "220433.087500", "220433.547500", "220434.007500", "220434.467500", "220434.927500", "220435.387500", "220435.847500", "220436.307500", "220436.767500", "220437.227500", "220437.687500", "220438.147500", "220438.607500", "220439.067500", "220439.527500", "220439.987500", "220440.447500", "220440.907500", "220441.367500", "220441.827500", "220442.287500", "220442.747500", "220443.207500", "220443.667500", "220444.127500", "220444.587500", "220445.047500", "220445.507500", "220445.967500", "220446.427500", "220446.887500", "220447.347500", "220447.807500", "220448.267500", "220448.727500", "220449.187500", "220449.647500", "220450.107500", "220450.567500", "220451.027500", "220451.487500", "220451.947500", "220452.407500", "220452.867500", "220453.327500", "220453.787500", "220454.247500", "220454.707500", "220455.167500", "220455.627500", "220456.087500", "220456.547500", "220457.007500", "220457.467500", "220457.927500", "220458.387500", "220458.847500", "220459.307500", "220459.767500", "220500.227500", "220500.687500", "220501.147500", "220501.607500", "220502.067500", "220502.527500", "220502.987500", "220503.447500", "220503.907500", "220504.367500", "220504.827500", "220505.287500", "220505.747500", "220506.207500", "220506.667500", "220507.127500", "220507.587500", "220508.047500", "220508.507500", "220508.967500", "220509.427500", "220509.887500", "220510.347500", "220510.807500", "220511.267500", "220511.727500", "220512.187500", "220512.647500", "220513.107500", "220513.567500", "220514.027500", "220514.487500", "220514.947500", "220515.407500", "220515.867500", "220516.327500", "220516.787500", "220517.247500", "220517.707500", "220518.167500", "220518.627500", "220519.087500", "220519.547500", "220520.007500", "220520.467500", "220520.927500", "220521.387500", "220521.847500", "220522.307500", "220522.767500", "220523.227500", "220523.687500", "220524.147500", "220524.607500", "220525.067500", "220525.527500", "220525.987500", "220526.447500", "220526.907500", "220527.367500", "220527.827500", "220528.287500", "220528.747500", "220529.207500", "220529.667500", "220530.127500", "220530.587500", "220531.047500", "220531.507500", "220531.967500", "220532.427500", "220532.887500", "220533.347500", "220533.807500", "220534.267500", "220534.727500", "220535.187500", "220535.647500", "220536.107500", "220536.567500", "220537.027500", "220537.487500", "220537.947500", "220538.407500", "220538.867500", "220539.327500", "220539.787500", "220540.247500", "220540.707500", "220541.167500", "220541.627500", "220542.087500", "220542.547500", "220543.007500", "220543.467500", "220543.927500", "220544.387500", "220544.847500", "220545.307500", "220545.767500", "220546.227500", "220546.687500", "220547.147500", "220547.607500", "220548.067500", "220548.527500", "220548.987500", "220549.447500", "220549.907500", "220550.367500", "220550.827500", "220551.287500", "220551.747500", "220552.207500", "220552.667500", "220553.127500", "220553.587500", "220554.047500", "220554.507500", "220554.967500", "220555.427500", "220555.887500", "220556.347500", "220556.807500", "220557.267500", "220557.727500", "220558.187500", "220558.647500", "220559.107500", "220559.567500", "220600.027500", "220600.487500", "220600.947500", "220601.407500", "220601.867500", "220602.327500", "220602.787500", "220603.247500", "220603.707500", "220604.167500", "220604.627500", "220605.087500", "220605.547500", "220606.007500", "220606.467500", "220606.927500", "220607.387500", "220607.847500", "220608.307500", "220608.767500", "220609.227500", "220609.687500", "220610.147500", "220610.607500", "220611.067500", "220611.527500", "220611.987500", "220612.447500", "220612.907500", "220613.367500", "220613.827500", "220614.287500", "220614.747500", "220615.207500", "220615.667500", "220616.127500", "220616.587500", "220617.047500", "220617.507500", "220617.967500", "220618.427500", "220618.887500", "220619.347500", "220619.807500", "220620.267500", "220620.727500", "220621.187500", "220621.647500", "220622.107500", "220622.567500", "220623.027500", "220623.487500", "220623.947500", "220624.407500", "220624.867500", "220625.327500", "220625.787500", "220626.247500", "220626.707500", "220627.167500", "220627.627500", "220628.087500", "220628.547500", "220629.007500", "220629.467500", "220629.927500", "220630.387500", "220630.847500", "220631.307500", "220631.767500", "220632.227500", "220632.687500", "220633.147500", "220633.607500", "220634.067500", "220634.527500", "220634.987500", "220635.447500", "220635.907500", "220636.367500", "220636.827500", "220637.287500", "220637.747500", "220638.207500", "220638.667500", "220639.127500", "220639.587500", "220640.047500", "220640.507500", "220640.967500", "220641.427500", "220641.887500", "220642.347500", "220642.807500", "220643.267500", "220643.727500", "220644.187500", "220644.647500", "220645.107500", "220645.567500", "220646.027500", "220646.487500", "220646.947500", "220647.407500", "220647.867500", "220648.327500", "220648.787500", "220649.247500", "220649.707500", "220650.167500", "220650.627500", "220651.087500", "220651.547500", "220652.007500", "220652.467500", "220652.927500", "220653.387500", "220653.847500", "220654.307500", "220654.767500", "220655.227500", "220655.687500", "220656.147500", "220656.607500", "220657.067500", "220657.527500", "220657.987500", "220658.447500", "220658.907500", "220659.367500", "220659.827500", "220700.287500", "220700.747500", "220701.207500", "220701.667500", "220702.127500", "220702.587500", "220703.047500", "220703.507500", "220703.967500", "220704.427500", "220704.887500", "220705.347500", "220705.807500", "220706.267500", "220706.727500", "220707.187500", "220707.647500", "220708.107500", "220708.567500", "220709.027500", "220709.487500", "220709.947500", "220710.407500", "220710.867500", "220711.327500", "220711.787500", "220712.247500", "220712.707500", "220713.167500", "220713.627500", "220714.087500", "220714.547500", "220715.007500", "220715.467500", "220715.927500", "220716.387500", "220716.847500", "220717.307500", "220717.767500", "220718.227500", "220718.687500", "220719.147500", "220719.607500", "220720.067500", "220720.527500", "220720.987500", "220721.447500", "220721.907500", "220722.367500", "220722.827500", "220723.287500", "220723.747500", "220724.207500", "220724.667500", "220725.127500", "220725.587500", "220726.047500", "220726.507500", "220726.967500", "220727.427500", "220727.887500", "220728.347500", "220728.807500", "220729.267500", "220729.727500", "220730.187500", "220730.647500", "220731.107500", "220731.567500", "220732.027500", "220732.487500", "220732.947500", "220733.407500", "220733.867500", "220734.327500", "220734.787500", "220735.247500"],
