{
  "AcquisitionMatrixPE": 82,
  "AcquisitionNumber": 1,
  "AcquisitionTime": "22:25:18.365000",
  "BandwidthPerPixelPhaseEncode": 24.888,
  "BaseResolution": 82,
  "BodyPartExamined": "BRAIN",
  "ConsistencyInfo": "N4_VE11E_LATEST_20181129",
  "ConversionSoftware": "dcm2niix",
  "ConversionSoftwareVersion": "v1.0.20201102",
  "DerivedVendorReportedEchoSpacing": 0.00049,
  "DeviceSerialNumber": "66112",
  "DwellTime": 2e-06,
  "EchoTime": 0.0272,
  "EchoTrainLength": 82,
  "EffectiveEchoSpacing": 0.00049,
  "FlipAngle": 44,
  "ImageComments": "Unaliased MB8/PE3",
  "ImageOrientationPatientDICOM": [0.99672, 0.0737048, 0.0334294, -0.0770434, 0.990599, 0.113036],
  "ImageType": [
    "ORIGINAL",
    "PRIMARY",
    "M",
    "MB",
    "ND",
    "NORM",
    "MOSAIC"
],
  "ImagingFrequency": 123.252,
  "InPlanePhaseEncodingDirectionDICOM": "COL",
  "InstitutionAddress": "Maynard 3,Hanover,NH,US,03755",
  "InstitutionName": "Dartmouth College - PBS",
  "InstitutionalDepartmentName": "Department",
  "MRAcquisitionType": "2D",
  "MagneticFieldStrength": 3,
  "Manufacturer": "Siemens",
  "ManufacturersModelName": "Prisma",
  "Modality": "MR",
  "MultibandAccelerationFactor": 8,
  "PartialFourier": 1,
  "PatientPosition": "HFS",
  "PercentPhaseFOV": 100,
  "PercentSampling": 100,
  "PhaseEncodingDirection": "j-",
  "PhaseEncodingSteps": 82,
  "PhaseResolution": 1,
  "PixelBandwidth": 3050,
  "ProcedureStepDescription": "Wager_Wager^1076_spacetop",
  "ProtocolName": "func_run-05_task-social_acq-ap-mb8",
  "PulseSequenceDetails": "%CustomerSeq%\\cmrr_mbep2d_bold",
  "ReceiveCoilActiveElements": "HEA;HEP",
  "ReceiveCoilName": "Head_32",
  "ReconMatrixPE": 82,
  "RepetitionTime": 0.46,
  "SAR": 0.108354,
  "ScanOptions": "FS",
  "ScanningSequence": "EP",
  "SequenceName": "epfid2d1_82",
  "SequenceVariant": "SK\\SS",
  "SeriesDescription": "func_run-05_task-social_acq-ap-mb8",
  "SeriesNumber": 20,
  "ShimSetting": [4170, -7780, -7204, 618, -4, -321, 152, 9],
  "SliceThickness": 2.7,
  "SliceTiming": [0, 0.25, 0.0625, 0.315, 0.125, 0.3775, 0.1875, 0, 0.25, 0.0625, 0.315, 0.125, 0.3775, 0.1875, 0, 0.25, 0.0625, 0.315, 0.125, 0.3775, 0.1875, 0, 0.25, 0.0625, 0.315, 0.125, 0.3775, 0.1875, 0, 0.25, 0.0625, 0.315, 0.125, 0.3775, 0.1875, 0, 0.25, 0.0625, 0.315, 0.125, 0.3775, 0.1875, 0, 0.25, 0.0625, 0.315, 0.125, 0.3775, 0.1875, 0, 0.25, 0.0625, 0.315, 0.125, 0.3775, 0.1875],
  "SoftwareVersions": "syngo MR E11",
  "SpacingBetweenSlices": 2.7,
  "StationName": "AWP66112",
  "TaskName": "social",
  "TotalReadoutTime": 0.03969,
  "TxRefAmp": 252.803,
  "WipMemBlock": "6391c9dd-ea05-4dbd-b1a7-7cb92f117903||Sequence: R016 ve11e/master r/434b28f1; Aug  7 2019 18:53:46 by eja",
  "dcmmeta_affine": [
    [-2.674125909805298, -0.20670177042484283, 0.06691629439592361, 118.68367767333984],
    [-0.19774459302425385, 2.657705783843994, 0.31115010380744934, -89.28997802734375],
    [0.08968855440616608, -0.3032675087451935, 2.6811766624450684, -53.45760726928711],
    [0.0, 0.0, 0.0, 1.0]
],
  "dcmmeta_reorient_transform": [
    [0.0, -1.0, 0.0, 81.0],
    [1.0, 0.0, 0.0, 0.0],
    [0.0, 0.0, 1.0, 0.0],
    [0.0, 0.0, 0.0, 1.0]
],
  "dcmmeta_shape": [82, 82, 56, 872],
  "dcmmeta_slice_dim": 2,
  "dcmmeta_version": 0.6,
  "global": {
    "const": {
      "AccessionNumber": "A004080",
      "AcquisitionMatrix": [82, 0, 0, 82],
      "AngioFlag": "N",
      "BitsAllocated": 16,
      "BitsStored": 16,
      "BodyPartExamined": "BRAIN",
      "Columns": 656,
      "EchoNumbers": 1,
      "EchoTime": 27.2,
      "EchoTrainLength": 82,
      "FlipAngle": 44.0,
      "HighBit": 15,
      "ImageOrientationPatient": [0.99671965934614, 0.07370480275771, 0.03342936917384, -0.077043386095, 0.99059939641771, 0.11303606714622],
      "ImagePositionPatient": [-810.09158121148, -945.49843842955, -190.80066262666],
      "ImageType": [
        "ORIGINAL",
        "PRIMARY",
        "M",
        "MB",
        "ND",
        "NORM",
        "MOSAIC"
],
      "ImagedNucleus": "1H",
      "ImagingFrequency": 123.252178,
      "InPlanePhaseEncodingDirection": "COL",
      "MRAcquisitionType": "2D",
      "MagneticFieldStrength": 3.0,
      "Manufacturer": "SIEMENS",
      "ManufacturerModelName": "Prisma",
      "Modality": "MR",
      "NumberOfAverages": 1.0,
      "NumberOfPhaseEncodingSteps": 82,
      "PercentPhaseFieldOfView": 100.0,
      "PercentSampling": 100.0,
      "PerformedProcedureStepStartTime": "213338.133000",
      "PhotometricInterpretation": "MONOCHROME2",
      "PixelBandwidth": 3050.0,
      "PixelRepresentation": 0,
      "PixelSpacing": [2.6829268932343, 2.6829268932343],
      "ProtocolName": "func_run-05_task-social_acq-ap-mb8",
      "RepetitionTime": 460.0,
      "Rows": 656,
      "SAR": 0.10835409362463,
      "SamplesPerPixel": 1,
      "ScanOptions": "FS",
      "ScanningSequence": "EP",
      "SequenceName": "epfid2d1_82",
      "SequenceVariant": [
        "SK",
        "SS"
],
      "SeriesDescription": "func_run-05_task-social_acq-ap-mb8",
      "SeriesNumber": 20,
      "SeriesTime": "222529.472000",
      "SliceLocation": -60.433332277056,
      "SliceThickness": 2.7000000476837,
      "SmallestImagePixelValue": 0,
      "SoftwareVersions": "syngo MR E11",
      "SpacingBetweenSlices": 2.699999976983,
      "SpecificCharacterSet": "ISO_IR 100",
      "StudyID": "1",
      "StudyTime": "213338.068000",
      "TransmitCoilName": "Body",
      "VariableFlipAngleFlag": "N",
      "WindowCenterWidthExplanation": "Algo1"
    },
    "slices": {}
  },
  "time": {
    "samples": {
      "AcquisitionNumber": [1, 2, 3, 4, 5, 6, 7, 8, 9, 10, 11, 12, 13, 14, 15, 16, 17, 18, 19, 20, 21, 22, 23, 24, 25, 26, 27, 28, 29, 30, 31, 32, 33, 34, 35, 36, 37, 38, 39, 40, 41, 42, 43, 44, 45, 46, 47, 48, 49, 50, 51, 52, 53, 54, 55, 56, 57, 58, 59, 60, 61, 62, 63, 64, 65, 66, 67, 68, 69, 70, 71, 72, 73, 74, 75, 76, 77, 78, 79, 80, 81, 82, 83, 84, 85, 86, 87, 88, 89, 90, 91, 92, 93, 94, 95, 96, 97, 98, 99, 100, 101, 102, 103, 104, 105, 106, 107, 108, 109, 110, 111, 112, 113, 114, 115, 116, 117, 118, 119, 120, 121, 122, 123, 124, 125, 126, 127, 128, 129, 130, 131, 132, 133, 134, 135, 136, 137, 138, 139, 140, 141, 142, 143, 144, 145, 146, 147, 148, 149, 150, 151, 152, 153, 154, 155, 156, 157, 158, 159, 160, 161, 162, 163, 164, 165, 166, 167, 168, 169, 170, 171, 172, 173, 174, 175, 176, 177, 178, 179, 180, 181, 182, 183, 184, 185, 186, 187, 188, 189, 190, 191, 192, 193, 194, 195, 196, 197, 198, 199, 200, 201, 202, 203, 204, 205, 206, 207, 208, 209, 210, 211, 212, 213, 214, 215, 216, 217, 218, 219, 220, 221, 222, 223, 224, 225, 226, 227, 228, 229, 230, 231, 232, 233, 234, 235, 236, 237, 238, 239, 240, 241, 242, 243, 244, 245, 246, 247, 248, 249, 250, 251, 252, 253, 254, 255, 256, 257, 258, 259, 260, 261, 262, 263, 264, 265, 266, 267, 268, 269, 270, 271, 272, 273, 274, 275, 276, 277, 278, 279, 280, 281, 282, 283, 284, 285, 286, 287, 288, 289, 290, 291, 292, 293, 294, 295, 296, 297, 298, 299, 300, 301, 302, 303, 304, 305, 306, 307, 308, 309, 310, 311, 312, 313, 314, 315, 316, 317, 318, 319, 320, 321, 322, 323, 324, 325, 326, 327, 328, 329, 330, 331, 332, 333, 334, 335, 336, 337, 338, 339, 340, 341, 342, 343, 344, 345, 346, 347, 348, 349, 350, 351, 352, 353, 354, 355, 356, 357, 358, 359, 360, 361, 362, 363, 364, 365, 366, 367, 368, 369, 370, 371, 372, 373, 374, 375, 376, 377, 378, 379, 380, 381, 382, 383, 384, 385, 386, 387, 388, 389, 390, 391, 392, 393, 394, 395, 396, 397, 398, 399, 400, 401, 402, 403, 404, 405, 406, 407, 408, 409, 410, 411, 412, 413, 414, 415, 416, 417, 418, 419, 420, 421, 422, 423, 424, 425, 426, 427, 428, 429, 430, 431, 432, 433, 434, 435, 436, 437, 438, 439, 440, 441, 442, 443, 444, 445, 446, 447, 448, 449, 450, 451, 452, 453, 454, 455, 456, 457, 458, 459, 460, 461, 462, 463, 464, 465, 466, 467, 468, 469, 470, 471, 472, 473, 474, 475, 476, 477, 478, 479, 480, 481, 482, 483, 484, 485, 486, 487, 488, 489, 490, 491, 492, 493, 494, 495, 496, 497, 498, 499, 500, 501, 502, 503, 504, 505, 506, 507, 508, 509, 510, 511, 512, 513, 514, 515, 516, 517, 518, 519, 520, 521, 522, 523, 524, 525, 526, 527, 528, 529, 530, 531, 532, 533, 534, 535, 536, 537, 538, 539, 540, 541, 542, 543, 544, 545, 546, 547, 548, 549, 550, 551, 552, 553, 554, 555, 556, 557, 558, 559, 560, 561, 562, 563, 564, 565, 566, 567, 568, 569, 570, 571, 572, 573, 574, 575, 576, 577, 578, 579, 580, 581, 582, 583, 584, 585, 586, 587, 588, 589, 590, 591, 592, 593, 594, 595, 596, 597, 598, 599, 600, 601, 602, 603, 604, 605, 606, 607, 608, 609, 610, 611, 612, 613, 614, 615, 616, 617, 618, 619, 620, 621, 622, 623, 624, 625, 626, 627, 628, 629, 630, 631, 632, 633, 634, 635, 636, 637, 638, 639, 640, 641, 642, 643, 644, 645, 646, 647, 648, 649, 650, 651, 652, 653, 654, 655, 656, 657, 658, 659, 660, 661, 662, 663, 664, 665, 666, 667, 668, 669, 670, 671, 672, 673, 674, 675, 676, 677, 678, 679, 680, 681, 682, 683, 684, 685, 686, 687, 688, 689, 690, 691, 692, 693, 694, 695, 696, 697, 698, 699, 700, 701, 702, 703, 704, 705, 706, 707, 708, 709, 710, 711, 712, 713, 714, 715, 716, 717, 718, 719, 720, 721, 722, 723, 724, 725, 726, 727, 728, 729, 730, 731, 732, 733, 734, 735, 736, 737, 738, 739, 740, 741, 742, 743, 744, 745, 746, 747, 748, 749, 750, 751, 752, 753, 754, 755, 756, 757, 758, 759, 760, 761, 762, 763, 764, 765, 766, 767, 768, 769, 770, 771, 772, 773, 774, 775, 776, 777, 778, 779, 780, 781, 782, 783, 784, 785, 786, 787, 788, 789, 790, 791, 792, 793, 794, 795, 796, 797, 798, 799, 800, 801, 802, 803, 804, 805, 806, 807, 808, 809, 810, 811, 812, 813, 814, 815, 816, 817, 818, 819, 820, 821, 822, 823, 824, 825, 826, 827, 828, 829, 830, 831, 832, 833, 834, 835, 836, 837, 838, 839, 840, 841, 842, 843, 844, 845, 846, 847, 848, 849, 850, 851, 852, 853, 854, 855, 856, 857, 858, 859, 860, 861, 862, 863, 864, 865, 866, 867, 868, 869, 870, 871, 872],
      "AcquisitionTime": ["222518.365000", "222518.825000", "222519.285000", "222519.745000", "222520.205000", "222520.665000", "222521.125000", "222521.585000", "222522.045000", "222522.505000", "222522.965000", "222523.425000", "222523.885000", "222524.345000", "222524.805000", "222525.265000", "222525.725000", "222526.185000", "222526.645000", "222527.105000", "222527.565000", "222528.025000", "222528.485000", "222528.945000", "222529.405000", "222529.865000", "222530.325000", "222530.785000", "222531.245000", "222531.705000", "222532.165000", "222532.625000", "222533.085000", "222533.545000", "222534.005000", "222534.465000", "222534.925000", "222535.385000", "222535.845000", "222536.305000", "222536.765000", "222537.225000", "222537.685000", "222538.145000", "222538.605000", "222539.065000", "222539.525000", "222539.985000", "222540.445000", "222540.905000", "222541.365000", "222541.825000", "222542.285000", "222542.745000", "222543.205000", "222543.665000", "222544.125000", "222544.585000", "222545.045000", "222545.505000", "222545.965000", "222546.425000", "222546.885000", "222547.345000", "222547.805000", "222548.265000", "222548.725000", "222549.185000", "222549.645000", "222550.105000", "222550.565000", "222551.025000", "222551.485000", "222551.945000", "222552.405000", "222552.865000", "222553.325000", "222553.785000", "222554.245000", "222554.705000", "222555.165000", "222555.625000", "222556.085000", "222556.545000", "222557.005000", "222557.465000", "222557.925000", "222558.385000", "222558.845000", "222559.305000", "222559.765000", "222600.225000", "222600.685000", "222601.145000", "222601.605000", "222602.065000", "222602.525000", "222602.985000", "222603.445000", "222603.905000", "222604.365000", "222604.825000", "222605.285000", "222605.745000", "222606.205000", "222606.665000", "222607.125000", "222607.585000", "222608.045000", "222608.505000", "222608.965000", "222609.425000", "222609.885000", "222610.345000", "222610.805000", "222611.265000", "222611.725000", "222612.185000", "222612.645000", "222613.105000", "222613.565000", "222614.025000", "222614.485000", "222614.945000", "222615.405000", "222615.865000", "222616.325000", "222616.785000", "222617.245000", "222617.705000", "222618.165000", "222618.625000", "222619.085000", "222619.545000", "222620.005000", "222620.465000", "222620.925000", "222621.385000", "222621.845000", "222622.305000", "222622.765000", "222623.225000", "222623.685000", "222624.145000", "222624.605000", "222625.065000", "222625.525000", "222625.985000", "222626.445000", "222626.905000", "222627.365000", "222627.825000", "222628.285000", "222628.745000", "222629.205000", "222629.665000", "222630.125000", "222630.585000", "222631.045000", "222631.505000", "222631.965000", "222632.425000", "222632.885000", "222633.345000", "222633.805000", "222634.265000", "222634.725000", "222635.185000", "222635.645000", "222636.105000", "222636.565000", "222637.025000", "222637.485000", "222637.945000", "222638.405000", "222638.865000", "222639.325000", "222639.785000", "222640.245000", "222640.705000", "222641.165000", "222641.625000", "222642.085000", "222642.545000", "222643.005000", "222643.465000", "222643.925000", "222644.385000", "222644.845000", "222645.305000", "222645.765000", "222646.225000", "222646.685000", "222647.145000", "222647.605000", "222648.065000", "222648.525000", "222648.985000", "222649.445000", "222649.905000", "222650.365000", "222650.825000", "222651.285000", "222651.745000", "222652.205000", "222652.665000", "222653.125000", "222653.585000", "222654.045000", "222654.505000", "222654.965000", "222655.425000", "222655.885000", "222656.345000", "222656.805000", "222657.265000", "222657.725000", "222658.185000", "222658.645000", "222659.105000", "222659.565000", "222700.025000", "222700.485000", "222700.945000", "222701.405000", "222701.865000", "222702.325000", "222702.785000", "222703.245000", "222703.705000", "222704.165000", "222704.625000", "222705.085000", "222705.545000", "222706.005000", "222706.465000", "222706.925000", "222707.385000", "222707.845000", "222708.305000", "222708.765000", "222709.225000", "222709.685000", "222710.145000", "222710.605000", "222711.065000", "222711.525000", "222711.985000", "222712.445000", "222712.905000", "222713.365000", "222713.825000", "222714.285000", "222714.745000", "222715.205000", "222715.665000", "222716.125000", "222716.585000", "222717.045000", "222717.505000", "222717.965000", "222718.425000", "222718.885000", "222719.345000", "222719.805000", "222720.265000", "222720.725000", "222721.185000", "222721.645000", "222722.105000", "222722.565000", "222723.025000", "222723.485000", "222723.945000", "222724.405000", "222724.865000", "222725.325000", "222725.785000", "222726.245000", "222726.705000", "222727.165000", "222727.625000", "222728.085000", "222728.545000", "222729.005000", "222729.465000", "222729.925000", "222730.385000", "222730.845000", "222731.305000", "222731.765000", "222732.225000", "222732.685000", "222733.145000", "222733.605000", "222734.065000", "222734.525000", "222734.985000", "222735.445000", "222735.905000", "222736.365000", "222736.825000", "222737.285000", "222737.745000", "222738.205000", "222738.665000", "222739.125000", "222739.585000", "222740.045000", "222740.505000", "222740.965000", "222741.425000", "222741.885000", "222742.345000", "222742.805000", "222743.265000", "222743.725000", "222744.185000", "222744.645000", "222745.105000", "222745.565000", "222746.025000", "222746.485000", "222746.945000", "222747.405000", "222747.865000", "222748.325000", "222748.785000", "222749.245000", "222749.705000", "222750.165000", "222750.625000", "222751.085000", "222751.545000", "222752.005000", "222752.465000", "222752.925000", "222753.385000", "222753.845000", "222754.305000", "222754.765000", "222755.225000", "222755.685000", "222756.145000", "222756.605000", "222757.065000", "222757.525000", "222757.985000", "222758.445000", "222758.905000", "222759.365000", "222759.825000", "222800.285000", "222800.745000", "222801.205000", "222801.665000", "222802.125000", "222802.585000", "222803.045000", "222803.505000", "222803.965000", "222804.425000", "222804.885000", "222805.345000", "222805.805000", "222806.265000", "222806.725000", "222807.185000", "222807.645000", "222808.105000", "222808.565000", "222809.025000", "222809.485000", "222809.945000", "222810.405000", "222810.865000", "222811.325000", "222811.785000", "222812.245000", "222812.705000", "222813.165000", "222813.625000", "222814.085000", "222814.545000", "222815.005000", "222815.465000", "222815.925000", "222816.385000", "222816.845000", "222817.305000", "222817.765000", "222818.225000", "222818.685000", "222819.145000", "222819.605000", "222820.065000", "222820.525000", "222820.985000", "222821.445000", "222821.905000", "222822.365000", "222822.825000", "222823.285000", "222823.745000", "222824.205000", "222824.665000", "222825.125000", "222825.585000", "222826.045000", "222826.505000", "222826.965000", "222827.425000", "222827.885000", "222828.345000", "222828.805000", "222829.265000", "222829.725000", "222830.185000", "222830.645000", "222831.105000", "222831.565000", "222832.025000", "222832.485000", "222832.945000", "222833.405000", "222833.865000", "222834.325000", "222834.785000", "222835.245000", "222835.705000", "222836.165000", "222836.625000", "222837.085000", "222837.545000", "222838.005000", "222838.465000", "222838.925000", "222839.385000", "222839.845000", "222840.305000", "222840.765000", "222841.225000", "222841.685000", "222842.145000", "222842.605000", "222843.065000", "222843.525000", "222843.985000", "222844.445000", "222844.905000", "222845.365000", "222845.825000", "222846.285000", "222846.745000", "222847.205000", "222847.665000", "222848.125000", "222848.585000", "222849.045000", "222849.505000", "222849.965000", "222850.425000", "222850.885000", "222851.345000", "222851.805000", "222852.265000", "222852.725000", "222853.185000", "222853.645000", "222854.105000", "222854.565000", "222855.025000", "222855.485000", "222855.945000", "222856.405000", "222856.865000", "222857.325000", "222857.785000", "222858.245000", "222858.705000", "222859.165000", "222859.625000", "222900.085000", "222900.545000", "222901.005000", "222901.465000", "222901.925000", "222902.385000", "222902.845000", "222903.305000", "222903.765000", "222904.225000", "222904.685000", "222905.145000", "222905.605000", "222906.065000", "222906.525000", "222906.985000", "222907.445000", "222907.905000", "222908.365000", "222908.825000", "222909.285000", "222909.745000", "222910.205000", "222910.665000", "222911.125000", "222911.585000", "222912.045000", "222912.505000", "222912.965000", "222913.425000", "222913.885000", "222914.345000", "222914.805000", "222915.265000", "222915.725000", "222916.185000", "222916.645000", "222917.105000", "222917.565000", "222918.025000", "222918.485000", "222918.945000", "222919.405000", "222919.865000", "222920.325000", "222920.785000", "222921.245000", "222921.705000", "222922.165000", "222922.625000", "222923.085000", "222923.545000", "222924.005000", "222924.465000", "222924.925000", "222925.385000", "222925.845000", "222926.305000", "222926.765000", "222927.225000", "222927.685000", "222928.145000", "222928.605000", "222929.065000", "222929.525000", "222929.985000", "222930.445000", "222930.905000", "222931.365000", "222931.825000", "222932.285000", "222932.745000", "222933.205000", "222933.665000", "222934.125000", "222934.585000", "222935.045000", "222935.505000", "222935.965000", "222936.425000", "222936.885000", "222937.345000", "222937.805000", "222938.265000", "222938.725000", "222939.185000", "222939.645000", "222940.105000", "222940.565000", "222941.025000", "222941.485000", "222941.945000", "222942.405000", "222942.865000", "222943.325000", "222943.785000", "222944.245000", "222944.705000", "222945.165000", "222945.625000", "222946.085000", "222946.545000", "222947.005000", "222947.465000", "222947.925000", "222948.385000", "222948.845000", "222949.305000", "222949.765000", "222950.225000", "222950.685000", "222951.145000", "222951.605000", "222952.065000", "222952.525000", "222952.985000", "222953.445000", "222953.905000", "222954.365000", "222954.825000", "222955.285000", "222955.745000", "222956.205000", "222956.665000", "222957.125000", "222957.585000", "222958.045000", "222958.505000", "222958.965000", "222959.425000", "222959.885000", "223000.345000", "223000.805000", "223001.265000", "223001.725000", "223002.185000", "223002.645000", "223003.105000", "223003.565000", "223004.025000", "223004.485000", "223004.945000", "223005.405000", "223005.865000", "223006.325000", "223006.785000", "223007.245000", "223007.705000", "223008.165000", "223008.625000", "223009.085000", "223009.545000", "223010.005000", "223010.465000", "223010.925000", "223011.385000", "223011.845000", "223012.305000", "223012.765000", "223013.225000", "223013.685000", "223014.145000", "223014.605000", "223015.065000", "223015.525000", "223015.985000", "223016.445000", "223016.905000", "223017.365000", "223017.825000", "223018.285000", "223018.745000", "223019.205000", "223019.665000", "223020.125000", "223020.585000", "223021.045000", "223021.505000", "223021.965000", "223022.425000", "223022.885000", "223023.345000", "223023.805000", "223024.265000", "223024.725000", "223025.185000", "223025.645000", "223026.105000", "223026.565000", "223027.025000", "223027.485000", "223027.945000", "223028.405000", "223028.865000", "223029.325000", "223029.785000", "223030.245000", "223030.705000", "223031.165000", "223031.625000", "223032.085000", "223032.545000", "223033.005000", "223033.465000", "223033.925000", "223034.385000", "223034.845000", "223035.305000", "223035.765000", "223036.225000", "223036.685000", "223037.145000", "223037.605000", "223038.065000", "223038.525000", "223038.985000", "223039.445000", "223039.905000", "223040.365000", "223040.825000", "223041.285000", "223041.745000", "223042.205000", "223042.665000", "223043.125000", "223043.585000", "223044.045000", "223044.505000", "223044.965000", "223045.425000", "223045.885000", "223046.345000", "223046.805000", "223047.265000", "223047.725000", "223048.185000", "223048.645000", "223049.105000", "223049.565000", "223050.025000", "223050.485000", "223050.945000", "223051.405000", "223051.865000", "223052.325000", "223052.785000", "223053.245000", "223053.705000", "223054.165000", "223054.625000", "223055.085000", "223055.545000", "223056.005000", "223056.465000", "223056.925000", "223057.385000", "223057.845000", "223058.305000", "223058.765000", "223059.225000", "223059.685000", "223100.145000", "223100.605000", "223101.065000", "223101.525000", "223101.985000", "223102.445000", "223102.905000", "223103.365000", "223103.825000", "223104.285000", "223104.745000", "223105.205000", "223105.665000", "223106.125000", "223106.585000", "223107.045000", "223107.505000", "223107.965000", "223108.425000", "223108.885000", "223109.345000", "223109.805000", "223110.265000", "223110.725000", "223111.185000", "223111.645000", "223112.105000", "223112.565000", "223113.025000", "223113.485000", "223113.945000", "223114.405000", "223114.865000", "223115.325000", "223115.785000", "223116.245000", "223116.705000", "223117.165000", "223117.625000", "223118.085000", "223118.545000", "223119.005000", "223119.465000", "223119.925000", "223120.385000", "223120.845000", "223121.305000", "223121.765000", "223122.225000", "223122.685000", "223123.145000", "223123.605000", "223124.065000", "223124.525000", "223124.985000", "223125.445000", "223125.905000", "223126.365000", "223126.825000", "223127.285000", "223127.745000", "223128.205000", "223128.665000", "223129.125000", "223129.585000", "223130.045000", "223130.505000", "223130.965000", "223131.425000", "223131.885000", "223132.345000", "223132.805000", "223133.265000", "223133.725000", "223134.185000", "223134.645000", "223135.105000", "223135.565000", "223136.025000", "223136.485000", "223136.945000", "223137.405000", "223137.865000", "223138.325000", "223138.785000", "223139.245000", "223139.705000", "223140.165000", "223140.625000", "223141.085000", "223141.545000", "223142.005000", "223142.465000", "223142.925000", "223143.385000", "223143.845000", "223144.305000", "223144.765000", "223145.225000", "223145.685000", "223146.145000", "223146.605000", "223147.065000", "223147.525000", "223147.985000", "223148.445000", "223148.905000", "223149.365000", "223149.825000", "223150.285000", "223150.745000", "223151.205000", "223151.665000", "223152.125000", "223152.585000", "223153.045000", "223153.505000", "223153.965000", "223154.425000", "223154.885000", "223155.345000", "223155.805000", "223156.265000", "223156.725000", "223157.185000", "223157.645000", "223158.105000", "223158.565000", "223159.025000"],
