{
  "AcquisitionMatrixPE": 82,
  "AcquisitionNumber": 1,
  "AcquisitionTime": "22:15:24.465000",
  "BandwidthPerPixelPhaseEncode": 24.888,
  "BaseResolution": 82,
  "BodyPartExamined": "BRAIN",
  "ConsistencyInfo": "N4_VE11E_LATEST_20181129",
  "ConversionSoftware": "dcm2niix",
  "ConversionSoftwareVersion": "v1.0.20201102",
  "DerivedVendorReportedEchoSpacing": 0.00049,
  "DeviceSerialNumber": "66112",
  "DwellTime": 2e-06,
  "EchoTime": 0.0272,
  "EchoTrainLength": 82,
  "EffectiveEchoSpacing": 0.00049,
  "FlipAngle": 44,
  "ImageComments": "Unaliased MB8/PE3",
  "ImageOrientationPatientDICOM": [0.99672, 0.0737048, 0.0334294, -0.0770434, 0.990599, 0.113036],
  "ImageType": [
    "ORIGINAL",
    "PRIMARY",
    "M",
    "MB",
    "ND",
    "NORM",
    "MOSAIC"
],
  "ImagingFrequency": 123.252,
  "InPlanePhaseEncodingDirectionDICOM": "COL",
  "InstitutionAddress": "Maynard 3,Hanover,NH,US,03755",
  "InstitutionName": "Dartmouth College - PBS",
  "InstitutionalDepartmentName": "Department",
  "MRAcquisitionType": "2D",
  "MagneticFieldStrength": 3,
  "Manufacturer": "Siemens",
  "ManufacturersModelName": "Prisma",
  "Modality": "MR",
  "MultibandAccelerationFactor": 8,
  "PartialFourier": 1,
  "PatientPosition": "HFS",
  "PercentPhaseFOV": 100,
  "PercentSampling": 100,
  "PhaseEncodingDirection": "j-",
  "PhaseEncodingSteps": 82,
  "PhaseResolution": 1,
  "PixelBandwidth": 3050,
  "ProcedureStepDescription": "Wager_Wager^1076_spacetop",
  "ProtocolName": "func_run-04_task-social_acq-ap-mb8",
  "PulseSequenceDetails": "%CustomerSeq%\\cmrr_mbep2d_bold",
  "ReceiveCoilActiveElements": "HEA;HEP",
  "ReceiveCoilName": "Head_32",
  "ReconMatrixPE": 82,
  "RepetitionTime": 0.46,
  "SAR": 0.108354,
  "ScanOptions": "FS",
  "ScanningSequence": "EP",
  "SequenceName": "epfid2d1_82",
  "SequenceVariant": "SK\\SS",
  "SeriesDescription": "func_run-04_task-social_acq-ap-mb8",
  "SeriesNumber": 18,
  "ShimSetting": [4170, -7780, -7204, 618, -4, -321, 152, 9],
  "SliceThickness": 2.7,
  "SliceTiming": [0, 0.2525, 0.065, 0.315, 0.1275, 0.3775, 0.19, 0, 0.2525, 0.065, 0.315, 0.1275, 0.3775, 0.19, 0, 0.2525, 0.065, 0.315, 0.1275, 0.3775, 0.19, 0, 0.2525, 0.065, 0.315, 0.1275, 0.3775, 0.19, 0, 0.2525, 0.065, 0.315, 0.1275, 0.3775, 0.19, 0, 0.2525, 0.065, 0.315, 0.1275, 0.3775, 0.19, 0, 0.2525, 0.065, 0.315, 0.1275, 0.3775, 0.19, 0, 0.2525, 0.065, 0.315, 0.1275, 0.3775, 0.19],
  "SoftwareVersions": "syngo MR E11",
  "SpacingBetweenSlices": 2.7,
  "StationName": "AWP66112",
  "TaskName": "social",
  "TotalReadoutTime": 0.03969,
  "TxRefAmp": 252.803,
  "WipMemBlock": "257f20a9-4eed-44cf-af47-8275d71a5b56||Sequence: R016 ve11e/master r/434b28f1; Aug  7 2019 18:53:46 by eja",
  "dcmmeta_affine": [
    [-2.674125909805298, -0.20670177042484283, 0.06691629439592361, 118.68367767333984],
    [-0.19774459302425385, 2.657705783843994, 0.31115010380744934, -89.28997802734375],
    [0.08968855440616608, -0.3032675087451935, 2.6811766624450684, -53.45760726928711],
    [0.0, 0.0, 0.0, 1.0]
],
  "dcmmeta_reorient_transform": [
    [0.0, -1.0, 0.0, 81.0],
    [1.0, 0.0, 0.0, 0.0],
    [0.0, 0.0, 1.0, 0.0],
    [0.0, 0.0, 0.0, 1.0]
],
  "dcmmeta_shape": [82, 82, 56, 872],
  "dcmmeta_slice_dim": 2,
  "dcmmeta_version": 0.6,
  "global": {
    "const": {
      "AccessionNumber": "A004080",
      "AcquisitionMatrix": [82, 0, 0, 82],
      "AngioFlag": "N",
      "BitsAllocated": 16,
      "BitsStored": 16,
      "BodyPartExamined": "BRAIN",
      "Columns": 656,
      "EchoNumbers": 1,
      "EchoTime": 27.2,
      "EchoTrainLength": 82,
      "FlipAngle": 44.0,
      "HighBit": 15,
      "ImageOrientationPatient": [0.99671965934614, 0.07370480275771, 0.03342936917384, -0.077043386095, 0.99059939641771, 0.11303606714622],
      "ImagePositionPatient": [-810.09158121148, -945.49843842955, -190.80066262666],
      "ImageType": [
        "ORIGINAL",
        "PRIMARY",
        "M",
        "MB",
        "ND",
        "NORM",
        "MOSAIC"
],
      "ImagedNucleus": "1H",
      "ImagingFrequency": 123.252178,
      "InPlanePhaseEncodingDirection": "COL",
      "MRAcquisitionType": "2D",
      "MagneticFieldStrength": 3.0,
      "Manufacturer": "SIEMENS",
      "ManufacturerModelName": "Prisma",
      "Modality": "MR",
      "NumberOfAverages": 1.0,
      "NumberOfPhaseEncodingSteps": 82,
      "PercentPhaseFieldOfView": 100.0,
      "PercentSampling": 100.0,
      "PerformedProcedureStepStartTime": "213338.133000",
      "PhotometricInterpretation": "MONOCHROME2",
      "PixelBandwidth": 3050.0,
      "PixelRepresentation": 0,
      "PixelSpacing": [2.6829268932343, 2.6829268932343],
      "ProtocolName": "func_run-04_task-social_acq-ap-mb8",
      "RepetitionTime": 460.0,
      "Rows": 656,
      "SAR": 0.10835409362463,
      "SamplesPerPixel": 1,
      "ScanOptions": "FS",
      "ScanningSequence": "EP",
      "SequenceName": "epfid2d1_82",
      "SequenceVariant": [
        "SK",
        "SS"
],
      "SeriesDescription": "func_run-04_task-social_acq-ap-mb8",
      "SeriesNumber": 18,
      "SeriesTime": "221549.396000",
      "SliceLocation": -60.433332277056,
      "SliceThickness": 2.7000000476837,
      "SmallestImagePixelValue": 0,
      "SoftwareVersions": "syngo MR E11",
      "SpacingBetweenSlices": 2.699999976983,
      "SpecificCharacterSet": "ISO_IR 100",
      "StudyID": "1",
      "StudyTime": "213338.068000",
      "TransmitCoilName": "Body",
      "VariableFlipAngleFlag": "N",
      "WindowCenterWidthExplanation": "Algo1"
    },
    "slices": {}
  },
  "time": {
    "samples": {
      "AcquisitionNumber": [1, 2, 3, 4, 5, 6, 7, 8, 9, 10, 11, 12, 13, 14, 15, 16, 17, 18, 19, 20, 21, 22, 23, 24, 25, 26, 27, 28, 29, 30, 31, 32, 33, 34, 35, 36, 37, 38, 39, 40, 41, 42, 43, 44, 45, 46, 47, 48, 49, 50, 51, 52, 53, 54, 55, 56, 57, 58, 59, 60, 61, 62, 63, 64, 65, 66, 67, 68, 69, 70, 71, 72, 73, 74, 75, 76, 77, 78, 79, 80, 81, 82, 83, 84, 85, 86, 87, 88, 89, 90, 91, 92, 93, 94, 95, 96, 97, 98, 99, 100, 101, 102, 103, 104, 105, 106, 107, 108, 109, 110, 111, 112, 113, 114, 115, 116, 117, 118, 119, 120, 121, 122, 123, 124, 125, 126, 127, 128, 129, 130, 131, 132, 133, 134, 135, 136, 137, 138, 139, 140, 141, 142, 143, 144, 145, 146, 147, 148, 149, 150, 151, 152, 153, 154, 155, 156, 157, 158, 159, 160, 161, 162, 163, 164, 165, 166, 167, 168, 169, 170, 171, 172, 173, 174, 175, 176, 177, 178, 179, 180, 181, 182, 183, 184, 185, 186, 187, 188, 189, 190, 191, 192, 193, 194, 195, 196, 197, 198, 199, 200, 201, 202, 203, 204, 205, 206, 207, 208, 209, 210, 211, 212, 213, 214, 215, 216, 217, 218, 219, 220, 221, 222, 223, 224, 225, 226, 227, 228, 229, 230, 231, 232, 233, 234, 235, 236, 237, 238, 239, 240, 241, 242, 243, 244, 245, 246, 247, 248, 249, 250, 251, 252, 253, 254, 255, 256, 257, 258, 259, 260, 261, 262, 263, 264, 265, 266, 267, 268, 269, 270, 271, 272, 273, 274, 275, 276, 277, 278, 279, 280, 281, 282, 283, 284, 285, 286, 287, 288, 289, 290, 291, 292, 293, 294, 295, 296, 297, 298, 299, 300, 301, 302, 303, 304, 305, 306, 307, 308, 309, 310, 311, 312, 313, 314, 315, 316, 317, 318, 319, 320, 321, 322, 323, 324, 325, 326, 327, 328, 329, 330, 331, 332, 333, 334, 335, 336, 337, 338, 339, 340, 341, 342, 343, 344, 345, 346, 347, 348, 349, 350, 351, 352, 353, 354, 355, 356, 357, 358, 359, 360, 361, 362, 363, 364, 365, 366, 367, 368, 369, 370, 371, 372, 373, 374, 375, 376, 377, 378, 379, 380, 381, 382, 383, 384, 385, 386, 387, 388, 389, 390, 391, 392, 393, 394, 395, 396, 397, 398, 399, 400, 401, 402, 403, 404, 405, 406, 407, 408, 409, 410, 411, 412, 413, 414, 415, 416, 417, 418, 419, 420, 421, 422, 423, 424, 425, 426, 427, 428, 429, 430, 431, 432, 433, 434, 435, 436, 437, 438, 439, 440, 441, 442, 443, 444, 445, 446, 447, 448, 449, 450, 451, 452, 453, 454, 455, 456, 457, 458, 459, 460, 461, 462, 463, 464, 465, 466, 467, 468, 469, 470, 471, 472, 473, 474, 475, 476, 477, 478, 479, 480, 481, 482, 483, 484, 485, 486, 487, 488, 489, 490, 491, 492, 493, 494, 495, 496, 497, 498, 499, 500, 501, 502, 503, 504, 505, 506, 507, 508, 509, 510, 511, 512, 513, 514, 515, 516, 517, 518, 519, 520, 521, 522, 523, 524, 525, 526, 527, 528, 529, 530, 531, 532, 533, 534, 535, 536, 537, 538, 539, 540, 541, 542, 543, 544, 545, 546, 547, 548, 549, 550, 551, 552, 553, 554, 555, 556, 557, 558, 559, 560, 561, 562, 563, 564, 565, 566, 567, 568, 569, 570, 571, 572, 573, 574, 575, 576, 577, 578, 579, 580, 581, 582, 583, 584, 585, 586, 587, 588, 589, 590, 591, 592, 593, 594, 595, 596, 597, 598, 599, 600, 601, 602, 603, 604, 605, 606, 607, 608, 609, 610, 611, 612, 613, 614, 615, 616, 617, 618, 619, 620, 621, 622, 623, 624, 625, 626, 627, 628, 629, 630, 631, 632, 633, 634, 635, 636, 637, 638, 639, 640, 641, 642, 643, 644, 645, 646, 647, 648, 649, 650, 651, 652, 653, 654, 655, 656, 657, 658, 659, 660, 661, 662, 663, 664, 665, 666, 667, 668, 669, 670, 671, 672, 673, 674, 675, 676, 677, 678, 679, 680, 681, 682, 683, 684, 685, 686, 687, 688, 689, 690, 691, 692, 693, 694, 695, 696, 697, 698, 699, 700, 701, 702, 703, 704, 705, 706, 707, 708, 709, 710, 711, 712, 713, 714, 715, 716, 717, 718, 719, 720, 721, 722, 723, 724, 725, 726, 727, 728, 729, 730, 731, 732, 733, 734, 735, 736, 737, 738, 739, 740, 741, 742, 743, 744, 745, 746, 747, 748, 749, 750, 751, 752, 753, 754, 755, 756, 757, 758, 759, 760, 761, 762, 763, 764, 765, 766, 767, 768, 769, 770, 771, 772, 773, 774, 775, 776, 777, 778, 779, 780, 781, 782, 783, 784, 785, 786, 787, 788, 789, 790, 791, 792, 793, 794, 795, 796, 797, 798, 799, 800, 801, 802, 803, 804, 805, 806, 807, 808, 809, 810, 811, 812, 813, 814, 815, 816, 817, 818, 819, 820, 821, 822, 823, 824, 825, 826, 827, 828, 829, 830, 831, 832, 833, 834, 835, 836, 837, 838, 839, 840, 841, 842, 843, 844, 845, 846, 847, 848, 849, 850, 851, 852, 853, 854, 855, 856, 857, 858, 859, 860, 861, 862, 863, 864, 865, 866, 867, 868, 869, 870, 871, 872],
      "AcquisitionTime": ["221524.465000", "221524.925000", "221525.385000", "221525.845000", "221526.305000", "221526.765000", "221527.225000", "221527.685000", "221528.145000", "221528.605000", "221529.065000", "221529.525000", "221529.985000", "221530.445000", "221530.905000", "221531.365000", "221531.825000", "221532.285000", "221532.745000", "221533.205000", "221533.665000", "221534.125000", "221534.585000", "221535.045000", "221535.505000", "221535.965000", "221536.425000", "221536.885000", "221537.345000", "221537.805000", "221538.265000", "221538.725000", "221539.185000", "221539.645000", "221540.105000", "221540.565000", "221541.025000", "221541.485000", "221541.945000", "221542.405000", "221542.865000", "221543.325000", "221543.785000", "221544.245000", "221544.705000", "221545.165000", "221545.625000", "221546.085000", "221546.545000", "221547.005000", "221547.465000", "221547.925000", "221548.385000", "221548.845000", "221549.305000", "221549.765000", "221550.225000", "221550.685000", "221551.145000", "221551.605000", "221552.065000", "221552.525000", "221552.985000", "221553.445000", "221553.905000", "221554.365000", "221554.825000", "221555.285000", "221555.745000", "221556.205000", "221556.665000", "221557.125000", "221557.585000", "221558.045000", "221558.505000", "221558.965000", "221559.425000", "221559.885000", "221600.345000", "221600.805000", "221601.265000", "221601.725000", "221602.185000", "221602.645000", "221603.105000", "221603.565000", "221604.025000", "221604.485000", "221604.945000", "221605.405000", "221605.865000", "221606.325000", "221606.785000", "221607.245000", "221607.705000", "221608.165000", "221608.625000", "221609.085000", "221609.545000", "221610.005000", "221610.465000", "221610.925000", "221611.385000", "221611.845000", "221612.305000", "221612.765000", "221613.225000", "221613.685000", "221614.145000", "221614.605000", "221615.065000", "221615.525000", "221615.985000", "221616.445000", "221616.905000", "221617.365000", "221617.825000", "221618.285000", "221618.745000", "221619.205000", "221619.665000", "221620.125000", "221620.585000", "221621.045000", "221621.505000", "221621.965000", "221622.425000", "221622.885000", "221623.345000", "221623.805000", "221624.265000", "221624.725000", "221625.185000", "221625.645000", "221626.105000", "221626.565000", "221627.025000", "221627.485000", "221627.945000", "221628.405000", "221628.865000", "221629.325000", "221629.785000", "221630.245000", "221630.705000", "221631.165000", "221631.625000", "221632.085000", "221632.545000", "221633.005000", "221633.465000", "221633.925000", "221634.385000", "221634.845000", "221635.305000", "221635.765000", "221636.225000", "221636.685000", "221637.145000", "221637.605000", "221638.065000", "221638.525000", "221638.985000", "221639.445000", "221639.905000", "221640.365000", "221640.825000", "221641.285000", "221641.745000", "221642.205000", "221642.665000", "221643.125000", "221643.585000", "221644.045000", "221644.505000", "221644.965000", "221645.425000", "221645.885000", "221646.345000", "221646.805000", "221647.265000", "221647.725000", "221648.185000", "221648.645000", "221649.105000", "221649.565000", "221650.025000", "221650.485000", "221650.945000", "221651.405000", "221651.865000", "221652.325000", "221652.785000", "221653.245000", "221653.705000", "221654.165000", "221654.625000", "221655.085000", "221655.545000", "221656.005000", "221656.465000", "221656.925000", "221657.385000", "221657.845000", "221658.305000", "221658.765000", "221659.225000", "221659.685000", "221700.145000", "221700.605000", "221701.065000", "221701.525000", "221701.985000", "221702.445000", "221702.905000", "221703.365000", "221703.825000", "221704.285000", "221704.745000", "221705.205000", "221705.665000", "221706.125000", "221706.585000", "221707.045000", "221707.505000", "221707.965000", "221708.425000", "221708.885000", "221709.345000", "221709.805000", "221710.265000", "221710.725000", "221711.185000", "221711.645000", "221712.105000", "221712.565000", "221713.025000", "221713.485000", "221713.945000", "221714.405000", "221714.865000", "221715.325000", "221715.785000", "221716.245000", "221716.705000", "221717.165000", "221717.625000", "221718.085000", "221718.545000", "221719.005000", "221719.465000", "221719.925000", "221720.385000", "221720.845000", "221721.305000", "221721.765000", "221722.225000", "221722.685000", "221723.145000", "221723.605000", "221724.065000", "221724.525000", "221724.985000", "221725.445000", "221725.905000", "221726.365000", "221726.825000", "221727.285000", "221727.745000", "221728.205000", "221728.665000", "221729.125000", "221729.585000", "221730.045000", "221730.505000", "221730.965000", "221731.425000", "221731.885000", "221732.345000", "221732.805000", "221733.265000", "221733.725000", "221734.185000", "221734.645000", "221735.105000", "221735.565000", "221736.025000", "221736.485000", "221736.945000", "221737.405000", "221737.865000", "221738.325000", "221738.785000", "221739.245000", "221739.705000", "221740.165000", "221740.625000", "221741.085000", "221741.545000", "221742.005000", "221742.465000", "221742.925000", "221743.385000", "221743.845000", "221744.305000", "221744.765000", "221745.225000", "221745.685000", "221746.145000", "221746.605000", "221747.065000", "221747.525000", "221747.985000", "221748.445000", "221748.905000", "221749.365000", "221749.825000", "221750.285000", "221750.745000", "221751.205000", "221751.665000", "221752.125000", "221752.585000", "221753.045000", "221753.505000", "221753.965000", "221754.425000", "221754.885000", "221755.345000", "221755.805000", "221756.265000", "221756.725000", "221757.185000", "221757.645000", "221758.105000", "221758.565000", "221759.025000", "221759.485000", "221759.945000", "221800.405000", "221800.865000", "221801.325000", "221801.785000", "221802.245000", "221802.705000", "221803.165000", "221803.625000", "221804.085000", "221804.545000", "221805.005000", "221805.465000", "221805.925000", "221806.385000", "221806.845000", "221807.305000", "221807.765000", "221808.225000", "221808.685000", "221809.145000", "221809.605000", "221810.065000", "221810.525000", "221810.985000", "221811.445000", "221811.905000", "221812.365000", "221812.825000", "221813.285000", "221813.745000", "221814.205000", "221814.665000", "221815.125000", "221815.585000", "221816.045000", "221816.505000", "221816.965000", "221817.425000", "221817.885000", "221818.345000", "221818.805000", "221819.265000", "221819.725000", "221820.185000", "221820.645000", "221821.105000", "221821.565000", "221822.025000", "221822.485000", "221822.945000", "221823.405000", "221823.865000", "221824.325000", "221824.785000", "221825.245000", "221825.705000", "221826.165000", "221826.625000", "221827.085000", "221827.545000", "221828.005000", "221828.465000", "221828.925000", "221829.385000", "221829.845000", "221830.305000", "221830.765000", "221831.225000", "221831.685000", "221832.145000", "221832.605000", "221833.065000", "221833.525000", "221833.985000", "221834.445000", "221834.905000", "221835.365000", "221835.825000", "221836.285000", "221836.745000", "221837.205000", "221837.665000", "221838.125000", "221838.585000", "221839.045000", "221839.505000", "221839.965000", "221840.425000", "221840.885000", "221841.345000", "221841.805000", "221842.265000", "221842.725000", "221843.185000", "221843.645000", "221844.105000", "221844.565000", "221845.025000", "221845.485000", "221845.945000", "221846.405000", "221846.865000", "221847.325000", "221847.785000", "221848.245000", "221848.705000", "221849.165000", "221849.625000", "221850.085000", "221850.545000", "221851.005000", "221851.465000", "221851.925000", "221852.385000", "221852.845000", "221853.305000", "221853.765000", "221854.225000", "221854.685000", "221855.145000", "221855.605000", "221856.065000", "221856.525000", "221856.985000", "221857.445000", "221857.905000", "221858.365000", "221858.825000", "221859.285000", "221859.745000", "221900.205000", "221900.665000", "221901.125000", "221901.585000", "221902.045000", "221902.505000", "221902.965000", "221903.425000", "221903.885000", "221904.345000", "221904.805000", "221905.265000", "221905.725000", "221906.185000", "221906.645000", "221907.105000", "221907.565000", "221908.025000", "221908.485000", "221908.945000", "221909.405000", "221909.865000", "221910.325000", "221910.785000", "221911.245000", "221911.705000", "221912.165000", "221912.625000", "221913.085000", "221913.545000", "221914.005000", "221914.465000", "221914.925000", "221915.385000", "221915.845000", "221916.305000", "221916.765000", "221917.225000", "221917.685000", "221918.145000", "221918.605000", "221919.065000", "221919.525000", "221919.985000", "221920.445000", "221920.905000", "221921.365000", "221921.825000", "221922.285000", "221922.745000", "221923.205000", "221923.665000", "221924.125000", "221924.585000", "221925.045000", "221925.505000", "221925.965000", "221926.425000", "221926.885000", "221927.345000", "221927.805000", "221928.265000", "221928.725000", "221929.185000", "221929.645000", "221930.105000", "221930.565000", "221931.025000", "221931.485000", "221931.945000", "221932.405000", "221932.865000", "221933.325000", "221933.785000", "221934.245000", "221934.705000", "221935.165000", "221935.625000", "221936.085000", "221936.545000", "221937.005000", "221937.465000", "221937.925000", "221938.385000", "221938.845000", "221939.305000", "221939.765000", "221940.225000", "221940.685000", "221941.145000", "221941.605000", "221942.065000", "221942.525000", "221942.985000", "221943.445000", "221943.905000", "221944.365000", "221944.825000", "221945.285000", "221945.745000", "221946.205000", "221946.665000", "221947.125000", "221947.585000", "221948.045000", "221948.505000", "221948.965000", "221949.425000", "221949.885000", "221950.345000", "221950.805000", "221951.265000", "221951.725000", "221952.185000", "221952.645000", "221953.105000", "221953.565000", "221954.025000", "221954.485000", "221954.945000", "221955.405000", "221955.865000", "221956.325000", "221956.785000", "221957.245000", "221957.705000", "221958.165000", "221958.625000", "221959.085000", "221959.545000", "222000.005000", "222000.465000", "222000.925000", "222001.385000", "222001.845000", "222002.305000", "222002.765000", "222003.225000", "222003.685000", "222004.145000", "222004.605000", "222005.065000", "222005.525000", "222005.985000", "222006.445000", "222006.905000", "222007.365000", "222007.825000", "222008.285000", "222008.745000", "222009.205000", "222009.665000", "222010.125000", "222010.585000", "222011.045000", "222011.505000", "222011.965000", "222012.425000", "222012.885000", "222013.345000", "222013.805000", "222014.265000", "222014.725000", "222015.185000", "222015.645000", "222016.105000", "222016.565000", "222017.025000", "222017.485000", "222017.945000", "222018.405000", "222018.865000", "222019.325000", "222019.785000", "222020.245000", "222020.705000", "222021.165000", "222021.625000", "222022.085000", "222022.545000", "222023.005000", "222023.465000", "222023.925000", "222024.385000", "222024.845000", "222025.305000", "222025.765000", "222026.225000", "222026.685000", "222027.145000", "222027.605000", "222028.065000", "222028.525000", "222028.985000", "222029.445000", "222029.905000", "222030.365000", "222030.825000", "222031.285000", "222031.745000", "222032.205000", "222032.665000", "222033.125000", "222033.585000", "222034.045000", "222034.505000", "222034.965000", "222035.425000", "222035.885000", "222036.345000", "222036.805000", "222037.265000", "222037.725000", "222038.185000", "222038.645000", "222039.105000", "222039.565000", "222040.025000", "222040.485000", "222040.945000", "222041.405000", "222041.865000", "222042.325000", "222042.785000", "222043.245000", "222043.705000", "222044.165000", "222044.625000", "222045.085000", "222045.545000", "222046.005000", "222046.465000", "222046.925000", "222047.385000", "222047.845000", "222048.305000", "222048.765000", "222049.225000", "222049.685000", "222050.145000", "222050.605000", "222051.065000", "222051.525000", "222051.985000", "222052.445000", "222052.905000", "222053.365000", "222053.825000", "222054.285000", "222054.745000", "222055.205000", "222055.665000", "222056.125000", "222056.585000", "222057.045000", "222057.505000", "222057.965000", "222058.425000", "222058.885000", "222059.345000", "222059.805000", "222100.265000", "222100.725000", "222101.185000", "222101.645000", "222102.105000", "222102.565000", "222103.025000", "222103.485000", "222103.945000", "222104.405000", "222104.865000", "222105.325000", "222105.785000", "222106.245000", "222106.705000", "222107.165000", "222107.625000", "222108.085000", "222108.545000", "222109.005000", "222109.465000", "222109.925000", "222110.385000", "222110.845000", "222111.305000", "222111.765000", "222112.225000", "222112.685000", "222113.145000", "222113.605000", "222114.065000", "222114.525000", "222114.985000", "222115.445000", "222115.905000", "222116.365000", "222116.825000", "222117.285000", "222117.745000", "222118.205000", "222118.665000", "222119.125000", "222119.585000", "222120.045000", "222120.505000", "222120.965000", "222121.425000", "222121.885000", "222122.345000", "222122.805000", "222123.265000", "222123.725000", "222124.185000", "222124.645000", "222125.105000", "222125.565000", "222126.025000", "222126.485000", "222126.945000", "222127.405000", "222127.865000", "222128.325000", "222128.785000", "222129.245000", "222129.705000", "222130.165000", "222130.625000", "222131.085000", "222131.545000", "222132.005000", "222132.465000", "222132.925000", "222133.385000", "222133.845000", "222134.305000", "222134.765000", "222135.225000", "222135.685000", "222136.145000", "222136.605000", "222137.065000", "222137.525000", "222137.985000", "222138.445000", "222138.905000", "222139.365000", "222139.825000", "222140.285000", "222140.745000", "222141.205000", "222141.665000", "222142.125000", "222142.585000", "222143.045000", "222143.505000", "222143.965000", "222144.425000", "222144.885000", "222145.345000", "222145.805000", "222146.265000", "222146.725000", "222147.185000", "222147.645000", "222148.105000", "222148.565000", "222149.025000", "222149.485000", "222149.945000", "222150.405000", "222150.865000", "222151.325000", "222151.785000", "222152.245000", "222152.705000", "222153.165000", "222153.625000", "222154.085000", "222154.545000", "222155.005000", "222155.465000", "222155.925000", "222156.385000", "222156.845000", "222157.305000", "222157.765000", "222158.225000", "222158.685000", "222159.145000", "222159.605000", "222200.065000", "222200.525000", "222200.985000", "222201.445000", "222201.905000", "222202.365000", "222202.825000", "222203.285000", "222203.745000", "222204.205000", "222204.665000", "222205.125000"],
