{
  "AcquisitionMatrixPE": 82,
  "AcquisitionNumber": 1,
  "AcquisitionTime": "21:53:15.005000",
  "BandwidthPerPixelPhaseEncode": 24.888,
  "BaseResolution": 82,
  "BodyPartExamined": "BRAIN",
  "ConsistencyInfo": "N4_VE11E_LATEST_20181129",
  "ConversionSoftware": "dcm2niix",
  "ConversionSoftwareVersion": "v1.0.20201102",
  "DerivedVendorReportedEchoSpacing": 0.00049,
  "DeviceSerialNumber": "66112",
  "DwellTime": 2e-06,
  "EchoTime": 0.0272,
  "EchoTrainLength": 82,
  "EffectiveEchoSpacing": 0.00049,
  "FlipAngle": 44,
  "ImageComments": "Unaliased MB8/PE3",
  "ImageOrientationPatientDICOM": [0.99672, 0.0737048, 0.0334294, -0.0770434, 0.990599, 0.113036],
  "ImageType": [
    "ORIGINAL",
    "PRIMARY",
    "M",
    "MB",
    "ND",
    "NORM",
    "MOSAIC"
],
  "ImagingFrequency": 123.252,
  "InPlanePhaseEncodingDirectionDICOM": "COL",
  "InstitutionAddress": "Maynard 3,Hanover,NH,US,03755",
  "InstitutionName": "Dartmouth College - PBS",
  "InstitutionalDepartmentName": "Department",
  "MRAcquisitionType": "2D",
  "MagneticFieldStrength": 3,
  "Manufacturer": "Siemens",
  "ManufacturersModelName": "Prisma",
  "Modality": "MR",
  "MultibandAccelerationFactor": 8,
  "PartialFourier": 1,
  "PatientPosition": "HFS",
  "PercentPhaseFOV": 100,
  "PercentSampling": 100,
  "PhaseEncodingDirection": "j-",
  "PhaseEncodingSteps": 82,
  "PhaseResolution": 1,
  "PixelBandwidth": 3050,
  "ProcedureStepDescription": "Wager_Wager^1076_spacetop",
  "ProtocolName": "func_run-01_task-social_acq-ap-mb8",
  "PulseSequenceDetails": "%CustomerSeq%\\cmrr_mbep2d_bold",
  "ReceiveCoilActiveElements": "HEA;HEP",
  "ReceiveCoilName": "Head_32",
  "ReconMatrixPE": 82,
  "RepetitionTime": 0.46,
  "SAR": 0.108354,
  "ScanOptions": "FS",
  "ScanningSequence": "EP",
  "SequenceName": "epfid2d1_82",
  "SequenceVariant": "SK\\SS",
  "SeriesDescription": "func_run-01_task-social_acq-ap-mb8",
  "SeriesNumber": 12,
  "ShimSetting": [4170, -7780, -7204, 618, -4, -321, 152, 9],
  "SliceThickness": 2.7,
  "SliceTiming": [0, 0.2525, 0.0625, 0.315, 0.125, 0.3775, 0.1875, 0, 0.2525, 0.0625, 0.315, 0.125, 0.3775, 0.1875, 0, 0.2525, 0.0625, 0.315, 0.125, 0.3775, 0.1875, 0, 0.2525, 0.0625, 0.315, 0.125, 0.3775, 0.1875, 0, 0.2525, 0.0625, 0.315, 0.125, 0.3775, 0.1875, 0, 0.2525, 0.0625, 0.315, 0.125, 0.3775, 0.1875, 0, 0.2525, 0.0625, 0.315, 0.125, 0.3775, 0.1875, 0, 0.2525, 0.0625, 0.315, 0.125, 0.3775, 0.1875],
  "SoftwareVersions": "syngo MR E11",
  "SpacingBetweenSlices": 2.7,
  "StationName": "AWP66112",
  "TaskName": "social",
  "TotalReadoutTime": 0.03969,
  "TxRefAmp": 252.803,
  "WipMemBlock": "8128356c-1cc4-4e23-875b-49bcf1bbd41b||Sequence: R016 ve11e/master r/434b28f1; Aug  7 2019 18:53:46 by eja",
  "dcmmeta_affine": [
    [-2.674125909805298, -0.20670177042484283, 0.06691629439592361, 118.68367767333984],
    [-0.19774459302425385, 2.657705783843994, 0.31115010380744934, -89.28997802734375],
    [0.08968855440616608, -0.3032675087451935, 2.6811766624450684, -53.45760726928711],
    [0.0, 0.0, 0.0, 1.0]
],
  "dcmmeta_reorient_transform": [
    [0.0, -1.0, 0.0, 81.0],
    [1.0, 0.0, 0.0, 0.0],
    [0.0, 0.0, 1.0, 0.0],
    [0.0, 0.0, 0.0, 1.0]
],
  "dcmmeta_shape": [82, 82, 56, 872],
  "dcmmeta_slice_dim": 2,
  "dcmmeta_version": 0.6,
  "global": {
    "const": {
      "AccessionNumber": "A004080",
      "AcquisitionMatrix": [82, 0, 0, 82],
      "AngioFlag": "N",
      "BitsAllocated": 16,
      "BitsStored": 16,
      "BodyPartExamined": "BRAIN",
      "Columns": 656,
      "EchoNumbers": 1,
      "EchoTime": 27.2,
      "EchoTrainLength": 82,
      "FlipAngle": 44.0,
      "HighBit": 15,
      "ImageOrientationPatient": [0.99671965934614, 0.07370480275771, 0.03342936917384, -0.077043386095, 0.99059939641771, 0.11303606714622],
      "ImagePositionPatient": [-810.09158121148, -945.49843842955, -190.80066262666],
      "ImageType": [
        "ORIGINAL",
        "PRIMARY",
        "M",
        "MB",
        "ND",
        "NORM",
        "MOSAIC"
],
      "ImagedNucleus": "1H",
      "ImagingFrequency": 123.252165,
      "InPlanePhaseEncodingDirection": "COL",
      "MRAcquisitionType": "2D",
      "MagneticFieldStrength": 3.0,
      "Manufacturer": "SIEMENS",
      "ManufacturerModelName": "Prisma",
      "Modality": "MR",
      "NumberOfAverages": 1.0,
      "NumberOfPhaseEncodingSteps": 82,
      "PercentPhaseFieldOfView": 100.0,
      "PercentSampling": 100.0,
      "PerformedProcedureStepStartTime": "213338.133000",
      "PhotometricInterpretation": "MONOCHROME2",
      "PixelBandwidth": 3050.0,
      "PixelRepresentation": 0,
      "PixelSpacing": [2.6829268932343, 2.6829268932343],
      "ProtocolName": "func_run-01_task-social_acq-ap-mb8",
      "RepetitionTime": 460.0,
      "Rows": 656,
      "SAR": 0.10835409362463,
      "SamplesPerPixel": 1,
      "ScanOptions": "FS",
      "ScanningSequence": "EP",
      "SequenceName": "epfid2d1_82",
      "SequenceVariant": [
        "SK",
        "SS"
],
      "SeriesDescription": "func_run-01_task-social_acq-ap-mb8",
      "SeriesNumber": 12,
      "SeriesTime": "215329.390000",
      "SliceLocation": -60.433332277056,
      "SliceThickness": 2.7000000476837,
      "SmallestImagePixelValue": 0,
      "SoftwareVersions": "syngo MR E11",
      "SpacingBetweenSlices": 2.699999976983,
      "SpecificCharacterSet": "ISO_IR 100",
      "StudyID": "1",
      "StudyTime": "213338.068000",
      "TransmitCoilName": "Body",
      "VariableFlipAngleFlag": "N",
      "WindowCenterWidthExplanation": "Algo1"
    },
    "slices": {}
  },
  "time": {
    "samples": {
      "AcquisitionNumber": [1, 2, 3, 4, 5, 6, 7, 8, 9, 10, 11, 12, 13, 14, 15, 16, 17, 18, 19, 20, 21, 22, 23, 24, 25, 26, 27, 28, 29, 30, 31, 32, 33, 34, 35, 36, 37, 38, 39, 40, 41, 42, 43, 44, 45, 46, 47, 48, 49, 50, 51, 52, 53, 54, 55, 56, 57, 58, 59, 60, 61, 62, 63, 64, 65, 66, 67, 68, 69, 70, 71, 72, 73, 74, 75, 76, 77, 78, 79, 80, 81, 82, 83, 84, 85, 86, 87, 88, 89, 90, 91, 92, 93, 94, 95, 96, 97, 98, 99, 100, 101, 102, 103, 104, 105, 106, 107, 108, 109, 110, 111, 112, 113, 114, 115, 116, 117, 118, 119, 120, 121, 122, 123, 124, 125, 126, 127, 128, 129, 130, 131, 132, 133, 134, 135, 136, 137, 138, 139, 140, 141, 142, 143, 144, 145, 146, 147, 148, 149, 150, 151, 152, 153, 154, 155, 156, 157, 158, 159, 160, 161, 162, 163, 164, 165, 166, 167, 168, 169, 170, 171, 172, 173, 174, 175, 176, 177, 178, 179, 180, 181, 182, 183, 184, 185, 186, 187, 188, 189, 190, 191, 192, 193, 194, 195, 196, 197, 198, 199, 200, 201, 202, 203, 204, 205, 206, 207, 208, 209, 210, 211, 212, 213, 214, 215, 216, 217, 218, 219, 220, 221, 222, 223, 224, 225, 226, 227, 228, 229, 230, 231, 232, 233, 234, 235, 236, 237, 238, 239, 240, 241, 242, 243, 244, 245, 246, 247, 248, 249, 250, 251, 252, 253, 254, 255, 256, 257, 258, 259, 260, 261, 262, 263, 264, 265, 266, 267, 268, 269, 270, 271, 272, 273, 274, 275, 276, 277, 278, 279, 280, 281, 282, 283, 284, 285, 286, 287, 288, 289, 290, 291, 292, 293, 294, 295, 296, 297, 298, 299, 300, 301, 302, 303, 304, 305, 306, 307, 308, 309, 310, 311, 312, 313, 314, 315, 316, 317, 318, 319, 320, 321, 322, 323, 324, 325, 326, 327, 328, 329, 330, 331, 332, 333, 334, 335, 336, 337, 338, 339, 340, 341, 342, 343, 344, 345, 346, 347, 348, 349, 350, 351, 352, 353, 354, 355, 356, 357, 358, 359, 360, 361, 362, 363, 364, 365, 366, 367, 368, 369, 370, 371, 372, 373, 374, 375, 376, 377, 378, 379, 380, 381, 382, 383, 384, 385, 386, 387, 388, 389, 390, 391, 392, 393, 394, 395, 396, 397, 398, 399, 400, 401, 402, 403, 404, 405, 406, 407, 408, 409, 410, 411, 412, 413, 414, 415, 416, 417, 418, 419, 420, 421, 422, 423, 424, 425, 426, 427, 428, 429, 430, 431, 432, 433, 434, 435, 436, 437, 438, 439, 440, 441, 442, 443, 444, 445, 446, 447, 448, 449, 450, 451, 452, 453, 454, 455, 456, 457, 458, 459, 460, 461, 462, 463, 464, 465, 466, 467, 468, 469, 470, 471, 472, 473, 474, 475, 476, 477, 478, 479, 480, 481, 482, 483, 484, 485, 486, 487, 488, 489, 490, 491, 492, 493, 494, 495, 496, 497, 498, 499, 500, 501, 502, 503, 504, 505, 506, 507, 508, 509, 510, 511, 512, 513, 514, 515, 516, 517, 518, 519, 520, 521, 522, 523, 524, 525, 526, 527, 528, 529, 530, 531, 532, 533, 534, 535, 536, 537, 538, 539, 540, 541, 542, 543, 544, 545, 546, 547, 548, 549, 550, 551, 552, 553, 554, 555, 556, 557, 558, 559, 560, 561, 562, 563, 564, 565, 566, 567, 568, 569, 570, 571, 572, 573, 574, 575, 576, 577, 578, 579, 580, 581, 582, 583, 584, 585, 586, 587, 588, 589, 590, 591, 592, 593, 594, 595, 596, 597, 598, 599, 600, 601, 602, 603, 604, 605, 606, 607, 608, 609, 610, 611, 612, 613, 614, 615, 616, 617, 618, 619, 620, 621, 622, 623, 624, 625, 626, 627, 628, 629, 630, 631, 632, 633, 634, 635, 636, 637, 638, 639, 640, 641, 642, 643, 644, 645, 646, 647, 648, 649, 650, 651, 652, 653, 654, 655, 656, 657, 658, 659, 660, 661, 662, 663, 664, 665, 666, 667, 668, 669, 670, 671, 672, 673, 674, 675, 676, 677, 678, 679, 680, 681, 682, 683, 684, 685, 686, 687, 688, 689, 690, 691, 692, 693, 694, 695, 696, 697, 698, 699, 700, 701, 702, 703, 704, 705, 706, 707, 708, 709, 710, 711, 712, 713, 714, 715, 716, 717, 718, 719, 720, 721, 722, 723, 724, 725, 726, 727, 728, 729, 730, 731, 732, 733, 734, 735, 736, 737, 738, 739, 740, 741, 742, 743, 744, 745, 746, 747, 748, 749, 750, 751, 752, 753, 754, 755, 756, 757, 758, 759, 760, 761, 762, 763, 764, 765, 766, 767, 768, 769, 770, 771, 772, 773, 774, 775, 776, 777, 778, 779, 780, 781, 782, 783, 784, 785, 786, 787, 788, 789, 790, 791, 792, 793, 794, 795, 796, 797, 798, 799, 800, 801, 802, 803, 804, 805, 806, 807, 808, 809, 810, 811, 812, 813, 814, 815, 816, 817, 818, 819, 820, 821, 822, 823, 824, 825, 826, 827, 828, 829, 830, 831, 832, 833, 834, 835, 836, 837, 838, 839, 840, 841, 842, 843, 844, 845, 846, 847, 848, 849, 850, 851, 852, 853, 854, 855, 856, 857, 858, 859, 860, 861, 862, 863, 864, 865, 866, 867, 868, 869, 870, 871, 872],
      "AcquisitionTime": ["215315.005000", "215315.465000", "215315.925000", "215316.385000", "215316.845000", "215317.305000", "215317.765000", "215318.225000", "215318.685000", "215319.145000", "215319.605000", "215320.065000", "215320.525000", "215320.985000", "215321.445000", "215321.905000", "215322.365000", "215322.825000", "215323.285000", "215323.745000", "215324.205000", "215324.665000", "215325.125000", "215325.585000", "215326.045000", "215326.505000", "215326.965000", "215327.425000", "215327.885000", "215328.345000", "215328.805000", "215329.265000", "215329.725000", "215330.185000", "215330.645000", "215331.105000", "215331.565000", "215332.025000", "215332.485000", "215332.945000", "215333.405000", "215333.865000", "215334.325000", "215334.785000", "215335.245000", "215335.705000", "215336.165000", "215336.625000", "215337.085000", "215337.545000", "215338.005000", "215338.465000", "215338.925000", "215339.385000", "215339.845000", "215340.305000", "215340.765000", "215341.225000", "215341.685000", "215342.145000", "215342.605000", "215343.065000", "215343.525000", "215343.985000", "215344.445000", "215344.905000", "215345.365000", "215345.825000", "215346.285000", "215346.745000", "215347.205000", "215347.665000", "215348.125000", "215348.585000", "215349.045000", "215349.505000", "215349.965000", "215350.425000", "215350.885000", "215351.345000", "215351.805000", "215352.265000", "215352.725000", "215353.185000", "215353.645000", "215354.105000", "215354.565000", "215355.025000", "215355.485000", "215355.945000", "215356.405000", "215356.865000", "215357.325000", "215357.785000", "215358.245000", "215358.705000", "215359.165000", "215359.625000", "215400.085000", "215400.545000", "215401.005000", "215401.465000", "215401.925000", "215402.385000", "215402.845000", "215403.305000", "215403.765000", "215404.225000", "215404.685000", "215405.145000", "215405.605000", "215406.065000", "215406.525000", "215406.985000", "215407.445000", "215407.905000", "215408.365000", "215408.825000", "215409.285000", "215409.745000", "215410.205000", "215410.665000", "215411.125000", "215411.585000", "215412.045000", "215412.505000", "215412.965000", "215413.425000", "215413.885000", "215414.345000", "215414.805000", "215415.265000", "215415.725000", "215416.185000", "215416.645000", "215417.105000", "215417.565000", "215418.025000", "215418.485000", "215418.945000", "215419.405000", "215419.865000", "215420.325000", "215420.785000", "215421.245000", "215421.705000", "215422.165000", "215422.625000", "215423.085000", "215423.545000", "215424.005000", "215424.465000", "215424.925000", "215425.385000", "215425.845000", "215426.305000", "215426.765000", "215427.225000", "215427.685000", "215428.145000", "215428.605000", "215429.065000", "215429.525000", "215429.985000", "215430.445000", "215430.905000", "215431.365000", "215431.825000", "215432.285000", "215432.745000", "215433.205000", "215433.665000", "215434.125000", "215434.585000", "215435.045000", "215435.505000", "215435.965000", "215436.425000", "215436.885000", "215437.345000", "215437.805000", "215438.265000", "215438.725000", "215439.185000", "215439.645000", "215440.105000", "215440.565000", "215441.025000", "215441.485000", "215441.945000", "215442.405000", "215442.865000", "215443.325000", "215443.785000", "215444.245000", "215444.705000", "215445.165000", "215445.625000", "215446.085000", "215446.545000", "215447.005000", "215447.465000", "215447.925000", "215448.385000", "215448.845000", "215449.305000", "215449.765000", "215450.225000", "215450.685000", "215451.145000", "215451.605000", "215452.065000", "215452.525000", "215452.985000", "215453.445000", "215453.905000", "215454.365000", "215454.825000", "215455.285000", "215455.745000", "215456.205000", "215456.665000", "215457.125000", "215457.585000", "215458.045000", "215458.505000", "215458.965000", "215459.425000", "215459.885000", "215500.345000", "215500.805000", "215501.265000", "215501.725000", "215502.185000", "215502.645000", "215503.105000", "215503.565000", "215504.025000", "215504.485000", "215504.945000", "215505.405000", "215505.865000", "215506.325000", "215506.785000", "215507.245000", "215507.705000", "215508.165000", "215508.625000", "215509.085000", "215509.545000", "215510.005000", "215510.465000", "215510.925000", "215511.385000", "215511.845000", "215512.305000", "215512.765000", "215513.225000", "215513.685000", "215514.145000", "215514.605000", "215515.065000", "215515.525000", "215515.985000", "215516.445000", "215516.905000", "215517.365000", "215517.825000", "215518.285000", "215518.745000", "215519.205000", "215519.665000", "215520.125000", "215520.585000", "215521.045000", "215521.505000", "215521.965000", "215522.425000", "215522.885000", "215523.345000", "215523.805000", "215524.265000", "215524.725000", "215525.185000", "215525.645000", "215526.105000", "215526.565000", "215527.025000", "215527.485000", "215527.945000", "215528.405000", "215528.865000", "215529.325000", "215529.785000", "215530.245000", "215530.705000", "215531.165000", "215531.625000", "215532.085000", "215532.545000", "215533.005000", "215533.465000", "215533.925000", "215534.385000", "215534.845000", "215535.305000", "215535.765000", "215536.225000", "215536.685000", "215537.145000", "215537.605000", "215538.065000", "215538.525000", "215538.985000", "215539.445000", "215539.905000", "215540.365000", "215540.825000", "215541.285000", "215541.745000", "215542.205000", "215542.665000", "215543.125000", "215543.585000", "215544.045000", "215544.505000", "215544.965000", "215545.425000", "215545.885000", "215546.345000", "215546.805000", "215547.265000", "215547.725000", "215548.185000", "215548.645000", "215549.105000", "215549.565000", "215550.025000", "215550.485000", "215550.945000", "215551.405000", "215551.865000", "215552.325000", "215552.785000", "215553.245000", "215553.705000", "215554.165000", "215554.625000", "215555.085000", "215555.545000", "215556.005000", "215556.465000", "215556.925000", "215557.385000", "215557.845000", "215558.305000", "215558.765000", "215559.225000", "215559.685000", "215600.145000", "215600.605000", "215601.065000", "215601.525000", "215601.985000", "215602.445000", "215602.905000", "215603.365000", "215603.825000", "215604.285000", "215604.745000", "215605.205000", "215605.665000", "215606.125000", "215606.585000", "215607.045000", "215607.505000", "215607.965000", "215608.425000", "215608.885000", "215609.345000", "215609.805000", "215610.265000", "215610.725000", "215611.185000", "215611.645000", "215612.105000", "215612.565000", "215613.025000", "215613.485000", "215613.945000", "215614.405000", "215614.865000", "215615.325000", "215615.785000", "215616.245000", "215616.705000", "215617.165000", "215617.625000", "215618.085000", "215618.545000", "215619.005000", "215619.465000", "215619.925000", "215620.385000", "215620.845000", "215621.305000", "215621.765000", "215622.225000", "215622.685000", "215623.145000", "215623.605000", "215624.065000", "215624.525000", "215624.985000", "215625.445000", "215625.905000", "215626.365000", "215626.825000", "215627.285000", "215627.745000", "215628.205000", "215628.665000", "215629.125000", "215629.585000", "215630.045000", "215630.505000", "215630.965000", "215631.425000", "215631.885000", "215632.345000", "215632.805000", "215633.265000", "215633.725000", "215634.185000", "215634.645000", "215635.105000", "215635.565000", "215636.025000", "215636.485000", "215636.945000", "215637.405000", "215637.865000", "215638.325000", "215638.785000", "215639.245000", "215639.705000", "215640.165000", "215640.625000", "215641.085000", "215641.545000", "215642.005000", "215642.465000", "215642.925000", "215643.385000", "215643.845000", "215644.305000", "215644.765000", "215645.225000", "215645.685000", "215646.145000", "215646.605000", "215647.065000", "215647.525000", "215647.985000", "215648.445000", "215648.905000", "215649.365000", "215649.825000", "215650.285000", "215650.745000", "215651.205000", "215651.665000", "215652.125000", "215652.585000", "215653.045000", "215653.505000", "215653.965000", "215654.425000", "215654.885000", "215655.345000", "215655.805000", "215656.265000", "215656.725000", "215657.185000", "215657.645000", "215658.105000", "215658.565000", "215659.025000", "215659.485000", "215659.945000", "215700.405000", "215700.865000", "215701.325000", "215701.785000", "215702.245000", "215702.705000", "215703.165000", "215703.625000", "215704.085000", "215704.545000", "215705.005000", "215705.465000", "215705.925000", "215706.385000", "215706.845000", "215707.305000", "215707.765000", "215708.225000", "215708.685000", "215709.145000", "215709.605000", "215710.065000", "215710.525000", "215710.985000", "215711.445000", "215711.905000", "215712.365000", "215712.825000", "215713.285000", "215713.745000", "215714.205000", "215714.665000", "215715.125000", "215715.585000", "215716.045000", "215716.505000", "215716.965000", "215717.425000", "215717.885000", "215718.345000", "215718.805000", "215719.265000", "215719.725000", "215720.185000", "215720.645000", "215721.105000", "215721.565000", "215722.025000", "215722.485000", "215722.945000", "215723.405000", "215723.865000", "215724.325000", "215724.785000", "215725.245000", "215725.705000", "215726.165000", "215726.625000", "215727.085000", "215727.545000", "215728.005000", "215728.465000", "215728.925000", "215729.385000", "215729.845000", "215730.305000", "215730.765000", "215731.225000", "215731.685000", "215732.145000", "215732.605000", "215733.065000", "215733.525000", "215733.985000", "215734.445000", "215734.905000", "215735.365000", "215735.825000", "215736.285000", "215736.745000", "215737.205000", "215737.665000", "215738.125000", "215738.585000", "215739.045000", "215739.505000", "215739.965000", "215740.425000", "215740.885000", "215741.345000", "215741.805000", "215742.265000", "215742.725000", "215743.185000", "215743.645000", "215744.105000", "215744.565000", "215745.025000", "215745.485000", "215745.945000", "215746.405000", "215746.865000", "215747.325000", "215747.785000", "215748.245000", "215748.705000", "215749.165000", "215749.625000", "215750.085000", "215750.545000", "215751.005000", "215751.465000", "215751.925000", "215752.385000", "215752.845000", "215753.305000", "215753.765000", "215754.225000", "215754.685000", "215755.145000", "215755.605000", "215756.065000", "215756.525000", "215756.985000", "215757.445000", "215757.905000", "215758.365000", "215758.825000", "215759.285000", "215759.745000", "215800.205000", "215800.665000", "215801.125000", "215801.585000", "215802.045000", "215802.505000", "215802.965000", "215803.425000", "215803.885000", "215804.345000", "215804.805000", "215805.265000", "215805.725000", "215806.185000", "215806.645000", "215807.105000", "215807.565000", "215808.025000", "215808.485000", "215808.945000", "215809.405000", "215809.865000", "215810.325000", "215810.785000", "215811.245000", "215811.705000", "215812.165000", "215812.625000", "215813.085000", "215813.545000", "215814.005000", "215814.465000", "215814.925000", "215815.385000", "215815.845000", "215816.305000", "215816.765000", "215817.225000", "215817.685000", "215818.145000", "215818.605000", "215819.065000", "215819.525000", "215819.985000", "215820.445000", "215820.905000", "215821.365000", "215821.825000", "215822.285000", "215822.745000", "215823.205000", "215823.665000", "215824.125000", "215824.585000", "215825.045000", "215825.505000", "215825.965000", "215826.425000", "215826.885000", "215827.345000", "215827.805000", "215828.265000", "215828.725000", "215829.185000", "215829.645000", "215830.105000", "215830.565000", "215831.025000", "215831.485000", "215831.945000", "215832.405000", "215832.865000", "215833.325000", "215833.785000", "215834.245000", "215834.705000", "215835.165000", "215835.625000", "215836.085000", "215836.545000", "215837.005000", "215837.465000", "215837.925000", "215838.385000", "215838.845000", "215839.305000", "215839.765000", "215840.225000", "215840.685000", "215841.145000", "215841.605000", "215842.065000", "215842.525000", "215842.985000", "215843.445000", "215843.905000", "215844.365000", "215844.825000", "215845.285000", "215845.745000", "215846.205000", "215846.665000", "215847.125000", "215847.585000", "215848.045000", "215848.505000", "215848.965000", "215849.425000", "215849.885000", "215850.345000", "215850.805000", "215851.265000", "215851.725000", "215852.185000", "215852.645000", "215853.105000", "215853.565000", "215854.025000", "215854.485000", "215854.945000", "215855.405000", "215855.865000", "215856.325000", "215856.785000", "215857.245000", "215857.705000", "215858.165000", "215858.625000", "215859.085000", "215859.545000", "215900.005000", "215900.465000", "215900.925000", "215901.385000", "215901.845000", "215902.305000", "215902.765000", "215903.225000", "215903.685000", "215904.145000", "215904.605000", "215905.065000", "215905.525000", "215905.985000", "215906.445000", "215906.905000", "215907.365000", "215907.825000", "215908.285000", "215908.745000", "215909.205000", "215909.665000", "215910.125000", "215910.585000", "215911.045000", "215911.505000", "215911.965000", "215912.425000", "215912.885000", "215913.345000", "215913.805000", "215914.265000", "215914.725000", "215915.185000", "215915.645000", "215916.105000", "215916.565000", "215917.025000", "215917.485000", "215917.945000", "215918.405000", "215918.865000", "215919.325000", "215919.785000", "215920.245000", "215920.705000", "215921.165000", "215921.625000", "215922.085000", "215922.545000", "215923.005000", "215923.465000", "215923.925000", "215924.385000", "215924.845000", "215925.305000", "215925.765000", "215926.225000", "215926.685000", "215927.145000", "215927.605000", "215928.065000", "215928.525000", "215928.985000", "215929.445000", "215929.905000", "215930.365000", "215930.825000", "215931.285000", "215931.745000", "215932.205000", "215932.665000", "215933.125000", "215933.585000", "215934.045000", "215934.505000", "215934.965000", "215935.425000", "215935.885000", "215936.345000", "215936.805000", "215937.265000", "215937.725000", "215938.185000", "215938.645000", "215939.105000", "215939.565000", "215940.025000", "215940.485000", "215940.945000", "215941.405000", "215941.865000", "215942.325000", "215942.785000", "215943.245000", "215943.705000", "215944.165000", "215944.625000", "215945.085000", "215945.545000", "215946.005000", "215946.465000", "215946.925000", "215947.385000", "215947.845000", "215948.305000", "215948.765000", "215949.225000", "215949.685000", "215950.145000", "215950.605000", "215951.065000", "215951.525000", "215951.985000", "215952.445000", "215952.905000", "215953.365000", "215953.825000", "215954.285000", "215954.745000", "215955.205000", "215955.665000"],
