{
  "AcquisitionMatrixPE": 82,
  "AcquisitionNumber": 1,
  "AcquisitionTime": "12:03:35.392500",
  "BandwidthPerPixelPhaseEncode": 24.888,
  "BaseResolution": 82,
  "BodyPartExamined": "BRAIN",
  "ConsistencyInfo": "N4_VE11C_LATEST_20160120",
  "ConversionSoftware": "dcm2niix",
  "ConversionSoftwareVersion": "v1.0.20201102",
  "DerivedVendorReportedEchoSpacing": 0.00049,
  "DeviceSerialNumber": "66112",
  "DwellTime": 2e-06,
  "EchoTime": 0.0272,
  "EchoTrainLength": 82,
  "EffectiveEchoSpacing": 0.00049,
  "FlipAngle": 44,
  "ImageComments": "Unaliased MB8/PE3",
  "ImageOrientationPatientDICOM": [0.999347, 0.0347726, 0.00980601, -0.0340248, 0.997091, -0.0682087],
  "ImageType": [
    "ORIGINAL",
    "PRIMARY",
    "M",
    "MB",
    "ND",
    "NORM",
    "MOSAIC"
],
  "ImagingFrequency": 123.252,
  "InPlanePhaseEncodingDirectionDICOM": "COL",
  "InstitutionAddress": "Maynard 3,Hanover,NH,US,03755",
  "InstitutionName": "Dartmouth College - PBS",
  "InstitutionalDepartmentName": "Department",
  "MRAcquisitionType": "2D",
  "MagneticFieldStrength": 3,
  "Manufacturer": "Siemens",
  "ManufacturersModelName": "Prisma",
  "Modality": "MR",
  "MultibandAccelerationFactor": 8,
  "PartialFourier": 1,
  "PatientPosition": "HFS",
  "PercentPhaseFOV": 100,
  "PercentSampling": 100,
  "PhaseEncodingDirection": "j-",
  "PhaseEncodingSteps": 82,
  "PhaseResolution": 1,
  "PixelBandwidth": 3050,
  "ProcedureStepDescription": "Wager_Wager^1076_spacetop",
  "ProtocolName": "func_run-02_task-faces_acq-ap-mb8",
  "PulseSequenceDetails": "%CustomerSeq%\\cmrr_mbep2d_bold",
  "ReceiveCoilActiveElements": "HEA;HEP",
  "ReceiveCoilName": "Head_32",
  "ReconMatrixPE": 82,
  "RepetitionTime": 0.46,
  "SAR": 0.102833,
  "ScanOptions": "FS",
  "ScanningSequence": "EP",
  "SequenceName": "epfid2d1_82",
  "SequenceVariant": "SK\\SS",
  "SeriesDescription": "func_run-02_task-faces_acq-ap-mb8",
  "SeriesNumber": 18,
  "ShimSetting": [4149, -7738, -7262, 431, -65, -89, 26, 63],
  "SliceThickness": 2.7,
  "SliceTiming": [0, 0.25, 0.0625, 0.315, 0.125, 0.3775, 0.1875, 0, 0.25, 0.0625, 0.315, 0.125, 0.3775, 0.1875, 0, 0.25, 0.0625, 0.315, 0.125, 0.3775, 0.1875, 0, 0.25, 0.0625, 0.315, 0.125, 0.3775, 0.1875, 0, 0.25, 0.0625, 0.315, 0.125, 0.3775, 0.1875, 0, 0.25, 0.0625, 0.315, 0.125, 0.3775, 0.1875, 0, 0.25, 0.0625, 0.315, 0.125, 0.3775, 0.1875, 0, 0.25, 0.0625, 0.315, 0.125, 0.3775, 0.1875],
  "SoftwareVersions": "syngo MR E11",
  "SpacingBetweenSlices": 2.7,
  "StationName": "AWP66112",
  "TaskName": "faces",
  "TotalReadoutTime": 0.03969,
  "TxRefAmp": 289.689,
  "WipMemBlock": "86508ff2-a9bc-4d65-8748-d4c62091b0b7||Sequence: R016 ve11c/master r/e634e98; Dec 19 2017 11:00:25 by eja",
  "dcmmeta_affine": [
    [-2.6811752319335938, -0.0912860855460167, 0.032803039997816086, 116.06156158447266],
    [-0.09329239279031754, 2.675121545791626, -0.18314231932163239, -87.956787109375],
    [0.026308802887797356, 0.1829988658428192, 2.6935818195343018, -92.93982696533203],
    [0.0, 0.0, 0.0, 1.0]
],
  "dcmmeta_reorient_transform": [
    [0.0, -1.0, 0.0, 81.0],
    [1.0, 0.0, 0.0, 0.0],
    [0.0, 0.0, 1.0, 0.0],
    [0.0, 0.0, 0.0, 1.0]
],
  "dcmmeta_shape": [82, 82, 56, 914],
  "dcmmeta_slice_dim": 2,
  "dcmmeta_version": 0.6,
  "global": {
    "const": {
      "AccessionNumber": "A003825",
      "AcquisitionMatrix": [82, 0, 0, 82],
      "AngioFlag": "N",
      "BitsAllocated": 16,
      "BitsStored": 16,
      "BodyPartExamined": "BRAIN",
      "Columns": 656,
      "EchoNumbers": 1,
      "EchoTime": 27.2,
      "EchoTrainLength": 82,
      "FlipAngle": 44.0,
      "HighBit": 15,
      "ImageOrientationPatient": [0.9993471405183, 0.03477261763889, 0.0098060083847, -0.0340248128122, 0.99709071316869, -0.0682086638621],
      "ImagePositionPatient": [-851.9656000826, -923.26283816347, -33.146875943793],
      "ImageType": [
        "ORIGINAL",
        "PRIMARY",
        "M",
        "MB",
        "ND",
        "NORM",
        "MOSAIC"
],
      "ImagedNucleus": "1H",
      "ImagingFrequency": 123.252226,
      "InPlanePhaseEncodingDirection": "COL",
      "MRAcquisitionType": "2D",
      "MagneticFieldStrength": 3.0,
      "Manufacturer": "SIEMENS",
      "ManufacturerModelName": "Prisma",
      "Modality": "MR",
      "NumberOfAverages": 1.0,
      "NumberOfPhaseEncodingSteps": 82,
      "PercentPhaseFieldOfView": 100.0,
      "PercentSampling": 100.0,
      "PerformedProcedureStepStartTime": "110648.835000",
      "PhotometricInterpretation": "MONOCHROME2",
      "PixelBandwidth": 3050.0,
      "PixelRepresentation": 0,
      "PixelSpacing": [2.6829268932343, 2.6829268932343],
      "ProtocolName": "func_run-02_task-faces_acq-ap-mb8",
      "RepetitionTime": 460.0,
      "Rows": 656,
      "SAR": 0.10283339877726,
      "SamplesPerPixel": 1,
      "ScanOptions": "FS",
      "ScanningSequence": "EP",
      "SequenceName": "epfid2d1_82",
      "SequenceVariant": [
        "SK",
        "SS"
],
      "SeriesDescription": "func_run-02_task-faces_acq-ap-mb8",
      "SeriesNumber": 18,
      "SeriesTime": "120401.289000",
      "SliceLocation": -85.342685399233,
      "SliceThickness": 2.7000000476837,
      "SmallestImagePixelValue": 0,
      "SoftwareVersions": "syngo MR E11",
      "SpacingBetweenSlices": 2.7000000170672,
      "SpecificCharacterSet": "ISO_IR 100",
      "StudyID": "2",
      "StudyTime": "110648.727000",
      "TransmitCoilName": "Body",
      "VariableFlipAngleFlag": "N",
      "WindowCenterWidthExplanation": "Algo1",
      "dBdt": 0.0},
    "slices": {}
  },
  "time": {
    "samples": {
      "AcquisitionNumber": [1, 2, 3, 4, 5, 6, 7, 8, 9, 10, 11, 12, 13, 14, 15, 16, 17, 18, 19, 20, 21, 22, 23, 24, 25, 26, 27, 28, 29, 30, 31, 32, 33, 34, 35, 36, 37, 38, 39, 40, 41, 42, 43, 44, 45, 46, 47, 48, 49, 50, 51, 52, 53, 54, 55, 56, 57, 58, 59, 60, 61, 62, 63, 64, 65, 66, 67, 68, 69, 70, 71, 72, 73, 74, 75, 76, 77, 78, 79, 80, 81, 82, 83, 84, 85, 86, 87, 88, 89, 90, 91, 92, 93, 94, 95, 96, 97, 98, 99, 100, 101, 102, 103, 104, 105, 106, 107, 108, 109, 110, 111, 112, 113, 114, 115, 116, 117, 118, 119, 120, 121, 122, 123, 124, 125, 126, 127, 128, 129, 130, 131, 132, 133, 134, 135, 136, 137, 138, 139, 140, 141, 142, 143, 144, 145, 146, 147, 148, 149, 150, 151, 152, 153, 154, 155, 156, 157, 158, 159, 160, 161, 162, 163, 164, 165, 166, 167, 168, 169, 170, 171, 172, 173, 174, 175, 176, 177, 178, 179, 180, 181, 182, 183, 184, 185, 186, 187, 188, 189, 190, 191, 192, 193, 194, 195, 196, 197, 198, 199, 200, 201, 202, 203, 204, 205, 206, 207, 208, 209, 210, 211, 212, 213, 214, 215, 216, 217, 218, 219, 220, 221, 222, 223, 224, 225, 226, 227, 228, 229, 230, 231, 232, 233, 234, 235, 236, 237, 238, 239, 240, 241, 242, 243, 244, 245, 246, 247, 248, 249, 250, 251, 252, 253, 254, 255, 256, 257, 258, 259, 260, 261, 262, 263, 264, 265, 266, 267, 268, 269, 270, 271, 272, 273, 274, 275, 276, 277, 278, 279, 280, 281, 282, 283, 284, 285, 286, 287, 288, 289, 290, 291, 292, 293, 294, 295, 296, 297, 298, 299, 300, 301, 302, 303, 304, 305, 306, 307, 308, 309, 310, 311, 312, 313, 314, 315, 316, 317, 318, 319, 320, 321, 322, 323, 324, 325, 326, 327, 328, 329, 330, 331, 332, 333, 334, 335, 336, 337, 338, 339, 340, 341, 342, 343, 344, 345, 346, 347, 348, 349, 350, 351, 352, 353, 354, 355, 356, 357, 358, 359, 360, 361, 362, 363, 364, 365, 366, 367, 368, 369, 370, 371, 372, 373, 374, 375, 376, 377, 378, 379, 380, 381, 382, 383, 384, 385, 386, 387, 388, 389, 390, 391, 392, 393, 394, 395, 396, 397, 398, 399, 400, 401, 402, 403, 404, 405, 406, 407, 408, 409, 410, 411, 412, 413, 414, 415, 416, 417, 418, 419, 420, 421, 422, 423, 424, 425, 426, 427, 428, 429, 430, 431, 432, 433, 434, 435, 436, 437, 438, 439, 440, 441, 442, 443, 444, 445, 446, 447, 448, 449, 450, 451, 452, 453, 454, 455, 456, 457, 458, 459, 460, 461, 462, 463, 464, 465, 466, 467, 468, 469, 470, 471, 472, 473, 474, 475, 476, 477, 478, 479, 480, 481, 482, 483, 484, 485, 486, 487, 488, 489, 490, 491, 492, 493, 494, 495, 496, 497, 498, 499, 500, 501, 502, 503, 504, 505, 506, 507, 508, 509, 510, 511, 512, 513, 514, 515, 516, 517, 518, 519, 520, 521, 522, 523, 524, 525, 526, 527, 528, 529, 530, 531, 532, 533, 534, 535, 536, 537, 538, 539, 540, 541, 542, 543, 544, 545, 546, 547, 548, 549, 550, 551, 552, 553, 554, 555, 556, 557, 558, 559, 560, 561, 562, 563, 564, 565, 566, 567, 568, 569, 570, 571, 572, 573, 574, 575, 576, 577, 578, 579, 580, 581, 582, 583, 584, 585, 586, 587, 588, 589, 590, 591, 592, 593, 594, 595, 596, 597, 598, 599, 600, 601, 602, 603, 604, 605, 606, 607, 608, 609, 610, 611, 612, 613, 614, 615, 616, 617, 618, 619, 620, 621, 622, 623, 624, 625, 626, 627, 628, 629, 630, 631, 632, 633, 634, 635, 636, 637, 638, 639, 640, 641, 642, 643, 644, 645, 646, 647, 648, 649, 650, 651, 652, 653, 654, 655, 656, 657, 658, 659, 660, 661, 662, 663, 664, 665, 666, 667, 668, 669, 670, 671, 672, 673, 674, 675, 676, 677, 678, 679, 680, 681, 682, 683, 684, 685, 686, 687, 688, 689, 690, 691, 692, 693, 694, 695, 696, 697, 698, 699, 700, 701, 702, 703, 704, 705, 706, 707, 708, 709, 710, 711, 712, 713, 714, 715, 716, 717, 718, 719, 720, 721, 722, 723, 724, 725, 726, 727, 728, 729, 730, 731, 732, 733, 734, 735, 736, 737, 738, 739, 740, 741, 742, 743, 744, 745, 746, 747, 748, 749, 750, 751, 752, 753, 754, 755, 756, 757, 758, 759, 760, 761, 762, 763, 764, 765, 766, 767, 768, 769, 770, 771, 772, 773, 774, 775, 776, 777, 778, 779, 780, 781, 782, 783, 784, 785, 786, 787, 788, 789, 790, 791, 792, 793, 794, 795, 796, 797, 798, 799, 800, 801, 802, 803, 804, 805, 806, 807, 808, 809, 810, 811, 812, 813, 814, 815, 816, 817, 818, 819, 820, 821, 822, 823, 824, 825, 826, 827, 828, 829, 830, 831, 832, 833, 834, 835, 836, 837, 838, 839, 840, 841, 842, 843, 844, 845, 846, 847, 848, 849, 850, 851, 852, 853, 854, 855, 856, 857, 858, 859, 860, 861, 862, 863, 864, 865, 866, 867, 868, 869, 870, 871, 872, 873, 874, 875, 876, 877, 878, 879, 880, 881, 882, 883, 884, 885, 886, 887, 888, 889, 890, 891, 892, 893, 894, 895, 896, 897, 898, 899, 900, 901, 902, 903, 904, 905, 906, 907, 908, 909, 910, 911, 912, 913, 914],
      "AcquisitionTime": ["120335.392500", "120335.852500", "120336.312500", "120336.772500", "120337.232500", "120337.692500", "120338.152500", "120338.612500", "120339.072500", "120339.532500", "120339.992500", "120340.452500", "120340.912500", "120341.372500", "120341.832500", "120342.292500", "120342.752500", "120343.212500", "120343.672500", "120344.132500", "120344.592500", "120345.052500", "120345.512500", "120345.972500", "120346.432500", "120346.892500", "120347.352500", "120347.812500", "120348.272500", "120348.732500", "120349.192500", "120349.652500", "120350.112500", "120350.572500", "120351.032500", "120351.492500", "120351.952500", "120352.412500", "120352.872500", "120353.332500", "120353.792500", "120354.252500", "120354.712500", "120355.172500", "120355.632500", "120356.092500", "120356.552500", "120357.012500", "120357.472500", "120357.932500", "120358.392500", "120358.852500", "120359.312500", "120359.772500", "120400.232500", "120400.692500", "120401.152500", "120401.612500", "120402.072500", "120402.532500", "120402.992500", "120403.452500", "120403.912500", "120404.372500", "120404.832500", "120405.292500", "120405.752500", "120406.212500", "120406.672500", "120407.132500", "120407.592500", "120408.052500", "120408.512500", "120408.972500", "120409.432500", "120409.892500", "120410.352500", "120410.812500", "120411.272500", "120411.732500", "120412.192500", "120412.652500", "120413.112500", "120413.572500", "120414.032500", "120414.492500", "120414.952500", "120415.412500", "120415.872500", "120416.332500", "120416.792500", "120417.252500", "120417.712500", "120418.172500", "120418.632500", "120419.092500", "120419.552500", "120420.012500", "120420.472500", "120420.932500", "120421.392500", "120421.852500", "120422.312500", "120422.772500", "120423.232500", "120423.692500", "120424.152500", "120424.612500", "120425.072500", "120425.532500", "120425.992500", "120426.452500", "120426.912500", "120427.372500", "120427.832500", "120428.292500", "120428.752500", "120429.212500", "120429.672500", "120430.132500", "120430.592500", "120431.052500", "120431.512500", "120431.972500", "120432.432500", "120432.892500", "120433.352500", "120433.812500", "120434.272500", "120434.732500", "120435.192500", "120435.652500", "120436.112500", "120436.572500", "120437.032500", "120437.492500", "120437.952500", "120438.412500", "120438.872500", "120439.332500", "120439.792500", "120440.252500", "120440.712500", "120441.172500", "120441.632500", "120442.092500", "120442.552500", "120443.012500", "120443.472500", "120443.932500", "120444.392500", "120444.852500", "120445.312500", "120445.772500", "120446.232500", "120446.692500", "120447.152500", "120447.612500", "120448.072500", "120448.532500", "120448.992500", "120449.452500", "120449.912500", "120450.372500", "120450.832500", "120451.292500", "120451.752500", "120452.212500", "120452.672500", "120453.132500", "120453.592500", "120454.052500", "120454.512500", "120454.972500", "120455.432500", "120455.892500", "120456.352500", "120456.812500", "120457.272500", "120457.732500", "120458.192500", "120458.652500", "120459.112500", "120459.572500", "120500.032500", "120500.492500", "120500.952500", "120501.412500", "120501.872500", "120502.332500", "120502.792500", "120503.252500", "120503.712500", "120504.172500", "120504.632500", "120505.092500", "120505.552500", "120506.012500", "120506.472500", "120506.932500", "120507.392500", "120507.852500", "120508.312500", "120508.772500", "120509.232500", "120509.692500", "120510.152500", "120510.612500", "120511.072500", "120511.532500", "120511.992500", "120512.452500", "120512.912500", "120513.372500", "120513.832500", "120514.292500", "120514.752500", "120515.212500", "120515.672500", "120516.132500", "120516.592500", "120517.052500", "120517.512500", "120517.972500", "120518.432500", "120518.892500", "120519.352500", "120519.812500", "120520.272500", "120520.732500", "120521.192500", "120521.652500", "120522.112500", "120522.572500", "120523.032500", "120523.492500", "120523.952500", "120524.412500", "120524.872500", "120525.332500", "120525.792500", "120526.252500", "120526.712500", "120527.172500", "120527.632500", "120528.092500", "120528.552500", "120529.012500", "120529.472500", "120529.932500", "120530.392500", "120530.852500", "120531.312500", "120531.772500", "120532.232500", "120532.692500", "120533.152500", "120533.612500", "120534.072500", "120534.532500", "120534.992500", "120535.452500", "120535.912500", "120536.372500", "120536.832500", "120537.292500", "120537.752500", "120538.212500", "120538.672500", "120539.132500", "120539.592500", "120540.052500", "120540.512500", "120540.972500", "120541.432500", "120541.892500", "120542.352500", "120542.812500", "120543.272500", "120543.732500", "120544.192500", "120544.652500", "120545.112500", "120545.572500", "120546.032500", "120546.492500", "120546.952500", "120547.412500", "120547.872500", "120548.332500", "120548.792500", "120549.252500", "120549.712500", "120550.172500", "120550.632500", "120551.092500", "120551.552500", "120552.012500", "120552.472500", "120552.932500", "120553.392500", "120553.852500", "120554.312500", "120554.772500", "120555.232500", "120555.692500", "120556.152500", "120556.612500", "120557.072500", "120557.532500", "120557.992500", "120558.452500", "120558.912500", "120559.372500", "120559.832500", "120600.292500", "120600.752500", "120601.212500", "120601.672500", "120602.132500", "120602.592500", "120603.052500", "120603.512500", "120603.972500", "120604.432500", "120604.892500", "120605.352500", "120605.812500", "120606.272500", "120606.732500", "120607.192500", "120607.652500", "120608.112500", "120608.572500", "120609.032500", "120609.492500", "120609.952500", "120610.412500", "120610.872500", "120611.332500", "120611.792500", "120612.252500", "120612.712500", "120613.172500", "120613.632500", "120614.092500", "120614.552500", "120615.012500", "120615.472500", "120615.932500", "120616.392500", "120616.852500", "120617.312500", "120617.772500", "120618.232500", "120618.692500", "120619.152500", "120619.612500", "120620.072500", "120620.532500", "120620.992500", "120621.452500", "120621.912500", "120622.372500", "120622.832500", "120623.292500", "120623.752500", "120624.212500", "120624.672500", "120625.132500", "120625.592500", "120626.052500", "120626.512500", "120626.972500", "120627.432500", "120627.892500", "120628.352500", "120628.812500", "120629.272500", "120629.732500", "120630.192500", "120630.652500", "120631.112500", "120631.572500", "120632.032500", "120632.492500", "120632.952500", "120633.412500", "120633.872500", "120634.332500", "120634.792500", "120635.252500", "120635.712500", "120636.172500", "120636.632500", "120637.092500", "120637.552500", "120638.012500", "120638.472500", "120638.932500", "120639.392500", "120639.852500", "120640.312500", "120640.772500", "120641.232500", "120641.692500", "120642.152500", "120642.612500", "120643.072500", "120643.532500", "120643.992500", "120644.452500", "120644.912500", "120645.372500", "120645.832500", "120646.292500", "120646.752500", "120647.212500", "120647.672500", "120648.132500", "120648.592500", "120649.052500", "120649.512500", "120649.972500", "120650.432500", "120650.892500", "120651.352500", "120651.812500", "120652.272500", "120652.732500", "120653.192500", "120653.652500", "120654.112500", "120654.572500", "120655.032500", "120655.492500", "120655.952500", "120656.412500", "120656.872500", "120657.332500", "120657.792500", "120658.252500", "120658.712500", "120659.172500", "120659.632500", "120700.092500", "120700.552500", "120701.012500", "120701.472500", "120701.932500", "120702.392500", "120702.852500", "120703.312500", "120703.772500", "120704.232500", "120704.692500", "120705.152500", "120705.612500", "120706.072500", "120706.532500", "120706.992500", "120707.452500", "120707.912500", "120708.372500", "120708.832500", "120709.292500", "120709.752500", "120710.212500", "120710.672500", "120711.132500", "120711.592500", "120712.052500", "120712.512500", "120712.972500", "120713.432500", "120713.892500", "120714.352500", "120714.812500", "120715.272500", "120715.732500", "120716.192500", "120716.652500", "120717.112500", "120717.572500", "120718.032500", "120718.492500", "120718.952500", "120719.412500", "120719.872500", "120720.332500", "120720.792500", "120721.252500", "120721.712500", "120722.172500", "120722.632500", "120723.092500", "120723.552500", "120724.012500", "120724.472500", "120724.932500", "120725.392500", "120725.852500", "120726.312500", "120726.772500", "120727.232500", "120727.692500", "120728.152500", "120728.612500", "120729.072500", "120729.532500", "120729.992500", "120730.452500", "120730.912500", "120731.372500", "120731.832500", "120732.292500", "120732.752500", "120733.212500", "120733.672500", "120734.132500", "120734.592500", "120735.052500", "120735.512500", "120735.972500", "120736.432500", "120736.892500", "120737.352500", "120737.812500", "120738.272500", "120738.732500", "120739.192500", "120739.652500", "120740.112500", "120740.572500", "120741.032500", "120741.492500", "120741.952500", "120742.412500", "120742.872500", "120743.332500", "120743.792500", "120744.252500", "120744.712500", "120745.172500", "120745.632500", "120746.092500", "120746.552500", "120747.012500", "120747.472500", "120747.932500", "120748.392500", "120748.852500", "120749.312500", "120749.772500", "120750.232500", "120750.692500", "120751.152500", "120751.612500", "120752.072500", "120752.532500", "120752.992500", "120753.452500", "120753.912500", "120754.372500", "120754.832500", "120755.292500", "120755.752500", "120756.212500", "120756.672500", "120757.132500", "120757.592500", "120758.052500", "120758.512500", "120758.972500", "120759.432500", "120759.892500", "120800.352500", "120800.812500", "120801.272500", "120801.732500", "120802.192500", "120802.652500", "120803.112500", "120803.572500", "120804.032500", "120804.492500", "120804.952500", "120805.412500", "120805.872500", "120806.332500", "120806.792500", "120807.252500", "120807.712500", "120808.172500", "120808.632500", "120809.092500", "120809.552500", "120810.012500", "120810.472500", "120810.932500", "120811.392500", "120811.852500", "120812.312500", "120812.772500", "120813.232500", "120813.692500", "120814.152500", "120814.612500", "120815.072500", "120815.532500", "120815.992500", "120816.452500", "120816.912500", "120817.372500", "120817.832500", "120818.292500", "120818.752500", "120819.212500", "120819.672500", "120820.132500", "120820.592500", "120821.052500", "120821.512500", "120821.972500", "120822.432500", "120822.892500", "120823.352500", "120823.812500", "120824.272500", "120824.732500", "120825.192500", "120825.652500", "120826.112500", "120826.572500", "120827.032500", "120827.492500", "120827.952500", "120828.412500", "120828.872500", "120829.332500", "120829.792500", "120830.252500", "120830.712500", "120831.172500", "120831.632500", "120832.092500", "120832.552500", "120833.012500", "120833.472500", "120833.932500", "120834.392500", "120834.852500", "120835.312500", "120835.772500", "120836.232500", "120836.692500", "120837.152500", "120837.612500", "120838.072500", "120838.532500", "120838.992500", "120839.452500", "120839.912500", "120840.372500", "120840.832500", "120841.292500", "120841.752500", "120842.212500", "120842.672500", "120843.132500", "120843.592500", "120844.052500", "120844.512500", "120844.972500", "120845.432500", "120845.892500", "120846.352500", "120846.812500", "120847.272500", "120847.732500", "120848.192500", "120848.652500", "120849.112500", "120849.572500", "120850.032500", "120850.492500", "120850.952500", "120851.412500", "120851.872500", "120852.332500", "120852.792500", "120853.252500", "120853.712500", "120854.172500", "120854.632500", "120855.092500", "120855.552500", "120856.012500", "120856.472500", "120856.932500", "120857.392500", "120857.852500", "120858.312500", "120858.772500", "120859.232500", "120859.692500", "120900.152500", "120900.612500", "120901.072500", "120901.532500", "120901.992500", "120902.452500", "120902.912500", "120903.372500", "120903.832500", "120904.292500", "120904.752500", "120905.212500", "120905.672500", "120906.132500", "120906.592500", "120907.052500", "120907.512500", "120907.972500", "120908.432500", "120908.892500", "120909.352500", "120909.812500", "120910.272500", "120910.732500", "120911.192500", "120911.652500", "120912.112500", "120912.572500", "120913.032500", "120913.492500", "120913.952500", "120914.412500", "120914.872500", "120915.332500", "120915.792500", "120916.252500", "120916.712500", "120917.172500", "120917.632500", "120918.092500", "120918.552500", "120919.012500", "120919.472500", "120919.932500", "120920.392500", "120920.852500", "120921.312500", "120921.772500", "120922.232500", "120922.692500", "120923.152500", "120923.612500", "120924.072500", "120924.532500", "120924.992500", "120925.452500", "120925.912500", "120926.372500", "120926.832500", "120927.292500", "120927.752500", "120928.212500", "120928.672500", "120929.132500", "120929.592500", "120930.052500", "120930.512500", "120930.972500", "120931.432500", "120931.892500", "120932.352500", "120932.812500", "120933.272500", "120933.732500", "120934.192500", "120934.652500", "120935.112500", "120935.572500", "120936.032500", "120936.492500", "120936.952500", "120937.412500", "120937.872500", "120938.332500", "120938.792500", "120939.252500", "120939.712500", "120940.172500", "120940.632500", "120941.092500", "120941.552500", "120942.012500", "120942.472500", "120942.932500", "120943.392500", "120943.852500", "120944.312500", "120944.772500", "120945.232500", "120945.692500", "120946.152500", "120946.612500", "120947.072500", "120947.532500", "120947.992500", "120948.452500", "120948.912500", "120949.372500", "120949.832500", "120950.292500", "120950.752500", "120951.212500", "120951.672500", "120952.132500", "120952.592500", "120953.052500", "120953.512500", "120953.972500", "120954.432500", "120954.892500", "120955.352500", "120955.812500", "120956.272500", "120956.732500", "120957.192500", "120957.652500", "120958.112500", "120958.572500", "120959.032500", "120959.492500", "120959.952500", "121000.412500", "121000.872500", "121001.332500", "121001.792500", "121002.252500", "121002.712500", "121003.172500", "121003.632500", "121004.092500", "121004.552500", "121005.012500", "121005.472500", "121005.932500", "121006.392500", "121006.852500", "121007.312500", "121007.772500", "121008.232500", "121008.692500", "121009.152500", "121009.612500", "121010.072500", "121010.532500", "121010.992500", "121011.452500", "121011.912500", "121012.372500", "121012.832500", "121013.292500", "121013.752500", "121014.212500", "121014.672500", "121015.132500", "121015.592500", "121016.052500", "121016.512500", "121016.972500", "121017.432500", "121017.892500", "121018.352500", "121018.812500", "121019.272500", "121019.732500", "121020.192500", "121020.652500", "121021.112500", "121021.572500", "121022.032500", "121022.492500", "121022.952500", "121023.412500", "121023.872500", "121024.332500", "121024.792500", "121025.252500", "121025.712500", "121026.172500", "121026.632500", "121027.092500", "121027.552500", "121028.012500", "121028.472500", "121028.932500", "121029.392500", "121029.852500", "121030.312500", "121030.772500", "121031.232500", "121031.692500", "121032.152500", "121032.612500", "121033.072500", "121033.532500", "121033.992500", "121034.452500", "121034.912500", "121035.372500"],
