{
  "AcquisitionMatrixPE": 82,
  "AcquisitionNumber": 1,
  "AcquisitionTime": "11:56:3.045000",
  "BandwidthPerPixelPhaseEncode": 24.888,
  "BaseResolution": 82,
  "BodyPartExamined": "BRAIN",
  "ConsistencyInfo": "N4_VE11C_LATEST_20160120",
  "ConversionSoftware": "dcm2niix",
  "ConversionSoftwareVersion": "v1.0.20201102",
  "DerivedVendorReportedEchoSpacing": 0.00049,
  "DeviceSerialNumber": "66112",
  "DwellTime": 2e-06,
  "EchoTime": 0.0272,
  "EchoTrainLength": 82,
  "EffectiveEchoSpacing": 0.00049,
  "FlipAngle": 44,
  "ImageComments": "Unaliased MB8/PE3",
  "ImageOrientationPatientDICOM": [0.999347, 0.0347726, 0.00980601, -0.0340248, 0.997091, -0.0682087],
  "ImageType": [
    "ORIGINAL",
    "PRIMARY",
    "M",
    "MB",
    "ND",
    "NORM",
    "MOSAIC"
],
  "ImagingFrequency": 123.252,
  "InPlanePhaseEncodingDirectionDICOM": "COL",
  "InstitutionAddress": "Maynard 3,Hanover,NH,US,03755",
  "InstitutionName": "Dartmouth College - PBS",
  "InstitutionalDepartmentName": "Department",
  "MRAcquisitionType": "2D",
  "MagneticFieldStrength": 3,
  "Manufacturer": "Siemens",
  "ManufacturersModelName": "Prisma",
  "Modality": "MR",
  "MultibandAccelerationFactor": 8,
  "PartialFourier": 1,
  "PatientPosition": "HFS",
  "PercentPhaseFOV": 100,
  "PercentSampling": 100,
  "PhaseEncodingDirection": "j-",
  "PhaseEncodingSteps": 82,
  "PhaseResolution": 1,
  "PixelBandwidth": 3050,
  "ProcedureStepDescription": "Wager_Wager^1076_spacetop",
  "ProtocolName": "func_run-01_task-faces_acq-ap-mb8",
  "PulseSequenceDetails": "%CustomerSeq%\\cmrr_mbep2d_bold",
  "ReceiveCoilActiveElements": "HEA;HEP",
  "ReceiveCoilName": "Head_32",
  "ReconMatrixPE": 82,
  "RepetitionTime": 0.46,
  "SAR": 0.102833,
  "ScanOptions": "FS",
  "ScanningSequence": "EP",
  "SequenceName": "epfid2d1_82",
  "SequenceVariant": "SK\\SS",
  "SeriesDescription": "func_run-01_task-faces_acq-ap-mb8",
  "SeriesNumber": 16,
  "ShimSetting": [4149, -7738, -7262, 431, -65, -89, 26, 63],
  "SliceThickness": 2.7,
  "SliceTiming": [0, 0.25, 0.0625, 0.3125, 0.125, 0.375, 0.1875, 0, 0.25, 0.0625, 0.3125, 0.125, 0.375, 0.1875, 0, 0.25, 0.0625, 0.3125, 0.125, 0.375, 0.1875, 0, 0.25, 0.0625, 0.3125, 0.125, 0.375, 0.1875, 0, 0.25, 0.0625, 0.3125, 0.125, 0.375, 0.1875, 0, 0.25, 0.0625, 0.3125, 0.125, 0.375, 0.1875, 0, 0.25, 0.0625, 0.3125, 0.125, 0.375, 0.1875, 0, 0.25, 0.0625, 0.3125, 0.125, 0.375, 0.1875],
  "SoftwareVersions": "syngo MR E11",
  "SpacingBetweenSlices": 2.7,
  "StationName": "AWP66112",
  "TaskName": "faces",
  "TotalReadoutTime": 0.03969,
  "TxRefAmp": 289.689,
  "WipMemBlock": "b1196b6e-3ac4-4192-aa4c-6ad6fd4aed68||Sequence: R016 ve11c/master r/e634e98; Dec 19 2017 11:00:25 by eja",
  "dcmmeta_affine": [
    [-2.6811752319335938, -0.0912860855460167, 0.032803039997816086, 116.06156158447266],
    [-0.09329239279031754, 2.675121545791626, -0.18314231932163239, -87.956787109375],
    [0.026308802887797356, 0.1829988658428192, 2.6935818195343018, -92.93982696533203],
    [0.0, 0.0, 0.0, 1.0]
],
  "dcmmeta_reorient_transform": [
    [0.0, -1.0, 0.0, 81.0],
    [1.0, 0.0, 0.0, 0.0],
    [0.0, 0.0, 1.0, 0.0],
    [0.0, 0.0, 0.0, 1.0]
],
  "dcmmeta_shape": [82, 82, 56, 914],
  "dcmmeta_slice_dim": 2,
  "dcmmeta_version": 0.6,
  "global": {
    "const": {
      "AccessionNumber": "A003825",
      "AcquisitionMatrix": [82, 0, 0, 82],
      "AngioFlag": "N",
      "BitsAllocated": 16,
      "BitsStored": 16,
      "BodyPartExamined": "BRAIN",
      "Columns": 656,
      "EchoNumbers": 1,
      "EchoTime": 27.2,
      "EchoTrainLength": 82,
      "FlipAngle": 44.0,
      "HighBit": 15,
      "ImageOrientationPatient": [0.9993471405183, 0.03477261763889, 0.0098060083847, -0.0340248128122, 0.99709071316869, -0.0682086638621],
      "ImagePositionPatient": [-851.9656000826, -923.26283816347, -33.146875943793],
      "ImageType": [
        "ORIGINAL",
        "PRIMARY",
        "M",
        "MB",
        "ND",
        "NORM",
        "MOSAIC"
],
      "ImagedNucleus": "1H",
      "ImagingFrequency": 123.252223,
      "InPlanePhaseEncodingDirection": "COL",
      "MRAcquisitionType": "2D",
      "MagneticFieldStrength": 3.0,
      "Manufacturer": "SIEMENS",
      "ManufacturerModelName": "Prisma",
      "Modality": "MR",
      "NumberOfAverages": 1.0,
      "NumberOfPhaseEncodingSteps": 82,
      "PercentPhaseFieldOfView": 100.0,
      "PercentSampling": 100.0,
      "PerformedProcedureStepStartTime": "110648.835000",
      "PhotometricInterpretation": "MONOCHROME2",
      "PixelBandwidth": 3050.0,
      "PixelRepresentation": 0,
      "PixelSpacing": [2.6829268932343, 2.6829268932343],
      "ProtocolName": "func_run-01_task-faces_acq-ap-mb8",
      "RepetitionTime": 460.0,
      "Rows": 656,
      "SAR": 0.10283339877726,
      "SamplesPerPixel": 1,
      "ScanOptions": "FS",
      "ScanningSequence": "EP",
      "SequenceName": "epfid2d1_82",
      "SequenceVariant": [
        "SK",
        "SS"
],
      "SeriesDescription": "func_run-01_task-faces_acq-ap-mb8",
      "SeriesNumber": 16,
      "SeriesTime": "115621.210000",
      "SliceLocation": -85.342685399233,
      "SliceThickness": 2.7000000476837,
      "SmallestImagePixelValue": 0,
      "SoftwareVersions": "syngo MR E11",
      "SpacingBetweenSlices": 2.7000000170672,
      "SpecificCharacterSet": "ISO_IR 100",
      "StudyID": "2",
      "StudyTime": "110648.727000",
      "TransmitCoilName": "Body",
      "VariableFlipAngleFlag": "N",
      "WindowCenterWidthExplanation": "Algo1",
      "dBdt": 0.0},
    "slices": {}
  },
  "time": {
    "samples": {
      "AcquisitionNumber": [1, 2, 3, 4, 5, 6, 7, 8, 9, 10, 11, 12, 13, 14, 15, 16, 17, 18, 19, 20, 21, 22, 23, 24, 25, 26, 27, 28, 29, 30, 31, 32, 33, 34, 35, 36, 37, 38, 39, 40, 41, 42, 43, 44, 45, 46, 47, 48, 49, 50, 51, 52, 53, 54, 55, 56, 57, 58, 59, 60, 61, 62, 63, 64, 65, 66, 67, 68, 69, 70, 71, 72, 73, 74, 75, 76, 77, 78, 79, 80, 81, 82, 83, 84, 85, 86, 87, 88, 89, 90, 91, 92, 93, 94, 95, 96, 97, 98, 99, 100, 101, 102, 103, 104, 105, 106, 107, 108, 109, 110, 111, 112, 113, 114, 115, 116, 117, 118, 119, 120, 121, 122, 123, 124, 125, 126, 127, 128, 129, 130, 131, 132, 133, 134, 135, 136, 137, 138, 139, 140, 141, 142, 143, 144, 145, 146, 147, 148, 149, 150, 151, 152, 153, 154, 155, 156, 157, 158, 159, 160, 161, 162, 163, 164, 165, 166, 167, 168, 169, 170, 171, 172, 173, 174, 175, 176, 177, 178, 179, 180, 181, 182, 183, 184, 185, 186, 187, 188, 189, 190, 191, 192, 193, 194, 195, 196, 197, 198, 199, 200, 201, 202, 203, 204, 205, 206, 207, 208, 209, 210, 211, 212, 213, 214, 215, 216, 217, 218, 219, 220, 221, 222, 223, 224, 225, 226, 227, 228, 229, 230, 231, 232, 233, 234, 235, 236, 237, 238, 239, 240, 241, 242, 243, 244, 245, 246, 247, 248, 249, 250, 251, 252, 253, 254, 255, 256, 257, 258, 259, 260, 261, 262, 263, 264, 265, 266, 267, 268, 269, 270, 271, 272, 273, 274, 275, 276, 277, 278, 279, 280, 281, 282, 283, 284, 285, 286, 287, 288, 289, 290, 291, 292, 293, 294, 295, 296, 297, 298, 299, 300, 301, 302, 303, 304, 305, 306, 307, 308, 309, 310, 311, 312, 313, 314, 315, 316, 317, 318, 319, 320, 321, 322, 323, 324, 325, 326, 327, 328, 329, 330, 331, 332, 333, 334, 335, 336, 337, 338, 339, 340, 341, 342, 343, 344, 345, 346, 347, 348, 349, 350, 351, 352, 353, 354, 355, 356, 357, 358, 359, 360, 361, 362, 363, 364, 365, 366, 367, 368, 369, 370, 371, 372, 373, 374, 375, 376, 377, 378, 379, 380, 381, 382, 383, 384, 385, 386, 387, 388, 389, 390, 391, 392, 393, 394, 395, 396, 397, 398, 399, 400, 401, 402, 403, 404, 405, 406, 407, 408, 409, 410, 411, 412, 413, 414, 415, 416, 417, 418, 419, 420, 421, 422, 423, 424, 425, 426, 427, 428, 429, 430, 431, 432, 433, 434, 435, 436, 437, 438, 439, 440, 441, 442, 443, 444, 445, 446, 447, 448, 449, 450, 451, 452, 453, 454, 455, 456, 457, 458, 459, 460, 461, 462, 463, 464, 465, 466, 467, 468, 469, 470, 471, 472, 473, 474, 475, 476, 477, 478, 479, 480, 481, 482, 483, 484, 485, 486, 487, 488, 489, 490, 491, 492, 493, 494, 495, 496, 497, 498, 499, 500, 501, 502, 503, 504, 505, 506, 507, 508, 509, 510, 511, 512, 513, 514, 515, 516, 517, 518, 519, 520, 521, 522, 523, 524, 525, 526, 527, 528, 529, 530, 531, 532, 533, 534, 535, 536, 537, 538, 539, 540, 541, 542, 543, 544, 545, 546, 547, 548, 549, 550, 551, 552, 553, 554, 555, 556, 557, 558, 559, 560, 561, 562, 563, 564, 565, 566, 567, 568, 569, 570, 571, 572, 573, 574, 575, 576, 577, 578, 579, 580, 581, 582, 583, 584, 585, 586, 587, 588, 589, 590, 591, 592, 593, 594, 595, 596, 597, 598, 599, 600, 601, 602, 603, 604, 605, 606, 607, 608, 609, 610, 611, 612, 613, 614, 615, 616, 617, 618, 619, 620, 621, 622, 623, 624, 625, 626, 627, 628, 629, 630, 631, 632, 633, 634, 635, 636, 637, 638, 639, 640, 641, 642, 643, 644, 645, 646, 647, 648, 649, 650, 651, 652, 653, 654, 655, 656, 657, 658, 659, 660, 661, 662, 663, 664, 665, 666, 667, 668, 669, 670, 671, 672, 673, 674, 675, 676, 677, 678, 679, 680, 681, 682, 683, 684, 685, 686, 687, 688, 689, 690, 691, 692, 693, 694, 695, 696, 697, 698, 699, 700, 701, 702, 703, 704, 705, 706, 707, 708, 709, 710, 711, 712, 713, 714, 715, 716, 717, 718, 719, 720, 721, 722, 723, 724, 725, 726, 727, 728, 729, 730, 731, 732, 733, 734, 735, 736, 737, 738, 739, 740, 741, 742, 743, 744, 745, 746, 747, 748, 749, 750, 751, 752, 753, 754, 755, 756, 757, 758, 759, 760, 761, 762, 763, 764, 765, 766, 767, 768, 769, 770, 771, 772, 773, 774, 775, 776, 777, 778, 779, 780, 781, 782, 783, 784, 785, 786, 787, 788, 789, 790, 791, 792, 793, 794, 795, 796, 797, 798, 799, 800, 801, 802, 803, 804, 805, 806, 807, 808, 809, 810, 811, 812, 813, 814, 815, 816, 817, 818, 819, 820, 821, 822, 823, 824, 825, 826, 827, 828, 829, 830, 831, 832, 833, 834, 835, 836, 837, 838, 839, 840, 841, 842, 843, 844, 845, 846, 847, 848, 849, 850, 851, 852, 853, 854, 855, 856, 857, 858, 859, 860, 861, 862, 863, 864, 865, 866, 867, 868, 869, 870, 871, 872, 873, 874, 875, 876, 877, 878, 879, 880, 881, 882, 883, 884, 885, 886, 887, 888, 889, 890, 891, 892, 893, 894, 895, 896, 897, 898, 899, 900, 901, 902, 903, 904, 905, 906, 907, 908, 909, 910, 911, 912, 913, 914],
      "AcquisitionTime": ["115603.045000", "115603.505000", "115603.965000", "115604.425000", "115604.885000", "115605.345000", "115605.805000", "115606.265000", "115606.725000", "115607.185000", "115607.645000", "115608.105000", "115608.565000", "115609.025000", "115609.485000", "115609.945000", "115610.405000", "115610.865000", "115611.325000", "115611.785000", "115612.245000", "115612.705000", "115613.165000", "115613.625000", "115614.085000", "115614.545000", "115615.005000", "115615.465000", "115615.925000", "115616.385000", "115616.845000", "115617.305000", "115617.765000", "115618.225000", "115618.685000", "115619.145000", "115619.605000", "115620.065000", "115620.525000", "115620.985000", "115621.445000", "115621.905000", "115622.365000", "115622.825000", "115623.285000", "115623.745000", "115624.205000", "115624.665000", "115625.125000", "115625.585000", "115626.045000", "115626.505000", "115626.965000", "115627.425000", "115627.885000", "115628.345000", "115628.805000", "115629.265000", "115629.725000", "115630.185000", "115630.645000", "115631.105000", "115631.565000", "115632.025000", "115632.485000", "115632.945000", "115633.405000", "115633.865000", "115634.325000", "115634.785000", "115635.245000", "115635.705000", "115636.165000", "115636.625000", "115637.085000", "115637.545000", "115638.005000", "115638.465000", "115638.925000", "115639.385000", "115639.845000", "115640.305000", "115640.765000", "115641.225000", "115641.685000", "115642.145000", "115642.605000", "115643.065000", "115643.525000", "115643.985000", "115644.445000", "115644.905000", "115645.365000", "115645.825000", "115646.285000", "115646.745000", "115647.205000", "115647.665000", "115648.125000", "115648.585000", "115649.045000", "115649.505000", "115649.965000", "115650.425000", "115650.885000", "115651.345000", "115651.805000", "115652.265000", "115652.725000", "115653.185000", "115653.645000", "115654.105000", "115654.565000", "115655.025000", "115655.485000", "115655.945000", "115656.405000", "115656.865000", "115657.325000", "115657.785000", "115658.245000", "115658.705000", "115659.165000", "115659.625000", "115700.085000", "115700.545000", "115701.005000", "115701.465000", "115701.925000", "115702.385000", "115702.845000", "115703.305000", "115703.765000", "115704.225000", "115704.685000", "115705.145000", "115705.605000", "115706.065000", "115706.525000", "115706.985000", "115707.445000", "115707.905000", "115708.365000", "115708.825000", "115709.285000", "115709.745000", "115710.205000", "115710.665000", "115711.125000", "115711.585000", "115712.045000", "115712.505000", "115712.965000", "115713.425000", "115713.885000", "115714.345000", "115714.805000", "115715.265000", "115715.725000", "115716.185000", "115716.645000", "115717.105000", "115717.565000", "115718.025000", "115718.485000", "115718.945000", "115719.405000", "115719.865000", "115720.325000", "115720.785000", "115721.245000", "115721.705000", "115722.165000", "115722.625000", "115723.085000", "115723.545000", "115724.005000", "115724.465000", "115724.925000", "115725.385000", "115725.845000", "115726.305000", "115726.765000", "115727.225000", "115727.685000", "115728.145000", "115728.605000", "115729.065000", "115729.525000", "115729.985000", "115730.445000", "115730.905000", "115731.365000", "115731.825000", "115732.285000", "115732.745000", "115733.205000", "115733.665000", "115734.125000", "115734.585000", "115735.045000", "115735.505000", "115735.965000", "115736.425000", "115736.885000", "115737.345000", "115737.805000", "115738.265000", "115738.725000", "115739.185000", "115739.645000", "115740.105000", "115740.565000", "115741.025000", "115741.485000", "115741.945000", "115742.405000", "115742.865000", "115743.325000", "115743.785000", "115744.245000", "115744.705000", "115745.165000", "115745.625000", "115746.085000", "115746.545000", "115747.005000", "115747.465000", "115747.925000", "115748.385000", "115748.845000", "115749.305000", "115749.765000", "115750.225000", "115750.685000", "115751.145000", "115751.605000", "115752.065000", "115752.525000", "115752.985000", "115753.445000", "115753.905000", "115754.365000", "115754.825000", "115755.285000", "115755.745000", "115756.205000", "115756.665000", "115757.125000", "115757.585000", "115758.045000", "115758.505000", "115758.965000", "115759.425000", "115759.885000", "115800.345000", "115800.805000", "115801.265000", "115801.725000", "115802.185000", "115802.645000", "115803.105000", "115803.565000", "115804.025000", "115804.485000", "115804.945000", "115805.405000", "115805.865000", "115806.325000", "115806.785000", "115807.245000", "115807.705000", "115808.165000", "115808.625000", "115809.085000", "115809.545000", "115810.005000", "115810.465000", "115810.925000", "115811.385000", "115811.845000", "115812.305000", "115812.765000", "115813.225000", "115813.685000", "115814.145000", "115814.605000", "115815.065000", "115815.525000", "115815.985000", "115816.445000", "115816.905000", "115817.365000", "115817.825000", "115818.285000", "115818.745000", "115819.205000", "115819.665000", "115820.125000", "115820.585000", "115821.045000", "115821.505000", "115821.965000", "115822.425000", "115822.885000", "115823.345000", "115823.805000", "115824.265000", "115824.725000", "115825.185000", "115825.645000", "115826.105000", "115826.565000", "115827.025000", "115827.485000", "115827.945000", "115828.405000", "115828.865000", "115829.325000", "115829.785000", "115830.245000", "115830.705000", "115831.165000", "115831.625000", "115832.085000", "115832.545000", "115833.005000", "115833.465000", "115833.925000", "115834.385000", "115834.845000", "115835.305000", "115835.765000", "115836.225000", "115836.685000", "115837.145000", "115837.605000", "115838.065000", "115838.525000", "115838.985000", "115839.445000", "115839.905000", "115840.365000", "115840.825000", "115841.285000", "115841.745000", "115842.205000", "115842.665000", "115843.125000", "115843.585000", "115844.045000", "115844.505000", "115844.965000", "115845.425000", "115845.885000", "115846.345000", "115846.805000", "115847.265000", "115847.725000", "115848.185000", "115848.645000", "115849.105000", "115849.565000", "115850.025000", "115850.485000", "115850.945000", "115851.405000", "115851.865000", "115852.325000", "115852.785000", "115853.245000", "115853.705000", "115854.165000", "115854.625000", "115855.085000", "115855.545000", "115856.005000", "115856.465000", "115856.925000", "115857.385000", "115857.845000", "115858.305000", "115858.765000", "115859.225000", "115859.685000", "115900.145000", "115900.605000", "115901.065000", "115901.525000", "115901.985000", "115902.445000", "115902.905000", "115903.365000", "115903.825000", "115904.285000", "115904.745000", "115905.205000", "115905.665000", "115906.125000", "115906.585000", "115907.045000", "115907.505000", "115907.965000", "115908.425000", "115908.885000", "115909.345000", "115909.805000", "115910.265000", "115910.725000", "115911.185000", "115911.645000", "115912.105000", "115912.565000", "115913.025000", "115913.485000", "115913.945000", "115914.405000", "115914.865000", "115915.325000", "115915.785000", "115916.245000", "115916.705000", "115917.165000", "115917.625000", "115918.085000", "115918.545000", "115919.005000", "115919.465000", "115919.925000", "115920.385000", "115920.845000", "115921.305000", "115921.765000", "115922.225000", "115922.685000", "115923.145000", "115923.605000", "115924.065000", "115924.525000", "115924.985000", "115925.445000", "115925.905000", "115926.365000", "115926.825000", "115927.285000", "115927.745000", "115928.205000", "115928.665000", "115929.125000", "115929.585000", "115930.045000", "115930.505000", "115930.965000", "115931.425000", "115931.885000", "115932.345000", "115932.805000", "115933.265000", "115933.725000", "115934.185000", "115934.645000", "115935.105000", "115935.565000", "115936.025000", "115936.485000", "115936.945000", "115937.405000", "115937.865000", "115938.325000", "115938.785000", "115939.245000", "115939.705000", "115940.165000", "115940.625000", "115941.085000", "115941.545000", "115942.005000", "115942.465000", "115942.925000", "115943.385000", "115943.845000", "115944.305000", "115944.765000", "115945.225000", "115945.685000", "115946.145000", "115946.605000", "115947.065000", "115947.525000", "115947.985000", "115948.445000", "115948.905000", "115949.365000", "115949.825000", "115950.285000", "115950.745000", "115951.205000", "115951.665000", "115952.125000", "115952.585000", "115953.045000", "115953.505000", "115953.965000", "115954.425000", "115954.885000", "115955.345000", "115955.805000", "115956.265000", "115956.725000", "115957.185000", "115957.645000", "115958.105000", "115958.565000", "115959.025000", "115959.485000", "115959.945000", "120000.405000", "120000.865000", "120001.325000", "120001.785000", "120002.245000", "120002.705000", "120003.165000", "120003.625000", "120004.085000", "120004.545000", "120005.005000", "120005.465000", "120005.925000", "120006.385000", "120006.845000", "120007.305000", "120007.765000", "120008.225000", "120008.685000", "120009.145000", "120009.605000", "120010.065000", "120010.525000", "120010.985000", "120011.445000", "120011.905000", "120012.365000", "120012.825000", "120013.285000", "120013.745000", "120014.205000", "120014.665000", "120015.125000", "120015.585000", "120016.045000", "120016.505000", "120016.965000", "120017.425000", "120017.885000", "120018.345000", "120018.805000", "120019.265000", "120019.725000", "120020.185000", "120020.645000", "120021.105000", "120021.565000", "120022.025000", "120022.485000", "120022.945000", "120023.405000", "120023.865000", "120024.325000", "120024.785000", "120025.245000", "120025.705000", "120026.165000", "120026.625000", "120027.085000", "120027.545000", "120028.005000", "120028.465000", "120028.925000", "120029.385000", "120029.845000", "120030.305000", "120030.765000", "120031.225000", "120031.685000", "120032.145000", "120032.605000", "120033.065000", "120033.525000", "120033.985000", "120034.445000", "120034.905000", "120035.365000", "120035.825000", "120036.285000", "120036.745000", "120037.205000", "120037.665000", "120038.125000", "120038.585000", "120039.045000", "120039.505000", "120039.965000", "120040.425000", "120040.885000", "120041.345000", "120041.805000", "120042.265000", "120042.725000", "120043.185000", "120043.645000", "120044.105000", "120044.565000", "120045.025000", "120045.485000", "120045.945000", "120046.405000", "120046.865000", "120047.325000", "120047.785000", "120048.245000", "120048.705000", "120049.165000", "120049.625000", "120050.085000", "120050.545000", "120051.005000", "120051.465000", "120051.925000", "120052.385000", "120052.845000", "120053.305000", "120053.765000", "120054.225000", "120054.685000", "120055.145000", "120055.605000", "120056.065000", "120056.525000", "120056.985000", "120057.445000", "120057.905000", "120058.365000", "120058.825000", "120059.285000", "120059.745000", "120100.205000", "120100.665000", "120101.125000", "120101.585000", "120102.045000", "120102.505000", "120102.965000", "120103.425000", "120103.885000", "120104.345000", "120104.805000", "120105.265000", "120105.725000", "120106.185000", "120106.645000", "120107.105000", "120107.565000", "120108.025000", "120108.485000", "120108.945000", "120109.405000", "120109.865000", "120110.325000", "120110.785000", "120111.245000", "120111.705000", "120112.165000", "120112.625000", "120113.085000", "120113.545000", "120114.005000", "120114.465000", "120114.925000", "120115.385000", "120115.845000", "120116.305000", "120116.765000", "120117.225000", "120117.685000", "120118.145000", "120118.605000", "120119.065000", "120119.525000", "120119.985000", "120120.445000", "120120.905000", "120121.365000", "120121.825000", "120122.285000", "120122.745000", "120123.205000", "120123.665000", "120124.125000", "120124.585000", "120125.045000", "120125.505000", "120125.965000", "120126.425000", "120126.885000", "120127.345000", "120127.805000", "120128.265000", "120128.725000", "120129.185000", "120129.645000", "120130.105000", "120130.565000", "120131.025000", "120131.485000", "120131.945000", "120132.405000", "120132.865000", "120133.325000", "120133.785000", "120134.245000", "120134.705000", "120135.165000", "120135.625000", "120136.085000", "120136.545000", "120137.005000", "120137.465000", "120137.925000", "120138.385000", "120138.845000", "120139.305000", "120139.765000", "120140.225000", "120140.685000", "120141.145000", "120141.605000", "120142.065000", "120142.525000", "120142.985000", "120143.445000", "120143.905000", "120144.365000", "120144.825000", "120145.285000", "120145.745000", "120146.205000", "120146.665000", "120147.125000", "120147.585000", "120148.045000", "120148.505000", "120148.965000", "120149.425000", "120149.885000", "120150.345000", "120150.805000", "120151.265000", "120151.725000", "120152.185000", "120152.645000", "120153.105000", "120153.565000", "120154.025000", "120154.485000", "120154.945000", "120155.405000", "120155.865000", "120156.325000", "120156.785000", "120157.245000", "120157.705000", "120158.165000", "120158.625000", "120159.085000", "120159.545000", "120200.005000", "120200.465000", "120200.925000", "120201.385000", "120201.845000", "120202.305000", "120202.765000", "120203.225000", "120203.685000", "120204.145000", "120204.605000", "120205.065000", "120205.525000", "120205.985000", "120206.445000", "120206.905000", "120207.365000", "120207.825000", "120208.285000", "120208.745000", "120209.205000", "120209.665000", "120210.125000", "120210.585000", "120211.045000", "120211.505000", "120211.965000", "120212.425000", "120212.885000", "120213.345000", "120213.805000", "120214.265000", "120214.725000", "120215.185000", "120215.645000", "120216.105000", "120216.565000", "120217.025000", "120217.485000", "120217.945000", "120218.405000", "120218.865000", "120219.325000", "120219.785000", "120220.245000", "120220.705000", "120221.165000", "120221.625000", "120222.085000", "120222.545000", "120223.005000", "120223.465000", "120223.925000", "120224.385000", "120224.845000", "120225.305000", "120225.765000", "120226.225000", "120226.685000", "120227.145000", "120227.605000", "120228.065000", "120228.525000", "120228.985000", "120229.445000", "120229.905000", "120230.365000", "120230.825000", "120231.285000", "120231.745000", "120232.205000", "120232.665000", "120233.125000", "120233.585000", "120234.045000", "120234.505000", "120234.965000", "120235.425000", "120235.885000", "120236.345000", "120236.805000", "120237.265000", "120237.725000", "120238.185000", "120238.645000", "120239.105000", "120239.565000", "120240.025000", "120240.485000", "120240.945000", "120241.405000", "120241.865000", "120242.325000", "120242.785000", "120243.245000", "120243.705000", "120244.165000", "120244.625000", "120245.085000", "120245.545000", "120246.005000", "120246.465000", "120246.925000", "120247.385000", "120247.845000", "120248.305000", "120248.765000", "120249.225000", "120249.685000", "120250.145000", "120250.605000", "120251.065000", "120251.525000", "120251.985000", "120252.445000", "120252.905000", "120253.365000", "120253.825000", "120254.285000", "120254.745000", "120255.205000", "120255.665000", "120256.125000", "120256.585000", "120257.045000", "120257.505000", "120257.965000", "120258.425000", "120258.885000", "120259.345000", "120259.805000", "120300.265000", "120300.725000", "120301.185000", "120301.645000", "120302.105000", "120302.565000", "120303.025000"],
