{
  "AcquisitionMatrixPE": 82,
  "AcquisitionNumber": 1,
  "AcquisitionTime": "12:20:28.255000",
  "BandwidthPerPixelPhaseEncode": 24.888,
  "BaseResolution": 82,
  "BodyPartExamined": "BRAIN",
  "ConsistencyInfo": "N4_VE11C_LATEST_20160120",
  "ConversionSoftware": "dcm2niix",
  "ConversionSoftwareVersion": "v1.0.20201102",
  "DerivedVendorReportedEchoSpacing": 0.00049,
  "DeviceSerialNumber": "66112",
  "DwellTime": 2e-06,
  "EchoTime": 0.0272,
  "EchoTrainLength": 82,
  "EffectiveEchoSpacing": 0.00049,
  "FlipAngle": 44,
  "ImageComments": "Unaliased MB8/PE3",
  "ImageOrientationPatientDICOM": [0.99791, 0.0346793, 0.054522, -0.0324066, 0.998591, -0.0420295],
  "ImageType": [
    "ORIGINAL",
    "PRIMARY",
    "M",
    "MB",
    "ND",
    "NORM",
    "MOSAIC"
],
  "ImagingFrequency": 123.252,
  "InPlanePhaseEncodingDirectionDICOM": "COL",
  "InstitutionAddress": "Maynard 3,Hanover,NH,US,03755",
  "InstitutionName": "Dartmouth College - PBS",
  "InstitutionalDepartmentName": "Department",
  "MRAcquisitionType": "2D",
  "MagneticFieldStrength": 3,
  "Manufacturer": "Siemens",
  "ManufacturersModelName": "Prisma",
  "Modality": "MR",
  "MultibandAccelerationFactor": 8,
  "PartialFourier": 1,
  "PatientPosition": "HFS",
  "PercentPhaseFOV": 100,
  "PercentSampling": 100,
  "PhaseEncodingDirection": "j-",
  "PhaseEncodingSteps": 82,
  "PhaseResolution": 1,
  "PixelBandwidth": 3050,
  "ProcedureStepDescription": "Wager_Wager^1076_spacetop",
  "ProtocolName": "func_run-01_task-alignvideo_acq-ap-mb8",
  "PulseSequenceDetails": "%CustomerSeq%\\cmrr_mbep2d_bold",
  "ReceiveCoilActiveElements": "HEA;HEP",
  "ReceiveCoilName": "Head_32",
  "ReconMatrixPE": 82,
  "RepetitionTime": 0.46,
  "SAR": 0.102779,
  "ScanOptions": "FS",
  "ScanningSequence": "EP",
  "SequenceName": "epfid2d1_82",
  "SequenceVariant": "SK\\SS",
  "SeriesDescription": "func_run-01_task-alignvideo_acq-ap-mb8",
  "SeriesNumber": 28,
  "ShimSetting": [4148, -7739, -7261, 421, -67, -98, 30, 65],
  "SliceThickness": 2.7,
  "SliceTiming": [0, 0.2525, 0.065, 0.315, 0.1275, 0.3775, 0.19, 0, 0.2525, 0.065, 0.315, 0.1275, 0.3775, 0.19, 0, 0.2525, 0.065, 0.315, 0.1275, 0.3775, 0.19, 0, 0.2525, 0.065, 0.315, 0.1275, 0.3775, 0.19, 0, 0.2525, 0.065, 0.315, 0.1275, 0.3775, 0.19, 0, 0.2525, 0.065, 0.315, 0.1275, 0.3775, 0.19, 0, 0.2525, 0.065, 0.315, 0.1275, 0.3775, 0.19, 0, 0.2525, 0.065, 0.315, 0.1275, 0.3775, 0.19],
  "SoftwareVersions": "syngo MR E11",
  "SpacingBetweenSlices": 2.7,
  "StationName": "AWP66112",
  "TaskName": "alignvideo",
  "TotalReadoutTime": 0.03969,
  "TxRefAmp": 289.689,
  "WipMemBlock": "3cc480dc-f499-40bc-8f30-dbcd9a7d21b5||Sequence: R016 ve11c/master r/e634e98; Dec 19 2017 11:00:25 by eja",
  "dcmmeta_affine": [
    [-2.6773200035095215, -0.0869445949792862, 0.15093722939491272, 113.2334976196289],
    [-0.09304202347993851, 2.6791458129882812, -0.1084718182682991, -86.77571105957031],
    [0.14627844095230103, 0.112761951982975, 2.6935946941375732, -97.6307601928711],
    [0.0, 0.0, 0.0, 1.0]
],
  "dcmmeta_reorient_transform": [
    [0.0, -1.0, 0.0, 81.0],
    [1.0, 0.0, 0.0, 0.0],
    [0.0, 0.0, 1.0, 0.0],
    [0.0, 0.0, 0.0, 1.0]
],
  "dcmmeta_shape": [82, 82, 56, 839],
  "dcmmeta_slice_dim": 2,
  "dcmmeta_version": 0.6,
  "global": {
    "const": {
      "AccessionNumber": "A003825",
      "AcquisitionMatrix": [82, 0, 0, 82],
      "AngioFlag": "N",
      "BitsAllocated": 16,
      "BitsStored": 16,
      "BodyPartExamined": "BRAIN",
      "Columns": 656,
      "EchoNumbers": 1,
      "EchoTime": 27.2,
      "EchoTrainLength": 82,
      "FlipAngle": 44.0,
      "HighBit": 15,
      "ImageOrientationPatient": [0.99791016720785, 0.03467929818196, 0.05452196310493, -0.032406619925, 0.99859067494625, -0.0420294527139],
      "ImagePositionPatient": [-849.62873487944, -925.85299552315, -98.116273175733],
      "ImageType": [
        "ORIGINAL",
        "PRIMARY",
        "M",
        "MB",
        "ND",
        "NORM",
        "MOSAIC"
],
      "ImagedNucleus": "1H",
      "ImagingFrequency": 123.252238,
      "InPlanePhaseEncodingDirection": "COL",
      "MRAcquisitionType": "2D",
      "MagneticFieldStrength": 3.0,
      "Manufacturer": "SIEMENS",
      "ManufacturerModelName": "Prisma",
      "Modality": "MR",
      "NumberOfAverages": 1.0,
      "NumberOfPhaseEncodingSteps": 82,
      "PercentPhaseFieldOfView": 100.0,
      "PercentSampling": 100.0,
      "PerformedProcedureStepStartTime": "110648.835000",
      "PhotometricInterpretation": "MONOCHROME2",
      "PixelBandwidth": 3050.0,
      "PixelRepresentation": 0,
      "PixelSpacing": [2.6829268932343, 2.6829268932343],
      "ProtocolName": "func_run-01_task-alignvideo_acq-ap-mb8",
      "RepetitionTime": 460.0,
      "Rows": 656,
      "SAR": 0.1027789828171,
      "SamplesPerPixel": 1,
      "ScanOptions": "FS",
      "ScanningSequence": "EP",
      "SequenceName": "epfid2d1_82",
      "SequenceVariant": [
        "SK",
        "SS"
],
      "SeriesDescription": "func_run-01_task-alignvideo_acq-ap-mb8",
      "SeriesNumber": 28,
      "SeriesTime": "122041.214000",
      "SliceLocation": -87.582893541269,
      "SliceThickness": 2.7000000476837,
      "SmallestImagePixelValue": 0,
      "SoftwareVersions": "syngo MR E11",
      "SpacingBetweenSlices": 2.7000000474982,
      "SpecificCharacterSet": "ISO_IR 100",
      "StudyID": "2",
      "StudyTime": "110648.727000",
      "TransmitCoilName": "Body",
      "VariableFlipAngleFlag": "N",
      "WindowCenterWidthExplanation": "Algo1",
      "dBdt": 0.0},
    "slices": {}
  },
  "time": {
    "samples": {
      "AcquisitionNumber": [1, 2, 3, 4, 5, 6, 7, 8, 9, 10, 11, 12, 13, 14, 15, 16, 17, 18, 19, 20, 21, 22, 23, 24, 25, 26, 27, 28, 29, 30, 31, 32, 33, 34, 35, 36, 37, 38, 39, 40, 41, 42, 43, 44, 45, 46, 47, 48, 49, 50, 51, 52, 53, 54, 55, 56, 57, 58, 59, 60, 61, 62, 63, 64, 65, 66, 67, 68, 69, 70, 71, 72, 73, 74, 75, 76, 77, 78, 79, 80, 81, 82, 83, 84, 85, 86, 87, 88, 89, 90, 91, 92, 93, 94, 95, 96, 97, 98, 99, 100, 101, 102, 103, 104, 105, 106, 107, 108, 109, 110, 111, 112, 113, 114, 115, 116, 117, 118, 119, 120, 121, 122, 123, 124, 125, 126, 127, 128, 129, 130, 131, 132, 133, 134, 135, 136, 137, 138, 139, 140, 141, 142, 143, 144, 145, 146, 147, 148, 149, 150, 151, 152, 153, 154, 155, 156, 157, 158, 159, 160, 161, 162, 163, 164, 165, 166, 167, 168, 169, 170, 171, 172, 173, 174, 175, 176, 177, 178, 179, 180, 181, 182, 183, 184, 185, 186, 187, 188, 189, 190, 191, 192, 193, 194, 195, 196, 197, 198, 199, 200, 201, 202, 203, 204, 205, 206, 207, 208, 209, 210, 211, 212, 213, 214, 215, 216, 217, 218, 219, 220, 221, 222, 223, 224, 225, 226, 227, 228, 229, 230, 231, 232, 233, 234, 235, 236, 237, 238, 239, 240, 241, 242, 243, 244, 245, 246, 247, 248, 249, 250, 251, 252, 253, 254, 255, 256, 257, 258, 259, 260, 261, 262, 263, 264, 265, 266, 267, 268, 269, 270, 271, 272, 273, 274, 275, 276, 277, 278, 279, 280, 281, 282, 283, 284, 285, 286, 287, 288, 289, 290, 291, 292, 293, 294, 295, 296, 297, 298, 299, 300, 301, 302, 303, 304, 305, 306, 307, 308, 309, 310, 311, 312, 313, 314, 315, 316, 317, 318, 319, 320, 321, 322, 323, 324, 325, 326, 327, 328, 329, 330, 331, 332, 333, 334, 335, 336, 337, 338, 339, 340, 341, 342, 343, 344, 345, 346, 347, 348, 349, 350, 351, 352, 353, 354, 355, 356, 357, 358, 359, 360, 361, 362, 363, 364, 365, 366, 367, 368, 369, 370, 371, 372, 373, 374, 375, 376, 377, 378, 379, 380, 381, 382, 383, 384, 385, 386, 387, 388, 389, 390, 391, 392, 393, 394, 395, 396, 397, 398, 399, 400, 401, 402, 403, 404, 405, 406, 407, 408, 409, 410, 411, 412, 413, 414, 415, 416, 417, 418, 419, 420, 421, 422, 423, 424, 425, 426, 427, 428, 429, 430, 431, 432, 433, 434, 435, 436, 437, 438, 439, 440, 441, 442, 443, 444, 445, 446, 447, 448, 449, 450, 451, 452, 453, 454, 455, 456, 457, 458, 459, 460, 461, 462, 463, 464, 465, 466, 467, 468, 469, 470, 471, 472, 473, 474, 475, 476, 477, 478, 479, 480, 481, 482, 483, 484, 485, 486, 487, 488, 489, 490, 491, 492, 493, 494, 495, 496, 497, 498, 499, 500, 501, 502, 503, 504, 505, 506, 507, 508, 509, 510, 511, 512, 513, 514, 515, 516, 517, 518, 519, 520, 521, 522, 523, 524, 525, 526, 527, 528, 529, 530, 531, 532, 533, 534, 535, 536, 537, 538, 539, 540, 541, 542, 543, 544, 545, 546, 547, 548, 549, 550, 551, 552, 553, 554, 555, 556, 557, 558, 559, 560, 561, 562, 563, 564, 565, 566, 567, 568, 569, 570, 571, 572, 573, 574, 575, 576, 577, 578, 579, 580, 581, 582, 583, 584, 585, 586, 587, 588, 589, 590, 591, 592, 593, 594, 595, 596, 597, 598, 599, 600, 601, 602, 603, 604, 605, 606, 607, 608, 609, 610, 611, 612, 613, 614, 615, 616, 617, 618, 619, 620, 621, 622, 623, 624, 625, 626, 627, 628, 629, 630, 631, 632, 633, 634, 635, 636, 637, 638, 639, 640, 641, 642, 643, 644, 645, 646, 647, 648, 649, 650, 651, 652, 653, 654, 655, 656, 657, 658, 659, 660, 661, 662, 663, 664, 665, 666, 667, 668, 669, 670, 671, 672, 673, 674, 675, 676, 677, 678, 679, 680, 681, 682, 683, 684, 685, 686, 687, 688, 689, 690, 691, 692, 693, 694, 695, 696, 697, 698, 699, 700, 701, 702, 703, 704, 705, 706, 707, 708, 709, 710, 711, 712, 713, 714, 715, 716, 717, 718, 719, 720, 721, 722, 723, 724, 725, 726, 727, 728, 729, 730, 731, 732, 733, 734, 735, 736, 737, 738, 739, 740, 741, 742, 743, 744, 745, 746, 747, 748, 749, 750, 751, 752, 753, 754, 755, 756, 757, 758, 759, 760, 761, 762, 763, 764, 765, 766, 767, 768, 769, 770, 771, 772, 773, 774, 775, 776, 777, 778, 779, 780, 781, 782, 783, 784, 785, 786, 787, 788, 789, 790, 791, 792, 793, 794, 795, 796, 797, 798, 799, 800, 801, 802, 803, 804, 805, 806, 807, 808, 809, 810, 811, 812, 813, 814, 815, 816, 817, 818, 819, 820, 821, 822, 823, 824, 825, 826, 827, 828, 829, 830, 831, 832, 833, 834, 835, 836, 837, 838, 839],
      "AcquisitionTime": ["122028.255000", "122028.715000", "122029.175000", "122029.635000", "122030.095000", "122030.555000", "122031.015000", "122031.475000", "122031.935000", "122032.395000", "122032.855000", "122033.315000", "122033.775000", "122034.235000", "122034.695000", "122035.155000", "122035.615000", "122036.075000", "122036.535000", "122036.995000", "122037.455000", "122037.915000", "122038.375000", "122038.835000", "122039.295000", "122039.755000", "122040.215000", "122040.675000", "122041.135000", "122041.595000", "122042.055000", "122042.515000", "122042.975000", "122043.435000", "122043.895000", "122044.355000", "122044.815000", "122045.275000", "122045.735000", "122046.195000", "122046.655000", "122047.115000", "122047.575000", "122048.035000", "122048.495000", "122048.955000", "122049.415000", "122049.875000", "122050.335000", "122050.795000", "122051.255000", "122051.715000", "122052.175000", "122052.635000", "122053.095000", "122053.555000", "122054.015000", "122054.475000", "122054.935000", "122055.395000", "122055.855000", "122056.315000", "122056.775000", "122057.235000", "122057.695000", "122058.155000", "122058.615000", "122059.075000", "122059.535000", "122059.995000", "122100.455000", "122100.915000", "122101.375000", "122101.835000", "122102.295000", "122102.755000", "122103.215000", "122103.675000", "122104.135000", "122104.595000", "122105.055000", "122105.515000", "122105.975000", "122106.435000", "122106.895000", "122107.355000", "122107.815000", "122108.275000", "122108.735000", "122109.195000", "122109.655000", "122110.115000", "122110.575000", "122111.035000", "122111.495000", "122111.955000", "122112.415000", "122112.875000", "122113.335000", "122113.795000", "122114.255000", "122114.715000", "122115.175000", "122115.635000", "122116.095000", "122116.555000", "122117.015000", "122117.475000", "122117.935000", "122118.395000", "122118.855000", "122119.315000", "122119.775000", "122120.235000", "122120.695000", "122121.155000", "122121.615000", "122122.075000", "122122.535000", "122122.995000", "122123.455000", "122123.915000", "122124.375000", "122124.835000", "122125.295000", "122125.755000", "122126.215000", "122126.675000", "122127.135000", "122127.595000", "122128.055000", "122128.515000", "122128.975000", "122129.435000", "122129.895000", "122130.355000", "122130.815000", "122131.275000", "122131.735000", "122132.195000", "122132.655000", "122133.115000", "122133.575000", "122134.035000", "122134.495000", "122134.955000", "122135.415000", "122135.875000", "122136.335000", "122136.795000", "122137.255000", "122137.715000", "122138.175000", "122138.635000", "122139.095000", "122139.555000", "122140.015000", "122140.475000", "122140.935000", "122141.395000", "122141.855000", "122142.315000", "122142.775000", "122143.235000", "122143.695000", "122144.155000", "122144.615000", "122145.075000", "122145.535000", "122145.995000", "122146.455000", "122146.915000", "122147.375000", "122147.835000", "122148.295000", "122148.755000", "122149.215000", "122149.675000", "122150.135000", "122150.595000", "122151.055000", "122151.515000", "122151.975000", "122152.435000", "122152.895000", "122153.355000", "122153.815000", "122154.275000", "122154.735000", "122155.195000", "122155.655000", "122156.115000", "122156.575000", "122157.035000", "122157.495000", "122157.955000", "122158.415000", "122158.875000", "122159.335000", "122159.795000", "122200.255000", "122200.715000", "122201.175000", "122201.635000", "122202.095000", "122202.555000", "122203.015000", "122203.475000", "122203.935000", "122204.395000", "122204.855000", "122205.315000", "122205.775000", "122206.235000", "122206.695000", "122207.155000", "122207.615000", "122208.075000", "122208.535000", "122208.995000", "122209.455000", "122209.915000", "122210.375000", "122210.835000", "122211.295000", "122211.755000", "122212.215000", "122212.675000", "122213.135000", "122213.595000", "122214.055000", "122214.515000", "122214.975000", "122215.435000", "122215.895000", "122216.355000", "122216.815000", "122217.275000", "122217.735000", "122218.195000", "122218.655000", "122219.115000", "122219.575000", "122220.035000", "122220.495000", "122220.955000", "122221.415000", "122221.875000", "122222.335000", "122222.795000", "122223.255000", "122223.715000", "122224.175000", "122224.635000", "122225.095000", "122225.555000", "122226.015000", "122226.475000", "122226.935000", "122227.395000", "122227.855000", "122228.315000", "122228.775000", "122229.235000", "122229.695000", "122230.155000", "122230.615000", "122231.075000", "122231.535000", "122231.995000", "122232.455000", "122232.915000", "122233.375000", "122233.835000", "122234.295000", "122234.755000", "122235.215000", "122235.675000", "122236.135000", "122236.595000", "122237.055000", "122237.515000", "122237.975000", "122238.435000", "122238.895000", "122239.355000", "122239.815000", "122240.275000", "122240.735000", "122241.195000", "122241.655000", "122242.115000", "122242.575000", "122243.035000", "122243.495000", "122243.955000", "122244.415000", "122244.875000", "122245.335000", "122245.795000", "122246.255000", "122246.715000", "122247.175000", "122247.635000", "122248.095000", "122248.555000", "122249.015000", "122249.475000", "122249.935000", "122250.395000", "122250.855000", "122251.315000", "122251.775000", "122252.235000", "122252.695000", "122253.155000", "122253.615000", "122254.075000", "122254.535000", "122254.995000", "122255.455000", "122255.915000", "122256.375000", "122256.835000", "122257.295000", "122257.755000", "122258.215000", "122258.675000", "122259.135000", "122259.595000", "122300.055000", "122300.515000", "122300.975000", "122301.435000", "122301.895000", "122302.355000", "122302.815000", "122303.275000", "122303.735000", "122304.195000", "122304.655000", "122305.115000", "122305.575000", "122306.035000", "122306.495000", "122306.955000", "122307.415000", "122307.875000", "122308.335000", "122308.795000", "122309.255000", "122309.715000", "122310.175000", "122310.635000", "122311.095000", "122311.555000", "122312.015000", "122312.475000", "122312.935000", "122313.395000", "122313.855000", "122314.315000", "122314.775000", "122315.235000", "122315.695000", "122316.155000", "122316.615000", "122317.075000", "122317.535000", "122317.995000", "122318.455000", "122318.915000", "122319.375000", "122319.835000", "122320.295000", "122320.755000", "122321.215000", "122321.675000", "122322.135000", "122322.595000", "122323.055000", "122323.515000", "122323.975000", "122324.435000", "122324.895000", "122325.355000", "122325.815000", "122326.275000", "122326.735000", "122327.195000", "122327.655000", "122328.115000", "122328.575000", "122329.035000", "122329.495000", "122329.955000", "122330.415000", "122330.875000", "122331.335000", "122331.795000", "122332.255000", "122332.715000", "122333.175000", "122333.635000", "122334.095000", "122334.555000", "122335.015000", "122335.475000", "122335.935000", "122336.395000", "122336.855000", "122337.315000", "122337.775000", "122338.235000", "122338.695000", "122339.155000", "122339.615000", "122340.075000", "122340.535000", "122340.995000", "122341.455000", "122341.915000", "122342.375000", "122342.835000", "122343.295000", "122343.755000", "122344.215000", "122344.675000", "122345.135000", "122345.595000", "122346.055000", "122346.515000", "122346.975000", "122347.435000", "122347.895000", "122348.355000", "122348.815000", "122349.275000", "122349.735000", "122350.195000", "122350.655000", "122351.115000", "122351.575000", "122352.035000", "122352.495000", "122352.955000", "122353.415000", "122353.875000", "122354.335000", "122354.795000", "122355.255000", "122355.715000", "122356.175000", "122356.635000", "122357.095000", "122357.555000", "122358.015000", "122358.475000", "122358.935000", "122359.395000", "122359.855000", "122400.315000", "122400.775000", "122401.235000", "122401.695000", "122402.155000", "122402.615000", "122403.075000", "122403.535000", "122403.995000", "122404.455000", "122404.915000", "122405.375000", "122405.835000", "122406.295000", "122406.755000", "122407.215000", "122407.675000", "122408.135000", "122408.595000", "122409.055000", "122409.515000", "122409.975000", "122410.435000", "122410.895000", "122411.355000", "122411.815000", "122412.275000", "122412.735000", "122413.195000", "122413.655000", "122414.115000", "122414.575000", "122415.035000", "122415.495000", "122415.955000", "122416.415000", "122416.875000", "122417.335000", "122417.795000", "122418.255000", "122418.715000", "122419.175000", "122419.635000", "122420.095000", "122420.555000", "122421.015000", "122421.475000", "122421.935000", "122422.395000", "122422.855000", "122423.315000", "122423.775000", "122424.235000", "122424.695000", "122425.155000", "122425.615000", "122426.075000", "122426.535000", "122426.995000", "122427.455000", "122427.915000", "122428.375000", "122428.835000", "122429.295000", "122429.755000", "122430.215000", "122430.675000", "122431.135000", "122431.595000", "122432.055000", "122432.515000", "122432.975000", "122433.435000", "122433.895000", "122434.355000", "122434.815000", "122435.275000", "122435.735000", "122436.195000", "122436.655000", "122437.115000", "122437.575000", "122438.035000", "122438.495000", "122438.955000", "122439.415000", "122439.875000", "122440.335000", "122440.795000", "122441.255000", "122441.715000", "122442.175000", "122442.635000", "122443.095000", "122443.555000", "122444.015000", "122444.475000", "122444.935000", "122445.395000", "122445.855000", "122446.315000", "122446.775000", "122447.235000", "122447.695000", "122448.155000", "122448.615000", "122449.075000", "122449.535000", "122449.995000", "122450.455000", "122450.915000", "122451.375000", "122451.835000", "122452.295000", "122452.755000", "122453.215000", "122453.675000", "122454.135000", "122454.595000", "122455.055000", "122455.515000", "122455.975000", "122456.435000", "122456.895000", "122457.355000", "122457.815000", "122458.275000", "122458.735000", "122459.195000", "122459.655000", "122500.115000", "122500.575000", "122501.035000", "122501.495000", "122501.955000", "122502.415000", "122502.875000", "122503.335000", "122503.795000", "122504.255000", "122504.715000", "122505.175000", "122505.635000", "122506.095000", "122506.555000", "122507.015000", "122507.475000", "122507.935000", "122508.395000", "122508.855000", "122509.315000", "122509.775000", "122510.235000", "122510.695000", "122511.155000", "122511.615000", "122512.075000", "122512.535000", "122512.995000", "122513.455000", "122513.915000", "122514.375000", "122514.835000", "122515.295000", "122515.755000", "122516.215000", "122516.675000", "122517.135000", "122517.595000", "122518.055000", "122518.515000", "122518.975000", "122519.435000", "122519.895000", "122520.355000", "122520.815000", "122521.275000", "122521.735000", "122522.195000", "122522.655000", "122523.115000", "122523.575000", "122524.035000", "122524.495000", "122524.955000", "122525.415000", "122525.875000", "122526.335000", "122526.795000", "122527.255000", "122527.715000", "122528.175000", "122528.635000", "122529.095000", "122529.555000", "122530.015000", "122530.475000", "122530.935000", "122531.395000", "122531.855000", "122532.315000", "122532.775000", "122533.235000", "122533.695000", "122534.155000", "122534.615000", "122535.075000", "122535.535000", "122535.995000", "122536.455000", "122536.915000", "122537.375000", "122537.835000", "122538.295000", "122538.755000", "122539.215000", "122539.675000", "122540.135000", "122540.595000", "122541.055000", "122541.515000", "122541.975000", "122542.435000", "122542.895000", "122543.355000", "122543.815000", "122544.275000", "122544.735000", "122545.195000", "122545.655000", "122546.115000", "122546.575000", "122547.035000", "122547.495000", "122547.955000", "122548.415000", "122548.875000", "122549.335000", "122549.795000", "122550.255000", "122550.715000", "122551.175000", "122551.635000", "122552.095000", "122552.555000", "122553.015000", "122553.475000", "122553.935000", "122554.395000", "122554.855000", "122555.315000", "122555.775000", "122556.235000", "122556.695000", "122557.155000", "122557.615000", "122558.075000", "122558.535000", "122558.995000", "122559.455000", "122559.915000", "122600.375000", "122600.835000", "122601.295000", "122601.755000", "122602.215000", "122602.675000", "122603.135000", "122603.595000", "122604.055000", "122604.515000", "122604.975000", "122605.435000", "122605.895000", "122606.355000", "122606.815000", "122607.275000", "122607.735000", "122608.195000", "122608.655000", "122609.115000", "122609.575000", "122610.035000", "122610.495000", "122610.955000", "122611.415000", "122611.875000", "122612.335000", "122612.795000", "122613.255000", "122613.715000", "122614.175000", "122614.635000", "122615.095000", "122615.555000", "122616.015000", "122616.475000", "122616.935000", "122617.395000", "122617.855000", "122618.315000", "122618.775000", "122619.235000", "122619.695000", "122620.155000", "122620.615000", "122621.075000", "122621.535000", "122621.995000", "122622.455000", "122622.915000", "122623.375000", "122623.835000", "122624.295000", "122624.755000", "122625.215000", "122625.675000", "122626.135000", "122626.595000", "122627.055000", "122627.515000", "122627.975000", "122628.435000", "122628.895000", "122629.355000", "122629.815000", "122630.275000", "122630.735000", "122631.195000", "122631.655000", "122632.115000", "122632.575000", "122633.035000", "122633.495000", "122633.955000", "122634.415000", "122634.875000", "122635.335000", "122635.795000", "122636.255000", "122636.715000", "122637.175000", "122637.635000", "122638.095000", "122638.555000", "122639.015000", "122639.475000", "122639.935000", "122640.395000", "122640.855000", "122641.315000", "122641.775000", "122642.235000", "122642.695000", "122643.155000", "122643.615000", "122644.075000", "122644.535000", "122644.995000", "122645.455000", "122645.915000", "122646.375000", "122646.835000", "122647.295000", "122647.755000", "122648.215000", "122648.675000", "122649.135000", "122649.595000", "122650.055000", "122650.515000", "122650.975000", "122651.435000", "122651.895000", "122652.355000", "122652.815000", "122653.275000", "122653.735000"],
