{
  "AcquisitionMatrixPE": 82,
  "AcquisitionNumber": 1,
  "AcquisitionTime": "12:51:1.840000",
  "BandwidthPerPixelPhaseEncode": 24.888,
  "BaseResolution": 82,
  "BodyPartExamined": "BRAIN",
  "ConsistencyInfo": "N4_VE11C_LATEST_20160120",
  "ConversionSoftware": "dcm2niix",
  "ConversionSoftwareVersion": "v1.0.20201102",
  "DerivedVendorReportedEchoSpacing": 0.00049,
  "DeviceSerialNumber": "66112",
  "DwellTime": 2e-06,
  "EchoTime": 0.0272,
  "EchoTrainLength": 82,
  "EffectiveEchoSpacing": 0.00049,
  "FlipAngle": 44,
  "ImageComments": "Unaliased MB8/PE3",
  "ImageOrientationPatientDICOM": [0.99791, 0.0346793, 0.054522, -0.0324066, 0.998591, -0.0420295],
  "ImageType": [
    "ORIGINAL",
    "PRIMARY",
    "M",
    "MB",
    "ND",
    "NORM",
    "MOSAIC"
],
  "ImagingFrequency": 123.252,
  "InPlanePhaseEncodingDirectionDICOM": "COL",
  "InstitutionAddress": "Maynard 3,Hanover,NH,US,03755",
  "InstitutionName": "Dartmouth College - PBS",
  "InstitutionalDepartmentName": "Department",
  "MRAcquisitionType": "2D",
  "MagneticFieldStrength": 3,
  "Manufacturer": "Siemens",
  "ManufacturersModelName": "Prisma",
  "Modality": "MR",
  "MultibandAccelerationFactor": 8,
  "PartialFourier": 1,
  "PatientPosition": "HFS",
  "PercentPhaseFOV": 100,
  "PercentSampling": 100,
  "PhaseEncodingDirection": "j-",
  "PhaseEncodingSteps": 82,
  "PhaseResolution": 1,
  "PixelBandwidth": 3050,
  "ProcedureStepDescription": "Wager_Wager^1076_spacetop",
  "ProtocolName": "func_run-04_task-alignvideo_acq-ap-mb8",
  "PulseSequenceDetails": "%CustomerSeq%\\cmrr_mbep2d_bold",
  "ReceiveCoilActiveElements": "HEA;HEP",
  "ReceiveCoilName": "Head_32",
  "ReconMatrixPE": 82,
  "RepetitionTime": 0.46,
  "SAR": 0.102833,
  "ScanOptions": "FS",
  "ScanningSequence": "EP",
  "SequenceName": "epfid2d1_82",
  "SequenceVariant": "SK\\SS",
  "SeriesDescription": "func_run-04_task-alignvideo_acq-ap-mb8",
  "SeriesNumber": 34,
  "ShimSetting": [4148, -7739, -7261, 421, -67, -98, 30, 65],
  "SliceThickness": 2.7,
  "SliceTiming": [0, 0.2525, 0.0625, 0.315, 0.125, 0.3775, 0.19, 0, 0.2525, 0.0625, 0.315, 0.125, 0.3775, 0.19, 0, 0.2525, 0.0625, 0.315, 0.125, 0.3775, 0.19, 0, 0.2525, 0.0625, 0.315, 0.125, 0.3775, 0.19, 0, 0.2525, 0.0625, 0.315, 0.125, 0.3775, 0.19, 0, 0.2525, 0.0625, 0.315, 0.125, 0.3775, 0.19, 0, 0.2525, 0.0625, 0.315, 0.125, 0.3775, 0.19, 0, 0.2525, 0.0625, 0.315, 0.125, 0.3775, 0.19],
  "SoftwareVersions": "syngo MR E11",
  "SpacingBetweenSlices": 2.7,
  "StationName": "AWP66112",
  "TaskName": "alignvideo",
  "TotalReadoutTime": 0.03969,
  "TxRefAmp": 289.689,
  "WipMemBlock": "ca5e5b9c-be6e-404b-9f68-60cee4d59c1f||Sequence: R016 ve11c/master r/e634e98; Dec 19 2017 11:00:25 by eja",
  "dcmmeta_affine": [
    [-2.6773200035095215, -0.0869445949792862, 0.15093722939491272, 113.2334976196289],
    [-0.09304202347993851, 2.6791458129882812, -0.1084718182682991, -86.77571105957031],
    [0.14627844095230103, 0.112761951982975, 2.6935946941375732, -97.6307601928711],
    [0.0, 0.0, 0.0, 1.0]
],
  "dcmmeta_reorient_transform": [
    [0.0, -1.0, 0.0, 81.0],
    [1.0, 0.0, 0.0, 0.0],
    [0.0, 0.0, 1.0, 0.0],
    [0.0, 0.0, 0.0, 1.0]
],
  "dcmmeta_shape": [82, 82, 56, 914],
  "dcmmeta_slice_dim": 2,
  "dcmmeta_version": 0.6,
  "global": {
    "const": {
      "AccessionNumber": "A003825",
      "AcquisitionMatrix": [82, 0, 0, 82],
      "AngioFlag": "N",
      "BitsAllocated": 16,
      "BitsStored": 16,
      "BodyPartExamined": "BRAIN",
      "Columns": 656,
      "EchoNumbers": 1,
      "EchoTime": 27.2,
      "EchoTrainLength": 82,
      "FlipAngle": 44.0,
      "HighBit": 15,
      "ImageOrientationPatient": [0.99791016720785, 0.03467929818196, 0.05452196310493, -0.032406619925, 0.99859067494625, -0.0420294527139],
      "ImagePositionPatient": [-849.62873487944, -925.85299552315, -98.116273175733],
      "ImageType": [
        "ORIGINAL",
        "PRIMARY",
        "M",
        "MB",
        "ND",
        "NORM",
        "MOSAIC"
],
      "ImagedNucleus": "1H",
      "ImagingFrequency": 123.25225,
      "InPlanePhaseEncodingDirection": "COL",
      "MRAcquisitionType": "2D",
      "MagneticFieldStrength": 3.0,
      "Manufacturer": "SIEMENS",
      "ManufacturerModelName": "Prisma",
      "Modality": "MR",
      "NumberOfAverages": 1.0,
      "NumberOfPhaseEncodingSteps": 82,
      "PercentPhaseFieldOfView": 100.0,
      "PercentSampling": 100.0,
      "PerformedProcedureStepStartTime": "110648.835000",
      "PhotometricInterpretation": "MONOCHROME2",
      "PixelBandwidth": 3050.0,
      "PixelRepresentation": 0,
      "PixelSpacing": [2.6829268932343, 2.6829268932343],
      "ProtocolName": "func_run-04_task-alignvideo_acq-ap-mb8",
      "RepetitionTime": 460.0,
      "Rows": 656,
      "SAR": 0.10283339877726,
      "SamplesPerPixel": 1,
      "ScanOptions": "FS",
      "ScanningSequence": "EP",
      "SequenceName": "epfid2d1_82",
      "SequenceVariant": [
        "SK",
        "SS"
],
      "SeriesDescription": "func_run-04_task-alignvideo_acq-ap-mb8",
      "SeriesNumber": 34,
      "SeriesTime": "125121.288000",
      "SliceLocation": -87.582893541269,
      "SliceThickness": 2.7000000476837,
      "SmallestImagePixelValue": 0,
      "SoftwareVersions": "syngo MR E11",
      "SpacingBetweenSlices": 2.7000000474982,
      "SpecificCharacterSet": "ISO_IR 100",
      "StudyID": "2",
      "StudyTime": "110648.727000",
      "TransmitCoilName": "Body",
      "VariableFlipAngleFlag": "N",
      "WindowCenterWidthExplanation": "Algo1",
      "dBdt": 0.0},
    "slices": {}
  },
  "time": {
    "samples": {
      "AcquisitionNumber": [1, 2, 3, 4, 5, 6, 7, 8, 9, 10, 11, 12, 13, 14, 15, 16, 17, 18, 19, 20, 21, 22, 23, 24, 25, 26, 27, 28, 29, 30, 31, 32, 33, 34, 35, 36, 37, 38, 39, 40, 41, 42, 43, 44, 45, 46, 47, 48, 49, 50, 51, 52, 53, 54, 55, 56, 57, 58, 59, 60, 61, 62, 63, 64, 65, 66, 67, 68, 69, 70, 71, 72, 73, 74, 75, 76, 77, 78, 79, 80, 81, 82, 83, 84, 85, 86, 87, 88, 89, 90, 91, 92, 93, 94, 95, 96, 97, 98, 99, 100, 101, 102, 103, 104, 105, 106, 107, 108, 109, 110, 111, 112, 113, 114, 115, 116, 117, 118, 119, 120, 121, 122, 123, 124, 125, 126, 127, 128, 129, 130, 131, 132, 133, 134, 135, 136, 137, 138, 139, 140, 141, 142, 143, 144, 145, 146, 147, 148, 149, 150, 151, 152, 153, 154, 155, 156, 157, 158, 159, 160, 161, 162, 163, 164, 165, 166, 167, 168, 169, 170, 171, 172, 173, 174, 175, 176, 177, 178, 179, 180, 181, 182, 183, 184, 185, 186, 187, 188, 189, 190, 191, 192, 193, 194, 195, 196, 197, 198, 199, 200, 201, 202, 203, 204, 205, 206, 207, 208, 209, 210, 211, 212, 213, 214, 215, 216, 217, 218, 219, 220, 221, 222, 223, 224, 225, 226, 227, 228, 229, 230, 231, 232, 233, 234, 235, 236, 237, 238, 239, 240, 241, 242, 243, 244, 245, 246, 247, 248, 249, 250, 251, 252, 253, 254, 255, 256, 257, 258, 259, 260, 261, 262, 263, 264, 265, 266, 267, 268, 269, 270, 271, 272, 273, 274, 275, 276, 277, 278, 279, 280, 281, 282, 283, 284, 285, 286, 287, 288, 289, 290, 291, 292, 293, 294, 295, 296, 297, 298, 299, 300, 301, 302, 303, 304, 305, 306, 307, 308, 309, 310, 311, 312, 313, 314, 315, 316, 317, 318, 319, 320, 321, 322, 323, 324, 325, 326, 327, 328, 329, 330, 331, 332, 333, 334, 335, 336, 337, 338, 339, 340, 341, 342, 343, 344, 345, 346, 347, 348, 349, 350, 351, 352, 353, 354, 355, 356, 357, 358, 359, 360, 361, 362, 363, 364, 365, 366, 367, 368, 369, 370, 371, 372, 373, 374, 375, 376, 377, 378, 379, 380, 381, 382, 383, 384, 385, 386, 387, 388, 389, 390, 391, 392, 393, 394, 395, 396, 397, 398, 399, 400, 401, 402, 403, 404, 405, 406, 407, 408, 409, 410, 411, 412, 413, 414, 415, 416, 417, 418, 419, 420, 421, 422, 423, 424, 425, 426, 427, 428, 429, 430, 431, 432, 433, 434, 435, 436, 437, 438, 439, 440, 441, 442, 443, 444, 445, 446, 447, 448, 449, 450, 451, 452, 453, 454, 455, 456, 457, 458, 459, 460, 461, 462, 463, 464, 465, 466, 467, 468, 469, 470, 471, 472, 473, 474, 475, 476, 477, 478, 479, 480, 481, 482, 483, 484, 485, 486, 487, 488, 489, 490, 491, 492, 493, 494, 495, 496, 497, 498, 499, 500, 501, 502, 503, 504, 505, 506, 507, 508, 509, 510, 511, 512, 513, 514, 515, 516, 517, 518, 519, 520, 521, 522, 523, 524, 525, 526, 527, 528, 529, 530, 531, 532, 533, 534, 535, 536, 537, 538, 539, 540, 541, 542, 543, 544, 545, 546, 547, 548, 549, 550, 551, 552, 553, 554, 555, 556, 557, 558, 559, 560, 561, 562, 563, 564, 565, 566, 567, 568, 569, 570, 571, 572, 573, 574, 575, 576, 577, 578, 579, 580, 581, 582, 583, 584, 585, 586, 587, 588, 589, 590, 591, 592, 593, 594, 595, 596, 597, 598, 599, 600, 601, 602, 603, 604, 605, 606, 607, 608, 609, 610, 611, 612, 613, 614, 615, 616, 617, 618, 619, 620, 621, 622, 623, 624, 625, 626, 627, 628, 629, 630, 631, 632, 633, 634, 635, 636, 637, 638, 639, 640, 641, 642, 643, 644, 645, 646, 647, 648, 649, 650, 651, 652, 653, 654, 655, 656, 657, 658, 659, 660, 661, 662, 663, 664, 665, 666, 667, 668, 669, 670, 671, 672, 673, 674, 675, 676, 677, 678, 679, 680, 681, 682, 683, 684, 685, 686, 687, 688, 689, 690, 691, 692, 693, 694, 695, 696, 697, 698, 699, 700, 701, 702, 703, 704, 705, 706, 707, 708, 709, 710, 711, 712, 713, 714, 715, 716, 717, 718, 719, 720, 721, 722, 723, 724, 725, 726, 727, 728, 729, 730, 731, 732, 733, 734, 735, 736, 737, 738, 739, 740, 741, 742, 743, 744, 745, 746, 747, 748, 749, 750, 751, 752, 753, 754, 755, 756, 757, 758, 759, 760, 761, 762, 763, 764, 765, 766, 767, 768, 769, 770, 771, 772, 773, 774, 775, 776, 777, 778, 779, 780, 781, 782, 783, 784, 785, 786, 787, 788, 789, 790, 791, 792, 793, 794, 795, 796, 797, 798, 799, 800, 801, 802, 803, 804, 805, 806, 807, 808, 809, 810, 811, 812, 813, 814, 815, 816, 817, 818, 819, 820, 821, 822, 823, 824, 825, 826, 827, 828, 829, 830, 831, 832, 833, 834, 835, 836, 837, 838, 839, 840, 841, 842, 843, 844, 845, 846, 847, 848, 849, 850, 851, 852, 853, 854, 855, 856, 857, 858, 859, 860, 861, 862, 863, 864, 865, 866, 867, 868, 869, 870, 871, 872, 873, 874, 875, 876, 877, 878, 879, 880, 881, 882, 883, 884, 885, 886, 887, 888, 889, 890, 891, 892, 893, 894, 895, 896, 897, 898, 899, 900, 901, 902, 903, 904, 905, 906, 907, 908, 909, 910, 911, 912, 913, 914],
      "AcquisitionTime": ["125101.840000", "125102.300000", "125102.760000", "125103.220000", "125103.680000", "125104.140000", "125104.600000", "125105.060000", "125105.520000", "125105.980000", "125106.440000", "125106.900000", "125107.360000", "125107.820000", "125108.280000", "125108.740000", "125109.200000", "125109.660000", "125110.120000", "125110.580000", "125111.040000", "125111.500000", "125111.960000", "125112.420000", "125112.880000", "125113.340000", "125113.800000", "125114.260000", "125114.720000", "125115.180000", "125115.640000", "125116.100000", "125116.560000", "125117.020000", "125117.480000", "125117.940000", "125118.400000", "125118.860000", "125119.320000", "125119.780000", "125120.240000", "125120.700000", "125121.160000", "125121.620000", "125122.080000", "125122.540000", "125123.000000", "125123.460000", "125123.920000", "125124.380000", "125124.840000", "125125.300000", "125125.760000", "125126.220000", "125126.680000", "125127.140000", "125127.600000", "125128.060000", "125128.520000", "125128.980000", "125129.440000", "125129.900000", "125130.360000", "125130.820000", "125131.280000", "125131.740000", "125132.200000", "125132.660000", "125133.120000", "125133.580000", "125134.040000", "125134.500000", "125134.960000", "125135.420000", "125135.880000", "125136.340000", "125136.800000", "125137.260000", "125137.720000", "125138.180000", "125138.640000", "125139.100000", "125139.560000", "125140.020000", "125140.480000", "125140.940000", "125141.400000", "125141.860000", "125142.320000", "125142.780000", "125143.240000", "125143.700000", "125144.160000", "125144.620000", "125145.080000", "125145.540000", "125146.000000", "125146.460000", "125146.920000", "125147.380000", "125147.840000", "125148.300000", "125148.760000", "125149.220000", "125149.680000", "125150.140000", "125150.600000", "125151.060000", "125151.520000", "125151.980000", "125152.440000", "125152.900000", "125153.360000", "125153.820000", "125154.280000", "125154.740000", "125155.200000", "125155.660000", "125156.120000", "125156.580000", "125157.040000", "125157.500000", "125157.960000", "125158.420000", "125158.880000", "125159.340000", "125159.800000", "125200.260000", "125200.720000", "125201.180000", "125201.640000", "125202.100000", "125202.560000", "125203.020000", "125203.480000", "125203.940000", "125204.400000", "125204.860000", "125205.320000", "125205.780000", "125206.240000", "125206.700000", "125207.160000", "125207.620000", "125208.080000", "125208.540000", "125209.000000", "125209.460000", "125209.920000", "125210.380000", "125210.840000", "125211.300000", "125211.760000", "125212.220000", "125212.680000", "125213.140000", "125213.600000", "125214.060000", "125214.520000", "125214.980000", "125215.440000", "125215.900000", "125216.360000", "125216.820000", "125217.280000", "125217.740000", "125218.200000", "125218.660000", "125219.120000", "125219.580000", "125220.040000", "125220.500000", "125220.960000", "125221.420000", "125221.880000", "125222.340000", "125222.800000", "125223.260000", "125223.720000", "125224.180000", "125224.640000", "125225.100000", "125225.560000", "125226.020000", "125226.480000", "125226.940000", "125227.400000", "125227.860000", "125228.320000", "125228.780000", "125229.240000", "125229.700000", "125230.160000", "125230.620000", "125231.080000", "125231.540000", "125232.000000", "125232.460000", "125232.920000", "125233.380000", "125233.840000", "125234.300000", "125234.760000", "125235.220000", "125235.680000", "125236.140000", "125236.600000", "125237.060000", "125237.520000", "125237.980000", "125238.440000", "125238.900000", "125239.360000", "125239.820000", "125240.280000", "125240.740000", "125241.200000", "125241.660000", "125242.120000", "125242.580000", "125243.040000", "125243.500000", "125243.960000", "125244.420000", "125244.880000", "125245.340000", "125245.800000", "125246.260000", "125246.720000", "125247.180000", "125247.640000", "125248.100000", "125248.560000", "125249.020000", "125249.480000", "125249.940000", "125250.400000", "125250.860000", "125251.320000", "125251.780000", "125252.240000", "125252.700000", "125253.160000", "125253.620000", "125254.080000", "125254.540000", "125255.000000", "125255.460000", "125255.920000", "125256.380000", "125256.840000", "125257.300000", "125257.760000", "125258.220000", "125258.680000", "125259.140000", "125259.600000", "125300.060000", "125300.520000", "125300.980000", "125301.440000", "125301.900000", "125302.360000", "125302.820000", "125303.280000", "125303.740000", "125304.200000", "125304.660000", "125305.120000", "125305.580000", "125306.040000", "125306.500000", "125306.960000", "125307.420000", "125307.880000", "125308.340000", "125308.800000", "125309.260000", "125309.720000", "125310.180000", "125310.640000", "125311.100000", "125311.560000", "125312.020000", "125312.480000", "125312.940000", "125313.400000", "125313.860000", "125314.320000", "125314.780000", "125315.240000", "125315.700000", "125316.160000", "125316.620000", "125317.080000", "125317.540000", "125318.000000", "125318.460000", "125318.920000", "125319.380000", "125319.840000", "125320.300000", "125320.760000", "125321.220000", "125321.680000", "125322.140000", "125322.600000", "125323.060000", "125323.520000", "125323.980000", "125324.440000", "125324.900000", "125325.360000", "125325.820000", "125326.280000", "125326.740000", "125327.200000", "125327.660000", "125328.120000", "125328.580000", "125329.040000", "125329.500000", "125329.960000", "125330.420000", "125330.880000", "125331.340000", "125331.800000", "125332.260000", "125332.720000", "125333.180000", "125333.640000", "125334.100000", "125334.560000", "125335.020000", "125335.480000", "125335.940000", "125336.400000", "125336.860000", "125337.320000", "125337.780000", "125338.240000", "125338.700000", "125339.160000", "125339.620000", "125340.080000", "125340.540000", "125341.000000", "125341.460000", "125341.920000", "125342.380000", "125342.840000", "125343.300000", "125343.760000", "125344.220000", "125344.680000", "125345.140000", "125345.600000", "125346.060000", "125346.520000", "125346.980000", "125347.440000", "125347.900000", "125348.360000", "125348.820000", "125349.280000", "125349.740000", "125350.200000", "125350.660000", "125351.120000", "125351.580000", "125352.040000", "125352.500000", "125352.960000", "125353.420000", "125353.880000", "125354.340000", "125354.800000", "125355.260000", "125355.720000", "125356.180000", "125356.640000", "125357.100000", "125357.560000", "125358.020000", "125358.480000", "125358.940000", "125359.400000", "125359.860000", "125400.320000", "125400.780000", "125401.240000", "125401.700000", "125402.160000", "125402.620000", "125403.080000", "125403.540000", "125404.000000", "125404.460000", "125404.920000", "125405.380000", "125405.840000", "125406.300000", "125406.760000", "125407.220000", "125407.680000", "125408.140000", "125408.600000", "125409.060000", "125409.520000", "125409.980000", "125410.440000", "125410.900000", "125411.360000", "125411.820000", "125412.280000", "125412.740000", "125413.200000", "125413.660000", "125414.120000", "125414.580000", "125415.040000", "125415.500000", "125415.960000", "125416.420000", "125416.880000", "125417.340000", "125417.800000", "125418.260000", "125418.720000", "125419.180000", "125419.640000", "125420.100000", "125420.560000", "125421.020000", "125421.480000", "125421.940000", "125422.400000", "125422.860000", "125423.320000", "125423.780000", "125424.240000", "125424.700000", "125425.160000", "125425.620000", "125426.080000", "125426.540000", "125427.000000", "125427.460000", "125427.920000", "125428.380000", "125428.840000", "125429.300000", "125429.760000", "125430.220000", "125430.680000", "125431.140000", "125431.600000", "125432.060000", "125432.520000", "125432.980000", "125433.440000", "125433.900000", "125434.360000", "125434.820000", "125435.280000", "125435.740000", "125436.200000", "125436.660000", "125437.120000", "125437.580000", "125438.040000", "125438.500000", "125438.960000", "125439.420000", "125439.880000", "125440.340000", "125440.800000", "125441.260000", "125441.720000", "125442.180000", "125442.640000", "125443.100000", "125443.560000", "125444.020000", "125444.480000", "125444.940000", "125445.400000", "125445.860000", "125446.320000", "125446.780000", "125447.240000", "125447.700000", "125448.160000", "125448.620000", "125449.080000", "125449.540000", "125450.000000", "125450.460000", "125450.920000", "125451.380000", "125451.840000", "125452.300000", "125452.760000", "125453.220000", "125453.680000", "125454.140000", "125454.600000", "125455.060000", "125455.520000", "125455.980000", "125456.440000", "125456.900000", "125457.360000", "125457.820000", "125458.280000", "125458.740000", "125459.200000", "125459.660000", "125500.120000", "125500.580000", "125501.040000", "125501.500000", "125501.960000", "125502.420000", "125502.880000", "125503.340000", "125503.800000", "125504.260000", "125504.720000", "125505.180000", "125505.640000", "125506.100000", "125506.560000", "125507.020000", "125507.480000", "125507.940000", "125508.400000", "125508.860000", "125509.320000", "125509.780000", "125510.240000", "125510.700000", "125511.160000", "125511.620000", "125512.080000", "125512.540000", "125513.000000", "125513.460000", "125513.920000", "125514.380000", "125514.840000", "125515.300000", "125515.760000", "125516.220000", "125516.680000", "125517.140000", "125517.600000", "125518.060000", "125518.520000", "125518.980000", "125519.440000", "125519.900000", "125520.360000", "125520.820000", "125521.280000", "125521.740000", "125522.200000", "125522.660000", "125523.120000", "125523.580000", "125524.040000", "125524.500000", "125524.960000", "125525.420000", "125525.880000", "125526.340000", "125526.800000", "125527.260000", "125527.720000", "125528.180000", "125528.640000", "125529.100000", "125529.560000", "125530.020000", "125530.480000", "125530.940000", "125531.400000", "125531.860000", "125532.320000", "125532.780000", "125533.240000", "125533.700000", "125534.160000", "125534.620000", "125535.080000", "125535.540000", "125536.000000", "125536.460000", "125536.920000", "125537.380000", "125537.840000", "125538.300000", "125538.760000", "125539.220000", "125539.680000", "125540.140000", "125540.600000", "125541.060000", "125541.520000", "125541.980000", "125542.440000", "125542.900000", "125543.360000", "125543.820000", "125544.280000", "125544.740000", "125545.200000", "125545.660000", "125546.120000", "125546.580000", "125547.040000", "125547.500000", "125547.960000", "125548.420000", "125548.880000", "125549.340000", "125549.800000", "125550.260000", "125550.720000", "125551.180000", "125551.640000", "125552.100000", "125552.560000", "125553.020000", "125553.480000", "125553.940000", "125554.400000", "125554.860000", "125555.320000", "125555.780000", "125556.240000", "125556.700000", "125557.160000", "125557.620000", "125558.080000", "125558.540000", "125559.000000", "125559.460000", "125559.920000", "125600.380000", "125600.840000", "125601.300000", "125601.760000", "125602.220000", "125602.680000", "125603.140000", "125603.600000", "125604.060000", "125604.520000", "125604.980000", "125605.440000", "125605.900000", "125606.360000", "125606.820000", "125607.280000", "125607.740000", "125608.200000", "125608.660000", "125609.120000", "125609.580000", "125610.040000", "125610.500000", "125610.960000", "125611.420000", "125611.880000", "125612.340000", "125612.800000", "125613.260000", "125613.720000", "125614.180000", "125614.640000", "125615.100000", "125615.560000", "125616.020000", "125616.480000", "125616.940000", "125617.400000", "125617.860000", "125618.320000", "125618.780000", "125619.240000", "125619.700000", "125620.160000", "125620.620000", "125621.080000", "125621.540000", "125622.000000", "125622.460000", "125622.920000", "125623.380000", "125623.840000", "125624.300000", "125624.760000", "125625.220000", "125625.680000", "125626.140000", "125626.600000", "125627.060000", "125627.520000", "125627.980000", "125628.440000", "125628.900000", "125629.360000", "125629.820000", "125630.280000", "125630.740000", "125631.200000", "125631.660000", "125632.120000", "125632.580000", "125633.040000", "125633.500000", "125633.960000", "125634.420000", "125634.880000", "125635.340000", "125635.800000", "125636.260000", "125636.720000", "125637.180000", "125637.640000", "125638.100000", "125638.560000", "125639.020000", "125639.480000", "125639.940000", "125640.400000", "125640.860000", "125641.320000", "125641.780000", "125642.240000", "125642.700000", "125643.160000", "125643.620000", "125644.080000", "125644.540000", "125645.000000", "125645.460000", "125645.920000", "125646.380000", "125646.840000", "125647.300000", "125647.760000", "125648.220000", "125648.680000", "125649.140000", "125649.600000", "125650.060000", "125650.520000", "125650.980000", "125651.440000", "125651.900000", "125652.360000", "125652.820000", "125653.280000", "125653.740000", "125654.200000", "125654.660000", "125655.120000", "125655.580000", "125656.040000", "125656.500000", "125656.960000", "125657.420000", "125657.880000", "125658.340000", "125658.800000", "125659.260000", "125659.720000", "125700.180000", "125700.640000", "125701.100000", "125701.560000", "125702.020000", "125702.480000", "125702.940000", "125703.400000", "125703.860000", "125704.320000", "125704.780000", "125705.240000", "125705.700000", "125706.160000", "125706.620000", "125707.080000", "125707.540000", "125708.000000", "125708.460000", "125708.920000", "125709.380000", "125709.840000", "125710.300000", "125710.760000", "125711.220000", "125711.680000", "125712.140000", "125712.600000", "125713.060000", "125713.520000", "125713.980000", "125714.440000", "125714.900000", "125715.360000", "125715.820000", "125716.280000", "125716.740000", "125717.200000", "125717.660000", "125718.120000", "125718.580000", "125719.040000", "125719.500000", "125719.960000", "125720.420000", "125720.880000", "125721.340000", "125721.800000", "125722.260000", "125722.720000", "125723.180000", "125723.640000", "125724.100000", "125724.560000", "125725.020000", "125725.480000", "125725.940000", "125726.400000", "125726.860000", "125727.320000", "125727.780000", "125728.240000", "125728.700000", "125729.160000", "125729.620000", "125730.080000", "125730.540000", "125731.000000", "125731.460000", "125731.920000", "125732.380000", "125732.840000", "125733.300000", "125733.760000", "125734.220000", "125734.680000", "125735.140000", "125735.600000", "125736.060000", "125736.520000", "125736.980000", "125737.440000", "125737.900000", "125738.360000", "125738.820000", "125739.280000", "125739.740000", "125740.200000", "125740.660000", "125741.120000", "125741.580000", "125742.040000", "125742.500000", "125742.960000", "125743.420000", "125743.880000", "125744.340000", "125744.800000", "125745.260000", "125745.720000", "125746.180000", "125746.640000", "125747.100000", "125747.560000", "125748.020000", "125748.480000", "125748.940000", "125749.400000", "125749.860000", "125750.320000", "125750.780000", "125751.240000", "125751.700000", "125752.160000", "125752.620000", "125753.080000", "125753.540000", "125754.000000", "125754.460000", "125754.920000", "125755.380000", "125755.840000", "125756.300000", "125756.760000", "125757.220000", "125757.680000", "125758.140000", "125758.600000", "125759.060000", "125759.520000", "125759.980000", "125800.440000", "125800.900000", "125801.360000", "125801.820000"],
