{
  "AcquisitionMatrixPE": 140,
  "AcquisitionNumber": 1,
  "AcquisitionTime": "17:58:31.067500",
  "BandwidthPerPixelPhaseEncode": 10.352,
  "BaseResolution": 140,
  "BodyPartExamined": "BRAIN",
  "ConsistencyInfo": "N4_VE11E_LATEST_20181129",
  "ConversionSoftware": "dcm2niix",
  "ConversionSoftwareVersion": "v1.0.20201102",
  "DerivedVendorReportedEchoSpacing": 0.000689998,
  "DeviceSerialNumber": "66112",
  "DiffusionScheme": "Monopolar",
  "DwellTime": 2.1e-06,
  "EchoTime": 0.0884,
  "EchoTrainLength": 105,
  "EffectiveEchoSpacing": 0.000689998,
  "FlipAngle": 90,
  "ImageComments": "Unaliased MB3/PE3 SENSE1",
  "ImageOrientationPatientDICOM": [0.995709, -0.0166274, 0.0910335, 0.0196401, 0.999285, -0.0322993],
  "ImageType": [
    "ORIGINAL",
    "PRIMARY",
    "DIFFUSION",
    "NONE",
    "MB",
    "ND",
    "MOSAIC"
],
  "ImagingFrequency": 123.252,
  "InPlanePhaseEncodingDirectionDICOM": "COL",
  "InstitutionAddress": "Maynard 3,Hanover,NH,US,03755",
  "InstitutionName": "Dartmouth College - PBS",
  "InstitutionalDepartmentName": "Department",
  "MRAcquisitionType": "2D",
  "MagneticFieldStrength": 3,
  "Manufacturer": "Siemens",
  "ManufacturersModelName": "Prisma",
  "Modality": "MR",
  "MultibandAccelerationFactor": 3,
  "PartialFourier": 0.75,
  "PatientPosition": "HFS",
  "PercentPhaseFOV": 100,
  "PercentSampling": 100,
  "PhaseEncodingDirection": "j-",
  "PhaseEncodingSteps": 105,
  "PhaseResolution": 1,
  "PixelBandwidth": 1700,
  "ProcedureStepDescription": "Wager_Wager^1076_spacetop",
  "ProtocolName": "dwi_acq-96dir-6b0-mb",
  "PulseSequenceDetails": "%CustomerSeq%\\cmrr_mbep2d_diff",
  "ReceiveCoilActiveElements": "HEA;HEP",
  "ReceiveCoilName": "Head_32",
  "ReconMatrixPE": 140,
  "RepetitionTime": 4.11,
  "SAR": 0.266415,
  "ScanOptions": "PFP\\FS",
  "ScanningSequence": "EP",
  "SequenceName": "ep_b5#1",
  "SequenceVariant": "SK\\SS",
  "SeriesDescription": "dwi_acq-96dir-6b0-mb",
  "SeriesNumber": 8,
  "ShimSetting": [4173, -7681, -7252, 368, -173, -487, -61, 99],
  "SliceThickness": 1.7,
  "SliceTiming": [0, 2.1225, 0.1525, 2.2725, 0.3025, 2.425, 0.455, 2.575, 0.6075, 2.7275, 0.7575, 2.88, 0.91, 3.03, 1.06, 3.1825, 1.2125, 3.3325, 1.365, 3.485, 1.515, 3.6375, 1.6675, 3.7875, 1.8175, 3.94, 1.97, 0, 2.1225, 0.1525, 2.2725, 0.3025, 2.425, 0.455, 2.575, 0.6075, 2.7275, 0.7575, 2.88, 0.91, 3.03, 1.06, 3.1825, 1.2125, 3.3325, 1.365, 3.485, 1.515, 3.6375, 1.6675, 3.7875, 1.8175, 3.94, 1.97, 0, 2.1225, 0.1525, 2.2725, 0.3025, 2.425, 0.455, 2.575, 0.6075, 2.7275, 0.7575, 2.88, 0.91, 3.03, 1.06, 3.1825, 1.2125, 3.3325, 1.365, 3.485, 1.515, 3.6375, 1.6675, 3.7875, 1.8175, 3.94, 1.97],
  "SoftwareVersions": "syngo MR E11",
  "SpacingBetweenSlices": 1.7,
  "StationName": "AWP66112",
  "TotalReadoutTime": 0.0959097,
  "TxRefAmp": 255.309,
  "WipMemBlock": "c73498f4-cb06-4eeb-82ad-f9e6b0724a4b||Sequence: R016 ve11e/master r/434b28f1; Aug  7 2019 19:06:17 by eja",
  "dcmmeta_affine": [
    [-1.7069298028945923, 0.03366880118846893, 0.15373335778713226, 112.74475860595703],
    [0.028504161164164543, 1.7130604982376099, -0.05771256610751152, -93.36253356933594],
    [0.1560574471950531, 0.05537014827132225, 1.692050576210022, -128.4309539794922],
    [0.0, 0.0, 0.0, 1.0]
],
  "dcmmeta_reorient_transform": [
    [0.0, -1.0, 0.0, 139.0],
    [1.0, 0.0, 0.0, 0.0],
    [0.0, 0.0, 1.0, 0.0],
    [0.0, 0.0, 0.0, 1.0]
],
  "dcmmeta_shape": [140, 140, 81, 103],
  "dcmmeta_slice_dim": 2,
  "dcmmeta_version": 0.6,
  "global": {
    "const": {
      "AccessionNumber": "A003887",
      "AcquisitionMatrix": [140, 0, 0, 140],
      "AngioFlag": "N",
      "BitsAllocated": 16,
      "BitsStored": 16,
      "BodyPartExamined": "BRAIN",
      "Columns": 1260,
      "EchoNumbers": 1,
      "EchoTime": 88.4,
      "EchoTrainLength": 105,
      "FlipAngle": 90.0,
      "HighBit": 15,
      "ImageOrientationPatient": [0.99570900790967, -0.0166274272046, 0.09103351158828, 0.01964013299947, 0.99928525626272, -0.0322992537331],
      "ImagePositionPatient": [-1092.1599096898, -1088.1043968948, -177.11938522212],
      "ImageType": [
        "ORIGINAL",
        "PRIMARY",
        "DIFFUSION",
        "NONE",
        "MB",
        "ND",
        "MOSAIC"
],
      "ImagedNucleus": "1H",
      "ImagingFrequency": 123.25222,
      "InPlanePhaseEncodingDirection": "COL",
      "MRAcquisitionType": "2D",
      "MagneticFieldStrength": 3.0,
      "Manufacturer": "SIEMENS",
      "ManufacturerModelName": "Prisma",
      "Modality": "MR",
      "NumberOfAverages": 1.0,
      "NumberOfPhaseEncodingSteps": 105,
      "PercentPhaseFieldOfView": 100.0,
      "PercentSampling": 100.0,
      "PerformedProcedureStepStartTime": "174248.157000",
      "PhotometricInterpretation": "MONOCHROME2",
      "PixelBandwidth": 1700.0,
      "PixelRepresentation": 0,
      "PixelSpacing": [1.7142857313156, 1.7142857313156],
      "ProtocolName": "dwi_acq-96dir-6b0-mb",
      "RepetitionTime": 4110.0,
      "Rows": 1260,
      "SAR": 0.2664150191694,
      "SamplesPerPixel": 1,
      "ScanOptions": [
        "PFP",
        "FS"
],
      "ScanningSequence": "EP",
      "SequenceVariant": [
        "SK",
        "SS"
],
      "SeriesDescription": "dwi_acq-96dir-6b0-mb",
      "SeriesNumber": 8,
      "SeriesTime": "180013.590000",
      "SliceLocation": -114.46520141984,
      "SliceThickness": 1.7000000476837,
      "SmallestImagePixelValue": 0,
      "SoftwareVersions": "syngo MR E11",
      "SpacingBetweenSlices": 1.6999999527926,
      "SpecificCharacterSet": "ISO_IR 100",
      "StudyID": "1",
      "StudyTime": "174248.032000",
      "TransmitCoilName": "Body",
      "VariableFlipAngleFlag": "N",
      "WindowCenterWidthExplanation": "Algo1"
    },
    "slices": {}
  },
  "time": {
    "samples": {
      "AcquisitionNumber": [1, 2, 3, 4, 5, 6, 7, 8, 9, 10, 11, 12, 13, 14, 15, 16, 17, 18, 19, 20, 21, 22, 23, 24, 25, 26, 27, 28, 29, 30, 31, 32, 33, 34, 35, 36, 37, 38, 39, 40, 41, 42, 43, 44, 45, 46, 47, 48, 49, 50, 51, 52, 53, 54, 55, 56, 57, 58, 59, 60, 61, 62, 63, 64, 65, 66, 67, 68, 69, 70, 71, 72, 73, 74, 75, 76, 77, 78, 79, 80, 81, 82, 83, 84, 85, 86, 87, 88, 89, 90, 91, 92, 93, 94, 95, 96, 97, 98, 99, 100, 101, 102, 103],
      "AcquisitionTime": ["175831.067500", "175835.177500", "175839.287500", "175843.397500", "175847.507500", "175851.617500", "175855.727500", "175859.837500", "175903.947500", "175908.057500", "175912.167500", "175916.277500", "175920.387500", "175924.497500", "175928.607500", "175932.717500", "175936.827500", "175940.937500", "175945.047500", "175949.157500", "175953.267500", "175957.377500", "180001.487500", "180005.597500", "180009.707500", "180013.817500", "180017.927500", "180022.037500", "180026.147500", "180030.257500", "180034.367500", "180038.477500", "180042.587500", "180046.697500", "180050.807500", "180054.917500", "180059.027500", "180103.137500", "180107.247500", "180111.357500", "180115.467500", "180119.577500", "180123.687500", "180127.797500", "180131.907500", "180136.017500", "180140.127500", "180144.237500", "180148.347500", "180152.457500", "180156.567500", "180200.677500", "180204.787500", "180208.897500", "180213.007500", "180217.117500", "180221.227500", "180225.337500", "180229.447500", "180233.557500", "180237.667500", "180241.777500", "180245.887500", "180249.997500", "180254.107500", "180258.217500", "180302.327500", "180306.437500", "180310.547500", "180314.657500", "180318.767500", "180322.877500", "180326.987500", "180331.097500", "180335.207500", "180339.317500", "180343.427500", "180347.537500", "180351.647500", "180355.757500", "180359.867500", "180403.977500", "180408.087500", "180412.197500", "180416.307500", "180420.417500", "180424.527500", "180428.637500", "180432.747500", "180436.857500", "180440.967500", "180445.077500", "180449.187500", "180453.297500", "180457.407500", "180501.517500", "180505.627500", "180509.737500", "180513.847500", "180517.957500", "180522.067500", "180526.177500", "180530.287500"],
      "ContentTime": ["180013.594000", "180013.597000", "180013.601000", "180013.604000", "180013.607000", "180013.614000", "180013.617000", "180013.626000", "180013.629000", "180013.632000", "180013.635000", "180013.638000", "180013.641000", "180013.644000", "180013.647000", "180013.650000", "180013.653000", "180013.656000", "180013.659000", "180013.662000", "180013.664000", "180013.668000", "180013.671000", "180013.674000", "180133.589000", "180133.592000", "180133.595000", "180133.598000", "180133.601000", "180133.605000", "180133.608000", "180133.611000", "180133.614000", "180133.617000", "180133.620000", "180133.623000", "180133.626000", "180133.629000", "180133.632000", "180133.635000", "180133.648000", "180133.651000", "180133.654000", "180133.657000", "180313.589000", "180313.600000", "180313.603000", "180313.606000", "180313.609000", "180313.612000", "180313.614000", "180313.617000", "180313.620000", "180313.623000", "180313.627000", "180313.630000", "180313.632000", "180313.635000", "180313.638000", "180313.641000", "180313.644000", "180313.647000", "180313.650000", "180313.653000", "180313.656000", "180313.659000", "180313.662000", "180313.665000", "180453.589000", "180453.592000", "180453.595000", "180453.598000", "180453.601000", "180453.605000", "180453.608000", "180453.611000", "180453.614000", "180453.617000", "180453.620000", "180453.623000", "180453.626000", "180453.629000", "180453.632000", "180453.635000", "180453.638000", "180453.641000", "180453.644000", "180453.647000", "180453.650000", "180453.656000", "180453.659000", "180453.662000", "180535.408000", "180535.411000", "180535.415000", "180535.418000", "180535.421000", "180535.424000", "180535.427000", "180535.430000", "180535.433000", "180535.436000", "180535.439000"],
      "InstanceCreationTime": ["180013.594000", "180013.597000", "180013.601000", "180013.604000", "180013.607000", "180013.614000", "180013.617000", "180013.626000", "180013.629000", "180013.632000", "180013.635000", "180013.638000", "180013.641000", "180013.644000", "180013.647000", "180013.650000", "180013.653000", "180013.656000", "180013.659000", "180013.662000", "180013.664000", "180013.668000", "180013.671000", "180013.674000", "180133.589000", "180133.592000", "180133.595000", "180133.598000", "180133.601000", "180133.605000", "180133.608000", "180133.611000", "180133.614000", "180133.617000", "180133.620000", "180133.623000", "180133.626000", "180133.629000", "180133.632000", "180133.635000", "180133.648000", "180133.651000", "180133.654000", "180133.657000", "180313.589000", "180313.600000", "180313.603000", "180313.606000", "180313.609000", "180313.612000", "180313.614000", "180313.617000", "180313.620000", "180313.623000", "180313.627000", "180313.630000", "180313.632000", "180313.635000", "180313.638000", "180313.641000", "180313.644000", "180313.647000", "180313.650000", "180313.653000", "180313.656000", "180313.659000", "180313.662000", "180313.665000", "180453.589000", "180453.592000", "180453.595000", "180453.598000", "180453.601000", "180453.605000", "180453.608000", "180453.611000", "180453.614000", "180453.617000", "180453.620000", "180453.623000", "180453.626000", "180453.629000", "180453.632000", "180453.635000", "180453.638000", "180453.641000", "180453.644000", "180453.647000", "180453.650000", "180453.656000", "180453.659000", "180453.662000", "180535.408000", "180535.411000", "180535.415000", "180535.418000", "180535.421000", "180535.424000", "180535.427000", "180535.430000", "180535.433000", "180535.436000", "180535.439000"],
      "InstanceNumber": [1, 2, 3, 4, 5, 6, 7, 8, 9, 10, 11, 12, 13, 14, 15, 16, 17, 18, 19, 20, 21, 22, 23, 24, 25, 26, 27, 28, 29, 30, 31, 32, 33, 34, 35, 36, 37, 38, 39, 40, 41, 42, 43, 44, 45, 46, 47, 48, 49, 50, 51, 52, 53, 54, 55, 56, 57, 58, 59, 60, 61, 62, 63, 64, 65, 66, 67, 68, 69, 70, 71, 72, 73, 74, 75, 76, 77, 78, 79, 80, 81, 82, 83, 84, 85, 86, 87, 88, 89, 90, 91, 92, 93, 94, 95, 96, 97, 98, 99, 100, 101, 102, 103],
      "LargestImagePixelValue": [65535, 65535, 34399, 34750, 36295, 33607, 31749, 36394, 65535, 21324, 23504, 23697, 25014, 22159, 23985, 21670, 24008, 25039, 24681, 23406, 21783, 22248, 24166, 24201, 65535, 12750, 13421, 13734, 12950, 12867, 12647, 12132, 12197, 12911, 13093, 12776, 12690, 13226, 11912, 12873, 65535, 11563, 11463, 11899, 11485, 11736, 11923, 12299, 12044, 11108, 12470, 11884, 11948, 11909, 11544, 11757, 12378, 12433, 11848, 11841, 12425, 11634, 11974, 12295, 12593, 12347, 12467, 12639, 11777, 12567, 12303, 12463, 11661, 65535, 11621, 11554, 12249, 12510, 13291, 11538, 11602, 11595, 12692, 11932, 11092, 11761, 11497, 11640, 11350, 11314, 10789, 12081, 11755, 11165, 10655, 11080, 11260, 12031, 11391, 11183, 11238, 10472, 65535],
      "SequenceName": [
 "ep_b5#1",
 "ep_b5#1",
 "ep_b500#2",
 "ep_b495#3",
 "ep_b500#4",
 "ep_b505#5",
 "ep_b495#6",
 "ep_b500#7",
 "ep_b5#8",
 "ep_b1000#9",
 "ep_b1005#10",
 "ep_b995#11",
 "ep_b1005#12",
 "ep_b995#13",
 "ep_b995#14",
 "ep_b1005#15",
 "ep_b1000#16",
 "ep_b1005#17",
 "ep_b1000#18",
 "ep_b1000#19",
 "ep_b995#20",
 "ep_b1000#21",
 "ep_b1005#22",
 "ep_b1000#23",
 "ep_b5#24",
 "ep_b2000#25",
 "ep_b1995#26",
 "ep_b1990#27",
 "ep_b2000#28",
 "ep_b2005#29",
 "ep_b2010#30",
 "ep_b2000#31",
 "ep_b2010#32",
 "ep_b1995#33",
 "ep_b1995#34",
 "ep_b1995#35",
 "ep_b2005#36",
 "ep_b1995#37",
 "ep_b2005#38",
 "ep_b1995#39",
 "ep_b5#40",
 "ep_b3000#41",
 "ep_b3005#42",
 "ep_b3010#43",
 "ep_b3010#44",
 "ep_b3000#45",
 "ep_b3000#46",
 "ep_b2990#47",
 "ep_b3005#48",
 "ep_b3005#49",
 "ep_b2990#50",
 "ep_b2990#51",
 "ep_b2995#52",
 "ep_b2995#53",
 "ep_b3005#54",
 "ep_b3000#55",
 "ep_b2995#56",
 "ep_b2995#57",
 "ep_b2990#58",
 "ep_b2990#59",
 "ep_b3000#60",
 "ep_b2990#61",
 "ep_b2990#62",
 "ep_b3000#63",
 "ep_b3000#64",
 "ep_b3010#65",
 "ep_b3000#66",
 "ep_b3005#67",
 "ep_b3010#68",
 "ep_b3005#69",
 "ep_b3005#70",
 "ep_b3005#71",
 "ep_b2990#72",
 "ep_b5#73",
 "ep_b3010#74",
 "ep_b3005#75",
 "ep_b3005#76",
 "ep_b3000#77",
 "ep_b2990#78",
 "ep_b3005#79",
 "ep_b2995#80",
 "ep_b3010#81",
 "ep_b3005#82",
 "ep_b3005#83",
 "ep_b3000#84",
 "ep_b3000#85",
 "ep_b3010#86",
 "ep_b3010#87",
 "ep_b2990#88",
 "ep_b3010#89",
 "ep_b2990#90",
 "ep_b2995#91",
 "ep_b2990#92",
 "ep_b2995#93",
 "ep_b3005#94",
 "ep_b3005#95",
 "ep_b2995#96",
 "ep_b3000#97",
 "ep_b2990#98",
 "ep_b2995#99",
 "ep_b3000#100",
 "ep_b2995#101",
 "ep_b5#102"
],
      "WindowCenter": [9836.0, 9815.0, 6607.0, 6668.0, 6633.0, 6571.0, 6663.0, 6655.0, 9836.0, 4981.0, 5002.0, 5030.0, 4988.0, 5059.0, 5085.0, 4991.0, 5008.0, 4992.0, 5051.0, 5004.0, 5070.0, 5011.0, 4992.0, 5042.0, 9835.0, 3183.0, 3202.0, 3304.0, 3241.0, 3217.0, 3213.0, 3181.0, 3160.0, 3216.0, 3298.0, 3236.0, 3175.0, 3214.0, 3219.0, 3228.0, 9834.0, 2336.0, 2311.0, 2373.0, 2368.0, 2341.0, 2340.0, 2442.0, 2334.0, 2307.0, 2434.0, 2422.0, 2359.0, 2376.0, 2376.0, 2314.0, 2371.0, 2362.0, 2414.0, 2410.0, 2365.0, 2372.0, 2457.0, 2383.0, 2395.0, 2441.0, 2339.0, 2380.0, 2386.0, 2381.0, 2356.0, 2441.0, 2429.0, 9854.0, 2380.0, 2324.0, 2335.0, 2366.0, 2427.0, 2300.0, 2343.0, 2354.0, 2438.0, 2342.0, 2333.0, 2346.0, 2353.0, 2365.0, 2411.0, 2368.0, 2380.0, 2391.0, 2381.0, 2376.0, 2291.0, 2334.0, 2401.0, 2350.0, 2426.0, 2329.0, 2333.0, 2369.0, 9826.0],
      "WindowWidth": [21919.0, 21854.0, 14059.0, 14166.0, 14091.0, 13959.0, 14173.0, 14137.0, 21905.0, 10827.0, 10834.0, 10907.0, 10814.0, 10963.0, 11000.0, 10818.0, 10869.0, 10835.0, 10937.0, 10851.0, 10992.0, 10877.0, 10824.0, 10907.0, 21910.0, 7333.0, 7357.0, 7534.0, 7432.0, 7386.0, 7365.0, 7326.0, 7274.0, 7389.0, 7548.0, 7440.0, 7302.0, 7375.0, 7398.0, 7399.0, 21901.0, 5636.0, 5561.0, 5699.0, 5667.0, 5627.0, 5618.0, 5831.0, 5592.0, 5576.0, 5788.0, 5769.0, 5671.0, 5714.0, 5717.0, 5574.0, 5691.0, 5646.0, 5776.0, 5753.0, 5660.0, 5689.0, 5871.0, 5713.0, 5728.0, 5833.0, 5618.0, 5698.0, 5726.0, 5702.0, 5661.0, 5837.0, 5807.0, 21977.0, 5689.0, 5582.0, 5598.0, 5669.0, 5762.0, 5544.0, 5631.0, 5641.0, 5823.0, 5631.0, 5624.0, 5647.0, 5639.0, 5660.0, 5761.0, 5668.0, 5727.0, 5706.0, 5698.0, 5713.0, 5542.0, 5631.0, 5760.0, 5633.0, 5794.0, 5600.0, 5622.0, 5718.0, 21853.0]
    },
    "slices": {}
  }
}