{
  "AcquisitionMatrixPE": 140,
  "AcquisitionNumber": 1,
  "AcquisitionTime": "14:50:24.070000",
  "BandwidthPerPixelPhaseEncode": 10.352,
  "BaseResolution": 140,
  "BodyPartExamined": "BRAIN",
  "ConsistencyInfo": "N4_VE11C_LATEST_20160120",
  "ConversionSoftware": "dcm2niix",
  "ConversionSoftwareVersion": "v1.0.20201102",
  "DerivedVendorReportedEchoSpacing": 0.000689998,
  "DeviceSerialNumber": "66112",
  "DiffusionScheme": "Monopolar",
  "DwellTime": 2.1e-06,
  "EchoTime": 0.088,
  "EchoTrainLength": 105,
  "EffectiveEchoSpacing": 0.000689998,
  "FlipAngle": 90,
  "ImageComments": "Unaliased MB3/PE3",
  "ImageOrientationPatientDICOM": [0.99916, 0.0379312, -0.0154799, -0.0380346, 0.999256, -0.00643969],
  "ImageType": [
    "ORIGINAL",
    "PRIMARY",
    "DIFFUSION",
    "NONE",
    "MB",
    "ND"
],
  "ImagingFrequency": 123.252,
  "InPlanePhaseEncodingDirectionDICOM": "COL",
  "InstitutionAddress": "Maynard 3,Hanover,NH,US,03755",
  "InstitutionName": "Dartmouth College - PBS",
  "InstitutionalDepartmentName": "Department",
  "IntendedFor": [
    "ses-01/dwi/sub-0032_ses-01_acq-96dirX6b0Xmb_dwi.nii.gz"
],
  "MRAcquisitionType": "2D",
  "MagneticFieldStrength": 3,
  "Manufacturer": "Siemens",
  "ManufacturersModelName": "Prisma",
  "Modality": "MR",
  "MultibandAccelerationFactor": 3,
  "PartialFourier": 0.75,
  "PatientPosition": "HFS",
  "PercentPhaseFOV": 100,
  "PercentSampling": 100,
  "PhaseEncodingDirection": "j-",
  "PhaseEncodingSteps": 105,
  "PhaseResolution": 1,
  "PixelBandwidth": 1700,
  "ProcedureStepDescription": "Wager_Wager^1076_spacetop",
  "ProtocolName": "dwi_acq-discorr-AP",
  "PulseSequenceDetails": "%CustomerSeq%\\cmrr_mbep2d_diff",
  "ReceiveCoilActiveElements": "HEA;HEP",
  "ReceiveCoilName": "Head_32",
  "ReconMatrixPE": 140,
  "RepetitionTime": 4.1,
  "SAR": 0.1642,
  "ScanOptions": "PFP\\FS",
  "ScanningSequence": "EP",
  "SequenceName": "ep_b0",
  "SequenceVariant": "SK\\SS",
  "SeriesDescription": "dwi_acq-discorr-AP",
  "SeriesNumber": 7,
  "ShimSetting": [4128, -7781, -7235, 600, -72, -205, 64, 88],
  "SliceThickness": 1.7,
  "SliceTiming": [0, 2.125, 0.15625, 2.26562, 0.3125, 2.42188, 0.45312, 2.57812, 0.60938, 2.73438, 0.76562, 2.875, 0.90625, 3.03125, 1.0625, 3.1875, 1.21875, 3.32812, 1.375, 3.48438, 1.51562, 3.625, 1.67188, 3.78125, 1.8125, 3.9375, 1.96875, 0, 2.125, 0.15625, 2.26562, 0.3125, 2.42188, 0.45312, 2.57812, 0.60938, 2.73438, 0.76562, 2.875, 0.90625, 3.03125, 1.0625, 3.1875, 1.21875, 3.32812, 1.375, 3.48438, 1.51562, 3.625, 1.67188, 3.78125, 1.8125, 3.9375, 1.96875, 0, 2.125, 0.15625, 2.26562, 0.3125, 2.42188, 0.45312, 2.57812, 0.60938, 2.73438, 0.76562, 2.875, 0.90625, 3.03125, 1.0625, 3.1875, 1.21875, 3.32812, 1.375, 3.48438, 1.51562, 3.625, 1.67188, 3.78125, 1.8125, 3.9375, 1.96875],
  "SoftwareVersions": "syngo MR E11",
  "SpacingBetweenSlices": 1.7,
  "StationName": "AWP66112",
  "TotalReadoutTime": 0.0959097,
  "TxRefAmp": 251.699,
  "WipMemBlock": "9a054cdd-029d-4491-a021-2ee3e2b973a6||Sequence: R016 ve11c/master r/e634e98; Dec 19 2017 11:11:25 by eja",
  "dcmmeta_affine": [
    [-1.7128465175628662, -0.06520215421915054, -0.02588091790676117, 126.6454849243164],
    [-0.06502491980791092, 1.7130097150802612, -0.011938095092773438, -90.01705169677734],
    [-0.02653690241277218, 0.011039463803172112, 1.6997604370117188, -66.55532836914062],
    [0.0, 0.0, 0.0, 1.0]
],
  "dcmmeta_reorient_transform": [
    [0.0, -1.0, 0.0, 139.0],
    [1.0, 0.0, 0.0, 0.0],
    [0.0, 0.0, -1.0, 80.0],
    [0.0, 0.0, 0.0, 1.0]
],
  "dcmmeta_shape": [140, 140, 81],
  "dcmmeta_slice_dim": 2,
  "dcmmeta_version": 0.6,
  "global": {
    "const": {
      "AccessionNumber": "A003793",
      "AcquisitionMatrix": [140, 0, 0, 140],
      "AcquisitionNumber": 1,
      "AngioFlag": "N",
      "BitsAllocated": 16,
      "BitsStored": 16,
      "BodyPartExamined": "BRAIN",
      "Columns": 140,
      "EchoNumbers": 1,
      "EchoTime": 88.0,
      "EchoTrainLength": 105,
      "FlipAngle": 90.0,
      "HighBit": 15,
      "ImageOrientationPatient": [0.99916044644185, 0.03793120352341, -0.0154798599926, -0.0380345878409, 0.99925567326862, -0.0064396869691],
      "ImageType": [
        "ORIGINAL",
        "PRIMARY",
        "DIFFUSION",
        "NONE",
        "MB",
        "ND"
],
      "ImagedNucleus": "1H",
      "ImagingFrequency": 123.252196,
      "InPlanePhaseEncodingDirection": "COL",
      "MRAcquisitionType": "2D",
      "MagneticFieldStrength": 3.0,
      "Manufacturer": "SIEMENS",
      "ManufacturerModelName": "Prisma",
      "Modality": "MR",
      "NumberOfAverages": 1.0,
      "NumberOfPhaseEncodingSteps": 105,
      "PercentPhaseFieldOfView": 100.0,
      "PercentSampling": 100.0,
      "PerformedProcedureStepStartTime": "143343.482000",
      "PhotometricInterpretation": "MONOCHROME2",
      "PixelBandwidth": 1700.0,
      "PixelRepresentation": 0,
      "PixelSpacing": [1.7142857313156, 1.7142857313156],
      "ProtocolName": "dwi_acq-discorr-AP",
      "RepetitionTime": 4100.0,
      "Rows": 140,
      "SAR": 0.16419959416302,
      "SamplesPerPixel": 1,
      "ScanOptions": [
        "PFP",
        "FS"
],
      "ScanningSequence": "EP",
      "SequenceName": "ep_b0",
      "SequenceVariant": [
        "SK",
        "SS"
],
      "SeriesDescription": "dwi_acq-discorr-AP",
      "SeriesNumber": 7,
      "SeriesTime": "145028.479000",
      "SliceThickness": 1.7000000476837,
      "SmallestImagePixelValue": 0,
      "SoftwareVersions": "syngo MR E11",
      "SpacingBetweenSlices": 1.7,
      "SpecificCharacterSet": "ISO_IR 100",
      "StudyID": "1",
      "StudyTime": "143343.428000",
      "TransmitCoilName": "Body",
      "VariableFlipAngleFlag": "N",
      "WindowCenterWidthExplanation": "Algo1",
      "dBdt": 0.0},
    "slices": {
      "AcquisitionTime": ["145024.070000", "145026.185000", "145024.220000", "145026.335000", "145024.370000", "145026.487500", "145024.522500", "145026.637500", "145024.672500", "145026.790000", "145024.825000", "145026.940000", "145024.975000", "145027.090000", "145025.127500", "145027.242500", "145025.277500", "145027.392500", "145025.430000", "145027.545000", "145025.580000", "145027.695000", "145025.730000", "145027.847500", "145025.882500", "145027.997500", "145026.032500", "145024.070000", "145026.185000", "145024.220000", "145026.335000", "145024.370000", "145026.487500", "145024.522500", "145026.637500", "145024.672500", "145026.790000", "145024.825000", "145026.940000", "145024.975000", "145027.090000", "145025.127500", "145027.242500", "145025.277500", "145027.392500", "145025.430000", "145027.545000", "145025.580000", "145027.695000", "145025.730000", "145027.847500", "145025.882500", "145027.997500", "145026.032500", "145024.070000", "145026.185000", "145024.220000", "145026.335000", "145024.370000", "145026.487500", "145024.522500", "145026.637500", "145024.672500", "145026.790000", "145024.825000", "145026.940000", "145024.975000", "145027.090000", "145025.127500", "145027.242500", "145025.277500", "145027.392500", "145025.430000", "145027.545000", "145025.580000", "145027.695000", "145025.730000", "145027.847500", "145025.882500", "145027.997500", "145026.032500"],
      "ContentTime": ["145028.482000", "145028.583000", "145028.492000", "145028.590000", "145028.498000", "145028.596000", "145028.505000", "145028.603000", "145028.512000", "145028.610000", "145028.518000", "145028.623000", "145028.531000", "145028.630000", "145028.537000", "145028.636000", "145028.544000", "145028.643000", "145028.551000", "145028.649000", "145028.557000", "145028.656000", "145028.564000", "145028.662000", "145028.570000", "145028.669000", "145028.577000", "145028.487000", "145028.585000", "145028.494000", "145028.592000", "145028.500000", "145028.599000", "145028.507000", "145028.606000", "145028.514000", "145028.612000", "145028.520000", "145028.626000", "145028.533000", "145028.632000", "145028.539000", "145028.639000", "145028.546000", "145028.645000", "145028.553000", "145028.652000", "145028.560000", "145028.658000", "145028.566000", "145028.665000", "145028.572000", "145028.671000", "145028.579000", "145028.489000", "145028.588000", "145028.496000", "145028.594000", "145028.503000", "145028.601000", "145028.509000", "145028.608000", "145028.516000", "145028.614000", "145028.522000", "145028.628000", "145028.535000", "145028.634000", "145028.541000", "145028.641000", "145028.549000", "145028.647000", "145028.555000", "145028.654000", "145028.562000", "145028.660000", "145028.568000", "145028.667000", "145028.575000", "145028.674000", "145028.581000"],
      "CsaImage.ICE_Dims": [
        "X_1_1_1_1_1_1_1_1_1_1_1_74",
        "X_1_1_1_1_1_1_42_1_1_2_1_74",
        "X_1_1_1_1_1_1_2_1_1_3_1_74",
        "X_1_1_1_1_1_1_43_1_1_4_1_74",
        "X_1_1_1_1_1_1_3_1_1_5_1_74",
        "X_1_1_1_1_1_1_44_1_1_6_1_74",
        "X_1_1_1_1_1_1_4_1_1_7_1_74",
        "X_1_1_1_1_1_1_45_1_1_8_1_74",
        "X_1_1_1_1_1_1_5_1_1_9_1_74",
        "X_1_1_1_1_1_1_46_1_1_10_1_74",
        "X_1_1_1_1_1_1_6_1_1_11_1_74",
        "X_1_1_1_1_1_1_47_1_1_12_1_74",
        "X_1_1_1_1_1_1_7_1_1_13_1_74",
        "X_1_1_1_1_1_1_48_1_1_14_1_74",
        "X_1_1_1_1_1_1_8_1_1_15_1_74",
        "X_1_1_1_1_1_1_49_1_1_16_1_74",
        "X_1_1_1_1_1_1_9_1_1_17_1_74",
        "X_1_1_1_1_1_1_50_1_1_18_1_74",
        "X_1_1_1_1_1_1_10_1_1_19_1_74",
        "X_1_1_1_1_1_1_51_1_1_20_1_74",
        "X_1_1_1_1_1_1_11_1_1_21_1_74",
        "X_1_1_1_1_1_1_52_1_1_22_1_74",
        "X_1_1_1_1_1_1_12_1_1_23_1_74",
        "X_1_1_1_1_1_1_53_1_1_24_1_74",
        "X_1_1_1_1_1_1_13_1_1_25_1_74",
        "X_1_1_1_1_1_1_54_1_1_26_1_74",
        "X_1_1_1_1_1_1_14_1_1_27_1_74",
        "X_1_1_1_1_1_1_55_1_1_28_1_74",
        "X_1_1_1_1_1_1_15_1_1_29_1_74",
        "X_1_1_1_1_1_1_56_1_1_30_1_74",
        "X_1_1_1_1_1_1_16_1_1_31_1_74",
        "X_1_1_1_1_1_1_57_1_1_32_1_74",
        "X_1_1_1_1_1_1_17_1_1_33_1_74",
        "X_1_1_1_1_1_1_58_1_1_34_1_74",
        "X_1_1_1_1_1_1_18_1_1_35_1_74",
        "X_1_1_1_1_1_1_59_1_1_36_1_74",
        "X_1_1_1_1_1_1_19_1_1_37_1_74",
        "X_1_1_1_1_1_1_60_1_1_38_1_74",
        "X_1_1_1_1_1_1_20_1_1_39_1_74",
        "X_1_1_1_1_1_1_61_1_1_40_1_74",
        "X_1_1_1_1_1_1_21_1_1_41_1_74",
        "X_1_1_1_1_1_1_62_1_1_42_1_74",
        "X_1_1_1_1_1_1_22_1_1_43_1_74",
        "X_1_1_1_1_1_1_63_1_1_44_1_74",
        "X_1_1_1_1_1_1_23_1_1_45_1_74",
        "X_1_1_1_1_1_1_64_1_1_46_1_74",
        "X_1_1_1_1_1_1_24_1_1_47_1_74",
        "X_1_1_1_1_1_1_65_1_1_48_1_74",
        "X_1_1_1_1_1_1_25_1_1_49_1_74",
        "X_1_1_1_1_1_1_66_1_1_50_1_74",
        "X_1_1_1_1_1_1_26_1_1_51_1_74",
        "X_1_1_1_1_1_1_67_1_1_52_1_74",
        "X_1_1_1_1_1_1_27_1_1_53_1_74",
        "X_1_1_1_1_1_1_68_1_1_54_1_74",
        "X_1_1_1_1_1_1_28_1_1_55_1_74",
        "X_1_1_1_1_1_1_69_1_1_56_1_74",
        "X_1_1_1_1_1_1_29_1_1_57_1_74",
        "X_1_1_1_1_1_1_70_1_1_58_1_74",
        "X_1_1_1_1_1_1_30_1_1_59_1_74",
        "X_1_1_1_1_1_1_71_1_1_60_1_74",
        "X_1_1_1_1_1_1_31_1_1_61_1_74",
        "X_1_1_1_1_1_1_72_1_1_62_1_74",
        "X_1_1_1_1_1_1_32_1_1_63_1_74",
        "X_1_1_1_1_1_1_73_1_1_64_1_74",
        "X_1_1_1_1_1_1_33_1_1_65_1_74",
        "X_1_1_1_1_1_1_74_1_1_66_1_74",
        "X_1_1_1_1_1_1_34_1_1_67_1_74",
        "X_1_1_1_1_1_1_75_1_1_68_1_74",
        "X_1_1_1_1_1_1_35_1_1_69_1_74",
        "X_1_1_1_1_1_1_76_1_1_70_1_74",
        "X_1_1_1_1_1_1_36_1_1_71_1_74",
        "X_1_1_1_1_1_1_77_1_1_72_1_74",
        "X_1_1_1_1_1_1_37_1_1_73_1_74",
        "X_1_1_1_1_1_1_78_1_1_74_1_74",
        "X_1_1_1_1_1_1_38_1_1_75_1_74",
        "X_1_1_1_1_1_1_79_1_1_76_1_74",
        "X_1_1_1_1_1_1_39_1_1_77_1_74",
        "X_1_1_1_1_1_1_80_1_1_78_1_74",
        "X_1_1_1_1_1_1_40_1_1_79_1_74",
        "X_1_1_1_1_1_1_81_1_1_80_1_74",
        "X_1_1_1_1_1_1_41_1_1_81_1_74"
],
      "CsaImage.ProtocolSliceNumber": [0, 1, 2, 3, 4, 5, 6, 7, 8, 9, 10, 11, 12, 13, 14, 15, 16, 17, 18, 19, 20, 21, 22, 23, 24, 25, 26, 27, 28, 29, 30, 31, 32, 33, 34, 35, 36, 37, 38, 39, 40, 41, 42, 43, 44, 45, 46, 47, 48, 49, 50, 51, 52, 53, 54, 55, 56, 57, 58, 59, 60, 61, 62, 63, 64, 65, 66, 67, 68, 69, 70, 71, 72, 73, 74, 75, 76, 77, 78, 79, 80],
      "CsaImage.RFSWDDataType": [
        "predicted",
        "predicted",
        "predicted",
        "predicted",
        "predicted",
        "predicted",
        "predicted",
        "predicted",
        "predicted",
        "predicted",
        "predicted",
        "predicted",
        "predicted",
        "predicted",
        "predicted",
        "predicted",
        "predicted",
        "predicted",
        "predicted",
        "predicted",
        "predicted",
        "predicted",
        "predicted",
        "predicted",
        "predicted",
        "measured",
        "predicted",
        "predicted",
        "predicted",
        "predicted",
        "predicted",
        "predicted",
        "predicted",
        "predicted",
        "predicted",
        "predicted",
        "predicted",
        "predicted",
        "predicted",
        "predicted",
        "predicted",
        "predicted",
        "predicted",
        "predicted",
        "predicted",
        "predicted",
        "predicted",
        "predicted",
        "predicted",
        "predicted",
        "predicted",
        "predicted",
        "measured",
        "predicted",
        "predicted",
        "predicted",
        "predicted",
        "predicted",
        "predicted",
        "predicted",
        "predicted",
        "predicted",
        "predicted",
        "predicted",
        "predicted",
        "predicted",
        "predicted",
        "predicted",
        "predicted",
        "predicted",
        "predicted",
        "predicted",
        "predicted",
        "predicted",
        "predicted",
        "predicted",
        "predicted",
        "predicted",
        "predicted",
        "measured",
        "predicted"
],
      "CsaImage.SlicePosition_PCS": [
        [-117.58238644, -148.09139183, -65.02089946],
        [-117.55650563, -148.07945183, -63.32113139],
        [-117.53062458, -148.06751182, -61.62137095],
        [-117.50474377, -148.05557373, -59.92161433],
        [-117.47886271, -148.04363373, -58.22185008],
        [-117.4529819, -148.03169563, -56.52208964],
        [-117.42710109, -148.01975563, -54.8223292],
        [-117.40122003, -148.00781753, -53.12256877],
        [-117.37533922, -147.99587753, -51.42280833],
        [-117.34945817, -147.98393753, -49.72304789],
        [-117.32357724, -147.97199943, -48.02328364],
        [-117.2976963, -147.96005943, -46.3235232],
        [-117.27181537, -147.94812134, -44.62376277],
        [-117.24593456, -147.93618133, -42.92400233],
        [-117.22005362, -147.92424324, -41.22424189],
        [-117.19417269, -147.91230324, -39.52448146],
        [-117.16829176, -147.90036323, -37.8247172],
        [-117.14241083, -147.88842514, -36.12495677],
        [-117.11652989, -147.87648514, -34.42519633],
        [-117.09064896, -147.86454704, -32.72543589],
        [-117.06476803, -147.85260704, -31.02567546],
        [-117.03888709, -147.84066894, -29.32591311],
        [-117.01300616, -147.82872894, -27.62615268],
        [-116.98712523, -147.81678894, -25.92639224],
        [-116.9612443, -147.80485084, -24.22662989],
        [-116.93536348, -147.79291084, -22.52686946],
        [-116.90948255, -147.78097275, -20.82710902],
        [-116.88360162, -147.76903274, -19.12734668],
        [-116.85772068, -147.75709465, -17.42758624],
        [-116.83183975, -147.74515465, -15.7278258],
        [-116.80595882, -147.73321464, -14.02806346],
        [-116.78007789, -147.72127655, -12.32830302],
        [-116.75419695, -147.70933655, -10.62854163],
        [-116.72831602, -147.69739845, -8.92878119],
        [-116.70243509, -147.68545845, -7.2290198],
        [-116.67655415, -147.67352035, -5.52925936],
        [-116.65067322, -147.66158035, -3.82949797],
        [-116.62479229, -147.64964035, -2.12973706],
        [-116.59891147, -147.63770225, -0.42997567],
        [-116.57303054, -147.62576225, 1.26978524],
        [-116.54714961, -147.61382416, 2.96954631],
        [-116.52126868, -147.60188415, 4.66930731],
        [-116.49538774, -147.58994606, 6.36906846],
        [-116.46950681, -147.57800606, 8.06882938],
        [-116.44362588, -147.56606605, 9.76859029],
        [-116.41774494, -147.55412796, 11.46835168],
        [-116.39186401, -147.54218796, 13.16811307],
        [-116.36598308, -147.53024986, 14.86787351],
        [-116.34010215, -147.51830986, 16.5676349],
        [-116.31422127, -147.50637176, 18.26739534],
        [-116.28834034, -147.49443176, 19.96715673],
        [-116.26245941, -147.48249176, 21.66691716],
        [-116.23657847, -147.47055366, 23.36667951],
        [-116.21069754, -147.45861366, 25.06643995],
        [-116.18481667, -147.44667557, 26.76620038],
        [-116.15893574, -147.43473556, 28.46596273],
        [-116.1330548, -147.42279747, 30.16572316],
        [-116.10717387, -147.41085747, 31.8654836],
        [-116.08129294, -147.39891746, 33.56524595],
        [-116.055412, -147.38697937, 35.26500448],
        [-116.02953113, -147.37503937, 36.96476873],
        [-116.0036502, -147.36310127, 38.66452916],
        [-115.97776927, -147.35116127, 40.3642896],
        [-115.95188833, -147.33922317, 42.06405004],
        [-115.9260074, -147.32728317, 43.76381047],
        [-115.90012647, -147.31534317, 45.46357091],
        [-115.87424553, -147.30340507, 47.16333516],
        [-115.84836466, -147.29146507, 48.8630956],
        [-115.82248373, -147.27952698, 50.56285604],
        [-115.7966028, -147.26758697, 52.26261647],
        [-115.77072186, -147.25564888, 53.96237691],
        [-115.74484096, -147.24370888, 55.66213735],
        [-115.71896003, -147.23176887, 57.3619016],
        [-115.69307909, -147.21983078, 59.06166204],
        [-115.66719816, -147.20789078, 60.76142247],
        [-115.64131726, -147.19595268, 62.46118291],
        [-115.61543633, -147.18401268, 64.16094335],
        [-115.58955539, -147.17207458, 65.86070379],
        [-115.56367448, -147.16013458, 67.56046804],
        [-115.53779356, -147.14819458, 69.26022847],
        [-115.51191264, -147.13625648, 70.95998891]
],
      "CsaImage.TimeAfterStart": [16.4, 18.5175, 16.5525, 18.6675, 16.7025, 18.8175, 16.855, 18.97, 17.005, 19.12, 17.1575, 19.2725, 17.3075, 19.4225, 17.4575, 19.575, 17.61, 19.725, 17.76, 19.8775, 17.9125, 20.0275, 18.0625, 20.1775, 18.215, 20.33, 18.365, 16.4, 18.5175, 16.5525, 18.6675, 16.7025, 18.8175, 16.855, 18.97, 17.005, 19.12, 17.1575, 19.2725, 17.3075, 19.4225, 17.4575, 19.575, 17.61, 19.725, 17.76, 19.8775, 17.9125, 20.0275, 18.0625, 20.1775, 18.215, 20.33, 18.365, 16.4, 18.5175, 16.5525, 18.6675, 16.7025, 18.8175, 16.855, 18.97, 17.005, 19.12, 17.1575, 19.2725, 17.3075, 19.4225, 17.4575, 19.575, 17.61, 19.725, 17.76, 19.8775, 17.9125, 20.0275, 18.0625, 20.1775, 18.215, 20.33, 18.365],
      "ImagePositionPatient": [
        [-117.58238644448, -148.09139182927, -65.020899455657],
        [-117.55650563088, -148.07945182683, -63.321131389251],
        [-117.53062457887, -148.06751182439, -61.621370952239],
        [-117.50474376527, -148.0555737293, -59.921614329925],
        [-117.47886271325, -148.04363372686, -58.221850078216],
        [-117.45298189965, -148.03169563176, -56.522089641204],
        [-117.42710108605, -148.01975562932, -54.822329204192],
        [-117.40122003404, -148.00781753423, -53.122568767181],
        [-117.37533922044, -147.99587753179, -51.422808330169],
        [-117.34945816842, -147.98393752935, -49.723047893157],
        [-117.32357723561, -147.97199943425, -48.023283641448],
        [-117.2976963028, -147.96005943181, -46.323523204437],
        [-117.27181537, -147.94812133672, -44.623762767425],
        [-117.2459345564, -147.93618133428, -42.924002330413],
        [-117.22005362359, -147.92424323919, -41.224241893401],
        [-117.19417269078, -147.91230323674, -39.52448145639],
        [-117.16829175797, -147.9003632343, -37.824717204681],
        [-117.14241082517, -147.88842513921, -36.124956767669],
        [-117.11652989236, -147.87648513677, -34.425196330657],
        [-117.09064895955, -147.86454704168, -32.725435893645],
        [-117.06476802674, -147.85260703924, -31.025675456634],
        [-117.03888709393, -147.84066894414, -29.325913112273],
        [-117.01300616113, -147.8287289417, -27.626152675262],
        [-116.98712522832, -147.81678893926, -25.92639223825],
        [-116.96124429551, -147.80485084417, -24.22662989389],
        [-116.93536348191, -147.79291084173, -22.526869456878],
        [-116.9094825491, -147.78097274663, -20.827109019866],
        [-116.8836016163, -147.76903274419, -19.127346675506],
        [-116.85772068349, -147.7570946491, -17.427586238494],
        [-116.83183975068, -147.74515464666, -15.727825801482],
        [-116.80595881787, -147.73321464422, -14.028063457122],
        [-116.78007788506, -147.72127654912, -12.32830302011],
        [-116.75419695226, -147.70933654668, -10.628541629424],
        [-116.72831601945, -147.69739845159, -8.9287811924126],
        [-116.70243508664, -147.68545844915, -7.2290198017265],
        [-116.67655415383, -147.67352035405, -5.5292593647148],
        [-116.65067322102, -147.66158035161, -3.8294979740288],
        [-116.62479228822, -147.64964034917, -2.1297370601799],
        [-116.59891147462, -147.63770225408, -0.4299756694939],
        [-116.57303054181, -147.62576225164, 1.269785244355],
        [-116.547149609, -147.61382415654, 2.9695463072155],
        [-116.52126867619, -147.6018841541, 4.6693073104713],
        [-116.49538774339, -147.58994605901, 6.3690684627388],
        [-116.46950681058, -147.57800605657, 8.0688293765877],
        [-116.44362587777, -147.56606605413, 9.7685902904365],
        [-116.41774494496, -147.55412795903, 11.468351681123],
        [-116.39186401215, -147.54218795659, 13.168113071809],
        [-116.36598307935, -147.5302498615, 14.86787350882],
        [-116.34010214654, -147.51830985906, 16.567634899506],
        [-116.31422127334, -147.50637176397, 18.267395336518],
        [-116.28834034053, -147.49443176153, 19.967156727204],
        [-116.26245940772, -147.48249175908, 21.666917164216],
        [-116.23657847491, -147.47055366399, 23.366679508576],
        [-116.2106975421, -147.45861366155, 25.066439945588],
        [-116.1848166689, -147.44667556646, 26.7662003826],
        [-116.15893573609, -147.43473556402, 28.46596272696],
        [-116.13305480328, -147.42279746892, 30.165723163972],
        [-116.10717387048, -147.41085746648, 31.865483600983],
        [-116.08129293767, -147.39891746404, 33.565245945344],
        [-116.05541200486, -147.38697936895, 35.265004475007],
        [-116.02953113166, -147.37503936651, 36.964768726716],
        [-116.00365019885, -147.36310127141, 38.664529163728],
        [-115.97776926604, -147.35116126897, 40.364289600739],
        [-115.95188833323, -147.33922317388, 42.064050037751],
        [-115.92600740043, -147.32728317144, 43.763810474763],
        [-115.90012646762, -147.315343169, 45.463570911774],
        [-115.87424553481, -147.3034050739, 47.163335163483],
        [-115.84836466161, -147.29146507146, 48.863095600495],
        [-115.8224837288, -147.27952697637, 50.562856037507],
        [-115.79660279599, -147.26758697393, 52.262616474519],
        [-115.77072186318, -147.25564887883, 53.96237691153],
        [-115.74484096018, -147.24370887639, 55.662137348542],
        [-115.71896002737, -147.23176887395, 57.361901600251],
        [-115.69307909456, -147.21983077886, 59.061662037263],
        [-115.66719816175, -147.20789077642, 60.761422474274],
        [-115.64131725875, -147.19595268132, 62.461182911286],
        [-115.61543632594, -147.18401267888, 64.160943348298],
        [-115.58955539313, -147.17207458379, 65.86070378531],
        [-115.56367447523, -147.16013458135, 67.560468037019],
        [-115.53779355732, -147.14819457891, 69.26022847403],
        [-115.51191263941, -147.13625648382, 70.959988911042]
],
      "InstanceCreationTime": ["145028.482000", "145028.583000", "145028.492000", "145028.590000", "145028.498000", "145028.596000", "145028.505000", "145028.603000", "145028.512000", "145028.610000", "145028.518000", "145028.623000", "145028.531000", "145028.630000", "145028.537000", "145028.636000", "145028.544000", "145028.643000", "145028.551000", "145028.649000", "145028.557000", "145028.656000", "145028.564000", "145028.662000", "145028.570000", "145028.669000", "145028.577000", "145028.487000", "145028.585000", "145028.494000", "145028.592000", "145028.500000", "145028.599000", "145028.507000", "145028.606000", "145028.514000", "145028.612000", "145028.520000", "145028.626000", "145028.533000", "145028.632000", "145028.539000", "145028.639000", "145028.546000", "145028.645000", "145028.553000", "145028.652000", "145028.560000", "145028.658000", "145028.566000", "145028.665000", "145028.572000", "145028.671000", "145028.579000", "145028.489000", "145028.588000", "145028.496000", "145028.594000", "145028.503000", "145028.601000", "145028.509000", "145028.608000", "145028.516000", "145028.614000", "145028.522000", "145028.628000", "145028.535000", "145028.634000", "145028.541000", "145028.641000", "145028.549000", "145028.647000", "145028.555000", "145028.654000", "145028.562000", "145028.660000", "145028.568000", "145028.667000", "145028.575000", "145028.674000", "145028.581000"],
      "InstanceNumber": [1, 2, 3, 4, 5, 6, 7, 8, 9, 10, 11, 12, 13, 14, 15, 16, 17, 18, 19, 20, 21, 22, 23, 24, 25, 26, 27, 28, 29, 30, 31, 32, 33, 34, 35, 36, 37, 38, 39, 40, 41, 42, 43, 44, 45, 46, 47, 48, 49, 50, 51, 52, 53, 54, 55, 56, 57, 58, 59, 60, 61, 62, 63, 64, 65, 66, 67, 68, 69, 70, 71, 72, 73, 74, 75, 76, 77, 78, 79, 80, 81],
      "LargestImagePixelValue": [18731, 24494, 24894, 32937, 34708, 37738, 32164, 28739, 30587, 26400, 24654, 26623, 29379, 23081, 26241, 24038, 23559, 24840, 28519, 53570, 56731, 47261, 48975, 51607, 65535, 65535, 53312, 31159, 38473, 34294, 31876, 35396, 37185, 36808, 34222, 38935, 47050, 37753, 43095, 37988, 43729, 43519, 52146, 56483, 51420, 62053, 65535, 62001, 60083, 65535, 64963, 57193, 56992, 65535, 47122, 49691, 48134, 47803, 49514, 50964, 48508, 48968, 46007, 48467, 54561, 46710, 52754, 44918, 44655, 43361, 54040, 51884, 56004, 44248, 53696, 54419, 51744, 50417, 30031, 10343, 9920],
      "SliceLocation": [-67.841896422541, -66.141889404984, -64.441890012119, -62.74189445044, -61.041891243414, -59.341891867574, -57.641892478339, -55.941893098869, -54.241893709634, -52.541894316769, -50.841891124953, -49.141891733903, -47.441892356248, -45.741892967013, -44.041893589358, -42.341894198308, -40.641890993097, -38.941891615442, -37.241892224392, -35.541892846737, -33.841893455687, -32.141892170952, -30.441892779902, -28.741893388851, -27.041892104116, -25.341892714881, -23.641893337226, -21.941892039095, -20.241892661441, -18.54189327039, -16.84189197226, -15.141892594605, -13.441892250015, -11.74189287236, -10.041892527769, -8.3418931501146, -6.6418928055242, -4.9418929377039, -3.2418926083237, -1.5418927405034, 0.15810726291212, 1.8581072201268, 3.5581073129368, 5.2581071807571, 6.9581070485774, 8.6581073797724, 10.358107724363, 12.058107102018, 13.758107446608, 15.458106823355, 17.158107167946, 18.858106558996, 20.558107843731, 22.258107234781, 23.958106611529, 25.658107909659, 27.358107287314, 29.058106678364, 30.758107976495, 32.458105447069, 34.158108651373, 35.858108029028, 37.558107420078, 39.258106797733, 40.958106188783, 42.658105579833, 44.358108771649, 46.058108161792, 47.758107539446, 49.458106930496, 51.158106308151, 52.858105698748, 54.558108903959, 56.258108281614, 57.958107672664, 59.658107049865, 61.358106440915, 63.05810581857, 64.758109023554, 66.458108414377, 68.158107791805],
      "WindowCenter": [3688.0, 4878.0, 5391.0, 5694.0, 5681.0, 5677.0, 5505.0, 5441.0, 5543.0, 5432.0, 5200.0, 5333.0, 5820.0, 5714.0, 6195.0, 6116.0, 6524.0, 6645.0, 6889.0, 7353.0, 7520.0, 7396.0, 7837.0, 7988.0, 8465.0, 8590.0, 8662.0, 8160.0, 8222.0, 8240.0, 8423.0, 8625.0, 8750.0, 8734.0, 8503.0, 8614.0, 8981.0, 8971.0, 9124.0, 9222.0, 9529.0, 9869.0, 10099.0, 10345.0, 10505.0, 10772.0, 11032.0, 10923.0, 11011.0, 11228.0, 11361.0, 11337.0, 11426.0, 11695.0, 11327.0, 11333.0, 11715.0, 11844.0, 11875.0, 11991.0, 12090.0, 12073.0, 11988.0, 11931.0, 11896.0, 11780.0, 11749.0, 11689.0, 11615.0, 11544.0, 11412.0, 11263.0, 11066.0, 10955.0, 10564.0, 10309.0, 10082.0, 9918.0, 4724.0, 1694.0, 1733.0],
      "WindowWidth": [9353.0, 11105.0, 12065.0, 12631.0, 12533.0, 12398.0, 12036.0, 11993.0, 12220.0, 12089.0, 11497.0, 11772.0, 12715.0, 12815.0, 13698.0, 13657.0, 14193.0, 14289.0, 14911.0, 16335.0, 17044.0, 17181.0, 17676.0, 17748.0, 18551.0, 18810.0, 18992.0, 17819.0, 17894.0, 17822.0, 18289.0, 18741.0, 19155.0, 19101.0, 18487.0, 18704.0, 19502.0, 19575.0, 19746.0, 19979.0, 20440.0, 21375.0, 22000.0, 22554.0, 23092.0, 23876.0, 24743.0, 24361.0, 24467.0, 25002.0, 25366.0, 25227.0, 25582.0, 26407.0, 25322.0, 25292.0, 26386.0, 26775.0, 26912.0, 27407.0, 27880.0, 28045.0, 27835.0, 27684.0, 27893.0, 27719.0, 28077.0, 28279.0, 28179.0, 28346.0, 29238.0, 28983.0, 29694.0, 29009.0, 29578.0, 28312.0, 27386.0, 22872.0, 11178.0, 5019.0, 5193.0]
    }
  }
}