{
  "AcquisitionMatrixPE": 140,
  "AcquisitionNumber": 1,
  "AcquisitionTime": "17:36:41.075000",
  "BandwidthPerPixelPhaseEncode": 10.352,
  "BaseResolution": 140,
  "BodyPartExamined": "BRAIN",
  "ConsistencyInfo": "N4_VE11E_LATEST_20181129",
  "ConversionSoftware": "dcm2niix",
  "ConversionSoftwareVersion": "v1.0.20201102",
  "DerivedVendorReportedEchoSpacing": 0.000689998,
  "DeviceSerialNumber": "66112",
  "DiffusionScheme": "Monopolar",
  "DwellTime": 2.1e-06,
  "EchoTime": 0.0884,
  "EchoTrainLength": 105,
  "EffectiveEchoSpacing": 0.000689998,
  "FlipAngle": 90,
  "ImageComments": "Unaliased MB3/PE3 SENSE1",
  "ImageOrientationPatientDICOM": [0.9976, 0.0672004, -0.0167051, -0.0627636, 0.97942, 0.191824],
  "ImageType": [
    "ORIGINAL",
    "PRIMARY",
    "DIFFUSION",
    "NONE",
    "MB",
    "ND",
    "MOSAIC"
],
  "ImagingFrequency": 123.259,
  "InPlanePhaseEncodingDirectionDICOM": "COL",
  "InstitutionAddress": "Maynard 3,Hanover,NH,US,03755",
  "InstitutionName": "Dartmouth College - PBS",
  "InstitutionalDepartmentName": "Department",
  "MRAcquisitionType": "2D",
  "MagneticFieldStrength": 3,
  "Manufacturer": "Siemens",
  "ManufacturersModelName": "Prisma",
  "Modality": "MR",
  "MultibandAccelerationFactor": 3,
  "PartialFourier": 0.75,
  "PatientPosition": "HFS",
  "PercentPhaseFOV": 100,
  "PercentSampling": 100,
  "PhaseEncodingDirection": "j-",
  "PhaseEncodingSteps": 105,
  "PhaseResolution": 1,
  "PixelBandwidth": 1700,
  "ProcedureStepDescription": "Wager_Wager^1076_spacetop",
  "ProtocolName": "dwi_acq-96dir-6b0-mb",
  "PulseSequenceDetails": "%CustomerSeq%\\cmrr_mbep2d_diff",
  "ReceiveCoilActiveElements": "HEA;HEP",
  "ReceiveCoilName": "Head_32",
  "ReconMatrixPE": 140,
  "RepetitionTime": 4.11,
  "SAR": 0.228702,
  "ScanOptions": "PFP\\FS",
  "ScanningSequence": "EP",
  "SequenceName": "ep_b5#1",
  "SequenceVariant": "SK\\SS",
  "SeriesDescription": "dwi_acq-96dir-6b0-mb",
  "SeriesNumber": 12,
  "ShimSetting": [4212, -8150, -7349, 567, -231, -1056, 791, 117],
  "SliceThickness": 1.7,
  "SliceTiming": [0, 2.1225, 0.1525, 2.2725, 0.305, 2.425, 0.455, 2.575, 0.6075, 2.7275, 0.7575, 2.88, 0.91, 3.03, 1.0625, 3.1825, 1.2125, 3.3325, 1.365, 3.485, 1.515, 3.6375, 1.6675, 3.7875, 1.82, 3.94, 1.97, 0, 2.1225, 0.1525, 2.2725, 0.305, 2.425, 0.455, 2.575, 0.6075, 2.7275, 0.7575, 2.88, 0.91, 3.03, 1.0625, 3.1825, 1.2125, 3.3325, 1.365, 3.485, 1.515, 3.6375, 1.6675, 3.7875, 1.82, 3.94, 1.97, 0, 2.1225, 0.1525, 2.2725, 0.305, 2.425, 0.455, 2.575, 0.6075, 2.7275, 0.7575, 2.88, 0.91, 3.03, 1.0625, 3.1825, 1.2125, 3.3325, 1.365, 3.485, 1.515, 3.6375, 1.6675, 3.7875, 1.82, 3.94, 1.97],
  "SoftwareVersions": "syngo MR E11",
  "SpacingBetweenSlices": 1.7,
  "StationName": "AWP66112",
  "TotalReadoutTime": 0.0959097,
  "TxRefAmp": 232.369,
  "WipMemBlock": "1c6312d6-5163-4068-85e9-93f7d21393f5||Sequence: R016 ve11e/master r/434b28f1; Aug  7 2019 19:06:17 by eja",
  "dcmmeta_affine": [
    [-1.710170865058899, -0.10759478062391281, -0.04972828924655914, 134.2722625732422],
    [-0.11520060896873474, 1.679006576538086, 0.32353493571281433, -106.86027526855469],
    [-0.028637323528528214, -0.328840434551239, 1.6681883335113525, -38.974246978759766],
    [0.0, 0.0, 0.0, 1.0]
],
  "dcmmeta_reorient_transform": [
    [0.0, -1.0, 0.0, 139.0],
    [1.0, 0.0, 0.0, 0.0],
    [0.0, 0.0, 1.0, 0.0],
    [0.0, 0.0, 0.0, 1.0]
],
  "dcmmeta_shape": [140, 140, 81, 103],
  "dcmmeta_slice_dim": 2,
  "dcmmeta_version": 0.6,
  "global": {
    "const": {
      "AccessionNumber": "A004808",
      "AcquisitionMatrix": [140, 0, 0, 140],
      "AngioFlag": "N",
      "BitsAllocated": 16,
      "BitsStored": 16,
      "BodyPartExamined": "BRAIN",
      "Columns": 1260,
      "EchoNumbers": 1,
      "EchoTime": 88.4,
      "EchoTrainLength": 105,
      "FlipAngle": 90.0,
      "HighBit": 15,
      "ImageOrientationPatient": [0.99759964513322, 0.06720035346604, -0.016705104732, -0.0627636229518, 0.97942046040866, 0.19182358918248],
      "ImagePositionPatient": [-1016.7591706805, -1131.2776227606, -252.79681503035],
      "ImageType": [
        "ORIGINAL",
        "PRIMARY",
        "DIFFUSION",
        "NONE",
        "MB",
        "ND",
        "MOSAIC"
],
      "ImagedNucleus": "1H",
      "ImagingFrequency": 123.259164,
      "InPlanePhaseEncodingDirection": "COL",
      "MRAcquisitionType": "2D",
      "MagneticFieldStrength": 3.0,
      "Manufacturer": "SIEMENS",
      "ManufacturerModelName": "Prisma",
      "Modality": "MR",
      "NumberOfAverages": 1.0,
      "NumberOfPhaseEncodingSteps": 105,
      "PercentPhaseFieldOfView": 100.0,
      "PercentSampling": 100.0,
      "PerformedProcedureStepStartTime": "170756.271000",
      "PhotometricInterpretation": "MONOCHROME2",
      "PixelBandwidth": 1700.0,
      "PixelRepresentation": 0,
      "PixelSpacing": [1.7142857313156, 1.7142857313156],
      "ProtocolName": "dwi_acq-96dir-6b0-mb",
      "RepetitionTime": 4110.0,
      "Rows": 1260,
      "SAR": 0.22870203550299,
      "SamplesPerPixel": 1,
      "ScanOptions": [
        "PFP",
        "FS"
],
      "ScanningSequence": "EP",
      "SequenceVariant": [
        "SK",
        "SS"
],
      "SeriesDescription": "dwi_acq-96dir-6b0-mb",
      "SeriesNumber": 12,
      "SeriesTime": "173823.883000",
      "SliceLocation": -62.509732511129,
      "SliceThickness": 1.7000000476837,
      "SmallestImagePixelValue": 0,
      "SoftwareVersions": "syngo MR E11",
      "SpacingBetweenSlices": 1.7000000206079,
      "SpecificCharacterSet": "ISO_IR 100",
      "StudyID": "1",
      "StudyTime": "170756.166000",
      "TransmitCoilName": "Body",
      "VariableFlipAngleFlag": "N",
      "WindowCenterWidthExplanation": "Algo1"
    },
    "slices": {}
  },
  "time": {
    "samples": {
      "AcquisitionNumber": [1, 2, 3, 4, 5, 6, 7, 8, 9, 10, 11, 12, 13, 14, 15, 16, 17, 18, 19, 20, 21, 22, 23, 24, 25, 26, 27, 28, 29, 30, 31, 32, 33, 34, 35, 36, 37, 38, 39, 40, 41, 42, 43, 44, 45, 46, 47, 48, 49, 50, 51, 52, 53, 54, 55, 56, 57, 58, 59, 60, 61, 62, 63, 64, 65, 66, 67, 68, 69, 70, 71, 72, 73, 74, 75, 76, 77, 78, 79, 80, 81, 82, 83, 84, 85, 86, 87, 88, 89, 90, 91, 92, 93, 94, 95, 96, 97, 98, 99, 100, 101, 102, 103],
      "AcquisitionTime": ["173641.075000", "173645.185000", "173649.295000", "173653.405000", "173657.515000", "173701.625000", "173705.735000", "173709.845000", "173713.955000", "173718.065000", "173722.175000", "173726.285000", "173730.395000", "173734.505000", "173738.615000", "173742.725000", "173746.835000", "173750.945000", "173755.055000", "173759.165000", "173803.275000", "173807.385000", "173811.495000", "173815.605000", "173819.715000", "173823.825000", "173827.935000", "173832.045000", "173836.155000", "173840.265000", "173844.375000", "173848.485000", "173852.595000", "173856.705000", "173900.815000", "173904.925000", "173909.035000", "173913.145000", "173917.255000", "173921.365000", "173925.475000", "173929.585000", "173933.695000", "173937.805000", "173941.915000", "173946.025000", "173950.135000", "173954.245000", "173958.355000", "174002.465000", "174006.575000", "174010.685000", "174014.795000", "174018.905000", "174023.015000", "174027.125000", "174031.235000", "174035.345000", "174039.455000", "174043.565000", "174047.675000", "174051.785000", "174055.895000", "174100.005000", "174104.115000", "174108.225000", "174112.335000", "174116.445000", "174120.555000", "174124.665000", "174128.775000", "174132.885000", "174136.995000", "174141.105000", "174145.215000", "174149.325000", "174153.435000", "174157.545000", "174201.655000", "174205.765000", "174209.875000", "174213.985000", "174218.095000", "174222.205000", "174226.315000", "174230.425000", "174234.535000", "174238.645000", "174242.755000", "174246.865000", "174250.975000", "174255.085000", "174259.195000", "174303.305000", "174307.415000", "174311.525000", "174315.635000", "174319.745000", "174323.855000", "174327.965000", "174332.075000", "174336.185000", "174340.295000"],
      "ContentTime": ["173823.887000", "173823.891000", "173823.894000", "173823.897000", "173823.900000", "173823.903000", "173823.906000", "173823.909000", "173823.912000", "173823.915000", "173823.918000", "173823.921000", "173823.924000", "173823.934000", "173823.937000", "173823.940000", "173823.943000", "173823.946000", "173823.949000", "173823.952000", "173823.955000", "173823.958000", "173823.961000", "173823.964000", "173943.881000", "173943.884000", "173943.887000", "173943.890000", "173943.893000", "173943.896000", "173943.899000", "173943.902000", "173943.905000", "173943.908000", "173943.911000", "173943.914000", "173943.923000", "173943.925000", "173943.928000", "173943.931000", "173943.934000", "173943.937000", "173943.940000", "173943.943000", "174123.882000", "174123.886000", "174123.889000", "174123.891000", "174123.894000", "174123.897000", "174123.900000", "174123.903000", "174123.906000", "174123.909000", "174123.912000", "174123.915000", "174123.918000", "174123.921000", "174123.924000", "174123.927000", "174123.930000", "174123.933000", "174123.936000", "174123.939000", "174123.942000", "174123.945000", "174123.948000", "174123.951000", "174243.882000", "174243.885000", "174243.888000", "174243.891000", "174243.894000", "174243.897000", "174243.900000", "174243.903000", "174243.915000", "174243.918000", "174243.921000", "174243.924000", "174243.926000", "174243.929000", "174243.933000", "174243.936000", "174243.950000", "174243.953000", "174243.956000", "174243.959000", "174345.067000", "174345.070000", "174345.073000", "174345.076000", "174345.079000", "174345.082000", "174345.085000", "174345.088000", "174345.091000", "174345.094000", "174345.097000", "174345.100000", "174345.103000", "174345.106000", "174345.109000"],
      "InstanceCreationTime": ["173823.887000", "173823.891000", "173823.894000", "173823.897000", "173823.900000", "173823.903000", "173823.906000", "173823.909000", "173823.912000", "173823.915000", "173823.918000", "173823.921000", "173823.924000", "173823.934000", "173823.937000", "173823.940000", "173823.943000", "173823.946000", "173823.949000", "173823.952000", "173823.955000", "173823.958000", "173823.961000", "173823.964000", "173943.881000", "173943.884000", "173943.887000", "173943.890000", "173943.893000", "173943.896000", "173943.899000", "173943.902000", "173943.905000", "173943.908000", "173943.911000", "173943.914000", "173943.923000", "173943.925000", "173943.928000", "173943.931000", "173943.934000", "173943.937000", "173943.940000", "173943.943000", "174123.882000", "174123.886000", "174123.889000", "174123.891000", "174123.894000", "174123.897000", "174123.900000", "174123.903000", "174123.906000", "174123.909000", "174123.912000", "174123.915000", "174123.918000", "174123.921000", "174123.924000", "174123.927000", "174123.930000", "174123.933000", "174123.936000", "174123.939000", "174123.942000", "174123.945000", "174123.948000", "174123.951000", "174243.882000", "174243.885000", "174243.888000", "174243.891000", "174243.894000", "174243.897000", "174243.900000", "174243.903000", "174243.915000", "174243.918000", "174243.921000", "174243.924000", "174243.926000", "174243.929000", "174243.933000", "174243.936000", "174243.950000", "174243.953000", "174243.956000", "174243.959000", "174345.067000", "174345.070000", "174345.073000", "174345.076000", "174345.079000", "174345.082000", "174345.085000", "174345.088000", "174345.091000", "174345.094000", "174345.097000", "174345.100000", "174345.103000", "174345.106000", "174345.109000"],
      "InstanceNumber": [1, 2, 3, 4, 5, 6, 7, 8, 9, 10, 11, 12, 13, 14, 15, 16, 17, 18, 19, 20, 21, 22, 23, 24, 25, 26, 27, 28, 29, 30, 31, 32, 33, 34, 35, 36, 37, 38, 39, 40, 41, 42, 43, 44, 45, 46, 47, 48, 49, 50, 51, 52, 53, 54, 55, 56, 57, 58, 59, 60, 61, 62, 63, 64, 65, 66, 67, 68, 69, 70, 71, 72, 73, 74, 75, 76, 77, 78, 79, 80, 81, 82, 83, 84, 85, 86, 87, 88, 89, 90, 91, 92, 93, 94, 95, 96, 97, 98, 99, 100, 101, 102, 103],
      "LargestImagePixelValue": [65535, 65535, 65535, 64209, 56588, 65535, 63716, 61330, 65535, 43491, 42991, 39575, 43170, 41674, 45059, 44142, 39118, 41127, 41013, 38672, 41381, 43179, 42800, 41972, 65535, 20840, 20518, 22247, 19091, 22614, 22268, 20753, 22409, 19345, 19938, 21409, 22887, 20484, 20691, 21472, 65535, 14134, 14271, 11771, 13233, 12025, 14303, 12090, 11812, 12614, 12062, 13121, 12055, 12378, 11954, 12682, 12518, 11109, 13746, 11802, 11296, 13011, 13141, 12544, 12689, 10754, 14353, 11736, 12063, 14449, 13852, 13508, 12519, 65535, 11999, 13742, 12900, 12206, 12716, 12393, 12307, 13298, 11178, 12517, 13783, 13260, 12174, 13590, 12407, 12916, 12865, 10924, 11685, 13564, 12488, 11747, 10870, 10524, 12869, 11856, 12412, 11530, 65535],
      "SequenceName": [
 "ep_b5#1",
 "ep_b5#1",
 "ep_b500#2",
 "ep_b500#3",
 "ep_b500#4",
 "ep_b505#5",
 "ep_b495#6",
 "ep_b500#7",
 "ep_b5#8",
 "ep_b1000#9",
 "ep_b1005#10",
 "ep_b995#11",
 "ep_b1005#12",
 "ep_b995#13",
 "ep_b995#14",
 "ep_b1005#15",
 "ep_b1000#16",
 "ep_b1000#17",
 "ep_b995#18",
 "ep_b1000#19",
 "ep_b995#20",
 "ep_b1000#21",
 "ep_b1005#22",
 "ep_b1005#23",
 "ep_b5#24",
 "ep_b2000#25",
 "ep_b1995#26",
 "ep_b1995#27",
 "ep_b1995#28",
 "ep_b2005#29",
 "ep_b2010#30",
 "ep_b2005#31",
 "ep_b2005#32",
 "ep_b1995#33",
 "ep_b1990#34",
 "ep_b1995#35",
 "ep_b2005#36",
 "ep_b2000#37",
 "ep_b2010#38",
 "ep_b2000#39",
 "ep_b5#40",
 "ep_b3000#41",
 "ep_b3005#42",
 "ep_b3010#43",
 "ep_b3010#44",
 "ep_b3000#45",
 "ep_b3000#46",
 "ep_b2990#47",
 "ep_b3005#48",
 "ep_b3000#49",
 "ep_b2990#50",
 "ep_b2990#51",
 "ep_b2995#52",
 "ep_b2995#53",
 "ep_b3010#54",
 "ep_b3000#55",
 "ep_b2995#56",
 "ep_b3000#57",
 "ep_b2990#58",
 "ep_b2990#59",
 "ep_b3000#60",
 "ep_b2990#61",
 "ep_b2990#62",
 "ep_b2995#63",
 "ep_b3005#64",
 "ep_b3010#65",
 "ep_b3000#66",
 "ep_b3005#67",
 "ep_b3010#68",
 "ep_b3005#69",
 "ep_b3005#70",
 "ep_b3010#71",
 "ep_b2990#72",
 "ep_b5#73",
 "ep_b3010#74",
 "ep_b3000#75",
 "ep_b3005#76",
 "ep_b3005#77",
 "ep_b2995#78",
 "ep_b3005#79",
 "ep_b2995#80",
 "ep_b3010#81",
 "ep_b3010#82",
 "ep_b3005#83",
 "ep_b3000#84",
 "ep_b3005#85",
 "ep_b3010#86",
 "ep_b3010#87",
 "ep_b2990#88",
 "ep_b3010#89",
 "ep_b2995#90",
 "ep_b2995#91",
 "ep_b2995#92",
 "ep_b2995#93",
 "ep_b3005#94",
 "ep_b3005#95",
 "ep_b2995#96",
 "ep_b3000#97",
 "ep_b2990#98",
 "ep_b3000#99",
 "ep_b2995#100",
 "ep_b2995#101",
 "ep_b5#102"
],
      "WindowCenter": [11350.0, 11346.0, 7898.0, 7891.0, 7798.0, 7834.0, 7943.0, 7884.0, 11352.0, 5880.0, 5860.0, 5819.0, 5827.0, 5856.0, 5893.0, 5869.0, 5867.0, 5857.0, 5891.0, 5824.0, 5931.0, 5868.0, 5875.0, 5895.0, 11346.0, 3658.0, 3633.0, 3643.0, 3715.0, 3680.0, 3685.0, 3679.0, 3655.0, 3700.0, 3728.0, 3700.0, 3642.0, 3636.0, 3700.0, 3632.0, 11339.0, 2587.0, 2543.0, 2535.0, 2571.0, 2548.0, 2626.0, 2576.0, 2466.0, 2503.0, 2487.0, 2541.0, 2548.0, 2567.0, 2551.0, 2526.0, 2540.0, 2490.0, 2614.0, 2523.0, 2504.0, 2548.0, 2658.0, 2595.0, 2608.0, 2555.0, 2566.0, 2563.0, 2569.0, 2601.0, 2566.0, 2649.0, 2603.0, 11299.0, 2532.0, 2574.0, 2491.0, 2526.0, 2492.0, 2513.0, 2504.0, 2524.0, 2521.0, 2515.0, 2567.0, 2550.0, 2471.0, 2508.0, 2531.0, 2508.0, 2563.0, 2440.0, 2457.0, 2598.0, 2505.0, 2510.0, 2568.0, 2468.0, 2557.0, 2469.0, 2520.0, 2550.0, 11291.0],
      "WindowWidth": [26436.0, 26429.0, 16937.0, 16916.0, 16765.0, 16818.0, 17034.0, 16919.0, 26444.0, 12741.0, 12735.0, 12655.0, 12658.0, 12725.0, 12764.0, 12720.0, 12719.0, 12714.0, 12764.0, 12653.0, 12838.0, 12696.0, 12752.0, 12746.0, 26414.0, 8367.0, 8316.0, 8320.0, 8451.0, 8392.0, 8411.0, 8391.0, 8352.0, 8449.0, 8505.0, 8448.0, 8307.0, 8295.0, 8442.0, 8282.0, 26393.0, 6231.0, 6093.0, 6122.0, 6175.0, 6156.0, 6266.0, 6198.0, 5952.0, 6058.0, 5998.0, 6106.0, 6156.0, 6209.0, 6166.0, 6091.0, 6155.0, 6023.0, 6270.0, 6091.0, 6053.0, 6144.0, 6361.0, 6227.0, 6246.0, 6178.0, 6165.0, 6182.0, 6207.0, 6259.0, 6209.0, 6336.0, 6247.0, 26257.0, 6104.0, 6168.0, 5998.0, 6090.0, 5994.0, 6061.0, 6060.0, 6076.0, 6102.0, 6076.0, 6169.0, 6135.0, 5974.0, 6039.0, 6104.0, 6037.0, 6183.0, 5900.0, 5937.0, 6239.0, 6065.0, 6083.0, 6203.0, 5989.0, 6142.0, 5969.0, 6095.0, 6158.0, 26235.0]
    },
    "slices": {}
  }
}