{
  "AcquisitionMatrixPE": 82,
  "AcquisitionNumber": 1,
  "AcquisitionTime": "15:52:34.100000",
  "BandwidthPerPixelPhaseEncode": 24.888,
  "BaseResolution": 82,
  "BodyPartExamined": "BRAIN",
  "ConsistencyInfo": "N4_VE11E_LATEST_20181129",
  "ConversionSoftware": "dcm2niix",
  "ConversionSoftwareVersion": "v1.0.20201102",
  "DerivedVendorReportedEchoSpacing": 0.00049,
  "DeviceSerialNumber": "66112",
  "DwellTime": 2e-06,
  "EchoTime": 0.0272,
  "EchoTrainLength": 82,
  "EffectiveEchoSpacing": 0.00049,
  "FlipAngle": 44,
  "ImageComments": "Unaliased MB8/PE3",
  "ImageOrientationPatientDICOM": [0.992273, -0.106099, -0.0643224, 0.105868, 0.994355, -0.00699989],
  "ImageType": [
    "ORIGINAL",
    "PRIMARY",
    "M",
    "MB",
    "ND",
    "NORM",
    "MOSAIC"
],
  "ImagingFrequency": 123.252,
  "InPlanePhaseEncodingDirectionDICOM": "COL",
  "InstitutionAddress": "Maynard 3,Hanover,NH,US,03755",
  "InstitutionName": "Dartmouth College - PBS",
  "InstitutionalDepartmentName": "Department",
  "MRAcquisitionType": "2D",
  "MagneticFieldStrength": 3,
  "Manufacturer": "Siemens",
  "ManufacturersModelName": "Prisma",
  "Modality": "MR",
  "MultibandAccelerationFactor": 8,
  "PartialFourier": 1,
  "PatientPosition": "HFS",
  "PercentPhaseFOV": 100,
  "PercentSampling": 100,
  "PhaseEncodingDirection": "j-",
  "PhaseEncodingSteps": 82,
  "PhaseResolution": 1,
  "PixelBandwidth": 3050,
  "ProcedureStepDescription": "Wager_Wager^1076_spacetop",
  "ProtocolName": "func_run-04_task-social_acq-ap-mb8",
  "PulseSequenceDetails": "%CustomerSeq%\\cmrr_mbep2d_bold",
  "ReceiveCoilActiveElements": "HEA;HEP",
  "ReceiveCoilName": "Head_32",
  "ReconMatrixPE": 82,
  "RepetitionTime": 0.46,
  "SAR": 0.112319,
  "ScanOptions": "FS",
  "ScanningSequence": "EP",
  "SequenceName": "epfid2d1_82",
  "SequenceVariant": "SK\\SS",
  "SeriesDescription": "func_run-04_task-social_acq-ap-mb8",
  "SeriesNumber": 14,
  "ShimSetting": [4146, -7782, -7203, 622, -7, -159, -90, 32],
  "SliceThickness": 2.7,
  "SliceTiming": [0, 0.2525, 0.065, 0.315, 0.1275, 0.3775, 0.19, 0, 0.2525, 0.065, 0.315, 0.1275, 0.3775, 0.19, 0, 0.2525, 0.065, 0.315, 0.1275, 0.3775, 0.19, 0, 0.2525, 0.065, 0.315, 0.1275, 0.3775, 0.19, 0, 0.2525, 0.065, 0.315, 0.1275, 0.3775, 0.19, 0, 0.2525, 0.065, 0.315, 0.1275, 0.3775, 0.19, 0, 0.2525, 0.065, 0.315, 0.1275, 0.3775, 0.19, 0, 0.2525, 0.065, 0.315, 0.1275, 0.3775, 0.19],
  "SoftwareVersions": "syngo MR E11",
  "SpacingBetweenSlices": 2.7,
  "StationName": "AWP66112",
  "TaskName": "social",
  "TotalReadoutTime": 0.03969,
  "TxRefAmp": 254.742,
  "WipMemBlock": "5d8b50d4-a93f-4af7-9d34-c6c737a9cca0||Sequence: R016 ve11e/master r/434b28f1; Aug  7 2019 18:53:46 by eja",
  "dcmmeta_affine": [
    [-2.6621956825256348, 0.28403687477111816, -0.17469550669193268, 102.31110382080078],
    [0.284656822681427, 2.667783260345459, -0.00036746784462593496, -104.79431915283203],
    [-0.17257235944271088, 0.01878019981086254, 2.6943423748016357, -52.545440673828125],
    [0.0, 0.0, 0.0, 1.0]
],
  "dcmmeta_reorient_transform": [
    [0.0, -1.0, 0.0, 81.0],
    [1.0, 0.0, 0.0, 0.0],
    [0.0, 0.0, 1.0, 0.0],
    [0.0, 0.0, 0.0, 1.0]
],
  "dcmmeta_shape": [82, 82, 56, 872],
  "dcmmeta_slice_dim": 2,
  "dcmmeta_version": 0.6,
  "global": {
    "const": {
      "AccessionNumber": "A003965",
      "AcquisitionMatrix": [82, 0, 0, 82],
      "AngioFlag": "N",
      "BitsAllocated": 16,
      "BitsStored": 16,
      "BodyPartExamined": "BRAIN",
      "Columns": 656,
      "EchoNumbers": 1,
      "EchoTime": 27.2,
      "EchoTrainLength": 82,
      "FlipAngle": 44.0,
      "HighBit": 15,
      "ImageOrientationPatient": [0.99227292243648, -0.106099355852, -0.0643224228956, 0.10586828298361, 0.9943555240279, -0.006999892378],
      "ImagePositionPatient": [-970.88683820718, -795.25338303252, 3.8939413663478],
      "ImageType": [
        "ORIGINAL",
        "PRIMARY",
        "M",
        "MB",
        "ND",
        "NORM",
        "MOSAIC"
],
      "ImagedNucleus": "1H",
      "ImagingFrequency": 123.252138,
      "InPlanePhaseEncodingDirection": "COL",
      "MRAcquisitionType": "2D",
      "MagneticFieldStrength": 3.0,
      "Manufacturer": "SIEMENS",
      "ManufacturerModelName": "Prisma",
      "Modality": "MR",
      "NumberOfAverages": 1.0,
      "NumberOfPhaseEncodingSteps": 82,
      "PercentPhaseFieldOfView": 100.0,
      "PercentSampling": 100.0,
      "PerformedProcedureStepStartTime": "150251.075000",
      "PhotometricInterpretation": "MONOCHROME2",
      "PixelBandwidth": 3050.0,
      "PixelRepresentation": 0,
      "PixelSpacing": [2.6829268932343, 2.6829268932343],
      "ProtocolName": "func_run-04_task-social_acq-ap-mb8",
      "RepetitionTime": 460.0,
      "Rows": 656,
      "SAR": 0.11231925075193,
      "SamplesPerPixel": 1,
      "ScanOptions": "FS",
      "ScanningSequence": "EP",
      "SequenceName": "epfid2d1_82",
      "SequenceVariant": [
        "SK",
        "SS"
],
      "SeriesDescription": "func_run-04_task-social_acq-ap-mb8",
      "SeriesNumber": 14,
      "SeriesTime": "155245.230000",
      "SliceLocation": -59.040810895054,
      "SliceThickness": 2.7000000476837,
      "SmallestImagePixelValue": 0,
      "SoftwareVersions": "syngo MR E11",
      "SpacingBetweenSlices": 2.6999999880477,
      "SpecificCharacterSet": "ISO_IR 100",
      "StudyID": "4",
      "StudyTime": "150251.034000",
      "TransmitCoilName": "Body",
      "VariableFlipAngleFlag": "N",
      "WindowCenterWidthExplanation": "Algo1"
    },
    "slices": {}
  },
  "time": {
    "samples": {
      "AcquisitionNumber": [1, 2, 3, 4, 5, 6, 7, 8, 9, 10, 11, 12, 13, 14, 15, 16, 17, 18, 19, 20, 21, 22, 23, 24, 25, 26, 27, 28, 29, 30, 31, 32, 33, 34, 35, 36, 37, 38, 39, 40, 41, 42, 43, 44, 45, 46, 47, 48, 49, 50, 51, 52, 53, 54, 55, 56, 57, 58, 59, 60, 61, 62, 63, 64, 65, 66, 67, 68, 69, 70, 71, 72, 73, 74, 75, 76, 77, 78, 79, 80, 81, 82, 83, 84, 85, 86, 87, 88, 89, 90, 91, 92, 93, 94, 95, 96, 97, 98, 99, 100, 101, 102, 103, 104, 105, 106, 107, 108, 109, 110, 111, 112, 113, 114, 115, 116, 117, 118, 119, 120, 121, 122, 123, 124, 125, 126, 127, 128, 129, 130, 131, 132, 133, 134, 135, 136, 137, 138, 139, 140, 141, 142, 143, 144, 145, 146, 147, 148, 149, 150, 151, 152, 153, 154, 155, 156, 157, 158, 159, 160, 161, 162, 163, 164, 165, 166, 167, 168, 169, 170, 171, 172, 173, 174, 175, 176, 177, 178, 179, 180, 181, 182, 183, 184, 185, 186, 187, 188, 189, 190, 191, 192, 193, 194, 195, 196, 197, 198, 199, 200, 201, 202, 203, 204, 205, 206, 207, 208, 209, 210, 211, 212, 213, 214, 215, 216, 217, 218, 219, 220, 221, 222, 223, 224, 225, 226, 227, 228, 229, 230, 231, 232, 233, 234, 235, 236, 237, 238, 239, 240, 241, 242, 243, 244, 245, 246, 247, 248, 249, 250, 251, 252, 253, 254, 255, 256, 257, 258, 259, 260, 261, 262, 263, 264, 265, 266, 267, 268, 269, 270, 271, 272, 273, 274, 275, 276, 277, 278, 279, 280, 281, 282, 283, 284, 285, 286, 287, 288, 289, 290, 291, 292, 293, 294, 295, 296, 297, 298, 299, 300, 301, 302, 303, 304, 305, 306, 307, 308, 309, 310, 311, 312, 313, 314, 315, 316, 317, 318, 319, 320, 321, 322, 323, 324, 325, 326, 327, 328, 329, 330, 331, 332, 333, 334, 335, 336, 337, 338, 339, 340, 341, 342, 343, 344, 345, 346, 347, 348, 349, 350, 351, 352, 353, 354, 355, 356, 357, 358, 359, 360, 361, 362, 363, 364, 365, 366, 367, 368, 369, 370, 371, 372, 373, 374, 375, 376, 377, 378, 379, 380, 381, 382, 383, 384, 385, 386, 387, 388, 389, 390, 391, 392, 393, 394, 395, 396, 397, 398, 399, 400, 401, 402, 403, 404, 405, 406, 407, 408, 409, 410, 411, 412, 413, 414, 415, 416, 417, 418, 419, 420, 421, 422, 423, 424, 425, 426, 427, 428, 429, 430, 431, 432, 433, 434, 435, 436, 437, 438, 439, 440, 441, 442, 443, 444, 445, 446, 447, 448, 449, 450, 451, 452, 453, 454, 455, 456, 457, 458, 459, 460, 461, 462, 463, 464, 465, 466, 467, 468, 469, 470, 471, 472, 473, 474, 475, 476, 477, 478, 479, 480, 481, 482, 483, 484, 485, 486, 487, 488, 489, 490, 491, 492, 493, 494, 495, 496, 497, 498, 499, 500, 501, 502, 503, 504, 505, 506, 507, 508, 509, 510, 511, 512, 513, 514, 515, 516, 517, 518, 519, 520, 521, 522, 523, 524, 525, 526, 527, 528, 529, 530, 531, 532, 533, 534, 535, 536, 537, 538, 539, 540, 541, 542, 543, 544, 545, 546, 547, 548, 549, 550, 551, 552, 553, 554, 555, 556, 557, 558, 559, 560, 561, 562, 563, 564, 565, 566, 567, 568, 569, 570, 571, 572, 573, 574, 575, 576, 577, 578, 579, 580, 581, 582, 583, 584, 585, 586, 587, 588, 589, 590, 591, 592, 593, 594, 595, 596, 597, 598, 599, 600, 601, 602, 603, 604, 605, 606, 607, 608, 609, 610, 611, 612, 613, 614, 615, 616, 617, 618, 619, 620, 621, 622, 623, 624, 625, 626, 627, 628, 629, 630, 631, 632, 633, 634, 635, 636, 637, 638, 639, 640, 641, 642, 643, 644, 645, 646, 647, 648, 649, 650, 651, 652, 653, 654, 655, 656, 657, 658, 659, 660, 661, 662, 663, 664, 665, 666, 667, 668, 669, 670, 671, 672, 673, 674, 675, 676, 677, 678, 679, 680, 681, 682, 683, 684, 685, 686, 687, 688, 689, 690, 691, 692, 693, 694, 695, 696, 697, 698, 699, 700, 701, 702, 703, 704, 705, 706, 707, 708, 709, 710, 711, 712, 713, 714, 715, 716, 717, 718, 719, 720, 721, 722, 723, 724, 725, 726, 727, 728, 729, 730, 731, 732, 733, 734, 735, 736, 737, 738, 739, 740, 741, 742, 743, 744, 745, 746, 747, 748, 749, 750, 751, 752, 753, 754, 755, 756, 757, 758, 759, 760, 761, 762, 763, 764, 765, 766, 767, 768, 769, 770, 771, 772, 773, 774, 775, 776, 777, 778, 779, 780, 781, 782, 783, 784, 785, 786, 787, 788, 789, 790, 791, 792, 793, 794, 795, 796, 797, 798, 799, 800, 801, 802, 803, 804, 805, 806, 807, 808, 809, 810, 811, 812, 813, 814, 815, 816, 817, 818, 819, 820, 821, 822, 823, 824, 825, 826, 827, 828, 829, 830, 831, 832, 833, 834, 835, 836, 837, 838, 839, 840, 841, 842, 843, 844, 845, 846, 847, 848, 849, 850, 851, 852, 853, 854, 855, 856, 857, 858, 859, 860, 861, 862, 863, 864, 865, 866, 867, 868, 869, 870, 871, 872],
      "AcquisitionTime": ["155234.100000", "155234.560000", "155235.020000", "155235.480000", "155235.940000", "155236.400000", "155236.860000", "155237.320000", "155237.780000", "155238.240000", "155238.700000", "155239.160000", "155239.620000", "155240.080000", "155240.540000", "155241.000000", "155241.460000", "155241.920000", "155242.380000", "155242.840000", "155243.300000", "155243.760000", "155244.220000", "155244.680000", "155245.140000", "155245.600000", "155246.060000", "155246.520000", "155246.980000", "155247.440000", "155247.900000", "155248.360000", "155248.820000", "155249.280000", "155249.740000", "155250.200000", "155250.660000", "155251.120000", "155251.580000", "155252.040000", "155252.500000", "155252.960000", "155253.420000", "155253.880000", "155254.340000", "155254.800000", "155255.260000", "155255.720000", "155256.180000", "155256.640000", "155257.100000", "155257.560000", "155258.020000", "155258.480000", "155258.940000", "155259.400000", "155259.860000", "155300.320000", "155300.780000", "155301.240000", "155301.700000", "155302.160000", "155302.620000", "155303.080000", "155303.540000", "155304.000000", "155304.460000", "155304.920000", "155305.380000", "155305.840000", "155306.300000", "155306.760000", "155307.220000", "155307.680000", "155308.140000", "155308.600000", "155309.060000", "155309.520000", "155309.980000", "155310.440000", "155310.900000", "155311.360000", "155311.820000", "155312.280000", "155312.740000", "155313.200000", "155313.660000", "155314.120000", "155314.580000", "155315.040000", "155315.500000", "155315.960000", "155316.420000", "155316.880000", "155317.340000", "155317.800000", "155318.260000", "155318.720000", "155319.180000", "155319.640000", "155320.100000", "155320.560000", "155321.020000", "155321.480000", "155321.940000", "155322.400000", "155322.860000", "155323.320000", "155323.780000", "155324.240000", "155324.700000", "155325.160000", "155325.620000", "155326.080000", "155326.540000", "155327.000000", "155327.460000", "155327.920000", "155328.380000", "155328.840000", "155329.300000", "155329.760000", "155330.220000", "155330.680000", "155331.140000", "155331.600000", "155332.060000", "155332.520000", "155332.980000", "155333.440000", "155333.900000", "155334.360000", "155334.820000", "155335.280000", "155335.740000", "155336.200000", "155336.660000", "155337.120000", "155337.580000", "155338.040000", "155338.500000", "155338.960000", "155339.420000", "155339.880000", "155340.340000", "155340.800000", "155341.260000", "155341.720000", "155342.180000", "155342.640000", "155343.100000", "155343.560000", "155344.020000", "155344.480000", "155344.940000", "155345.400000", "155345.860000", "155346.320000", "155346.780000", "155347.240000", "155347.700000", "155348.160000", "155348.620000", "155349.080000", "155349.540000", "155350.000000", "155350.460000", "155350.920000", "155351.380000", "155351.840000", "155352.300000", "155352.760000", "155353.220000", "155353.680000", "155354.140000", "155354.600000", "155355.060000", "155355.520000", "155355.980000", "155356.440000", "155356.900000", "155357.360000", "155357.820000", "155358.280000", "155358.740000", "155359.200000", "155359.660000", "155400.120000", "155400.580000", "155401.040000", "155401.500000", "155401.960000", "155402.420000", "155402.880000", "155403.340000", "155403.800000", "155404.260000", "155404.720000", "155405.180000", "155405.640000", "155406.100000", "155406.560000", "155407.020000", "155407.480000", "155407.940000", "155408.400000", "155408.860000", "155409.320000", "155409.780000", "155410.240000", "155410.700000", "155411.160000", "155411.620000", "155412.080000", "155412.540000", "155413.000000", "155413.460000", "155413.920000", "155414.380000", "155414.840000", "155415.300000", "155415.760000", "155416.220000", "155416.680000", "155417.140000", "155417.600000", "155418.060000", "155418.520000", "155418.980000", "155419.440000", "155419.900000", "155420.360000", "155420.820000", "155421.280000", "155421.740000", "155422.200000", "155422.660000", "155423.120000", "155423.580000", "155424.040000", "155424.500000", "155424.960000", "155425.420000", "155425.880000", "155426.340000", "155426.800000", "155427.260000", "155427.720000", "155428.180000", "155428.640000", "155429.100000", "155429.560000", "155430.020000", "155430.480000", "155430.940000", "155431.400000", "155431.860000", "155432.320000", "155432.780000", "155433.240000", "155433.700000", "155434.160000", "155434.620000", "155435.080000", "155435.540000", "155436.000000", "155436.460000", "155436.920000", "155437.380000", "155437.840000", "155438.300000", "155438.760000", "155439.220000", "155439.680000", "155440.140000", "155440.600000", "155441.060000", "155441.520000", "155441.980000", "155442.440000", "155442.900000", "155443.360000", "155443.820000", "155444.280000", "155444.740000", "155445.200000", "155445.660000", "155446.120000", "155446.580000", "155447.040000", "155447.500000", "155447.960000", "155448.420000", "155448.880000", "155449.340000", "155449.800000", "155450.260000", "155450.720000", "155451.180000", "155451.640000", "155452.100000", "155452.560000", "155453.020000", "155453.480000", "155453.940000", "155454.400000", "155454.860000", "155455.320000", "155455.780000", "155456.240000", "155456.700000", "155457.160000", "155457.620000", "155458.080000", "155458.540000", "155459.000000", "155459.460000", "155459.920000", "155500.380000", "155500.840000", "155501.300000", "155501.760000", "155502.220000", "155502.680000", "155503.140000", "155503.600000", "155504.060000", "155504.520000", "155504.980000", "155505.440000", "155505.900000", "155506.360000", "155506.820000", "155507.280000", "155507.740000", "155508.200000", "155508.660000", "155509.120000", "155509.580000", "155510.040000", "155510.500000", "155510.960000", "155511.420000", "155511.880000", "155512.340000", "155512.800000", "155513.260000", "155513.720000", "155514.180000", "155514.640000", "155515.100000", "155515.560000", "155516.020000", "155516.480000", "155516.940000", "155517.400000", "155517.860000", "155518.320000", "155518.780000", "155519.240000", "155519.700000", "155520.160000", "155520.620000", "155521.080000", "155521.540000", "155522.000000", "155522.460000", "155522.920000", "155523.380000", "155523.840000", "155524.300000", "155524.760000", "155525.220000", "155525.680000", "155526.140000", "155526.600000", "155527.060000", "155527.520000", "155527.980000", "155528.440000", "155528.900000", "155529.360000", "155529.820000", "155530.280000", "155530.740000", "155531.200000", "155531.660000", "155532.120000", "155532.580000", "155533.040000", "155533.500000", "155533.960000", "155534.420000", "155534.880000", "155535.340000", "155535.800000", "155536.260000", "155536.720000", "155537.180000", "155537.640000", "155538.100000", "155538.560000", "155539.020000", "155539.480000", "155539.940000", "155540.400000", "155540.860000", "155541.320000", "155541.780000", "155542.240000", "155542.700000", "155543.160000", "155543.620000", "155544.080000", "155544.540000", "155545.000000", "155545.460000", "155545.920000", "155546.380000", "155546.840000", "155547.300000", "155547.760000", "155548.220000", "155548.680000", "155549.140000", "155549.600000", "155550.060000", "155550.520000", "155550.980000", "155551.440000", "155551.900000", "155552.360000", "155552.820000", "155553.280000", "155553.740000", "155554.200000", "155554.660000", "155555.120000", "155555.580000", "155556.040000", "155556.500000", "155556.960000", "155557.420000", "155557.880000", "155558.340000", "155558.800000", "155559.260000", "155559.720000", "155600.180000", "155600.640000", "155601.100000", "155601.560000", "155602.020000", "155602.480000", "155602.940000", "155603.400000", "155603.860000", "155604.320000", "155604.780000", "155605.240000", "155605.700000", "155606.160000", "155606.620000", "155607.080000", "155607.540000", "155608.000000", "155608.460000", "155608.920000", "155609.380000", "155609.840000", "155610.300000", "155610.760000", "155611.220000", "155611.680000", "155612.140000", "155612.600000", "155613.060000", "155613.520000", "155613.980000", "155614.440000", "155614.900000", "155615.360000", "155615.820000", "155616.280000", "155616.740000", "155617.200000", "155617.660000", "155618.120000", "155618.580000", "155619.040000", "155619.500000", "155619.960000", "155620.420000", "155620.880000", "155621.340000", "155621.800000", "155622.260000", "155622.720000", "155623.180000", "155623.640000", "155624.100000", "155624.560000", "155625.020000", "155625.480000", "155625.940000", "155626.400000", "155626.860000", "155627.320000", "155627.780000", "155628.240000", "155628.700000", "155629.160000", "155629.620000", "155630.080000", "155630.540000", "155631.000000", "155631.460000", "155631.920000", "155632.380000", "155632.840000", "155633.300000", "155633.760000", "155634.220000", "155634.680000", "155635.140000", "155635.600000", "155636.060000", "155636.520000", "155636.980000", "155637.440000", "155637.900000", "155638.360000", "155638.820000", "155639.280000", "155639.740000", "155640.200000", "155640.660000", "155641.120000", "155641.580000", "155642.040000", "155642.500000", "155642.960000", "155643.420000", "155643.880000", "155644.340000", "155644.800000", "155645.260000", "155645.720000", "155646.180000", "155646.640000", "155647.100000", "155647.560000", "155648.020000", "155648.480000", "155648.940000", "155649.400000", "155649.860000", "155650.320000", "155650.780000", "155651.240000", "155651.700000", "155652.160000", "155652.620000", "155653.080000", "155653.540000", "155654.000000", "155654.460000", "155654.920000", "155655.380000", "155655.840000", "155656.300000", "155656.760000", "155657.220000", "155657.680000", "155658.140000", "155658.600000", "155659.060000", "155659.520000", "155659.980000", "155700.440000", "155700.900000", "155701.360000", "155701.820000", "155702.280000", "155702.740000", "155703.200000", "155703.660000", "155704.120000", "155704.580000", "155705.040000", "155705.500000", "155705.960000", "155706.420000", "155706.880000", "155707.340000", "155707.800000", "155708.260000", "155708.720000", "155709.180000", "155709.640000", "155710.100000", "155710.560000", "155711.020000", "155711.480000", "155711.940000", "155712.400000", "155712.860000", "155713.320000", "155713.780000", "155714.240000", "155714.700000", "155715.160000", "155715.620000", "155716.080000", "155716.540000", "155717.000000", "155717.460000", "155717.920000", "155718.380000", "155718.840000", "155719.300000", "155719.760000", "155720.220000", "155720.680000", "155721.140000", "155721.600000", "155722.060000", "155722.520000", "155722.980000", "155723.440000", "155723.900000", "155724.360000", "155724.820000", "155725.280000", "155725.740000", "155726.200000", "155726.660000", "155727.120000", "155727.580000", "155728.040000", "155728.500000", "155728.960000", "155729.420000", "155729.880000", "155730.340000", "155730.800000", "155731.260000", "155731.720000", "155732.180000", "155732.640000", "155733.100000", "155733.560000", "155734.020000", "155734.480000", "155734.940000", "155735.400000", "155735.860000", "155736.320000", "155736.780000", "155737.240000", "155737.700000", "155738.160000", "155738.620000", "155739.080000", "155739.540000", "155740.000000", "155740.460000", "155740.920000", "155741.380000", "155741.840000", "155742.300000", "155742.760000", "155743.220000", "155743.680000", "155744.140000", "155744.600000", "155745.060000", "155745.520000", "155745.980000", "155746.440000", "155746.900000", "155747.360000", "155747.820000", "155748.280000", "155748.740000", "155749.200000", "155749.660000", "155750.120000", "155750.580000", "155751.040000", "155751.500000", "155751.960000", "155752.420000", "155752.880000", "155753.340000", "155753.800000", "155754.260000", "155754.720000", "155755.180000", "155755.640000", "155756.100000", "155756.560000", "155757.020000", "155757.480000", "155757.940000", "155758.400000", "155758.860000", "155759.320000", "155759.780000", "155800.240000", "155800.700000", "155801.160000", "155801.620000", "155802.080000", "155802.540000", "155803.000000", "155803.460000", "155803.920000", "155804.380000", "155804.840000", "155805.300000", "155805.760000", "155806.220000", "155806.680000", "155807.140000", "155807.600000", "155808.060000", "155808.520000", "155808.980000", "155809.440000", "155809.900000", "155810.360000", "155810.820000", "155811.280000", "155811.740000", "155812.200000", "155812.660000", "155813.120000", "155813.580000", "155814.040000", "155814.500000", "155814.960000", "155815.420000", "155815.880000", "155816.340000", "155816.800000", "155817.260000", "155817.720000", "155818.180000", "155818.640000", "155819.100000", "155819.560000", "155820.020000", "155820.480000", "155820.940000", "155821.400000", "155821.860000", "155822.320000", "155822.780000", "155823.240000", "155823.700000", "155824.160000", "155824.620000", "155825.080000", "155825.540000", "155826.000000", "155826.460000", "155826.920000", "155827.380000", "155827.840000", "155828.300000", "155828.760000", "155829.220000", "155829.680000", "155830.140000", "155830.600000", "155831.060000", "155831.520000", "155831.980000", "155832.440000", "155832.900000", "155833.360000", "155833.820000", "155834.280000", "155834.740000", "155835.200000", "155835.660000", "155836.120000", "155836.580000", "155837.040000", "155837.500000", "155837.960000", "155838.420000", "155838.880000", "155839.340000", "155839.800000", "155840.260000", "155840.720000", "155841.180000", "155841.640000", "155842.100000", "155842.560000", "155843.020000", "155843.480000", "155843.940000", "155844.400000", "155844.860000", "155845.320000", "155845.780000", "155846.240000", "155846.700000", "155847.160000", "155847.620000", "155848.080000", "155848.540000", "155849.000000", "155849.460000", "155849.920000", "155850.380000", "155850.840000", "155851.300000", "155851.760000", "155852.220000", "155852.680000", "155853.140000", "155853.600000", "155854.060000", "155854.520000", "155854.980000", "155855.440000", "155855.900000", "155856.360000", "155856.820000", "155857.280000", "155857.740000", "155858.200000", "155858.660000", "155859.120000", "155859.580000", "155900.040000", "155900.500000", "155900.960000", "155901.420000", "155901.880000", "155902.340000", "155902.800000", "155903.260000", "155903.720000", "155904.180000", "155904.640000", "155905.100000", "155905.560000", "155906.020000", "155906.480000", "155906.940000", "155907.400000", "155907.860000", "155908.320000", "155908.780000", "155909.240000", "155909.700000", "155910.160000", "155910.620000", "155911.080000", "155911.540000", "155912.000000", "155912.460000", "155912.920000", "155913.380000", "155913.840000", "155914.300000", "155914.760000"],
