{
  "AcquisitionMatrixPE": 82,
  "AcquisitionNumber": 1,
  "AcquisitionTime": "17:03:10.290000",
  "BandwidthPerPixelPhaseEncode": 24.888,
  "BaseResolution": 82,
  "BodyPartExamined": "BRAIN",
  "ConsistencyInfo": "N4_VE11E_LATEST_20181129",
  "ConversionSoftware": "dcm2niix",
  "ConversionSoftwareVersion": "v1.0.20201102",
  "DerivedVendorReportedEchoSpacing": 0.00049,
  "DeviceSerialNumber": "66112",
  "DwellTime": 2e-06,
  "EchoTime": 0.0272,
  "EchoTrainLength": 82,
  "EffectiveEchoSpacing": 0.00049,
  "FlipAngle": 44,
  "ImageComments": "Unaliased MB8/PE3",
  "ImageOrientationPatientDICOM": [0.990605, -0.119313, -0.0668316, 0.120754, 0.992521, 0.0179256],
  "ImageType": [
    "ORIGINAL",
    "PRIMARY",
    "M",
    "MB",
    "ND",
    "NORM",
    "MOSAIC"
],
  "ImagingFrequency": 123.252,
  "InPlanePhaseEncodingDirectionDICOM": "COL",
  "InstitutionAddress": "Maynard 3,Hanover,NH,US,03755",
  "InstitutionName": "Dartmouth College - PBS",
  "InstitutionalDepartmentName": "Department",
  "MRAcquisitionType": "2D",
  "MagneticFieldStrength": 3,
  "Manufacturer": "Siemens",
  "ManufacturersModelName": "Prisma",
  "Modality": "MR",
  "MultibandAccelerationFactor": 8,
  "PartialFourier": 1,
  "PatientPosition": "HFS",
  "PercentPhaseFOV": 100,
  "PercentSampling": 100,
  "PhaseEncodingDirection": "j-",
  "PhaseEncodingSteps": 82,
  "PhaseResolution": 1,
  "PixelBandwidth": 3050,
  "ProcedureStepDescription": "Wager_Wager^1076_spacetop",
  "ProtocolName": "func_run-03_task-alignvideo_acq-ap-mb8",
  "PulseSequenceDetails": "%CustomerSeq%\\cmrr_mbep2d_bold",
  "ReceiveCoilActiveElements": "HEA;HEP",
  "ReceiveCoilName": "Head_32",
  "ReconMatrixPE": 82,
  "RepetitionTime": 0.46,
  "SAR": 0.110446,
  "ScanOptions": "FS",
  "ScanningSequence": "EP",
  "SequenceName": "epfid2d1_82",
  "SequenceVariant": "SK\\SS",
  "SeriesDescription": "func_run-03_task-alignvideo_acq-ap-mb8",
  "SeriesNumber": 38,
  "ShimSetting": [4129, -7793, -7206, 570, -10, -164, -29, 80],
  "SliceThickness": 2.7,
  "SliceTiming": [0, 0.2525, 0.0625, 0.315, 0.125, 0.3775, 0.19, 0, 0.2525, 0.0625, 0.315, 0.125, 0.3775, 0.19, 0, 0.2525, 0.0625, 0.315, 0.125, 0.3775, 0.19, 0, 0.2525, 0.0625, 0.315, 0.125, 0.3775, 0.19, 0, 0.2525, 0.0625, 0.315, 0.125, 0.3775, 0.19, 0, 0.2525, 0.0625, 0.315, 0.125, 0.3775, 0.19, 0, 0.2525, 0.0625, 0.315, 0.125, 0.3775, 0.19, 0, 0.2525, 0.0625, 0.315, 0.125, 0.3775, 0.19],
  "SoftwareVersions": "syngo MR E11",
  "SpacingBetweenSlices": 2.7,
  "StationName": "AWP66112",
  "TaskName": "alignvideo",
  "TotalReadoutTime": 0.03969,
  "TxRefAmp": 252.676,
  "WipMemBlock": "2bf77e8a-d85c-4e9d-bb57-e50500c4eef0||Sequence: R016 ve11e/master r/434b28f1; Aug  7 2019 18:53:46 by eja",
  "dcmmeta_affine": [
    [-2.6577203273773193, 0.3239729404449463, -0.17332108318805695, 102.79002380371094],
    [0.32010921835899353, 2.66286039352417, 0.06973389536142349, -102.28477478027344],
    [-0.1793043613433838, -0.04809315502643585, 2.693528652191162, -47.37378692626953],
    [0.0, 0.0, 0.0, 1.0]
],
  "dcmmeta_reorient_transform": [
    [0.0, -1.0, 0.0, 81.0],
    [1.0, 0.0, 0.0, 0.0],
    [0.0, 0.0, 1.0, 0.0],
    [0.0, 0.0, 0.0, 1.0]
],
  "dcmmeta_shape": [82, 82, 56, 1065],
  "dcmmeta_slice_dim": 2,
  "dcmmeta_version": 0.6,
  "global": {
    "const": {
      "AccessionNumber": "A003965",
      "AcquisitionMatrix": [82, 0, 0, 82],
      "AngioFlag": "N",
      "BitsAllocated": 16,
      "BitsStored": 16,
      "BodyPartExamined": "BRAIN",
      "Columns": 656,
      "EchoNumbers": 1,
      "EchoTime": 27.2,
      "EchoTrainLength": 82,
      "FlipAngle": 44.0,
      "HighBit": 15,
      "ImageOrientationPatient": [0.99060478470285, -0.1193134307982, -0.0668316224178, 0.12075354910068, 0.99252065579142, 0.01792562989012],
      "ImagePositionPatient": [-984.77776863965, -785.77649656916, -13.611716180688],
      "ImageType": [
        "ORIGINAL",
        "PRIMARY",
        "M",
        "MB",
        "ND",
        "NORM",
        "MOSAIC"
],
      "ImagedNucleus": "1H",
      "ImagingFrequency": 123.252138,
      "InPlanePhaseEncodingDirection": "COL",
      "MRAcquisitionType": "2D",
      "MagneticFieldStrength": 3.0,
      "Manufacturer": "SIEMENS",
      "ManufacturerModelName": "Prisma",
      "Modality": "MR",
      "NumberOfAverages": 1.0,
      "NumberOfPhaseEncodingSteps": 82,
      "PercentPhaseFieldOfView": 100.0,
      "PercentSampling": 100.0,
      "PerformedProcedureStepStartTime": "150251.075000",
      "PhotometricInterpretation": "MONOCHROME2",
      "PixelBandwidth": 3050.0,
      "PixelRepresentation": 0,
      "PixelSpacing": [2.6829268932343, 2.6829268932343],
      "ProtocolName": "func_run-03_task-alignvideo_acq-ap-mb8",
      "RepetitionTime": 460.0,
      "Rows": 656,
      "SAR": 0.11044566985373,
      "SamplesPerPixel": 1,
      "ScanOptions": "FS",
      "ScanningSequence": "EP",
      "SequenceName": "epfid2d1_82",
      "SequenceVariant": [
        "SK",
        "SS"
],
      "SeriesDescription": "func_run-03_task-alignvideo_acq-ap-mb8",
      "SeriesNumber": 38,
      "SeriesTime": "170325.321000",
      "SliceLocation": -56.500388110626,
      "SliceThickness": 2.7000000476837,
      "SmallestImagePixelValue": 0,
      "SoftwareVersions": "syngo MR E11",
      "SpacingBetweenSlices": 2.6999999555029,
      "SpecificCharacterSet": "ISO_IR 100",
      "StudyID": "4",
      "StudyTime": "150251.034000",
      "TransmitCoilName": "Body",
      "VariableFlipAngleFlag": "N",
      "WindowCenterWidthExplanation": "Algo1"
    },
    "slices": {}
  },
  "time": {
    "samples": {
      "AcquisitionNumber": [1, 2, 3, 4, 5, 6, 7, 8, 9, 10, 11, 12, 13, 14, 15, 16, 17, 18, 19, 20, 21, 22, 23, 24, 25, 26, 27, 28, 29, 30, 31, 32, 33, 34, 35, 36, 37, 38, 39, 40, 41, 42, 43, 44, 45, 46, 47, 48, 49, 50, 51, 52, 53, 54, 55, 56, 57, 58, 59, 60, 61, 62, 63, 64, 65, 66, 67, 68, 69, 70, 71, 72, 73, 74, 75, 76, 77, 78, 79, 80, 81, 82, 83, 84, 85, 86, 87, 88, 89, 90, 91, 92, 93, 94, 95, 96, 97, 98, 99, 100, 101, 102, 103, 104, 105, 106, 107, 108, 109, 110, 111, 112, 113, 114, 115, 116, 117, 118, 119, 120, 121, 122, 123, 124, 125, 126, 127, 128, 129, 130, 131, 132, 133, 134, 135, 136, 137, 138, 139, 140, 141, 142, 143, 144, 145, 146, 147, 148, 149, 150, 151, 152, 153, 154, 155, 156, 157, 158, 159, 160, 161, 162, 163, 164, 165, 166, 167, 168, 169, 170, 171, 172, 173, 174, 175, 176, 177, 178, 179, 180, 181, 182, 183, 184, 185, 186, 187, 188, 189, 190, 191, 192, 193, 194, 195, 196, 197, 198, 199, 200, 201, 202, 203, 204, 205, 206, 207, 208, 209, 210, 211, 212, 213, 214, 215, 216, 217, 218, 219, 220, 221, 222, 223, 224, 225, 226, 227, 228, 229, 230, 231, 232, 233, 234, 235, 236, 237, 238, 239, 240, 241, 242, 243, 244, 245, 246, 247, 248, 249, 250, 251, 252, 253, 254, 255, 256, 257, 258, 259, 260, 261, 262, 263, 264, 265, 266, 267, 268, 269, 270, 271, 272, 273, 274, 275, 276, 277, 278, 279, 280, 281, 282, 283, 284, 285, 286, 287, 288, 289, 290, 291, 292, 293, 294, 295, 296, 297, 298, 299, 300, 301, 302, 303, 304, 305, 306, 307, 308, 309, 310, 311, 312, 313, 314, 315, 316, 317, 318, 319, 320, 321, 322, 323, 324, 325, 326, 327, 328, 329, 330, 331, 332, 333, 334, 335, 336, 337, 338, 339, 340, 341, 342, 343, 344, 345, 346, 347, 348, 349, 350, 351, 352, 353, 354, 355, 356, 357, 358, 359, 360, 361, 362, 363, 364, 365, 366, 367, 368, 369, 370, 371, 372, 373, 374, 375, 376, 377, 378, 379, 380, 381, 382, 383, 384, 385, 386, 387, 388, 389, 390, 391, 392, 393, 394, 395, 396, 397, 398, 399, 400, 401, 402, 403, 404, 405, 406, 407, 408, 409, 410, 411, 412, 413, 414, 415, 416, 417, 418, 419, 420, 421, 422, 423, 424, 425, 426, 427, 428, 429, 430, 431, 432, 433, 434, 435, 436, 437, 438, 439, 440, 441, 442, 443, 444, 445, 446, 447, 448, 449, 450, 451, 452, 453, 454, 455, 456, 457, 458, 459, 460, 461, 462, 463, 464, 465, 466, 467, 468, 469, 470, 471, 472, 473, 474, 475, 476, 477, 478, 479, 480, 481, 482, 483, 484, 485, 486, 487, 488, 489, 490, 491, 492, 493, 494, 495, 496, 497, 498, 499, 500, 501, 502, 503, 504, 505, 506, 507, 508, 509, 510, 511, 512, 513, 514, 515, 516, 517, 518, 519, 520, 521, 522, 523, 524, 525, 526, 527, 528, 529, 530, 531, 532, 533, 534, 535, 536, 537, 538, 539, 540, 541, 542, 543, 544, 545, 546, 547, 548, 549, 550, 551, 552, 553, 554, 555, 556, 557, 558, 559, 560, 561, 562, 563, 564, 565, 566, 567, 568, 569, 570, 571, 572, 573, 574, 575, 576, 577, 578, 579, 580, 581, 582, 583, 584, 585, 586, 587, 588, 589, 590, 591, 592, 593, 594, 595, 596, 597, 598, 599, 600, 601, 602, 603, 604, 605, 606, 607, 608, 609, 610, 611, 612, 613, 614, 615, 616, 617, 618, 619, 620, 621, 622, 623, 624, 625, 626, 627, 628, 629, 630, 631, 632, 633, 634, 635, 636, 637, 638, 639, 640, 641, 642, 643, 644, 645, 646, 647, 648, 649, 650, 651, 652, 653, 654, 655, 656, 657, 658, 659, 660, 661, 662, 663, 664, 665, 666, 667, 668, 669, 670, 671, 672, 673, 674, 675, 676, 677, 678, 679, 680, 681, 682, 683, 684, 685, 686, 687, 688, 689, 690, 691, 692, 693, 694, 695, 696, 697, 698, 699, 700, 701, 702, 703, 704, 705, 706, 707, 708, 709, 710, 711, 712, 713, 714, 715, 716, 717, 718, 719, 720, 721, 722, 723, 724, 725, 726, 727, 728, 729, 730, 731, 732, 733, 734, 735, 736, 737, 738, 739, 740, 741, 742, 743, 744, 745, 746, 747, 748, 749, 750, 751, 752, 753, 754, 755, 756, 757, 758, 759, 760, 761, 762, 763, 764, 765, 766, 767, 768, 769, 770, 771, 772, 773, 774, 775, 776, 777, 778, 779, 780, 781, 782, 783, 784, 785, 786, 787, 788, 789, 790, 791, 792, 793, 794, 795, 796, 797, 798, 799, 800, 801, 802, 803, 804, 805, 806, 807, 808, 809, 810, 811, 812, 813, 814, 815, 816, 817, 818, 819, 820, 821, 822, 823, 824, 825, 826, 827, 828, 829, 830, 831, 832, 833, 834, 835, 836, 837, 838, 839, 840, 841, 842, 843, 844, 845, 846, 847, 848, 849, 850, 851, 852, 853, 854, 855, 856, 857, 858, 859, 860, 861, 862, 863, 864, 865, 866, 867, 868, 869, 870, 871, 872, 873, 874, 875, 876, 877, 878, 879, 880, 881, 882, 883, 884, 885, 886, 887, 888, 889, 890, 891, 892, 893, 894, 895, 896, 897, 898, 899, 900, 901, 902, 903, 904, 905, 906, 907, 908, 909, 910, 911, 912, 913, 914, 915, 916, 917, 918, 919, 920, 921, 922, 923, 924, 925, 926, 927, 928, 929, 930, 931, 932, 933, 934, 935, 936, 937, 938, 939, 940, 941, 942, 943, 944, 945, 946, 947, 948, 949, 950, 951, 952, 953, 954, 955, 956, 957, 958, 959, 960, 961, 962, 963, 964, 965, 966, 967, 968, 969, 970, 971, 972, 973, 974, 975, 976, 977, 978, 979, 980, 981, 982, 983, 984, 985, 986, 987, 988, 989, 990, 991, 992, 993, 994, 995, 996, 997, 998, 999, 1000, 1001, 1002, 1003, 1004, 1005, 1006, 1007, 1008, 1009, 1010, 1011, 1012, 1013, 1014, 1015, 1016, 1017, 1018, 1019, 1020, 1021, 1022, 1023, 1024, 1025, 1026, 1027, 1028, 1029, 1030, 1031, 1032, 1033, 1034, 1035, 1036, 1037, 1038, 1039, 1040, 1041, 1042, 1043, 1044, 1045, 1046, 1047, 1048, 1049, 1050, 1051, 1052, 1053, 1054, 1055, 1056, 1057, 1058, 1059, 1060, 1061, 1062, 1063, 1064, 1065],
      "AcquisitionTime": ["170310.290000", "170310.750000", "170311.210000", "170311.670000", "170312.130000", "170312.590000", "170313.050000", "170313.510000", "170313.970000", "170314.430000", "170314.890000", "170315.350000", "170315.810000", "170316.270000", "170316.730000", "170317.190000", "170317.650000", "170318.110000", "170318.570000", "170319.030000", "170319.490000", "170319.950000", "170320.410000", "170320.870000", "170321.330000", "170321.790000", "170322.250000", "170322.710000", "170323.170000", "170323.630000", "170324.090000", "170324.550000", "170325.010000", "170325.470000", "170325.930000", "170326.390000", "170326.850000", "170327.310000", "170327.770000", "170328.230000", "170328.690000", "170329.150000", "170329.610000", "170330.070000", "170330.530000", "170330.990000", "170331.450000", "170331.910000", "170332.370000", "170332.830000", "170333.290000", "170333.750000", "170334.210000", "170334.670000", "170335.130000", "170335.590000", "170336.050000", "170336.510000", "170336.970000", "170337.430000", "170337.890000", "170338.350000", "170338.810000", "170339.270000", "170339.730000", "170340.190000", "170340.650000", "170341.110000", "170341.570000", "170342.030000", "170342.490000", "170342.950000", "170343.410000", "170343.870000", "170344.330000", "170344.790000", "170345.250000", "170345.710000", "170346.170000", "170346.630000", "170347.090000", "170347.550000", "170348.010000", "170348.470000", "170348.930000", "170349.390000", "170349.850000", "170350.310000", "170350.770000", "170351.230000", "170351.690000", "170352.150000", "170352.610000", "170353.070000", "170353.530000", "170353.990000", "170354.450000", "170354.910000", "170355.370000", "170355.830000", "170356.290000", "170356.750000", "170357.210000", "170357.670000", "170358.130000", "170358.590000", "170359.050000", "170359.510000", "170359.970000", "170400.430000", "170400.890000", "170401.350000", "170401.810000", "170402.270000", "170402.730000", "170403.190000", "170403.650000", "170404.110000", "170404.570000", "170405.030000", "170405.490000", "170405.950000", "170406.410000", "170406.870000", "170407.330000", "170407.790000", "170408.250000", "170408.710000", "170409.170000", "170409.630000", "170410.090000", "170410.550000", "170411.010000", "170411.470000", "170411.930000", "170412.390000", "170412.850000", "170413.310000", "170413.770000", "170414.230000", "170414.690000", "170415.150000", "170415.610000", "170416.070000", "170416.530000", "170416.990000", "170417.450000", "170417.910000", "170418.370000", "170418.830000", "170419.290000", "170419.750000", "170420.210000", "170420.670000", "170421.130000", "170421.590000", "170422.050000", "170422.510000", "170422.970000", "170423.430000", "170423.890000", "170424.350000", "170424.810000", "170425.270000", "170425.730000", "170426.190000", "170426.650000", "170427.110000", "170427.570000", "170428.030000", "170428.490000", "170428.950000", "170429.410000", "170429.870000", "170430.330000", "170430.790000", "170431.250000", "170431.710000", "170432.170000", "170432.630000", "170433.090000", "170433.550000", "170434.010000", "170434.470000", "170434.930000", "170435.390000", "170435.850000", "170436.310000", "170436.770000", "170437.230000", "170437.690000", "170438.150000", "170438.610000", "170439.070000", "170439.530000", "170439.990000", "170440.450000", "170440.910000", "170441.370000", "170441.830000", "170442.290000", "170442.750000", "170443.210000", "170443.670000", "170444.130000", "170444.590000", "170445.050000", "170445.510000", "170445.970000", "170446.430000", "170446.890000", "170447.350000", "170447.810000", "170448.270000", "170448.730000", "170449.190000", "170449.650000", "170450.110000", "170450.570000", "170451.030000", "170451.490000", "170451.950000", "170452.410000", "170452.870000", "170453.330000", "170453.790000", "170454.250000", "170454.710000", "170455.170000", "170455.630000", "170456.090000", "170456.550000", "170457.010000", "170457.470000", "170457.930000", "170458.390000", "170458.850000", "170459.310000", "170459.770000", "170500.230000", "170500.690000", "170501.150000", "170501.610000", "170502.070000", "170502.530000", "170502.990000", "170503.450000", "170503.910000", "170504.370000", "170504.830000", "170505.290000", "170505.750000", "170506.210000", "170506.670000", "170507.130000", "170507.590000", "170508.050000", "170508.510000", "170508.970000", "170509.430000", "170509.890000", "170510.350000", "170510.810000", "170511.270000", "170511.730000", "170512.190000", "170512.650000", "170513.110000", "170513.570000", "170514.030000", "170514.490000", "170514.950000", "170515.410000", "170515.870000", "170516.330000", "170516.790000", "170517.250000", "170517.710000", "170518.170000", "170518.630000", "170519.090000", "170519.550000", "170520.010000", "170520.470000", "170520.930000", "170521.390000", "170521.850000", "170522.310000", "170522.770000", "170523.230000", "170523.690000", "170524.150000", "170524.610000", "170525.070000", "170525.530000", "170525.990000", "170526.450000", "170526.910000", "170527.370000", "170527.830000", "170528.290000", "170528.750000", "170529.210000", "170529.670000", "170530.130000", "170530.590000", "170531.050000", "170531.510000", "170531.970000", "170532.430000", "170532.890000", "170533.350000", "170533.810000", "170534.270000", "170534.730000", "170535.190000", "170535.650000", "170536.110000", "170536.570000", "170537.030000", "170537.490000", "170537.950000", "170538.410000", "170538.870000", "170539.330000", "170539.790000", "170540.250000", "170540.710000", "170541.170000", "170541.630000", "170542.090000", "170542.550000", "170543.010000", "170543.470000", "170543.930000", "170544.390000", "170544.850000", "170545.310000", "170545.770000", "170546.230000", "170546.690000", "170547.150000", "170547.610000", "170548.070000", "170548.530000", "170548.990000", "170549.450000", "170549.910000", "170550.370000", "170550.830000", "170551.290000", "170551.750000", "170552.210000", "170552.670000", "170553.130000", "170553.590000", "170554.050000", "170554.510000", "170554.970000", "170555.430000", "170555.890000", "170556.350000", "170556.810000", "170557.270000", "170557.730000", "170558.190000", "170558.650000", "170559.110000", "170559.570000", "170600.030000", "170600.490000", "170600.950000", "170601.410000", "170601.870000", "170602.330000", "170602.790000", "170603.250000", "170603.710000", "170604.170000", "170604.630000", "170605.090000", "170605.550000", "170606.010000", "170606.470000", "170606.930000", "170607.390000", "170607.850000", "170608.310000", "170608.770000", "170609.230000", "170609.690000", "170610.150000", "170610.610000", "170611.070000", "170611.530000", "170611.990000", "170612.450000", "170612.910000", "170613.370000", "170613.830000", "170614.290000", "170614.750000", "170615.210000", "170615.670000", "170616.130000", "170616.590000", "170617.050000", "170617.510000", "170617.970000", "170618.430000", "170618.890000", "170619.350000", "170619.810000", "170620.270000", "170620.730000", "170621.190000", "170621.650000", "170622.110000", "170622.570000", "170623.030000", "170623.490000", "170623.950000", "170624.410000", "170624.870000", "170625.330000", "170625.790000", "170626.250000", "170626.710000", "170627.170000", "170627.630000", "170628.090000", "170628.550000", "170629.010000", "170629.470000", "170629.930000", "170630.390000", "170630.850000", "170631.310000", "170631.770000", "170632.230000", "170632.690000", "170633.150000", "170633.610000", "170634.070000", "170634.530000", "170634.990000", "170635.450000", "170635.910000", "170636.370000", "170636.830000", "170637.290000", "170637.750000", "170638.210000", "170638.670000", "170639.130000", "170639.590000", "170640.050000", "170640.510000", "170640.970000", "170641.430000", "170641.890000", "170642.350000", "170642.810000", "170643.270000", "170643.730000", "170644.190000", "170644.650000", "170645.110000", "170645.570000", "170646.030000", "170646.490000", "170646.950000", "170647.410000", "170647.870000", "170648.330000", "170648.790000", "170649.250000", "170649.710000", "170650.170000", "170650.630000", "170651.090000", "170651.550000", "170652.010000", "170652.470000", "170652.930000", "170653.390000", "170653.850000", "170654.310000", "170654.770000", "170655.230000", "170655.690000", "170656.150000", "170656.610000", "170657.070000", "170657.530000", "170657.990000", "170658.450000", "170658.910000", "170659.370000", "170659.830000", "170700.290000", "170700.750000", "170701.210000", "170701.670000", "170702.130000", "170702.590000", "170703.050000", "170703.510000", "170703.970000", "170704.430000", "170704.890000", "170705.350000", "170705.810000", "170706.270000", "170706.730000", "170707.190000", "170707.650000", "170708.110000", "170708.570000", "170709.030000", "170709.490000", "170709.950000", "170710.410000", "170710.870000", "170711.330000", "170711.790000", "170712.250000", "170712.710000", "170713.170000", "170713.630000", "170714.090000", "170714.550000", "170715.010000", "170715.470000", "170715.930000", "170716.390000", "170716.850000", "170717.310000", "170717.770000", "170718.230000", "170718.690000", "170719.150000", "170719.610000", "170720.070000", "170720.530000", "170720.990000", "170721.450000", "170721.910000", "170722.370000", "170722.830000", "170723.290000", "170723.750000", "170724.210000", "170724.670000", "170725.130000", "170725.590000", "170726.050000", "170726.510000", "170726.970000", "170727.430000", "170727.890000", "170728.350000", "170728.810000", "170729.270000", "170729.730000", "170730.190000", "170730.650000", "170731.110000", "170731.570000", "170732.030000", "170732.490000", "170732.950000", "170733.410000", "170733.870000", "170734.330000", "170734.790000", "170735.250000", "170735.710000", "170736.170000", "170736.630000", "170737.090000", "170737.550000", "170738.010000", "170738.470000", "170738.930000", "170739.390000", "170739.850000", "170740.310000", "170740.770000", "170741.230000", "170741.690000", "170742.150000", "170742.610000", "170743.070000", "170743.530000", "170743.990000", "170744.450000", "170744.910000", "170745.370000", "170745.830000", "170746.290000", "170746.750000", "170747.210000", "170747.670000", "170748.130000", "170748.590000", "170749.050000", "170749.510000", "170749.970000", "170750.430000", "170750.890000", "170751.350000", "170751.810000", "170752.270000", "170752.730000", "170753.190000", "170753.650000", "170754.110000", "170754.570000", "170755.030000", "170755.490000", "170755.950000", "170756.410000", "170756.870000", "170757.330000", "170757.790000", "170758.250000", "170758.710000", "170759.170000", "170759.630000", "170800.090000", "170800.550000", "170801.010000", "170801.470000", "170801.930000", "170802.390000", "170802.850000", "170803.310000", "170803.770000", "170804.230000", "170804.690000", "170805.150000", "170805.610000", "170806.070000", "170806.530000", "170806.990000", "170807.450000", "170807.910000", "170808.370000", "170808.830000", "170809.290000", "170809.750000", "170810.210000", "170810.670000", "170811.130000", "170811.590000", "170812.050000", "170812.510000", "170812.970000", "170813.430000", "170813.890000", "170814.350000", "170814.810000", "170815.270000", "170815.730000", "170816.190000", "170816.650000", "170817.110000", "170817.570000", "170818.030000", "170818.490000", "170818.950000", "170819.410000", "170819.870000", "170820.330000", "170820.790000", "170821.250000", "170821.710000", "170822.170000", "170822.630000", "170823.090000", "170823.550000", "170824.010000", "170824.470000", "170824.930000", "170825.390000", "170825.850000", "170826.310000", "170826.770000", "170827.230000", "170827.690000", "170828.150000", "170828.610000", "170829.070000", "170829.530000", "170829.990000", "170830.450000", "170830.910000", "170831.370000", "170831.830000", "170832.290000", "170832.750000", "170833.210000", "170833.670000", "170834.130000", "170834.590000", "170835.050000", "170835.510000", "170835.970000", "170836.430000", "170836.890000", "170837.350000", "170837.810000", "170838.270000", "170838.730000", "170839.190000", "170839.650000", "170840.110000", "170840.570000", "170841.030000", "170841.490000", "170841.950000", "170842.410000", "170842.870000", "170843.330000", "170843.790000", "170844.250000", "170844.710000", "170845.170000", "170845.630000", "170846.090000", "170846.550000", "170847.010000", "170847.470000", "170847.930000", "170848.390000", "170848.850000", "170849.310000", "170849.770000", "170850.230000", "170850.690000", "170851.150000", "170851.610000", "170852.070000", "170852.530000", "170852.990000", "170853.450000", "170853.910000", "170854.370000", "170854.830000", "170855.290000", "170855.750000", "170856.210000", "170856.670000", "170857.130000", "170857.590000", "170858.050000", "170858.510000", "170858.970000", "170859.430000", "170859.890000", "170900.350000", "170900.810000", "170901.270000", "170901.730000", "170902.190000", "170902.650000", "170903.110000", "170903.570000", "170904.030000", "170904.490000", "170904.950000", "170905.410000", "170905.870000", "170906.330000", "170906.790000", "170907.250000", "170907.710000", "170908.170000", "170908.630000", "170909.090000", "170909.550000", "170910.010000", "170910.470000", "170910.930000", "170911.390000", "170911.850000", "170912.310000", "170912.770000", "170913.230000", "170913.690000", "170914.150000", "170914.610000", "170915.070000", "170915.530000", "170915.990000", "170916.450000", "170916.910000", "170917.370000", "170917.830000", "170918.290000", "170918.750000", "170919.210000", "170919.670000", "170920.130000", "170920.590000", "170921.050000", "170921.510000", "170921.970000", "170922.430000", "170922.890000", "170923.350000", "170923.810000", "170924.270000", "170924.730000", "170925.190000", "170925.650000", "170926.110000", "170926.570000", "170927.030000", "170927.490000", "170927.950000", "170928.410000", "170928.870000", "170929.330000", "170929.790000", "170930.250000", "170930.710000", "170931.170000", "170931.630000", "170932.090000", "170932.550000", "170933.010000", "170933.470000", "170933.930000", "170934.390000", "170934.850000", "170935.310000", "170935.770000", "170936.230000", "170936.690000", "170937.150000", "170937.610000", "170938.070000", "170938.530000", "170938.990000", "170939.450000", "170939.910000", "170940.370000", "170940.830000", "170941.290000", "170941.750000", "170942.210000", "170942.670000", "170943.130000", "170943.590000", "170944.050000", "170944.510000", "170944.970000", "170945.430000", "170945.890000", "170946.350000", "170946.810000", "170947.270000", "170947.730000", "170948.190000", "170948.650000", "170949.110000", "170949.570000", "170950.030000", "170950.490000", "170950.950000", "170951.410000", "170951.870000", "170952.330000", "170952.790000", "170953.250000", "170953.710000", "170954.170000", "170954.630000", "170955.090000", "170955.550000", "170956.010000", "170956.470000", "170956.930000", "170957.390000", "170957.850000", "170958.310000", "170958.770000", "170959.230000", "170959.690000", "171000.150000", "171000.610000", "171001.070000", "171001.530000", "171001.990000", "171002.450000", "171002.910000", "171003.370000", "171003.830000", "171004.290000", "171004.750000", "171005.210000", "171005.670000", "171006.130000", "171006.590000", "171007.050000", "171007.510000", "171007.970000", "171008.430000", "171008.890000", "171009.350000", "171009.810000", "171010.270000", "171010.730000", "171011.190000", "171011.650000", "171012.110000", "171012.570000", "171013.030000", "171013.490000", "171013.950000", "171014.410000", "171014.870000", "171015.330000", "171015.790000", "171016.250000", "171016.710000", "171017.170000", "171017.630000", "171018.090000", "171018.550000", "171019.010000", "171019.470000", "171019.930000", "171020.390000", "171020.850000", "171021.310000", "171021.770000", "171022.230000", "171022.690000", "171023.150000", "171023.610000", "171024.070000", "171024.530000", "171024.990000", "171025.450000", "171025.910000", "171026.370000", "171026.830000", "171027.290000", "171027.750000", "171028.210000", "171028.670000", "171029.130000", "171029.590000", "171030.050000", "171030.510000", "171030.970000", "171031.430000", "171031.890000", "171032.350000", "171032.810000", "171033.270000", "171033.730000", "171034.190000", "171034.650000", "171035.110000", "171035.570000", "171036.030000", "171036.490000", "171036.950000", "171037.410000", "171037.870000", "171038.330000", "171038.790000", "171039.250000", "171039.710000", "171040.170000", "171040.630000", "171041.090000", "171041.550000", "171042.010000", "171042.470000", "171042.930000", "171043.390000", "171043.850000", "171044.310000", "171044.770000", "171045.230000", "171045.690000", "171046.150000", "171046.610000", "171047.070000", "171047.530000", "171047.990000", "171048.450000", "171048.910000", "171049.370000", "171049.830000", "171050.290000", "171050.750000", "171051.210000", "171051.670000", "171052.130000", "171052.590000", "171053.050000", "171053.510000", "171053.970000", "171054.430000", "171054.890000", "171055.350000", "171055.810000", "171056.270000", "171056.730000", "171057.190000", "171057.650000", "171058.110000", "171058.570000", "171059.030000", "171059.490000", "171059.950000", "171100.410000", "171100.870000", "171101.330000", "171101.790000", "171102.250000", "171102.710000", "171103.170000", "171103.630000", "171104.090000", "171104.550000", "171105.010000", "171105.470000", "171105.930000", "171106.390000", "171106.850000", "171107.310000", "171107.770000", "171108.230000", "171108.690000", "171109.150000", "171109.610000", "171110.070000", "171110.530000", "171110.990000", "171111.450000", "171111.910000", "171112.370000", "171112.830000", "171113.290000", "171113.750000", "171114.210000", "171114.670000", "171115.130000", "171115.590000", "171116.050000", "171116.510000", "171116.970000", "171117.430000", "171117.890000", "171118.350000", "171118.810000", "171119.270000", "171119.730000"],
