{
  "AcquisitionMatrixPE": 82,
  "AcquisitionNumber": 1,
  "AcquisitionTime": "16:00:39.792500",
  "BandwidthPerPixelPhaseEncode": 24.888,
  "BaseResolution": 82,
  "BodyPartExamined": "BRAIN",
  "ConsistencyInfo": "N4_VE11E_LATEST_20181129",
  "ConversionSoftware": "dcm2niix",
  "ConversionSoftwareVersion": "v1.0.20201102",
  "DerivedVendorReportedEchoSpacing": 0.00049,
  "DeviceSerialNumber": "66112",
  "DwellTime": 2e-06,
  "EchoTime": 0.0272,
  "EchoTrainLength": 82,
  "EffectiveEchoSpacing": 0.00049,
  "FlipAngle": 44,
  "ImageComments": "Unaliased MB8/PE3",
  "ImageOrientationPatientDICOM": [0.992273, -0.106099, -0.0643224, 0.105868, 0.994355, -0.00699989],
  "ImageType": [
    "ORIGINAL",
    "PRIMARY",
    "M",
    "MB",
    "ND",
    "NORM",
    "MOSAIC"
],
  "ImagingFrequency": 123.252,
  "InPlanePhaseEncodingDirectionDICOM": "COL",
  "InstitutionAddress": "Maynard 3,Hanover,NH,US,03755",
  "InstitutionName": "Dartmouth College - PBS",
  "InstitutionalDepartmentName": "Department",
  "MRAcquisitionType": "2D",
  "MagneticFieldStrength": 3,
  "Manufacturer": "Siemens",
  "ManufacturersModelName": "Prisma",
  "Modality": "MR",
  "MultibandAccelerationFactor": 8,
  "PartialFourier": 1,
  "PatientPosition": "HFS",
  "PercentPhaseFOV": 100,
  "PercentSampling": 100,
  "PhaseEncodingDirection": "j-",
  "PhaseEncodingSteps": 82,
  "PhaseResolution": 1,
  "PixelBandwidth": 3050,
  "ProcedureStepDescription": "Wager_Wager^1076_spacetop",
  "ProtocolName": "func_run-05_task-social_acq-ap-mb8",
  "PulseSequenceDetails": "%CustomerSeq%\\cmrr_mbep2d_bold",
  "ReceiveCoilActiveElements": "HEA;HEP",
  "ReceiveCoilName": "Head_32",
  "ReconMatrixPE": 82,
  "RepetitionTime": 0.46,
  "SAR": 0.112319,
  "ScanOptions": "FS",
  "ScanningSequence": "EP",
  "SequenceName": "epfid2d1_82",
  "SequenceVariant": "SK\\SS",
  "SeriesDescription": "func_run-05_task-social_acq-ap-mb8",
  "SeriesNumber": 16,
  "ShimSetting": [4146, -7782, -7203, 622, -7, -159, -90, 32],
  "SliceThickness": 2.7,
  "SliceTiming": [0, 0.25, 0.0625, 0.315, 0.125, 0.3775, 0.1875, 0, 0.25, 0.0625, 0.315, 0.125, 0.3775, 0.1875, 0, 0.25, 0.0625, 0.315, 0.125, 0.3775, 0.1875, 0, 0.25, 0.0625, 0.315, 0.125, 0.3775, 0.1875, 0, 0.25, 0.0625, 0.315, 0.125, 0.3775, 0.1875, 0, 0.25, 0.0625, 0.315, 0.125, 0.3775, 0.1875, 0, 0.25, 0.0625, 0.315, 0.125, 0.3775, 0.1875, 0, 0.25, 0.0625, 0.315, 0.125, 0.3775, 0.1875],
  "SoftwareVersions": "syngo MR E11",
  "SpacingBetweenSlices": 2.7,
  "StationName": "AWP66112",
  "TaskName": "social",
  "TotalReadoutTime": 0.03969,
  "TxRefAmp": 254.742,
  "WipMemBlock": "ef0b892a-bcec-4003-9a82-cd6c5077121b||Sequence: R016 ve11e/master r/434b28f1; Aug  7 2019 18:53:46 by eja",
  "dcmmeta_affine": [
    [-2.6621956825256348, 0.28403687477111816, -0.17469550669193268, 102.31110382080078],
    [0.284656822681427, 2.667783260345459, -0.00036746784462593496, -104.79431915283203],
    [-0.17257235944271088, 0.01878019981086254, 2.6943423748016357, -52.545440673828125],
    [0.0, 0.0, 0.0, 1.0]
],
  "dcmmeta_reorient_transform": [
    [0.0, -1.0, 0.0, 81.0],
    [1.0, 0.0, 0.0, 0.0],
    [0.0, 0.0, 1.0, 0.0],
    [0.0, 0.0, 0.0, 1.0]
],
  "dcmmeta_shape": [82, 82, 56, 872],
  "dcmmeta_slice_dim": 2,
  "dcmmeta_version": 0.6,
  "global": {
    "const": {
      "AccessionNumber": "A003965",
      "AcquisitionMatrix": [82, 0, 0, 82],
      "AngioFlag": "N",
      "BitsAllocated": 16,
      "BitsStored": 16,
      "BodyPartExamined": "BRAIN",
      "Columns": 656,
      "EchoNumbers": 1,
      "EchoTime": 27.2,
      "EchoTrainLength": 82,
      "FlipAngle": 44.0,
      "HighBit": 15,
      "ImageOrientationPatient": [0.99227292243648, -0.106099355852, -0.0643224228956, 0.10586828298361, 0.9943555240279, -0.006999892378],
      "ImagePositionPatient": [-970.88683820718, -795.25338303252, 3.8939413663478],
      "ImageType": [
        "ORIGINAL",
        "PRIMARY",
        "M",
        "MB",
        "ND",
        "NORM",
        "MOSAIC"
],
      "ImagedNucleus": "1H",
      "ImagingFrequency": 123.252141,
      "InPlanePhaseEncodingDirection": "COL",
      "MRAcquisitionType": "2D",
      "MagneticFieldStrength": 3.0,
      "Manufacturer": "SIEMENS",
      "ManufacturerModelName": "Prisma",
      "Modality": "MR",
      "NumberOfAverages": 1.0,
      "NumberOfPhaseEncodingSteps": 82,
      "PercentPhaseFieldOfView": 100.0,
      "PercentSampling": 100.0,
      "PerformedProcedureStepStartTime": "150251.075000",
      "PhotometricInterpretation": "MONOCHROME2",
      "PixelBandwidth": 3050.0,
      "PixelRepresentation": 0,
      "PixelSpacing": [2.6829268932343, 2.6829268932343],
      "ProtocolName": "func_run-05_task-social_acq-ap-mb8",
      "RepetitionTime": 460.0,
      "Rows": 656,
      "SAR": 0.11231925075193,
      "SamplesPerPixel": 1,
      "ScanOptions": "FS",
      "ScanningSequence": "EP",
      "SequenceName": "epfid2d1_82",
      "SequenceVariant": [
        "SK",
        "SS"
],
      "SeriesDescription": "func_run-05_task-social_acq-ap-mb8",
      "SeriesNumber": 16,
      "SeriesTime": "160105.303000",
      "SliceLocation": -59.040810895054,
      "SliceThickness": 2.7000000476837,
      "SmallestImagePixelValue": 0,
      "SoftwareVersions": "syngo MR E11",
      "SpacingBetweenSlices": 2.6999999880477,
      "SpecificCharacterSet": "ISO_IR 100",
      "StudyID": "4",
      "StudyTime": "150251.034000",
      "TransmitCoilName": "Body",
      "VariableFlipAngleFlag": "N",
      "WindowCenterWidthExplanation": "Algo1"
    },
    "slices": {}
  },
  "time": {
    "samples": {
      "AcquisitionNumber": [1, 2, 3, 4, 5, 6, 7, 8, 9, 10, 11, 12, 13, 14, 15, 16, 17, 18, 19, 20, 21, 22, 23, 24, 25, 26, 27, 28, 29, 30, 31, 32, 33, 34, 35, 36, 37, 38, 39, 40, 41, 42, 43, 44, 45, 46, 47, 48, 49, 50, 51, 52, 53, 54, 55, 56, 57, 58, 59, 60, 61, 62, 63, 64, 65, 66, 67, 68, 69, 70, 71, 72, 73, 74, 75, 76, 77, 78, 79, 80, 81, 82, 83, 84, 85, 86, 87, 88, 89, 90, 91, 92, 93, 94, 95, 96, 97, 98, 99, 100, 101, 102, 103, 104, 105, 106, 107, 108, 109, 110, 111, 112, 113, 114, 115, 116, 117, 118, 119, 120, 121, 122, 123, 124, 125, 126, 127, 128, 129, 130, 131, 132, 133, 134, 135, 136, 137, 138, 139, 140, 141, 142, 143, 144, 145, 146, 147, 148, 149, 150, 151, 152, 153, 154, 155, 156, 157, 158, 159, 160, 161, 162, 163, 164, 165, 166, 167, 168, 169, 170, 171, 172, 173, 174, 175, 176, 177, 178, 179, 180, 181, 182, 183, 184, 185, 186, 187, 188, 189, 190, 191, 192, 193, 194, 195, 196, 197, 198, 199, 200, 201, 202, 203, 204, 205, 206, 207, 208, 209, 210, 211, 212, 213, 214, 215, 216, 217, 218, 219, 220, 221, 222, 223, 224, 225, 226, 227, 228, 229, 230, 231, 232, 233, 234, 235, 236, 237, 238, 239, 240, 241, 242, 243, 244, 245, 246, 247, 248, 249, 250, 251, 252, 253, 254, 255, 256, 257, 258, 259, 260, 261, 262, 263, 264, 265, 266, 267, 268, 269, 270, 271, 272, 273, 274, 275, 276, 277, 278, 279, 280, 281, 282, 283, 284, 285, 286, 287, 288, 289, 290, 291, 292, 293, 294, 295, 296, 297, 298, 299, 300, 301, 302, 303, 304, 305, 306, 307, 308, 309, 310, 311, 312, 313, 314, 315, 316, 317, 318, 319, 320, 321, 322, 323, 324, 325, 326, 327, 328, 329, 330, 331, 332, 333, 334, 335, 336, 337, 338, 339, 340, 341, 342, 343, 344, 345, 346, 347, 348, 349, 350, 351, 352, 353, 354, 355, 356, 357, 358, 359, 360, 361, 362, 363, 364, 365, 366, 367, 368, 369, 370, 371, 372, 373, 374, 375, 376, 377, 378, 379, 380, 381, 382, 383, 384, 385, 386, 387, 388, 389, 390, 391, 392, 393, 394, 395, 396, 397, 398, 399, 400, 401, 402, 403, 404, 405, 406, 407, 408, 409, 410, 411, 412, 413, 414, 415, 416, 417, 418, 419, 420, 421, 422, 423, 424, 425, 426, 427, 428, 429, 430, 431, 432, 433, 434, 435, 436, 437, 438, 439, 440, 441, 442, 443, 444, 445, 446, 447, 448, 449, 450, 451, 452, 453, 454, 455, 456, 457, 458, 459, 460, 461, 462, 463, 464, 465, 466, 467, 468, 469, 470, 471, 472, 473, 474, 475, 476, 477, 478, 479, 480, 481, 482, 483, 484, 485, 486, 487, 488, 489, 490, 491, 492, 493, 494, 495, 496, 497, 498, 499, 500, 501, 502, 503, 504, 505, 506, 507, 508, 509, 510, 511, 512, 513, 514, 515, 516, 517, 518, 519, 520, 521, 522, 523, 524, 525, 526, 527, 528, 529, 530, 531, 532, 533, 534, 535, 536, 537, 538, 539, 540, 541, 542, 543, 544, 545, 546, 547, 548, 549, 550, 551, 552, 553, 554, 555, 556, 557, 558, 559, 560, 561, 562, 563, 564, 565, 566, 567, 568, 569, 570, 571, 572, 573, 574, 575, 576, 577, 578, 579, 580, 581, 582, 583, 584, 585, 586, 587, 588, 589, 590, 591, 592, 593, 594, 595, 596, 597, 598, 599, 600, 601, 602, 603, 604, 605, 606, 607, 608, 609, 610, 611, 612, 613, 614, 615, 616, 617, 618, 619, 620, 621, 622, 623, 624, 625, 626, 627, 628, 629, 630, 631, 632, 633, 634, 635, 636, 637, 638, 639, 640, 641, 642, 643, 644, 645, 646, 647, 648, 649, 650, 651, 652, 653, 654, 655, 656, 657, 658, 659, 660, 661, 662, 663, 664, 665, 666, 667, 668, 669, 670, 671, 672, 673, 674, 675, 676, 677, 678, 679, 680, 681, 682, 683, 684, 685, 686, 687, 688, 689, 690, 691, 692, 693, 694, 695, 696, 697, 698, 699, 700, 701, 702, 703, 704, 705, 706, 707, 708, 709, 710, 711, 712, 713, 714, 715, 716, 717, 718, 719, 720, 721, 722, 723, 724, 725, 726, 727, 728, 729, 730, 731, 732, 733, 734, 735, 736, 737, 738, 739, 740, 741, 742, 743, 744, 745, 746, 747, 748, 749, 750, 751, 752, 753, 754, 755, 756, 757, 758, 759, 760, 761, 762, 763, 764, 765, 766, 767, 768, 769, 770, 771, 772, 773, 774, 775, 776, 777, 778, 779, 780, 781, 782, 783, 784, 785, 786, 787, 788, 789, 790, 791, 792, 793, 794, 795, 796, 797, 798, 799, 800, 801, 802, 803, 804, 805, 806, 807, 808, 809, 810, 811, 812, 813, 814, 815, 816, 817, 818, 819, 820, 821, 822, 823, 824, 825, 826, 827, 828, 829, 830, 831, 832, 833, 834, 835, 836, 837, 838, 839, 840, 841, 842, 843, 844, 845, 846, 847, 848, 849, 850, 851, 852, 853, 854, 855, 856, 857, 858, 859, 860, 861, 862, 863, 864, 865, 866, 867, 868, 869, 870, 871, 872],
      "AcquisitionTime": ["160039.792500", "160040.252500", "160040.712500", "160041.172500", "160041.632500", "160042.092500", "160042.552500", "160043.012500", "160043.472500", "160043.932500", "160044.392500", "160044.852500", "160045.312500", "160045.772500", "160046.232500", "160046.692500", "160047.152500", "160047.612500", "160048.072500", "160048.532500", "160048.992500", "160049.452500", "160049.912500", "160050.372500", "160050.832500", "160051.292500", "160051.752500", "160052.212500", "160052.672500", "160053.132500", "160053.592500", "160054.052500", "160054.512500", "160054.972500", "160055.432500", "160055.892500", "160056.352500", "160056.812500", "160057.272500", "160057.732500", "160058.192500", "160058.652500", "160059.112500", "160059.572500", "160100.032500", "160100.492500", "160100.952500", "160101.412500", "160101.872500", "160102.332500", "160102.792500", "160103.252500", "160103.712500", "160104.172500", "160104.632500", "160105.092500", "160105.552500", "160106.012500", "160106.472500", "160106.932500", "160107.392500", "160107.852500", "160108.312500", "160108.772500", "160109.232500", "160109.692500", "160110.152500", "160110.612500", "160111.072500", "160111.532500", "160111.992500", "160112.452500", "160112.912500", "160113.372500", "160113.832500", "160114.292500", "160114.752500", "160115.212500", "160115.672500", "160116.132500", "160116.592500", "160117.052500", "160117.512500", "160117.972500", "160118.432500", "160118.892500", "160119.352500", "160119.812500", "160120.272500", "160120.732500", "160121.192500", "160121.652500", "160122.112500", "160122.572500", "160123.032500", "160123.492500", "160123.952500", "160124.412500", "160124.872500", "160125.332500", "160125.792500", "160126.252500", "160126.712500", "160127.172500", "160127.632500", "160128.092500", "160128.552500", "160129.012500", "160129.472500", "160129.932500", "160130.392500", "160130.852500", "160131.312500", "160131.772500", "160132.232500", "160132.692500", "160133.152500", "160133.612500", "160134.072500", "160134.532500", "160134.992500", "160135.452500", "160135.912500", "160136.372500", "160136.832500", "160137.292500", "160137.752500", "160138.212500", "160138.672500", "160139.132500", "160139.592500", "160140.052500", "160140.512500", "160140.972500", "160141.432500", "160141.892500", "160142.352500", "160142.812500", "160143.272500", "160143.732500", "160144.192500", "160144.652500", "160145.112500", "160145.572500", "160146.032500", "160146.492500", "160146.952500", "160147.412500", "160147.872500", "160148.332500", "160148.792500", "160149.252500", "160149.712500", "160150.172500", "160150.632500", "160151.092500", "160151.552500", "160152.012500", "160152.472500", "160152.932500", "160153.392500", "160153.852500", "160154.312500", "160154.772500", "160155.232500", "160155.692500", "160156.152500", "160156.612500", "160157.072500", "160157.532500", "160157.992500", "160158.452500", "160158.912500", "160159.372500", "160159.832500", "160200.292500", "160200.752500", "160201.212500", "160201.672500", "160202.132500", "160202.592500", "160203.052500", "160203.512500", "160203.972500", "160204.432500", "160204.892500", "160205.352500", "160205.812500", "160206.272500", "160206.732500", "160207.192500", "160207.652500", "160208.112500", "160208.572500", "160209.032500", "160209.492500", "160209.952500", "160210.412500", "160210.872500", "160211.332500", "160211.792500", "160212.252500", "160212.712500", "160213.172500", "160213.632500", "160214.092500", "160214.552500", "160215.012500", "160215.472500", "160215.932500", "160216.392500", "160216.852500", "160217.312500", "160217.772500", "160218.232500", "160218.692500", "160219.152500", "160219.612500", "160220.072500", "160220.532500", "160220.992500", "160221.452500", "160221.912500", "160222.372500", "160222.832500", "160223.292500", "160223.752500", "160224.212500", "160224.672500", "160225.132500", "160225.592500", "160226.052500", "160226.512500", "160226.972500", "160227.432500", "160227.892500", "160228.352500", "160228.812500", "160229.272500", "160229.732500", "160230.192500", "160230.652500", "160231.112500", "160231.572500", "160232.032500", "160232.492500", "160232.952500", "160233.412500", "160233.872500", "160234.332500", "160234.792500", "160235.252500", "160235.712500", "160236.172500", "160236.632500", "160237.092500", "160237.552500", "160238.012500", "160238.472500", "160238.932500", "160239.392500", "160239.852500", "160240.312500", "160240.772500", "160241.232500", "160241.692500", "160242.152500", "160242.612500", "160243.072500", "160243.532500", "160243.992500", "160244.452500", "160244.912500", "160245.372500", "160245.832500", "160246.292500", "160246.752500", "160247.212500", "160247.672500", "160248.132500", "160248.592500", "160249.052500", "160249.512500", "160249.972500", "160250.432500", "160250.892500", "160251.352500", "160251.812500", "160252.272500", "160252.732500", "160253.192500", "160253.652500", "160254.112500", "160254.572500", "160255.032500", "160255.492500", "160255.952500", "160256.412500", "160256.872500", "160257.332500", "160257.792500", "160258.252500", "160258.712500", "160259.172500", "160259.632500", "160300.092500", "160300.552500", "160301.012500", "160301.472500", "160301.932500", "160302.392500", "160302.852500", "160303.312500", "160303.772500", "160304.232500", "160304.692500", "160305.152500", "160305.612500", "160306.072500", "160306.532500", "160306.992500", "160307.452500", "160307.912500", "160308.372500", "160308.832500", "160309.292500", "160309.752500", "160310.212500", "160310.672500", "160311.132500", "160311.592500", "160312.052500", "160312.512500", "160312.972500", "160313.432500", "160313.892500", "160314.352500", "160314.812500", "160315.272500", "160315.732500", "160316.192500", "160316.652500", "160317.112500", "160317.572500", "160318.032500", "160318.492500", "160318.952500", "160319.412500", "160319.872500", "160320.332500", "160320.792500", "160321.252500", "160321.712500", "160322.172500", "160322.632500", "160323.092500", "160323.552500", "160324.012500", "160324.472500", "160324.932500", "160325.392500", "160325.852500", "160326.312500", "160326.772500", "160327.232500", "160327.692500", "160328.152500", "160328.612500", "160329.072500", "160329.532500", "160329.992500", "160330.452500", "160330.912500", "160331.372500", "160331.832500", "160332.292500", "160332.752500", "160333.212500", "160333.672500", "160334.132500", "160334.592500", "160335.052500", "160335.512500", "160335.972500", "160336.432500", "160336.892500", "160337.352500", "160337.812500", "160338.272500", "160338.732500", "160339.192500", "160339.652500", "160340.112500", "160340.572500", "160341.032500", "160341.492500", "160341.952500", "160342.412500", "160342.872500", "160343.332500", "160343.792500", "160344.252500", "160344.712500", "160345.172500", "160345.632500", "160346.092500", "160346.552500", "160347.012500", "160347.472500", "160347.932500", "160348.392500", "160348.852500", "160349.312500", "160349.772500", "160350.232500", "160350.692500", "160351.152500", "160351.612500", "160352.072500", "160352.532500", "160352.992500", "160353.452500", "160353.912500", "160354.372500", "160354.832500", "160355.292500", "160355.752500", "160356.212500", "160356.672500", "160357.132500", "160357.592500", "160358.052500", "160358.512500", "160358.972500", "160359.432500", "160359.892500", "160400.352500", "160400.812500", "160401.272500", "160401.732500", "160402.192500", "160402.652500", "160403.112500", "160403.572500", "160404.032500", "160404.492500", "160404.952500", "160405.412500", "160405.872500", "160406.332500", "160406.792500", "160407.252500", "160407.712500", "160408.172500", "160408.632500", "160409.092500", "160409.552500", "160410.012500", "160410.472500", "160410.932500", "160411.392500", "160411.852500", "160412.312500", "160412.772500", "160413.232500", "160413.692500", "160414.152500", "160414.612500", "160415.072500", "160415.532500", "160415.992500", "160416.452500", "160416.912500", "160417.372500", "160417.832500", "160418.292500", "160418.752500", "160419.212500", "160419.672500", "160420.132500", "160420.592500", "160421.052500", "160421.512500", "160421.972500", "160422.432500", "160422.892500", "160423.352500", "160423.812500", "160424.272500", "160424.732500", "160425.192500", "160425.652500", "160426.112500", "160426.572500", "160427.032500", "160427.492500", "160427.952500", "160428.412500", "160428.872500", "160429.332500", "160429.792500", "160430.252500", "160430.712500", "160431.172500", "160431.632500", "160432.092500", "160432.552500", "160433.012500", "160433.472500", "160433.932500", "160434.392500", "160434.852500", "160435.312500", "160435.772500", "160436.232500", "160436.692500", "160437.152500", "160437.612500", "160438.072500", "160438.532500", "160438.992500", "160439.452500", "160439.912500", "160440.372500", "160440.832500", "160441.292500", "160441.752500", "160442.212500", "160442.672500", "160443.132500", "160443.592500", "160444.052500", "160444.512500", "160444.972500", "160445.432500", "160445.892500", "160446.352500", "160446.812500", "160447.272500", "160447.732500", "160448.192500", "160448.652500", "160449.112500", "160449.572500", "160450.032500", "160450.492500", "160450.952500", "160451.412500", "160451.872500", "160452.332500", "160452.792500", "160453.252500", "160453.712500", "160454.172500", "160454.632500", "160455.092500", "160455.552500", "160456.012500", "160456.472500", "160456.932500", "160457.392500", "160457.852500", "160458.312500", "160458.772500", "160459.232500", "160459.692500", "160500.152500", "160500.612500", "160501.072500", "160501.532500", "160501.992500", "160502.452500", "160502.912500", "160503.372500", "160503.832500", "160504.292500", "160504.752500", "160505.212500", "160505.672500", "160506.132500", "160506.592500", "160507.052500", "160507.512500", "160507.972500", "160508.432500", "160508.892500", "160509.352500", "160509.812500", "160510.272500", "160510.732500", "160511.192500", "160511.652500", "160512.112500", "160512.572500", "160513.032500", "160513.492500", "160513.952500", "160514.412500", "160514.872500", "160515.332500", "160515.792500", "160516.252500", "160516.712500", "160517.172500", "160517.632500", "160518.092500", "160518.552500", "160519.012500", "160519.472500", "160519.932500", "160520.392500", "160520.852500", "160521.312500", "160521.772500", "160522.232500", "160522.692500", "160523.152500", "160523.612500", "160524.072500", "160524.532500", "160524.992500", "160525.452500", "160525.912500", "160526.372500", "160526.832500", "160527.292500", "160527.752500", "160528.212500", "160528.672500", "160529.132500", "160529.592500", "160530.052500", "160530.512500", "160530.972500", "160531.432500", "160531.892500", "160532.352500", "160532.812500", "160533.272500", "160533.732500", "160534.192500", "160534.652500", "160535.112500", "160535.572500", "160536.032500", "160536.492500", "160536.952500", "160537.412500", "160537.872500", "160538.332500", "160538.792500", "160539.252500", "160539.712500", "160540.172500", "160540.632500", "160541.092500", "160541.552500", "160542.012500", "160542.472500", "160542.932500", "160543.392500", "160543.852500", "160544.312500", "160544.772500", "160545.232500", "160545.692500", "160546.152500", "160546.612500", "160547.072500", "160547.532500", "160547.992500", "160548.452500", "160548.912500", "160549.372500", "160549.832500", "160550.292500", "160550.752500", "160551.212500", "160551.672500", "160552.132500", "160552.592500", "160553.052500", "160553.512500", "160553.972500", "160554.432500", "160554.892500", "160555.352500", "160555.812500", "160556.272500", "160556.732500", "160557.192500", "160557.652500", "160558.112500", "160558.572500", "160559.032500", "160559.492500", "160559.952500", "160600.412500", "160600.872500", "160601.332500", "160601.792500", "160602.252500", "160602.712500", "160603.172500", "160603.632500", "160604.092500", "160604.552500", "160605.012500", "160605.472500", "160605.932500", "160606.392500", "160606.852500", "160607.312500", "160607.772500", "160608.232500", "160608.692500", "160609.152500", "160609.612500", "160610.072500", "160610.532500", "160610.992500", "160611.452500", "160611.912500", "160612.372500", "160612.832500", "160613.292500", "160613.752500", "160614.212500", "160614.672500", "160615.132500", "160615.592500", "160616.052500", "160616.512500", "160616.972500", "160617.432500", "160617.892500", "160618.352500", "160618.812500", "160619.272500", "160619.732500", "160620.192500", "160620.652500", "160621.112500", "160621.572500", "160622.032500", "160622.492500", "160622.952500", "160623.412500", "160623.872500", "160624.332500", "160624.792500", "160625.252500", "160625.712500", "160626.172500", "160626.632500", "160627.092500", "160627.552500", "160628.012500", "160628.472500", "160628.932500", "160629.392500", "160629.852500", "160630.312500", "160630.772500", "160631.232500", "160631.692500", "160632.152500", "160632.612500", "160633.072500", "160633.532500", "160633.992500", "160634.452500", "160634.912500", "160635.372500", "160635.832500", "160636.292500", "160636.752500", "160637.212500", "160637.672500", "160638.132500", "160638.592500", "160639.052500", "160639.512500", "160639.972500", "160640.432500", "160640.892500", "160641.352500", "160641.812500", "160642.272500", "160642.732500", "160643.192500", "160643.652500", "160644.112500", "160644.572500", "160645.032500", "160645.492500", "160645.952500", "160646.412500", "160646.872500", "160647.332500", "160647.792500", "160648.252500", "160648.712500", "160649.172500", "160649.632500", "160650.092500", "160650.552500", "160651.012500", "160651.472500", "160651.932500", "160652.392500", "160652.852500", "160653.312500", "160653.772500", "160654.232500", "160654.692500", "160655.152500", "160655.612500", "160656.072500", "160656.532500", "160656.992500", "160657.452500", "160657.912500", "160658.372500", "160658.832500", "160659.292500", "160659.752500", "160700.212500", "160700.672500", "160701.132500", "160701.592500", "160702.052500", "160702.512500", "160702.972500", "160703.432500", "160703.892500", "160704.352500", "160704.812500", "160705.272500", "160705.732500", "160706.192500", "160706.652500", "160707.112500", "160707.572500", "160708.032500", "160708.492500", "160708.952500", "160709.412500", "160709.872500", "160710.332500", "160710.792500", "160711.252500", "160711.712500", "160712.172500", "160712.632500", "160713.092500", "160713.552500", "160714.012500", "160714.472500", "160714.932500", "160715.392500", "160715.852500", "160716.312500", "160716.772500", "160717.232500", "160717.692500", "160718.152500", "160718.612500", "160719.072500", "160719.532500", "160719.992500", "160720.452500"],
