{
  "AcquisitionMatrixPE": 82,
  "AcquisitionNumber": 1,
  "AcquisitionTime": "09:27:16.740000",
  "BandwidthPerPixelPhaseEncode": 24.888,
  "BaseResolution": 82,
  "BodyPartExamined": "BRAIN",
  "ConsistencyInfo": "N4_VE11C_LATEST_20160120",
  "ConversionSoftware": "dcm2niix",
  "ConversionSoftwareVersion": "v1.0.20201102",
  "DerivedVendorReportedEchoSpacing": 0.00049,
  "DeviceSerialNumber": "66112",
  "DwellTime": 2e-06,
  "EchoTime": 0.0272,
  "EchoTrainLength": 82,
  "EffectiveEchoSpacing": 0.00049,
  "FlipAngle": 44,
  "ImageComments": "Unaliased MB8/PE3",
  "ImageOrientationPatientDICOM": [0.996309, 0.0766261, 0.0386814, -0.0770117, 0.996993, 0.00857628],
  "ImageType": [
    "ORIGINAL",
    "PRIMARY",
    "M",
    "MB",
    "ND",
    "NORM",
    "MOSAIC"
],
  "ImagingFrequency": 123.252,
  "InPlanePhaseEncodingDirectionDICOM": "COL",
  "InstitutionAddress": "Maynard 3,Hanover,NH,US,03755",
  "InstitutionName": "Dartmouth College - PBS",
  "InstitutionalDepartmentName": "Department",
  "MRAcquisitionType": "2D",
  "MagneticFieldStrength": 3,
  "Manufacturer": "Siemens",
  "ManufacturersModelName": "Prisma",
  "Modality": "MR",
  "MultibandAccelerationFactor": 8,
  "PartialFourier": 1,
  "PatientPosition": "HFS",
  "PercentPhaseFOV": 100,
  "PercentSampling": 100,
  "PhaseEncodingDirection": "j-",
  "PhaseEncodingSteps": 82,
  "PhaseResolution": 1,
  "PixelBandwidth": 3050,
  "ProcedureStepDescription": "Wager_Wager^1076_spacetop",
  "ProtocolName": "func_run-05_task-social_acq-ap-mb8",
  "PulseSequenceDetails": "%CustomerSeq%\\cmrr_mbep2d_bold",
  "ReceiveCoilActiveElements": "HEA;HEP",
  "ReceiveCoilName": "Head_32",
  "ReconMatrixPE": 82,
  "RepetitionTime": 0.46,
  "SAR": 0.0823237,
  "ScanOptions": "FS",
  "ScanningSequence": "EP",
  "SequenceName": "epfid2d1_82",
  "SequenceVariant": "SK\\SS",
  "SeriesDescription": "func_run-05_task-social_acq-ap-mb8",
  "SeriesNumber": 12,
  "ShimSetting": [4168, -7724, -7220, 519, 55, -34, -10, 49],
  "SliceThickness": 2.7,
  "SliceTiming": [0, 0.2525, 0.0625, 0.315, 0.125, 0.3775, 0.19, 0, 0.2525, 0.0625, 0.315, 0.125, 0.3775, 0.19, 0, 0.2525, 0.0625, 0.315, 0.125, 0.3775, 0.19, 0, 0.2525, 0.0625, 0.315, 0.125, 0.3775, 0.19, 0, 0.2525, 0.0625, 0.315, 0.125, 0.3775, 0.19, 0, 0.2525, 0.0625, 0.315, 0.125, 0.3775, 0.19, 0, 0.2525, 0.0625, 0.315, 0.125, 0.3775, 0.19, 0, 0.2525, 0.0625, 0.315, 0.125, 0.3775, 0.19],
  "SoftwareVersions": "syngo MR E11",
  "SpacingBetweenSlices": 2.7,
  "StationName": "AWP66112",
  "TaskName": "social",
  "TotalReadoutTime": 0.03969,
  "TxRefAmp": 249.39,
  "WipMemBlock": "9b408b19-1488-4065-b786-33d4a0dd3d0e||Sequence: R016 ve11c/master r/e634e98; Dec 19 2017 11:00:25 by eja",
  "dcmmeta_affine": [
    [-2.673024892807007, -0.20661674439907074, 0.1023513674736023, 124.52884674072266],
    [-0.20558226108551025, 2.6748602390289307, 0.03111356869339943, -90.90364837646484],
    [0.10377932339906693, -0.02300952561199665, 2.6978800296783447, -54.702484130859375],
    [0.0, 0.0, 0.0, 1.0]
],
  "dcmmeta_reorient_transform": [
    [0.0, -1.0, 0.0, 81.0],
    [1.0, 0.0, 0.0, 0.0],
    [0.0, 0.0, 1.0, 0.0],
    [0.0, 0.0, 0.0, 1.0]
],
  "dcmmeta_shape": [82, 82, 56, 872],
  "dcmmeta_slice_dim": 2,
  "dcmmeta_version": 0.6,
  "global": {
    "const": {
      "AccessionNumber": "A003848",
      "AcquisitionMatrix": [82, 0, 0, 82],
      "AngioFlag": "N",
      "BitsAllocated": 16,
      "BitsStored": 16,
      "BodyPartExamined": "BRAIN",
      "Columns": 656,
      "EchoNumbers": 1,
      "EchoTime": 27.2,
      "EchoTrainLength": 82,
      "FlipAngle": 44.0,
      "HighBit": 15,
      "ImageOrientationPatient": [0.99630928394019, 0.07662611428788, 0.03868138239156, -0.0770116933631, 0.99699330316008, 0.00857627770638],
      "ImagePositionPatient": [-815.6520487986, -952.4469941875, -92.95465417017],
      "ImageType": [
        "ORIGINAL",
        "PRIMARY",
        "M",
        "MB",
        "ND",
        "NORM",
        "MOSAIC"
],
      "ImagedNucleus": "1H",
      "ImagingFrequency": 123.252164,
      "InPlanePhaseEncodingDirection": "COL",
      "MRAcquisitionType": "2D",
      "MagneticFieldStrength": 3.0,
      "Manufacturer": "SIEMENS",
      "ManufacturerModelName": "Prisma",
      "Modality": "MR",
      "NumberOfAverages": 1.0,
      "NumberOfPhaseEncodingSteps": 82,
      "PercentPhaseFieldOfView": 100.0,
      "PercentSampling": 100.0,
      "PerformedProcedureStepStartTime": "085514.028000",
      "PhotometricInterpretation": "MONOCHROME2",
      "PixelBandwidth": 3050.0,
      "PixelRepresentation": 0,
      "PixelSpacing": [2.6829268932343, 2.6829268932343],
      "ProtocolName": "func_run-05_task-social_acq-ap-mb8",
      "RepetitionTime": 460.0,
      "Rows": 656,
      "SAR": 0.0823237412772,
      "SamplesPerPixel": 1,
      "ScanOptions": "FS",
      "ScanningSequence": "EP",
      "SequenceName": "epfid2d1_82",
      "SequenceVariant": [
        "SK",
        "SS"
],
      "SeriesDescription": "func_run-05_task-social_acq-ap-mb8",
      "SeriesNumber": 12,
      "SeriesTime": "092745.847000",
      "SliceLocation": -50.986434220148,
      "SliceThickness": 2.7000000476837,
      "SmallestImagePixelValue": 0,
      "SoftwareVersions": "syngo MR E11",
      "SpacingBetweenSlices": 2.7000000641702,
      "SpecificCharacterSet": "ISO_IR 100",
      "StudyID": "3",
      "StudyTime": "085513.926000",
      "TransmitCoilName": "Body",
      "VariableFlipAngleFlag": "N",
      "WindowCenterWidthExplanation": "Algo1",
      "dBdt": 0.0},
    "slices": {}
  },
  "time": {
    "samples": {
      "AcquisitionNumber": [1, 2, 3, 4, 5, 6, 7, 8, 9, 10, 11, 12, 13, 14, 15, 16, 17, 18, 19, 20, 21, 22, 23, 24, 25, 26, 27, 28, 29, 30, 31, 32, 33, 34, 35, 36, 37, 38, 39, 40, 41, 42, 43, 44, 45, 46, 47, 48, 49, 50, 51, 52, 53, 54, 55, 56, 57, 58, 59, 60, 61, 62, 63, 64, 65, 66, 67, 68, 69, 70, 71, 72, 73, 74, 75, 76, 77, 78, 79, 80, 81, 82, 83, 84, 85, 86, 87, 88, 89, 90, 91, 92, 93, 94, 95, 96, 97, 98, 99, 100, 101, 102, 103, 104, 105, 106, 107, 108, 109, 110, 111, 112, 113, 114, 115, 116, 117, 118, 119, 120, 121, 122, 123, 124, 125, 126, 127, 128, 129, 130, 131, 132, 133, 134, 135, 136, 137, 138, 139, 140, 141, 142, 143, 144, 145, 146, 147, 148, 149, 150, 151, 152, 153, 154, 155, 156, 157, 158, 159, 160, 161, 162, 163, 164, 165, 166, 167, 168, 169, 170, 171, 172, 173, 174, 175, 176, 177, 178, 179, 180, 181, 182, 183, 184, 185, 186, 187, 188, 189, 190, 191, 192, 193, 194, 195, 196, 197, 198, 199, 200, 201, 202, 203, 204, 205, 206, 207, 208, 209, 210, 211, 212, 213, 214, 215, 216, 217, 218, 219, 220, 221, 222, 223, 224, 225, 226, 227, 228, 229, 230, 231, 232, 233, 234, 235, 236, 237, 238, 239, 240, 241, 242, 243, 244, 245, 246, 247, 248, 249, 250, 251, 252, 253, 254, 255, 256, 257, 258, 259, 260, 261, 262, 263, 264, 265, 266, 267, 268, 269, 270, 271, 272, 273, 274, 275, 276, 277, 278, 279, 280, 281, 282, 283, 284, 285, 286, 287, 288, 289, 290, 291, 292, 293, 294, 295, 296, 297, 298, 299, 300, 301, 302, 303, 304, 305, 306, 307, 308, 309, 310, 311, 312, 313, 314, 315, 316, 317, 318, 319, 320, 321, 322, 323, 324, 325, 326, 327, 328, 329, 330, 331, 332, 333, 334, 335, 336, 337, 338, 339, 340, 341, 342, 343, 344, 345, 346, 347, 348, 349, 350, 351, 352, 353, 354, 355, 356, 357, 358, 359, 360, 361, 362, 363, 364, 365, 366, 367, 368, 369, 370, 371, 372, 373, 374, 375, 376, 377, 378, 379, 380, 381, 382, 383, 384, 385, 386, 387, 388, 389, 390, 391, 392, 393, 394, 395, 396, 397, 398, 399, 400, 401, 402, 403, 404, 405, 406, 407, 408, 409, 410, 411, 412, 413, 414, 415, 416, 417, 418, 419, 420, 421, 422, 423, 424, 425, 426, 427, 428, 429, 430, 431, 432, 433, 434, 435, 436, 437, 438, 439, 440, 441, 442, 443, 444, 445, 446, 447, 448, 449, 450, 451, 452, 453, 454, 455, 456, 457, 458, 459, 460, 461, 462, 463, 464, 465, 466, 467, 468, 469, 470, 471, 472, 473, 474, 475, 476, 477, 478, 479, 480, 481, 482, 483, 484, 485, 486, 487, 488, 489, 490, 491, 492, 493, 494, 495, 496, 497, 498, 499, 500, 501, 502, 503, 504, 505, 506, 507, 508, 509, 510, 511, 512, 513, 514, 515, 516, 517, 518, 519, 520, 521, 522, 523, 524, 525, 526, 527, 528, 529, 530, 531, 532, 533, 534, 535, 536, 537, 538, 539, 540, 541, 542, 543, 544, 545, 546, 547, 548, 549, 550, 551, 552, 553, 554, 555, 556, 557, 558, 559, 560, 561, 562, 563, 564, 565, 566, 567, 568, 569, 570, 571, 572, 573, 574, 575, 576, 577, 578, 579, 580, 581, 582, 583, 584, 585, 586, 587, 588, 589, 590, 591, 592, 593, 594, 595, 596, 597, 598, 599, 600, 601, 602, 603, 604, 605, 606, 607, 608, 609, 610, 611, 612, 613, 614, 615, 616, 617, 618, 619, 620, 621, 622, 623, 624, 625, 626, 627, 628, 629, 630, 631, 632, 633, 634, 635, 636, 637, 638, 639, 640, 641, 642, 643, 644, 645, 646, 647, 648, 649, 650, 651, 652, 653, 654, 655, 656, 657, 658, 659, 660, 661, 662, 663, 664, 665, 666, 667, 668, 669, 670, 671, 672, 673, 674, 675, 676, 677, 678, 679, 680, 681, 682, 683, 684, 685, 686, 687, 688, 689, 690, 691, 692, 693, 694, 695, 696, 697, 698, 699, 700, 701, 702, 703, 704, 705, 706, 707, 708, 709, 710, 711, 712, 713, 714, 715, 716, 717, 718, 719, 720, 721, 722, 723, 724, 725, 726, 727, 728, 729, 730, 731, 732, 733, 734, 735, 736, 737, 738, 739, 740, 741, 742, 743, 744, 745, 746, 747, 748, 749, 750, 751, 752, 753, 754, 755, 756, 757, 758, 759, 760, 761, 762, 763, 764, 765, 766, 767, 768, 769, 770, 771, 772, 773, 774, 775, 776, 777, 778, 779, 780, 781, 782, 783, 784, 785, 786, 787, 788, 789, 790, 791, 792, 793, 794, 795, 796, 797, 798, 799, 800, 801, 802, 803, 804, 805, 806, 807, 808, 809, 810, 811, 812, 813, 814, 815, 816, 817, 818, 819, 820, 821, 822, 823, 824, 825, 826, 827, 828, 829, 830, 831, 832, 833, 834, 835, 836, 837, 838, 839, 840, 841, 842, 843, 844, 845, 846, 847, 848, 849, 850, 851, 852, 853, 854, 855, 856, 857, 858, 859, 860, 861, 862, 863, 864, 865, 866, 867, 868, 869, 870, 871, 872],
      "AcquisitionTime": ["092716.740000", "092717.200000", "092717.660000", "092718.120000", "092718.580000", "092719.040000", "092719.500000", "092719.960000", "092720.420000", "092720.880000", "092721.340000", "092721.800000", "092722.260000", "092722.720000", "092723.180000", "092723.640000", "092724.100000", "092724.560000", "092725.020000", "092725.480000", "092725.940000", "092726.400000", "092726.860000", "092727.320000", "092727.780000", "092728.240000", "092728.700000", "092729.160000", "092729.620000", "092730.080000", "092730.540000", "092731.000000", "092731.460000", "092731.920000", "092732.380000", "092732.840000", "092733.300000", "092733.760000", "092734.220000", "092734.680000", "092735.140000", "092735.600000", "092736.060000", "092736.520000", "092736.980000", "092737.440000", "092737.900000", "092738.360000", "092738.820000", "092739.280000", "092739.740000", "092740.200000", "092740.660000", "092741.120000", "092741.580000", "092742.040000", "092742.500000", "092742.960000", "092743.420000", "092743.880000", "092744.340000", "092744.800000", "092745.260000", "092745.720000", "092746.180000", "092746.640000", "092747.100000", "092747.560000", "092748.020000", "092748.480000", "092748.940000", "092749.400000", "092749.860000", "092750.320000", "092750.780000", "092751.240000", "092751.700000", "092752.160000", "092752.620000", "092753.080000", "092753.540000", "092754.000000", "092754.460000", "092754.920000", "092755.380000", "092755.840000", "092756.300000", "092756.760000", "092757.220000", "092757.680000", "092758.140000", "092758.600000", "092759.060000", "092759.520000", "092759.980000", "092800.440000", "092800.900000", "092801.360000", "092801.820000", "092802.280000", "092802.740000", "092803.200000", "092803.660000", "092804.120000", "092804.580000", "092805.040000", "092805.500000", "092805.960000", "092806.420000", "092806.880000", "092807.340000", "092807.800000", "092808.260000", "092808.720000", "092809.180000", "092809.640000", "092810.100000", "092810.560000", "092811.020000", "092811.480000", "092811.940000", "092812.400000", "092812.860000", "092813.320000", "092813.780000", "092814.240000", "092814.700000", "092815.160000", "092815.620000", "092816.080000", "092816.540000", "092817.000000", "092817.460000", "092817.920000", "092818.380000", "092818.840000", "092819.300000", "092819.760000", "092820.220000", "092820.680000", "092821.140000", "092821.600000", "092822.060000", "092822.520000", "092822.980000", "092823.440000", "092823.900000", "092824.360000", "092824.820000", "092825.280000", "092825.740000", "092826.200000", "092826.660000", "092827.120000", "092827.580000", "092828.040000", "092828.500000", "092828.960000", "092829.420000", "092829.880000", "092830.340000", "092830.800000", "092831.260000", "092831.720000", "092832.180000", "092832.640000", "092833.100000", "092833.560000", "092834.020000", "092834.480000", "092834.940000", "092835.400000", "092835.860000", "092836.320000", "092836.780000", "092837.240000", "092837.700000", "092838.160000", "092838.620000", "092839.080000", "092839.540000", "092840.000000", "092840.460000", "092840.920000", "092841.380000", "092841.840000", "092842.300000", "092842.760000", "092843.220000", "092843.680000", "092844.140000", "092844.600000", "092845.060000", "092845.520000", "092845.980000", "092846.440000", "092846.900000", "092847.360000", "092847.820000", "092848.280000", "092848.740000", "092849.200000", "092849.660000", "092850.120000", "092850.580000", "092851.040000", "092851.500000", "092851.960000", "092852.420000", "092852.880000", "092853.340000", "092853.800000", "092854.260000", "092854.720000", "092855.180000", "092855.640000", "092856.100000", "092856.560000", "092857.020000", "092857.480000", "092857.940000", "092858.400000", "092858.860000", "092859.320000", "092859.780000", "092900.240000", "092900.700000", "092901.160000", "092901.620000", "092902.080000", "092902.540000", "092903.000000", "092903.460000", "092903.920000", "092904.380000", "092904.840000", "092905.300000", "092905.760000", "092906.220000", "092906.680000", "092907.140000", "092907.600000", "092908.060000", "092908.520000", "092908.980000", "092909.440000", "092909.900000", "092910.360000", "092910.820000", "092911.280000", "092911.740000", "092912.200000", "092912.660000", "092913.120000", "092913.580000", "092914.040000", "092914.500000", "092914.960000", "092915.420000", "092915.880000", "092916.340000", "092916.800000", "092917.260000", "092917.720000", "092918.180000", "092918.640000", "092919.100000", "092919.560000", "092920.020000", "092920.480000", "092920.940000", "092921.400000", "092921.860000", "092922.320000", "092922.780000", "092923.240000", "092923.700000", "092924.160000", "092924.620000", "092925.080000", "092925.540000", "092926.000000", "092926.460000", "092926.920000", "092927.380000", "092927.840000", "092928.300000", "092928.760000", "092929.220000", "092929.680000", "092930.140000", "092930.600000", "092931.060000", "092931.520000", "092931.980000", "092932.440000", "092932.900000", "092933.360000", "092933.820000", "092934.280000", "092934.740000", "092935.200000", "092935.660000", "092936.120000", "092936.580000", "092937.040000", "092937.500000", "092937.960000", "092938.420000", "092938.880000", "092939.340000", "092939.800000", "092940.260000", "092940.720000", "092941.180000", "092941.640000", "092942.100000", "092942.560000", "092943.020000", "092943.480000", "092943.940000", "092944.400000", "092944.860000", "092945.320000", "092945.780000", "092946.240000", "092946.700000", "092947.160000", "092947.620000", "092948.080000", "092948.540000", "092949.000000", "092949.460000", "092949.920000", "092950.380000", "092950.840000", "092951.300000", "092951.760000", "092952.220000", "092952.680000", "092953.140000", "092953.600000", "092954.060000", "092954.520000", "092954.980000", "092955.440000", "092955.900000", "092956.360000", "092956.820000", "092957.280000", "092957.740000", "092958.200000", "092958.660000", "092959.120000", "092959.580000", "093000.040000", "093000.500000", "093000.960000", "093001.420000", "093001.880000", "093002.340000", "093002.800000", "093003.260000", "093003.720000", "093004.180000", "093004.640000", "093005.100000", "093005.560000", "093006.020000", "093006.480000", "093006.940000", "093007.400000", "093007.860000", "093008.320000", "093008.780000", "093009.240000", "093009.700000", "093010.160000", "093010.620000", "093011.080000", "093011.540000", "093012.000000", "093012.460000", "093012.920000", "093013.380000", "093013.840000", "093014.300000", "093014.760000", "093015.220000", "093015.680000", "093016.140000", "093016.600000", "093017.060000", "093017.520000", "093017.980000", "093018.440000", "093018.900000", "093019.360000", "093019.820000", "093020.280000", "093020.740000", "093021.200000", "093021.660000", "093022.120000", "093022.580000", "093023.040000", "093023.500000", "093023.960000", "093024.420000", "093024.880000", "093025.340000", "093025.800000", "093026.260000", "093026.720000", "093027.180000", "093027.640000", "093028.100000", "093028.560000", "093029.020000", "093029.480000", "093029.940000", "093030.400000", "093030.860000", "093031.320000", "093031.780000", "093032.240000", "093032.700000", "093033.160000", "093033.620000", "093034.080000", "093034.540000", "093035.000000", "093035.460000", "093035.920000", "093036.380000", "093036.840000", "093037.300000", "093037.760000", "093038.220000", "093038.680000", "093039.140000", "093039.600000", "093040.060000", "093040.520000", "093040.980000", "093041.440000", "093041.900000", "093042.360000", "093042.820000", "093043.280000", "093043.740000", "093044.200000", "093044.660000", "093045.120000", "093045.580000", "093046.040000", "093046.500000", "093046.960000", "093047.420000", "093047.880000", "093048.340000", "093048.800000", "093049.260000", "093049.720000", "093050.180000", "093050.640000", "093051.100000", "093051.560000", "093052.020000", "093052.480000", "093052.940000", "093053.400000", "093053.860000", "093054.320000", "093054.780000", "093055.240000", "093055.700000", "093056.160000", "093056.620000", "093057.080000", "093057.540000", "093058.000000", "093058.460000", "093058.920000", "093059.380000", "093059.840000", "093100.300000", "093100.760000", "093101.220000", "093101.680000", "093102.140000", "093102.600000", "093103.060000", "093103.520000", "093103.980000", "093104.440000", "093104.900000", "093105.360000", "093105.820000", "093106.280000", "093106.740000", "093107.200000", "093107.660000", "093108.120000", "093108.580000", "093109.040000", "093109.500000", "093109.960000", "093110.420000", "093110.880000", "093111.340000", "093111.800000", "093112.260000", "093112.720000", "093113.180000", "093113.640000", "093114.100000", "093114.560000", "093115.020000", "093115.480000", "093115.940000", "093116.400000", "093116.860000", "093117.320000", "093117.780000", "093118.240000", "093118.700000", "093119.160000", "093119.620000", "093120.080000", "093120.540000", "093121.000000", "093121.460000", "093121.920000", "093122.380000", "093122.840000", "093123.300000", "093123.760000", "093124.220000", "093124.680000", "093125.140000", "093125.600000", "093126.060000", "093126.520000", "093126.980000", "093127.440000", "093127.900000", "093128.360000", "093128.820000", "093129.280000", "093129.740000", "093130.200000", "093130.660000", "093131.120000", "093131.580000", "093132.040000", "093132.500000", "093132.960000", "093133.420000", "093133.880000", "093134.340000", "093134.800000", "093135.260000", "093135.720000", "093136.180000", "093136.640000", "093137.100000", "093137.560000", "093138.020000", "093138.480000", "093138.940000", "093139.400000", "093139.860000", "093140.320000", "093140.780000", "093141.240000", "093141.700000", "093142.160000", "093142.620000", "093143.080000", "093143.540000", "093144.000000", "093144.460000", "093144.920000", "093145.380000", "093145.840000", "093146.300000", "093146.760000", "093147.220000", "093147.680000", "093148.140000", "093148.600000", "093149.060000", "093149.520000", "093149.980000", "093150.440000", "093150.900000", "093151.360000", "093151.820000", "093152.280000", "093152.740000", "093153.200000", "093153.660000", "093154.120000", "093154.580000", "093155.040000", "093155.500000", "093155.960000", "093156.420000", "093156.880000", "093157.340000", "093157.800000", "093158.260000", "093158.720000", "093159.180000", "093159.640000", "093200.100000", "093200.560000", "093201.020000", "093201.480000", "093201.940000", "093202.400000", "093202.860000", "093203.320000", "093203.780000", "093204.240000", "093204.700000", "093205.160000", "093205.620000", "093206.080000", "093206.540000", "093207.000000", "093207.460000", "093207.920000", "093208.380000", "093208.840000", "093209.300000", "093209.760000", "093210.220000", "093210.680000", "093211.140000", "093211.600000", "093212.060000", "093212.520000", "093212.980000", "093213.440000", "093213.900000", "093214.360000", "093214.820000", "093215.280000", "093215.740000", "093216.200000", "093216.660000", "093217.120000", "093217.580000", "093218.040000", "093218.500000", "093218.960000", "093219.420000", "093219.880000", "093220.340000", "093220.800000", "093221.260000", "093221.720000", "093222.180000", "093222.640000", "093223.100000", "093223.560000", "093224.020000", "093224.480000", "093224.940000", "093225.400000", "093225.860000", "093226.320000", "093226.780000", "093227.240000", "093227.700000", "093228.160000", "093228.620000", "093229.080000", "093229.540000", "093230.000000", "093230.460000", "093230.920000", "093231.380000", "093231.840000", "093232.300000", "093232.760000", "093233.220000", "093233.680000", "093234.140000", "093234.600000", "093235.060000", "093235.520000", "093235.980000", "093236.440000", "093236.900000", "093237.360000", "093237.820000", "093238.280000", "093238.740000", "093239.200000", "093239.660000", "093240.120000", "093240.580000", "093241.040000", "093241.500000", "093241.960000", "093242.420000", "093242.880000", "093243.340000", "093243.800000", "093244.260000", "093244.720000", "093245.180000", "093245.640000", "093246.100000", "093246.560000", "093247.020000", "093247.480000", "093247.940000", "093248.400000", "093248.860000", "093249.320000", "093249.780000", "093250.240000", "093250.700000", "093251.160000", "093251.620000", "093252.080000", "093252.540000", "093253.000000", "093253.460000", "093253.920000", "093254.380000", "093254.840000", "093255.300000", "093255.760000", "093256.220000", "093256.680000", "093257.140000", "093257.600000", "093258.060000", "093258.520000", "093258.980000", "093259.440000", "093259.900000", "093300.360000", "093300.820000", "093301.280000", "093301.740000", "093302.200000", "093302.660000", "093303.120000", "093303.580000", "093304.040000", "093304.500000", "093304.960000", "093305.420000", "093305.880000", "093306.340000", "093306.800000", "093307.260000", "093307.720000", "093308.180000", "093308.640000", "093309.100000", "093309.560000", "093310.020000", "093310.480000", "093310.940000", "093311.400000", "093311.860000", "093312.320000", "093312.780000", "093313.240000", "093313.700000", "093314.160000", "093314.620000", "093315.080000", "093315.540000", "093316.000000", "093316.460000", "093316.920000", "093317.380000", "093317.840000", "093318.300000", "093318.760000", "093319.220000", "093319.680000", "093320.140000", "093320.600000", "093321.060000", "093321.520000", "093321.980000", "093322.440000", "093322.900000", "093323.360000", "093323.820000", "093324.280000", "093324.740000", "093325.200000", "093325.660000", "093326.120000", "093326.580000", "093327.040000", "093327.500000", "093327.960000", "093328.420000", "093328.880000", "093329.340000", "093329.800000", "093330.260000", "093330.720000", "093331.180000", "093331.640000", "093332.100000", "093332.560000", "093333.020000", "093333.480000", "093333.940000", "093334.400000", "093334.860000", "093335.320000", "093335.780000", "093336.240000", "093336.700000", "093337.160000", "093337.620000", "093338.080000", "093338.540000", "093339.000000", "093339.460000", "093339.920000", "093340.380000", "093340.840000", "093341.300000", "093341.760000", "093342.220000", "093342.680000", "093343.140000", "093343.600000", "093344.060000", "093344.520000", "093344.980000", "093345.440000", "093345.900000", "093346.360000", "093346.820000", "093347.280000", "093347.740000", "093348.200000", "093348.660000", "093349.120000", "093349.580000", "093350.040000", "093350.500000", "093350.960000", "093351.420000", "093351.880000", "093352.340000", "093352.800000", "093353.260000", "093353.720000", "093354.180000", "093354.640000", "093355.100000", "093355.560000", "093356.020000", "093356.480000", "093356.940000", "093357.400000"],
