{
  "AcquisitionMatrixPE": 82,
  "AcquisitionNumber": 1,
  "AcquisitionTime": "10:17:32.145000",
  "BandwidthPerPixelPhaseEncode": 24.888,
  "BaseResolution": 82,
  "BodyPartExamined": "BRAIN",
  "ConsistencyInfo": "N4_VE11C_LATEST_20160120",
  "ConversionSoftware": "dcm2niix",
  "ConversionSoftwareVersion": "v1.0.20201102",
  "DerivedVendorReportedEchoSpacing": 0.00049,
  "DeviceSerialNumber": "66112",
  "DwellTime": 2e-06,
  "EchoTime": 0.0272,
  "EchoTrainLength": 82,
  "EffectiveEchoSpacing": 0.00049,
  "FlipAngle": 44,
  "ImageComments": "Unaliased MB8/PE3",
  "ImageOrientationPatientDICOM": [0.997982, 0.0631513, 0.00656355, -0.0626129, 0.996038, -0.0631531],
  "ImageType": [
    "ORIGINAL",
    "PRIMARY",
    "M",
    "MB",
    "ND",
    "NORM",
    "MOSAIC"
],
  "ImagingFrequency": 123.252,
  "InPlanePhaseEncodingDirectionDICOM": "COL",
  "InstitutionAddress": "Maynard 3,Hanover,NH,US,03755",
  "InstitutionName": "Dartmouth College - PBS",
  "InstitutionalDepartmentName": "Department",
  "MRAcquisitionType": "2D",
  "MagneticFieldStrength": 3,
  "Manufacturer": "Siemens",
  "ManufacturersModelName": "Prisma",
  "Modality": "MR",
  "MultibandAccelerationFactor": 8,
  "PartialFourier": 1,
  "PatientPosition": "HFS",
  "PercentPhaseFOV": 100,
  "PercentSampling": 100,
  "PhaseEncodingDirection": "j-",
  "PhaseEncodingSteps": 82,
  "PhaseResolution": 1,
  "PixelBandwidth": 3050,
  "ProcedureStepDescription": "Wager_Wager^1076_spacetop",
  "ProtocolName": "func_run-03_task-alignvideo_acq-ap-mb8",
  "PulseSequenceDetails": "%CustomerSeq%\\cmrr_mbep2d_bold",
  "ReceiveCoilActiveElements": "HEA;HEP",
  "ReceiveCoilName": "Head_32",
  "ReconMatrixPE": 82,
  "RepetitionTime": 0.46,
  "SAR": 0.0824166,
  "ScanOptions": "FS",
  "ScanningSequence": "EP",
  "SequenceName": "epfid2d1_82",
  "SequenceVariant": "SK\\SS",
  "SeriesDescription": "func_run-03_task-alignvideo_acq-ap-mb8",
  "SeriesNumber": 28,
  "ShimSetting": [4168, -7723, -7212, 542, 51, -24, -14, 51],
  "SliceThickness": 2.7,
  "SliceTiming": [0, 0.25, 0.0625, 0.3125, 0.125, 0.375, 0.1875, 0, 0.25, 0.0625, 0.3125, 0.125, 0.375, 0.1875, 0, 0.25, 0.0625, 0.3125, 0.125, 0.375, 0.1875, 0, 0.25, 0.0625, 0.3125, 0.125, 0.375, 0.1875, 0, 0.25, 0.0625, 0.3125, 0.125, 0.375, 0.1875, 0, 0.25, 0.0625, 0.3125, 0.125, 0.375, 0.1875, 0, 0.25, 0.0625, 0.3125, 0.125, 0.375, 0.1875, 0, 0.25, 0.0625, 0.3125, 0.125, 0.375, 0.1875],
  "SoftwareVersions": "syngo MR E11",
  "SpacingBetweenSlices": 2.7,
  "StationName": "AWP66112",
  "TaskName": "alignvideo",
  "TotalReadoutTime": 0.03969,
  "TxRefAmp": 249.39,
  "WipMemBlock": "eeecdb4c-a5c6-4999-a7a2-8459987d2da8||Sequence: R016 ve11c/master r/e634e98; Dec 19 2017 11:00:25 by eja",
  "dcmmeta_affine": [
    [-2.677513837814331, -0.16798582673072815, 0.028419507667422295, 126.04483032226562],
    [-0.16943031549453735, 2.6722965240478516, -0.169059619307518, -88.303955078125],
    [0.017609531059861183, 0.1694350391626358, 2.694552183151245, -57.42823791503906],
    [0.0, 0.0, 0.0, 1.0]
],
  "dcmmeta_reorient_transform": [
    [0.0, -1.0, 0.0, 81.0],
    [1.0, 0.0, 0.0, 0.0],
    [0.0, 0.0, 1.0, 0.0],
    [0.0, 0.0, 0.0, 1.0]
],
  "dcmmeta_shape": [82, 82, 56, 1065],
  "dcmmeta_slice_dim": 2,
  "dcmmeta_version": 0.6,
  "global": {
    "const": {
      "AccessionNumber": "A003848",
      "AcquisitionMatrix": [82, 0, 0, 82],
      "AngioFlag": "N",
      "BitsAllocated": 16,
      "BitsStored": 16,
      "BodyPartExamined": "BRAIN",
      "Columns": 656,
      "EchoNumbers": 1,
      "EchoTime": 27.2,
      "EchoTrainLength": 82,
      "FlipAngle": 44.0,
      "HighBit": 15,
      "ImageOrientationPatient": [0.99798238141682, 0.0631512958439, 0.00656355199936, -0.0626128989048, 0.99603780868192, -0.0631530566707],
      "ImagePositionPatient": [-832.67249413808, -943.72770102821, -0.1300791537869],
      "ImageType": [
        "ORIGINAL",
        "PRIMARY",
        "M",
        "MB",
        "ND",
        "NORM",
        "MOSAIC"
],
      "ImagedNucleus": "1H",
      "ImagingFrequency": 123.252177,
      "InPlanePhaseEncodingDirection": "COL",
      "MRAcquisitionType": "2D",
      "MagneticFieldStrength": 3.0,
      "Manufacturer": "SIEMENS",
      "ManufacturerModelName": "Prisma",
      "Modality": "MR",
      "NumberOfAverages": 1.0,
      "NumberOfPhaseEncodingSteps": 82,
      "PercentPhaseFieldOfView": 100.0,
      "PercentSampling": 100.0,
      "PerformedProcedureStepStartTime": "085514.028000",
      "PhotometricInterpretation": "MONOCHROME2",
      "PixelBandwidth": 3050.0,
      "PixelRepresentation": 0,
      "PixelSpacing": [2.6829268932343, 2.6829268932343],
      "ProtocolName": "func_run-03_task-alignvideo_acq-ap-mb8",
      "RepetitionTime": 460.0,
      "Rows": 656,
      "SAR": 0.08241660593864,
      "SamplesPerPixel": 1,
      "ScanOptions": "FS",
      "ScanningSequence": "EP",
      "SequenceName": "epfid2d1_82",
      "SequenceVariant": [
        "SK",
        "SS"
],
      "SeriesDescription": "func_run-03_task-alignvideo_acq-ap-mb8",
      "SeriesNumber": 28,
      "SeriesTime": "101745.778000",
      "SliceLocation": -50.456522917491,
      "SliceThickness": 2.7000000476837,
      "SmallestImagePixelValue": 0,
      "SoftwareVersions": "syngo MR E11",
      "SpacingBetweenSlices": 2.6999999971386,
      "SpecificCharacterSet": "ISO_IR 100",
      "StudyID": "3",
      "StudyTime": "085513.926000",
      "TransmitCoilName": "Body",
      "VariableFlipAngleFlag": "N",
      "WindowCenterWidthExplanation": "Algo1",
      "dBdt": 0.0},
    "slices": {}
  },
  "time": {
    "samples": {
      "AcquisitionNumber": [1, 2, 3, 4, 5, 6, 7, 8, 9, 10, 11, 12, 13, 14, 15, 16, 17, 18, 19, 20, 21, 22, 23, 24, 25, 26, 27, 28, 29, 30, 31, 32, 33, 34, 35, 36, 37, 38, 39, 40, 41, 42, 43, 44, 45, 46, 47, 48, 49, 50, 51, 52, 53, 54, 55, 56, 57, 58, 59, 60, 61, 62, 63, 64, 65, 66, 67, 68, 69, 70, 71, 72, 73, 74, 75, 76, 77, 78, 79, 80, 81, 82, 83, 84, 85, 86, 87, 88, 89, 90, 91, 92, 93, 94, 95, 96, 97, 98, 99, 100, 101, 102, 103, 104, 105, 106, 107, 108, 109, 110, 111, 112, 113, 114, 115, 116, 117, 118, 119, 120, 121, 122, 123, 124, 125, 126, 127, 128, 129, 130, 131, 132, 133, 134, 135, 136, 137, 138, 139, 140, 141, 142, 143, 144, 145, 146, 147, 148, 149, 150, 151, 152, 153, 154, 155, 156, 157, 158, 159, 160, 161, 162, 163, 164, 165, 166, 167, 168, 169, 170, 171, 172, 173, 174, 175, 176, 177, 178, 179, 180, 181, 182, 183, 184, 185, 186, 187, 188, 189, 190, 191, 192, 193, 194, 195, 196, 197, 198, 199, 200, 201, 202, 203, 204, 205, 206, 207, 208, 209, 210, 211, 212, 213, 214, 215, 216, 217, 218, 219, 220, 221, 222, 223, 224, 225, 226, 227, 228, 229, 230, 231, 232, 233, 234, 235, 236, 237, 238, 239, 240, 241, 242, 243, 244, 245, 246, 247, 248, 249, 250, 251, 252, 253, 254, 255, 256, 257, 258, 259, 260, 261, 262, 263, 264, 265, 266, 267, 268, 269, 270, 271, 272, 273, 274, 275, 276, 277, 278, 279, 280, 281, 282, 283, 284, 285, 286, 287, 288, 289, 290, 291, 292, 293, 294, 295, 296, 297, 298, 299, 300, 301, 302, 303, 304, 305, 306, 307, 308, 309, 310, 311, 312, 313, 314, 315, 316, 317, 318, 319, 320, 321, 322, 323, 324, 325, 326, 327, 328, 329, 330, 331, 332, 333, 334, 335, 336, 337, 338, 339, 340, 341, 342, 343, 344, 345, 346, 347, 348, 349, 350, 351, 352, 353, 354, 355, 356, 357, 358, 359, 360, 361, 362, 363, 364, 365, 366, 367, 368, 369, 370, 371, 372, 373, 374, 375, 376, 377, 378, 379, 380, 381, 382, 383, 384, 385, 386, 387, 388, 389, 390, 391, 392, 393, 394, 395, 396, 397, 398, 399, 400, 401, 402, 403, 404, 405, 406, 407, 408, 409, 410, 411, 412, 413, 414, 415, 416, 417, 418, 419, 420, 421, 422, 423, 424, 425, 426, 427, 428, 429, 430, 431, 432, 433, 434, 435, 436, 437, 438, 439, 440, 441, 442, 443, 444, 445, 446, 447, 448, 449, 450, 451, 452, 453, 454, 455, 456, 457, 458, 459, 460, 461, 462, 463, 464, 465, 466, 467, 468, 469, 470, 471, 472, 473, 474, 475, 476, 477, 478, 479, 480, 481, 482, 483, 484, 485, 486, 487, 488, 489, 490, 491, 492, 493, 494, 495, 496, 497, 498, 499, 500, 501, 502, 503, 504, 505, 506, 507, 508, 509, 510, 511, 512, 513, 514, 515, 516, 517, 518, 519, 520, 521, 522, 523, 524, 525, 526, 527, 528, 529, 530, 531, 532, 533, 534, 535, 536, 537, 538, 539, 540, 541, 542, 543, 544, 545, 546, 547, 548, 549, 550, 551, 552, 553, 554, 555, 556, 557, 558, 559, 560, 561, 562, 563, 564, 565, 566, 567, 568, 569, 570, 571, 572, 573, 574, 575, 576, 577, 578, 579, 580, 581, 582, 583, 584, 585, 586, 587, 588, 589, 590, 591, 592, 593, 594, 595, 596, 597, 598, 599, 600, 601, 602, 603, 604, 605, 606, 607, 608, 609, 610, 611, 612, 613, 614, 615, 616, 617, 618, 619, 620, 621, 622, 623, 624, 625, 626, 627, 628, 629, 630, 631, 632, 633, 634, 635, 636, 637, 638, 639, 640, 641, 642, 643, 644, 645, 646, 647, 648, 649, 650, 651, 652, 653, 654, 655, 656, 657, 658, 659, 660, 661, 662, 663, 664, 665, 666, 667, 668, 669, 670, 671, 672, 673, 674, 675, 676, 677, 678, 679, 680, 681, 682, 683, 684, 685, 686, 687, 688, 689, 690, 691, 692, 693, 694, 695, 696, 697, 698, 699, 700, 701, 702, 703, 704, 705, 706, 707, 708, 709, 710, 711, 712, 713, 714, 715, 716, 717, 718, 719, 720, 721, 722, 723, 724, 725, 726, 727, 728, 729, 730, 731, 732, 733, 734, 735, 736, 737, 738, 739, 740, 741, 742, 743, 744, 745, 746, 747, 748, 749, 750, 751, 752, 753, 754, 755, 756, 757, 758, 759, 760, 761, 762, 763, 764, 765, 766, 767, 768, 769, 770, 771, 772, 773, 774, 775, 776, 777, 778, 779, 780, 781, 782, 783, 784, 785, 786, 787, 788, 789, 790, 791, 792, 793, 794, 795, 796, 797, 798, 799, 800, 801, 802, 803, 804, 805, 806, 807, 808, 809, 810, 811, 812, 813, 814, 815, 816, 817, 818, 819, 820, 821, 822, 823, 824, 825, 826, 827, 828, 829, 830, 831, 832, 833, 834, 835, 836, 837, 838, 839, 840, 841, 842, 843, 844, 845, 846, 847, 848, 849, 850, 851, 852, 853, 854, 855, 856, 857, 858, 859, 860, 861, 862, 863, 864, 865, 866, 867, 868, 869, 870, 871, 872, 873, 874, 875, 876, 877, 878, 879, 880, 881, 882, 883, 884, 885, 886, 887, 888, 889, 890, 891, 892, 893, 894, 895, 896, 897, 898, 899, 900, 901, 902, 903, 904, 905, 906, 907, 908, 909, 910, 911, 912, 913, 914, 915, 916, 917, 918, 919, 920, 921, 922, 923, 924, 925, 926, 927, 928, 929, 930, 931, 932, 933, 934, 935, 936, 937, 938, 939, 940, 941, 942, 943, 944, 945, 946, 947, 948, 949, 950, 951, 952, 953, 954, 955, 956, 957, 958, 959, 960, 961, 962, 963, 964, 965, 966, 967, 968, 969, 970, 971, 972, 973, 974, 975, 976, 977, 978, 979, 980, 981, 982, 983, 984, 985, 986, 987, 988, 989, 990, 991, 992, 993, 994, 995, 996, 997, 998, 999, 1000, 1001, 1002, 1003, 1004, 1005, 1006, 1007, 1008, 1009, 1010, 1011, 1012, 1013, 1014, 1015, 1016, 1017, 1018, 1019, 1020, 1021, 1022, 1023, 1024, 1025, 1026, 1027, 1028, 1029, 1030, 1031, 1032, 1033, 1034, 1035, 1036, 1037, 1038, 1039, 1040, 1041, 1042, 1043, 1044, 1045, 1046, 1047, 1048, 1049, 1050, 1051, 1052, 1053, 1054, 1055, 1056, 1057, 1058, 1059, 1060, 1061, 1062, 1063, 1064, 1065],
      "AcquisitionTime": ["101732.145000", "101732.605000", "101733.065000", "101733.525000", "101733.985000", "101734.445000", "101734.905000", "101735.365000", "101735.825000", "101736.285000", "101736.745000", "101737.205000", "101737.665000", "101738.125000", "101738.585000", "101739.045000", "101739.505000", "101739.965000", "101740.425000", "101740.885000", "101741.345000", "101741.805000", "101742.265000", "101742.725000", "101743.185000", "101743.645000", "101744.105000", "101744.565000", "101745.025000", "101745.485000", "101745.945000", "101746.405000", "101746.865000", "101747.325000", "101747.785000", "101748.245000", "101748.705000", "101749.165000", "101749.625000", "101750.085000", "101750.545000", "101751.005000", "101751.465000", "101751.925000", "101752.385000", "101752.845000", "101753.305000", "101753.765000", "101754.225000", "101754.685000", "101755.145000", "101755.605000", "101756.065000", "101756.525000", "101756.985000", "101757.445000", "101757.905000", "101758.365000", "101758.825000", "101759.285000", "101759.745000", "101800.205000", "101800.665000", "101801.125000", "101801.585000", "101802.045000", "101802.505000", "101802.965000", "101803.425000", "101803.885000", "101804.345000", "101804.805000", "101805.265000", "101805.725000", "101806.185000", "101806.645000", "101807.105000", "101807.565000", "101808.025000", "101808.485000", "101808.945000", "101809.405000", "101809.865000", "101810.325000", "101810.785000", "101811.245000", "101811.705000", "101812.165000", "101812.625000", "101813.085000", "101813.545000", "101814.005000", "101814.465000", "101814.925000", "101815.385000", "101815.845000", "101816.305000", "101816.765000", "101817.225000", "101817.685000", "101818.145000", "101818.605000", "101819.065000", "101819.525000", "101819.985000", "101820.445000", "101820.905000", "101821.365000", "101821.825000", "101822.285000", "101822.745000", "101823.205000", "101823.665000", "101824.125000", "101824.585000", "101825.045000", "101825.505000", "101825.965000", "101826.425000", "101826.885000", "101827.345000", "101827.805000", "101828.265000", "101828.725000", "101829.185000", "101829.645000", "101830.105000", "101830.565000", "101831.025000", "101831.485000", "101831.945000", "101832.405000", "101832.865000", "101833.325000", "101833.785000", "101834.245000", "101834.705000", "101835.165000", "101835.625000", "101836.085000", "101836.545000", "101837.005000", "101837.465000", "101837.925000", "101838.385000", "101838.845000", "101839.305000", "101839.765000", "101840.225000", "101840.685000", "101841.145000", "101841.605000", "101842.065000", "101842.525000", "101842.985000", "101843.445000", "101843.905000", "101844.365000", "101844.825000", "101845.285000", "101845.745000", "101846.205000", "101846.665000", "101847.125000", "101847.585000", "101848.045000", "101848.505000", "101848.965000", "101849.425000", "101849.885000", "101850.345000", "101850.805000", "101851.265000", "101851.725000", "101852.185000", "101852.645000", "101853.105000", "101853.565000", "101854.025000", "101854.485000", "101854.945000", "101855.405000", "101855.865000", "101856.325000", "101856.785000", "101857.245000", "101857.705000", "101858.165000", "101858.625000", "101859.085000", "101859.545000", "101900.005000", "101900.465000", "101900.925000", "101901.385000", "101901.845000", "101902.305000", "101902.765000", "101903.225000", "101903.685000", "101904.145000", "101904.605000", "101905.065000", "101905.525000", "101905.985000", "101906.445000", "101906.905000", "101907.365000", "101907.825000", "101908.285000", "101908.745000", "101909.205000", "101909.665000", "101910.125000", "101910.585000", "101911.045000", "101911.505000", "101911.965000", "101912.425000", "101912.885000", "101913.345000", "101913.805000", "101914.265000", "101914.725000", "101915.185000", "101915.645000", "101916.105000", "101916.565000", "101917.025000", "101917.485000", "101917.945000", "101918.405000", "101918.865000", "101919.325000", "101919.785000", "101920.245000", "101920.705000", "101921.165000", "101921.625000", "101922.085000", "101922.545000", "101923.005000", "101923.465000", "101923.925000", "101924.385000", "101924.845000", "101925.305000", "101925.765000", "101926.225000", "101926.685000", "101927.145000", "101927.605000", "101928.065000", "101928.525000", "101928.985000", "101929.445000", "101929.905000", "101930.365000", "101930.825000", "101931.285000", "101931.745000", "101932.205000", "101932.665000", "101933.125000", "101933.585000", "101934.045000", "101934.505000", "101934.965000", "101935.425000", "101935.885000", "101936.345000", "101936.805000", "101937.265000", "101937.725000", "101938.185000", "101938.645000", "101939.105000", "101939.565000", "101940.025000", "101940.485000", "101940.945000", "101941.405000", "101941.865000", "101942.325000", "101942.785000", "101943.245000", "101943.705000", "101944.165000", "101944.625000", "101945.085000", "101945.545000", "101946.005000", "101946.465000", "101946.925000", "101947.385000", "101947.845000", "101948.305000", "101948.765000", "101949.225000", "101949.685000", "101950.145000", "101950.605000", "101951.065000", "101951.525000", "101951.985000", "101952.445000", "101952.905000", "101953.365000", "101953.825000", "101954.285000", "101954.745000", "101955.205000", "101955.665000", "101956.125000", "101956.585000", "101957.045000", "101957.505000", "101957.965000", "101958.425000", "101958.885000", "101959.345000", "101959.805000", "102000.265000", "102000.725000", "102001.185000", "102001.645000", "102002.105000", "102002.565000", "102003.025000", "102003.485000", "102003.945000", "102004.405000", "102004.865000", "102005.325000", "102005.785000", "102006.245000", "102006.705000", "102007.165000", "102007.625000", "102008.085000", "102008.545000", "102009.005000", "102009.465000", "102009.925000", "102010.385000", "102010.845000", "102011.305000", "102011.765000", "102012.225000", "102012.685000", "102013.145000", "102013.605000", "102014.065000", "102014.525000", "102014.985000", "102015.445000", "102015.905000", "102016.365000", "102016.825000", "102017.285000", "102017.745000", "102018.205000", "102018.665000", "102019.125000", "102019.585000", "102020.045000", "102020.505000", "102020.965000", "102021.425000", "102021.885000", "102022.345000", "102022.805000", "102023.265000", "102023.725000", "102024.185000", "102024.645000", "102025.105000", "102025.565000", "102026.025000", "102026.485000", "102026.945000", "102027.405000", "102027.865000", "102028.325000", "102028.785000", "102029.245000", "102029.705000", "102030.165000", "102030.625000", "102031.085000", "102031.545000", "102032.005000", "102032.465000", "102032.925000", "102033.385000", "102033.845000", "102034.305000", "102034.765000", "102035.225000", "102035.685000", "102036.145000", "102036.605000", "102037.065000", "102037.525000", "102037.985000", "102038.445000", "102038.905000", "102039.365000", "102039.825000", "102040.285000", "102040.745000", "102041.205000", "102041.665000", "102042.125000", "102042.585000", "102043.045000", "102043.505000", "102043.965000", "102044.425000", "102044.885000", "102045.345000", "102045.805000", "102046.265000", "102046.725000", "102047.185000", "102047.645000", "102048.105000", "102048.565000", "102049.025000", "102049.485000", "102049.945000", "102050.405000", "102050.865000", "102051.325000", "102051.785000", "102052.245000", "102052.705000", "102053.165000", "102053.625000", "102054.085000", "102054.545000", "102055.005000", "102055.465000", "102055.925000", "102056.385000", "102056.845000", "102057.305000", "102057.765000", "102058.225000", "102058.685000", "102059.145000", "102059.605000", "102100.065000", "102100.525000", "102100.985000", "102101.445000", "102101.905000", "102102.365000", "102102.825000", "102103.285000", "102103.745000", "102104.205000", "102104.665000", "102105.125000", "102105.585000", "102106.045000", "102106.505000", "102106.965000", "102107.425000", "102107.885000", "102108.345000", "102108.805000", "102109.265000", "102109.725000", "102110.185000", "102110.645000", "102111.105000", "102111.565000", "102112.025000", "102112.485000", "102112.945000", "102113.405000", "102113.865000", "102114.325000", "102114.785000", "102115.245000", "102115.705000", "102116.165000", "102116.625000", "102117.085000", "102117.545000", "102118.005000", "102118.465000", "102118.925000", "102119.385000", "102119.845000", "102120.305000", "102120.765000", "102121.225000", "102121.685000", "102122.145000", "102122.605000", "102123.065000", "102123.525000", "102123.985000", "102124.445000", "102124.905000", "102125.365000", "102125.825000", "102126.285000", "102126.745000", "102127.205000", "102127.665000", "102128.125000", "102128.585000", "102129.045000", "102129.505000", "102129.965000", "102130.425000", "102130.885000", "102131.345000", "102131.805000", "102132.265000", "102132.725000", "102133.185000", "102133.645000", "102134.105000", "102134.565000", "102135.025000", "102135.485000", "102135.945000", "102136.405000", "102136.865000", "102137.325000", "102137.785000", "102138.245000", "102138.705000", "102139.165000", "102139.625000", "102140.085000", "102140.545000", "102141.005000", "102141.465000", "102141.925000", "102142.385000", "102142.845000", "102143.305000", "102143.765000", "102144.225000", "102144.685000", "102145.145000", "102145.605000", "102146.065000", "102146.525000", "102146.985000", "102147.445000", "102147.905000", "102148.365000", "102148.825000", "102149.285000", "102149.745000", "102150.205000", "102150.665000", "102151.125000", "102151.585000", "102152.045000", "102152.505000", "102152.965000", "102153.425000", "102153.885000", "102154.345000", "102154.805000", "102155.265000", "102155.725000", "102156.185000", "102156.645000", "102157.105000", "102157.565000", "102158.025000", "102158.485000", "102158.945000", "102159.405000", "102159.865000", "102200.325000", "102200.785000", "102201.245000", "102201.705000", "102202.165000", "102202.625000", "102203.085000", "102203.545000", "102204.005000", "102204.465000", "102204.925000", "102205.385000", "102205.845000", "102206.305000", "102206.765000", "102207.225000", "102207.685000", "102208.145000", "102208.605000", "102209.065000", "102209.525000", "102209.985000", "102210.445000", "102210.905000", "102211.365000", "102211.825000", "102212.285000", "102212.745000", "102213.205000", "102213.665000", "102214.125000", "102214.585000", "102215.045000", "102215.505000", "102215.965000", "102216.425000", "102216.885000", "102217.345000", "102217.805000", "102218.265000", "102218.725000", "102219.185000", "102219.645000", "102220.105000", "102220.565000", "102221.025000", "102221.485000", "102221.945000", "102222.405000", "102222.865000", "102223.325000", "102223.785000", "102224.245000", "102224.705000", "102225.165000", "102225.625000", "102226.085000", "102226.545000", "102227.005000", "102227.465000", "102227.925000", "102228.385000", "102228.845000", "102229.305000", "102229.765000", "102230.225000", "102230.685000", "102231.145000", "102231.605000", "102232.065000", "102232.525000", "102232.985000", "102233.445000", "102233.905000", "102234.365000", "102234.825000", "102235.285000", "102235.745000", "102236.205000", "102236.665000", "102237.125000", "102237.585000", "102238.045000", "102238.505000", "102238.965000", "102239.425000", "102239.885000", "102240.345000", "102240.805000", "102241.265000", "102241.725000", "102242.185000", "102242.645000", "102243.105000", "102243.565000", "102244.025000", "102244.485000", "102244.945000", "102245.405000", "102245.865000", "102246.325000", "102246.785000", "102247.245000", "102247.705000", "102248.165000", "102248.625000", "102249.085000", "102249.545000", "102250.005000", "102250.465000", "102250.925000", "102251.385000", "102251.845000", "102252.305000", "102252.765000", "102253.225000", "102253.685000", "102254.145000", "102254.605000", "102255.065000", "102255.525000", "102255.985000", "102256.445000", "102256.905000", "102257.365000", "102257.825000", "102258.285000", "102258.745000", "102259.205000", "102259.665000", "102300.125000", "102300.585000", "102301.045000", "102301.505000", "102301.965000", "102302.425000", "102302.885000", "102303.345000", "102303.805000", "102304.265000", "102304.725000", "102305.185000", "102305.645000", "102306.105000", "102306.565000", "102307.025000", "102307.485000", "102307.945000", "102308.405000", "102308.865000", "102309.325000", "102309.785000", "102310.245000", "102310.705000", "102311.165000", "102311.625000", "102312.085000", "102312.545000", "102313.005000", "102313.465000", "102313.925000", "102314.385000", "102314.845000", "102315.305000", "102315.765000", "102316.225000", "102316.685000", "102317.145000", "102317.605000", "102318.065000", "102318.525000", "102318.985000", "102319.445000", "102319.905000", "102320.365000", "102320.825000", "102321.285000", "102321.745000", "102322.205000", "102322.665000", "102323.125000", "102323.585000", "102324.045000", "102324.505000", "102324.965000", "102325.425000", "102325.885000", "102326.345000", "102326.805000", "102327.265000", "102327.725000", "102328.185000", "102328.645000", "102329.105000", "102329.565000", "102330.025000", "102330.485000", "102330.945000", "102331.405000", "102331.865000", "102332.325000", "102332.785000", "102333.245000", "102333.705000", "102334.165000", "102334.625000", "102335.085000", "102335.545000", "102336.005000", "102336.465000", "102336.925000", "102337.385000", "102337.845000", "102338.305000", "102338.765000", "102339.225000", "102339.685000", "102340.145000", "102340.605000", "102341.065000", "102341.525000", "102341.985000", "102342.445000", "102342.905000", "102343.365000", "102343.825000", "102344.285000", "102344.745000", "102345.205000", "102345.665000", "102346.125000", "102346.585000", "102347.045000", "102347.505000", "102347.965000", "102348.425000", "102348.885000", "102349.345000", "102349.805000", "102350.265000", "102350.725000", "102351.185000", "102351.645000", "102352.105000", "102352.565000", "102353.025000", "102353.485000", "102353.945000", "102354.405000", "102354.865000", "102355.325000", "102355.785000", "102356.245000", "102356.705000", "102357.165000", "102357.625000", "102358.085000", "102358.545000", "102359.005000", "102359.465000", "102359.925000", "102400.385000", "102400.845000", "102401.305000", "102401.765000", "102402.225000", "102402.685000", "102403.145000", "102403.605000", "102404.065000", "102404.525000", "102404.985000", "102405.445000", "102405.905000", "102406.365000", "102406.825000", "102407.285000", "102407.745000", "102408.205000", "102408.665000", "102409.125000", "102409.585000", "102410.045000", "102410.505000", "102410.965000", "102411.425000", "102411.885000", "102412.345000", "102412.805000", "102413.265000", "102413.725000", "102414.185000", "102414.645000", "102415.105000", "102415.565000", "102416.025000", "102416.485000", "102416.945000", "102417.405000", "102417.865000", "102418.325000", "102418.785000", "102419.245000", "102419.705000", "102420.165000", "102420.625000", "102421.085000", "102421.545000", "102422.005000", "102422.465000", "102422.925000", "102423.385000", "102423.845000", "102424.305000", "102424.765000", "102425.225000", "102425.685000", "102426.145000", "102426.605000", "102427.065000", "102427.525000", "102427.985000", "102428.445000", "102428.905000", "102429.365000", "102429.825000", "102430.285000", "102430.745000", "102431.205000", "102431.665000", "102432.125000", "102432.585000", "102433.045000", "102433.505000", "102433.965000", "102434.425000", "102434.885000", "102435.345000", "102435.805000", "102436.265000", "102436.725000", "102437.185000", "102437.645000", "102438.105000", "102438.565000", "102439.025000", "102439.485000", "102439.945000", "102440.405000", "102440.865000", "102441.325000", "102441.785000", "102442.245000", "102442.705000", "102443.165000", "102443.625000", "102444.085000", "102444.545000", "102445.005000", "102445.465000", "102445.925000", "102446.385000", "102446.845000", "102447.305000", "102447.765000", "102448.225000", "102448.685000", "102449.145000", "102449.605000", "102450.065000", "102450.525000", "102450.985000", "102451.445000", "102451.905000", "102452.365000", "102452.825000", "102453.285000", "102453.745000", "102454.205000", "102454.665000", "102455.125000", "102455.585000", "102456.045000", "102456.505000", "102456.965000", "102457.425000", "102457.885000", "102458.345000", "102458.805000", "102459.265000", "102459.725000", "102500.185000", "102500.645000", "102501.105000", "102501.565000", "102502.025000", "102502.485000", "102502.945000", "102503.405000", "102503.865000", "102504.325000", "102504.785000", "102505.245000", "102505.705000", "102506.165000", "102506.625000", "102507.085000", "102507.545000", "102508.005000", "102508.465000", "102508.925000", "102509.385000", "102509.845000", "102510.305000", "102510.765000", "102511.225000", "102511.685000", "102512.145000", "102512.605000", "102513.065000", "102513.525000", "102513.985000", "102514.445000", "102514.905000", "102515.365000", "102515.825000", "102516.285000", "102516.745000", "102517.205000", "102517.665000", "102518.125000", "102518.585000", "102519.045000", "102519.505000", "102519.965000", "102520.425000", "102520.885000", "102521.345000", "102521.805000", "102522.265000", "102522.725000", "102523.185000", "102523.645000", "102524.105000", "102524.565000", "102525.025000", "102525.485000", "102525.945000", "102526.405000", "102526.865000", "102527.325000", "102527.785000", "102528.245000", "102528.705000", "102529.165000", "102529.625000", "102530.085000", "102530.545000", "102531.005000", "102531.465000", "102531.925000", "102532.385000", "102532.845000", "102533.305000", "102533.765000", "102534.225000", "102534.685000", "102535.145000", "102535.605000", "102536.065000", "102536.525000", "102536.985000", "102537.445000", "102537.905000", "102538.365000", "102538.825000", "102539.285000", "102539.745000", "102540.205000", "102540.665000", "102541.125000", "102541.585000"],
