{
  "AcquisitionMatrixPE": 82,
  "AcquisitionNumber": 1,
  "AcquisitionTime": "09:18:31.637500",
  "BandwidthPerPixelPhaseEncode": 24.888,
  "BaseResolution": 82,
  "BodyPartExamined": "BRAIN",
  "ConsistencyInfo": "N4_VE11C_LATEST_20160120",
  "ConversionSoftware": "dcm2niix",
  "ConversionSoftwareVersion": "v1.0.20201102",
  "DerivedVendorReportedEchoSpacing": 0.00049,
  "DeviceSerialNumber": "66112",
  "DwellTime": 2e-06,
  "EchoTime": 0.0272,
  "EchoTrainLength": 82,
  "EffectiveEchoSpacing": 0.00049,
  "FlipAngle": 44,
  "ImageComments": "Unaliased MB8/PE3",
  "ImageOrientationPatientDICOM": [0.996309, 0.0766261, 0.0386814, -0.0770117, 0.996993, 0.00857628],
  "ImageType": [
    "ORIGINAL",
    "PRIMARY",
    "M",
    "MB",
    "ND",
    "NORM",
    "MOSAIC"
],
  "ImagingFrequency": 123.252,
  "InPlanePhaseEncodingDirectionDICOM": "COL",
  "InstitutionAddress": "Maynard 3,Hanover,NH,US,03755",
  "InstitutionName": "Dartmouth College - PBS",
  "InstitutionalDepartmentName": "Department",
  "MRAcquisitionType": "2D",
  "MagneticFieldStrength": 3,
  "Manufacturer": "Siemens",
  "ManufacturersModelName": "Prisma",
  "Modality": "MR",
  "MultibandAccelerationFactor": 8,
  "PartialFourier": 1,
  "PatientPosition": "HFS",
  "PercentPhaseFOV": 100,
  "PercentSampling": 100,
  "PhaseEncodingDirection": "j-",
  "PhaseEncodingSteps": 82,
  "PhaseResolution": 1,
  "PixelBandwidth": 3050,
  "ProcedureStepDescription": "Wager_Wager^1076_spacetop",
  "ProtocolName": "func_run-03_task-social_acq-ap-mb8",
  "PulseSequenceDetails": "%CustomerSeq%\\cmrr_mbep2d_bold",
  "ReceiveCoilActiveElements": "HEA;HEP",
  "ReceiveCoilName": "Head_32",
  "ReconMatrixPE": 82,
  "RepetitionTime": 0.46,
  "SAR": 0.0823237,
  "ScanOptions": "FS",
  "ScanningSequence": "EP",
  "SequenceName": "epfid2d1_82",
  "SequenceVariant": "SK\\SS",
  "SeriesDescription": "func_run-03_task-social_acq-ap-mb8",
  "SeriesNumber": 10,
  "ShimSetting": [4168, -7724, -7220, 519, 55, -34, -10, 49],
  "SliceThickness": 2.7,
  "SliceTiming": [0, 0.2525, 0.0625, 0.315, 0.125, 0.3775, 0.1875, 0, 0.2525, 0.0625, 0.315, 0.125, 0.3775, 0.1875, 0, 0.2525, 0.0625, 0.315, 0.125, 0.3775, 0.1875, 0, 0.2525, 0.0625, 0.315, 0.125, 0.3775, 0.1875, 0, 0.2525, 0.0625, 0.315, 0.125, 0.3775, 0.1875, 0, 0.2525, 0.0625, 0.315, 0.125, 0.3775, 0.1875, 0, 0.2525, 0.0625, 0.315, 0.125, 0.3775, 0.1875, 0, 0.2525, 0.0625, 0.315, 0.125, 0.3775, 0.1875],
  "SoftwareVersions": "syngo MR E11",
  "SpacingBetweenSlices": 2.7,
  "StationName": "AWP66112",
  "TaskName": "social",
  "TotalReadoutTime": 0.03969,
  "TxRefAmp": 249.39,
  "WipMemBlock": "f19356f7-3dd8-4620-bc44-154d56951f64||Sequence: R016 ve11c/master r/e634e98; Dec 19 2017 11:00:25 by eja",
  "dcmmeta_affine": [
    [-2.673024892807007, -0.20661674439907074, 0.1023513674736023, 124.52884674072266],
    [-0.20558226108551025, 2.6748602390289307, 0.03111356869339943, -90.90364837646484],
    [0.10377932339906693, -0.02300952561199665, 2.6978800296783447, -54.702484130859375],
    [0.0, 0.0, 0.0, 1.0]
],
  "dcmmeta_reorient_transform": [
    [0.0, -1.0, 0.0, 81.0],
    [1.0, 0.0, 0.0, 0.0],
    [0.0, 0.0, 1.0, 0.0],
    [0.0, 0.0, 0.0, 1.0]
],
  "dcmmeta_shape": [82, 82, 56, 872],
  "dcmmeta_slice_dim": 2,
  "dcmmeta_version": 0.6,
  "global": {
    "const": {
      "AccessionNumber": "A003848",
      "AcquisitionMatrix": [82, 0, 0, 82],
      "AngioFlag": "N",
      "BitsAllocated": 16,
      "BitsStored": 16,
      "BodyPartExamined": "BRAIN",
      "Columns": 656,
      "EchoNumbers": 1,
      "EchoTime": 27.2,
      "EchoTrainLength": 82,
      "FlipAngle": 44.0,
      "HighBit": 15,
      "ImageOrientationPatient": [0.99630928394019, 0.07662611428788, 0.03868138239156, -0.0770116933631, 0.99699330316008, 0.00857627770638],
      "ImagePositionPatient": [-815.6520487986, -952.4469941875, -92.95465417017],
      "ImageType": [
        "ORIGINAL",
        "PRIMARY",
        "M",
        "MB",
        "ND",
        "NORM",
        "MOSAIC"
],
      "ImagedNucleus": "1H",
      "ImagingFrequency": 123.252166,
      "InPlanePhaseEncodingDirection": "COL",
      "MRAcquisitionType": "2D",
      "MagneticFieldStrength": 3.0,
      "Manufacturer": "SIEMENS",
      "ManufacturerModelName": "Prisma",
      "Modality": "MR",
      "NumberOfAverages": 1.0,
      "NumberOfPhaseEncodingSteps": 82,
      "PercentPhaseFieldOfView": 100.0,
      "PercentSampling": 100.0,
      "PerformedProcedureStepStartTime": "085514.028000",
      "PhotometricInterpretation": "MONOCHROME2",
      "PixelBandwidth": 3050.0,
      "PixelRepresentation": 0,
      "PixelSpacing": [2.6829268932343, 2.6829268932343],
      "ProtocolName": "func_run-03_task-social_acq-ap-mb8",
      "RepetitionTime": 460.0,
      "Rows": 656,
      "SAR": 0.0823237412772,
      "SamplesPerPixel": 1,
      "ScanOptions": "FS",
      "ScanningSequence": "EP",
      "SequenceName": "epfid2d1_82",
      "SequenceVariant": [
        "SK",
        "SS"
],
      "SeriesDescription": "func_run-03_task-social_acq-ap-mb8",
      "SeriesNumber": 10,
      "SeriesTime": "091845.708000",
      "SliceLocation": -50.986434220148,
      "SliceThickness": 2.7000000476837,
      "SmallestImagePixelValue": 0,
      "SoftwareVersions": "syngo MR E11",
      "SpacingBetweenSlices": 2.7000000641702,
      "SpecificCharacterSet": "ISO_IR 100",
      "StudyID": "3",
      "StudyTime": "085513.926000",
      "TransmitCoilName": "Body",
      "VariableFlipAngleFlag": "N",
      "WindowCenterWidthExplanation": "Algo1",
      "dBdt": 0.0},
    "slices": {}
  },
  "time": {
    "samples": {
      "AcquisitionNumber": [1, 2, 3, 4, 5, 6, 7, 8, 9, 10, 11, 12, 13, 14, 15, 16, 17, 18, 19, 20, 21, 22, 23, 24, 25, 26, 27, 28, 29, 30, 31, 32, 33, 34, 35, 36, 37, 38, 39, 40, 41, 42, 43, 44, 45, 46, 47, 48, 49, 50, 51, 52, 53, 54, 55, 56, 57, 58, 59, 60, 61, 62, 63, 64, 65, 66, 67, 68, 69, 70, 71, 72, 73, 74, 75, 76, 77, 78, 79, 80, 81, 82, 83, 84, 85, 86, 87, 88, 89, 90, 91, 92, 93, 94, 95, 96, 97, 98, 99, 100, 101, 102, 103, 104, 105, 106, 107, 108, 109, 110, 111, 112, 113, 114, 115, 116, 117, 118, 119, 120, 121, 122, 123, 124, 125, 126, 127, 128, 129, 130, 131, 132, 133, 134, 135, 136, 137, 138, 139, 140, 141, 142, 143, 144, 145, 146, 147, 148, 149, 150, 151, 152, 153, 154, 155, 156, 157, 158, 159, 160, 161, 162, 163, 164, 165, 166, 167, 168, 169, 170, 171, 172, 173, 174, 175, 176, 177, 178, 179, 180, 181, 182, 183, 184, 185, 186, 187, 188, 189, 190, 191, 192, 193, 194, 195, 196, 197, 198, 199, 200, 201, 202, 203, 204, 205, 206, 207, 208, 209, 210, 211, 212, 213, 214, 215, 216, 217, 218, 219, 220, 221, 222, 223, 224, 225, 226, 227, 228, 229, 230, 231, 232, 233, 234, 235, 236, 237, 238, 239, 240, 241, 242, 243, 244, 245, 246, 247, 248, 249, 250, 251, 252, 253, 254, 255, 256, 257, 258, 259, 260, 261, 262, 263, 264, 265, 266, 267, 268, 269, 270, 271, 272, 273, 274, 275, 276, 277, 278, 279, 280, 281, 282, 283, 284, 285, 286, 287, 288, 289, 290, 291, 292, 293, 294, 295, 296, 297, 298, 299, 300, 301, 302, 303, 304, 305, 306, 307, 308, 309, 310, 311, 312, 313, 314, 315, 316, 317, 318, 319, 320, 321, 322, 323, 324, 325, 326, 327, 328, 329, 330, 331, 332, 333, 334, 335, 336, 337, 338, 339, 340, 341, 342, 343, 344, 345, 346, 347, 348, 349, 350, 351, 352, 353, 354, 355, 356, 357, 358, 359, 360, 361, 362, 363, 364, 365, 366, 367, 368, 369, 370, 371, 372, 373, 374, 375, 376, 377, 378, 379, 380, 381, 382, 383, 384, 385, 386, 387, 388, 389, 390, 391, 392, 393, 394, 395, 396, 397, 398, 399, 400, 401, 402, 403, 404, 405, 406, 407, 408, 409, 410, 411, 412, 413, 414, 415, 416, 417, 418, 419, 420, 421, 422, 423, 424, 425, 426, 427, 428, 429, 430, 431, 432, 433, 434, 435, 436, 437, 438, 439, 440, 441, 442, 443, 444, 445, 446, 447, 448, 449, 450, 451, 452, 453, 454, 455, 456, 457, 458, 459, 460, 461, 462, 463, 464, 465, 466, 467, 468, 469, 470, 471, 472, 473, 474, 475, 476, 477, 478, 479, 480, 481, 482, 483, 484, 485, 486, 487, 488, 489, 490, 491, 492, 493, 494, 495, 496, 497, 498, 499, 500, 501, 502, 503, 504, 505, 506, 507, 508, 509, 510, 511, 512, 513, 514, 515, 516, 517, 518, 519, 520, 521, 522, 523, 524, 525, 526, 527, 528, 529, 530, 531, 532, 533, 534, 535, 536, 537, 538, 539, 540, 541, 542, 543, 544, 545, 546, 547, 548, 549, 550, 551, 552, 553, 554, 555, 556, 557, 558, 559, 560, 561, 562, 563, 564, 565, 566, 567, 568, 569, 570, 571, 572, 573, 574, 575, 576, 577, 578, 579, 580, 581, 582, 583, 584, 585, 586, 587, 588, 589, 590, 591, 592, 593, 594, 595, 596, 597, 598, 599, 600, 601, 602, 603, 604, 605, 606, 607, 608, 609, 610, 611, 612, 613, 614, 615, 616, 617, 618, 619, 620, 621, 622, 623, 624, 625, 626, 627, 628, 629, 630, 631, 632, 633, 634, 635, 636, 637, 638, 639, 640, 641, 642, 643, 644, 645, 646, 647, 648, 649, 650, 651, 652, 653, 654, 655, 656, 657, 658, 659, 660, 661, 662, 663, 664, 665, 666, 667, 668, 669, 670, 671, 672, 673, 674, 675, 676, 677, 678, 679, 680, 681, 682, 683, 684, 685, 686, 687, 688, 689, 690, 691, 692, 693, 694, 695, 696, 697, 698, 699, 700, 701, 702, 703, 704, 705, 706, 707, 708, 709, 710, 711, 712, 713, 714, 715, 716, 717, 718, 719, 720, 721, 722, 723, 724, 725, 726, 727, 728, 729, 730, 731, 732, 733, 734, 735, 736, 737, 738, 739, 740, 741, 742, 743, 744, 745, 746, 747, 748, 749, 750, 751, 752, 753, 754, 755, 756, 757, 758, 759, 760, 761, 762, 763, 764, 765, 766, 767, 768, 769, 770, 771, 772, 773, 774, 775, 776, 777, 778, 779, 780, 781, 782, 783, 784, 785, 786, 787, 788, 789, 790, 791, 792, 793, 794, 795, 796, 797, 798, 799, 800, 801, 802, 803, 804, 805, 806, 807, 808, 809, 810, 811, 812, 813, 814, 815, 816, 817, 818, 819, 820, 821, 822, 823, 824, 825, 826, 827, 828, 829, 830, 831, 832, 833, 834, 835, 836, 837, 838, 839, 840, 841, 842, 843, 844, 845, 846, 847, 848, 849, 850, 851, 852, 853, 854, 855, 856, 857, 858, 859, 860, 861, 862, 863, 864, 865, 866, 867, 868, 869, 870, 871, 872],
      "AcquisitionTime": ["091831.637500", "091832.097500", "091832.557500", "091833.017500", "091833.477500", "091833.937500", "091834.397500", "091834.857500", "091835.317500", "091835.777500", "091836.237500", "091836.697500", "091837.157500", "091837.617500", "091838.077500", "091838.537500", "091838.997500", "091839.457500", "091839.917500", "091840.377500", "091840.837500", "091841.297500", "091841.757500", "091842.217500", "091842.677500", "091843.137500", "091843.597500", "091844.057500", "091844.517500", "091844.977500", "091845.437500", "091845.897500", "091846.357500", "091846.817500", "091847.277500", "091847.737500", "091848.197500", "091848.657500", "091849.117500", "091849.577500", "091850.037500", "091850.497500", "091850.957500", "091851.417500", "091851.877500", "091852.337500", "091852.797500", "091853.257500", "091853.717500", "091854.177500", "091854.637500", "091855.097500", "091855.557500", "091856.017500", "091856.477500", "091856.937500", "091857.397500", "091857.857500", "091858.317500", "091858.777500", "091859.237500", "091859.697500", "091900.157500", "091900.617500", "091901.077500", "091901.537500", "091901.997500", "091902.457500", "091902.917500", "091903.377500", "091903.837500", "091904.297500", "091904.757500", "091905.217500", "091905.677500", "091906.137500", "091906.597500", "091907.057500", "091907.517500", "091907.977500", "091908.437500", "091908.897500", "091909.357500", "091909.817500", "091910.277500", "091910.737500", "091911.197500", "091911.657500", "091912.117500", "091912.577500", "091913.037500", "091913.497500", "091913.957500", "091914.417500", "091914.877500", "091915.337500", "091915.797500", "091916.257500", "091916.717500", "091917.177500", "091917.637500", "091918.097500", "091918.557500", "091919.017500", "091919.477500", "091919.937500", "091920.397500", "091920.857500", "091921.317500", "091921.777500", "091922.237500", "091922.697500", "091923.157500", "091923.617500", "091924.077500", "091924.537500", "091924.997500", "091925.457500", "091925.917500", "091926.377500", "091926.837500", "091927.297500", "091927.757500", "091928.217500", "091928.677500", "091929.137500", "091929.597500", "091930.057500", "091930.517500", "091930.977500", "091931.437500", "091931.897500", "091932.357500", "091932.817500", "091933.277500", "091933.737500", "091934.197500", "091934.657500", "091935.117500", "091935.577500", "091936.037500", "091936.497500", "091936.957500", "091937.417500", "091937.877500", "091938.337500", "091938.797500", "091939.257500", "091939.717500", "091940.177500", "091940.637500", "091941.097500", "091941.557500", "091942.017500", "091942.477500", "091942.937500", "091943.397500", "091943.857500", "091944.317500", "091944.777500", "091945.237500", "091945.697500", "091946.157500", "091946.617500", "091947.077500", "091947.537500", "091947.997500", "091948.457500", "091948.917500", "091949.377500", "091949.837500", "091950.297500", "091950.757500", "091951.217500", "091951.677500", "091952.137500", "091952.597500", "091953.057500", "091953.517500", "091953.977500", "091954.437500", "091954.897500", "091955.357500", "091955.817500", "091956.277500", "091956.737500", "091957.197500", "091957.657500", "091958.117500", "091958.577500", "091959.037500", "091959.497500", "091959.957500", "092000.417500", "092000.877500", "092001.337500", "092001.797500", "092002.257500", "092002.717500", "092003.177500", "092003.637500", "092004.097500", "092004.557500", "092005.017500", "092005.477500", "092005.937500", "092006.397500", "092006.857500", "092007.317500", "092007.777500", "092008.237500", "092008.697500", "092009.157500", "092009.617500", "092010.077500", "092010.537500", "092010.997500", "092011.457500", "092011.917500", "092012.377500", "092012.837500", "092013.297500", "092013.757500", "092014.217500", "092014.677500", "092015.137500", "092015.597500", "092016.057500", "092016.517500", "092016.977500", "092017.437500", "092017.897500", "092018.357500", "092018.817500", "092019.277500", "092019.737500", "092020.197500", "092020.657500", "092021.117500", "092021.577500", "092022.037500", "092022.497500", "092022.957500", "092023.417500", "092023.877500", "092024.337500", "092024.797500", "092025.257500", "092025.717500", "092026.177500", "092026.637500", "092027.097500", "092027.557500", "092028.017500", "092028.477500", "092028.937500", "092029.397500", "092029.857500", "092030.317500", "092030.777500", "092031.237500", "092031.697500", "092032.157500", "092032.617500", "092033.077500", "092033.537500", "092033.997500", "092034.457500", "092034.917500", "092035.377500", "092035.837500", "092036.297500", "092036.757500", "092037.217500", "092037.677500", "092038.137500", "092038.597500", "092039.057500", "092039.517500", "092039.977500", "092040.437500", "092040.897500", "092041.357500", "092041.817500", "092042.277500", "092042.737500", "092043.197500", "092043.657500", "092044.117500", "092044.577500", "092045.037500", "092045.497500", "092045.957500", "092046.417500", "092046.877500", "092047.337500", "092047.797500", "092048.257500", "092048.717500", "092049.177500", "092049.637500", "092050.097500", "092050.557500", "092051.017500", "092051.477500", "092051.937500", "092052.397500", "092052.857500", "092053.317500", "092053.777500", "092054.237500", "092054.697500", "092055.157500", "092055.617500", "092056.077500", "092056.537500", "092056.997500", "092057.457500", "092057.917500", "092058.377500", "092058.837500", "092059.297500", "092059.757500", "092100.217500", "092100.677500", "092101.137500", "092101.597500", "092102.057500", "092102.517500", "092102.977500", "092103.437500", "092103.897500", "092104.357500", "092104.817500", "092105.277500", "092105.737500", "092106.197500", "092106.657500", "092107.117500", "092107.577500", "092108.037500", "092108.497500", "092108.957500", "092109.417500", "092109.877500", "092110.337500", "092110.797500", "092111.257500", "092111.717500", "092112.177500", "092112.637500", "092113.097500", "092113.557500", "092114.017500", "092114.477500", "092114.937500", "092115.397500", "092115.857500", "092116.317500", "092116.777500", "092117.237500", "092117.697500", "092118.157500", "092118.617500", "092119.077500", "092119.537500", "092119.997500", "092120.457500", "092120.917500", "092121.377500", "092121.837500", "092122.297500", "092122.757500", "092123.217500", "092123.677500", "092124.137500", "092124.597500", "092125.057500", "092125.517500", "092125.977500", "092126.437500", "092126.897500", "092127.357500", "092127.817500", "092128.277500", "092128.737500", "092129.197500", "092129.657500", "092130.117500", "092130.577500", "092131.037500", "092131.497500", "092131.957500", "092132.417500", "092132.877500", "092133.337500", "092133.797500", "092134.257500", "092134.717500", "092135.177500", "092135.637500", "092136.097500", "092136.557500", "092137.017500", "092137.477500", "092137.937500", "092138.397500", "092138.857500", "092139.317500", "092139.777500", "092140.237500", "092140.697500", "092141.157500", "092141.617500", "092142.077500", "092142.537500", "092142.997500", "092143.457500", "092143.917500", "092144.377500", "092144.837500", "092145.297500", "092145.757500", "092146.217500", "092146.677500", "092147.137500", "092147.597500", "092148.057500", "092148.517500", "092148.977500", "092149.437500", "092149.897500", "092150.357500", "092150.817500", "092151.277500", "092151.737500", "092152.197500", "092152.657500", "092153.117500", "092153.577500", "092154.037500", "092154.497500", "092154.957500", "092155.417500", "092155.877500", "092156.337500", "092156.797500", "092157.257500", "092157.717500", "092158.177500", "092158.637500", "092159.097500", "092159.557500", "092200.017500", "092200.477500", "092200.937500", "092201.397500", "092201.857500", "092202.317500", "092202.777500", "092203.237500", "092203.697500", "092204.157500", "092204.617500", "092205.077500", "092205.537500", "092205.997500", "092206.457500", "092206.917500", "092207.377500", "092207.837500", "092208.297500", "092208.757500", "092209.217500", "092209.677500", "092210.137500", "092210.597500", "092211.057500", "092211.517500", "092211.977500", "092212.437500", "092212.897500", "092213.357500", "092213.817500", "092214.277500", "092214.737500", "092215.197500", "092215.657500", "092216.117500", "092216.577500", "092217.037500", "092217.497500", "092217.957500", "092218.417500", "092218.877500", "092219.337500", "092219.797500", "092220.257500", "092220.717500", "092221.177500", "092221.637500", "092222.097500", "092222.557500", "092223.017500", "092223.477500", "092223.937500", "092224.397500", "092224.857500", "092225.317500", "092225.777500", "092226.237500", "092226.697500", "092227.157500", "092227.617500", "092228.077500", "092228.537500", "092228.997500", "092229.457500", "092229.917500", "092230.377500", "092230.837500", "092231.297500", "092231.757500", "092232.217500", "092232.677500", "092233.137500", "092233.597500", "092234.057500", "092234.517500", "092234.977500", "092235.437500", "092235.897500", "092236.357500", "092236.817500", "092237.277500", "092237.737500", "092238.197500", "092238.657500", "092239.117500", "092239.577500", "092240.037500", "092240.497500", "092240.957500", "092241.417500", "092241.877500", "092242.337500", "092242.797500", "092243.257500", "092243.717500", "092244.177500", "092244.637500", "092245.097500", "092245.557500", "092246.017500", "092246.477500", "092246.937500", "092247.397500", "092247.857500", "092248.317500", "092248.777500", "092249.237500", "092249.697500", "092250.157500", "092250.617500", "092251.077500", "092251.537500", "092251.997500", "092252.457500", "092252.917500", "092253.377500", "092253.837500", "092254.297500", "092254.757500", "092255.217500", "092255.677500", "092256.137500", "092256.597500", "092257.057500", "092257.517500", "092257.977500", "092258.437500", "092258.897500", "092259.357500", "092259.817500", "092300.277500", "092300.737500", "092301.197500", "092301.657500", "092302.117500", "092302.577500", "092303.037500", "092303.497500", "092303.957500", "092304.417500", "092304.877500", "092305.337500", "092305.797500", "092306.257500", "092306.717500", "092307.177500", "092307.637500", "092308.097500", "092308.557500", "092309.017500", "092309.477500", "092309.937500", "092310.397500", "092310.857500", "092311.317500", "092311.777500", "092312.237500", "092312.697500", "092313.157500", "092313.617500", "092314.077500", "092314.537500", "092314.997500", "092315.457500", "092315.917500", "092316.377500", "092316.837500", "092317.297500", "092317.757500", "092318.217500", "092318.677500", "092319.137500", "092319.597500", "092320.057500", "092320.517500", "092320.977500", "092321.437500", "092321.897500", "092322.357500", "092322.817500", "092323.277500", "092323.737500", "092324.197500", "092324.657500", "092325.117500", "092325.577500", "092326.037500", "092326.497500", "092326.957500", "092327.417500", "092327.877500", "092328.337500", "092328.797500", "092329.257500", "092329.717500", "092330.177500", "092330.637500", "092331.097500", "092331.557500", "092332.017500", "092332.477500", "092332.937500", "092333.397500", "092333.857500", "092334.317500", "092334.777500", "092335.237500", "092335.697500", "092336.157500", "092336.617500", "092337.077500", "092337.537500", "092337.997500", "092338.457500", "092338.917500", "092339.377500", "092339.837500", "092340.297500", "092340.757500", "092341.217500", "092341.677500", "092342.137500", "092342.597500", "092343.057500", "092343.517500", "092343.977500", "092344.437500", "092344.897500", "092345.357500", "092345.817500", "092346.277500", "092346.737500", "092347.197500", "092347.657500", "092348.117500", "092348.577500", "092349.037500", "092349.497500", "092349.957500", "092350.417500", "092350.877500", "092351.337500", "092351.797500", "092352.257500", "092352.717500", "092353.177500", "092353.637500", "092354.097500", "092354.557500", "092355.017500", "092355.477500", "092355.937500", "092356.397500", "092356.857500", "092357.317500", "092357.777500", "092358.237500", "092358.697500", "092359.157500", "092359.617500", "092400.077500", "092400.537500", "092400.997500", "092401.457500", "092401.917500", "092402.377500", "092402.837500", "092403.297500", "092403.757500", "092404.217500", "092404.677500", "092405.137500", "092405.597500", "092406.057500", "092406.517500", "092406.977500", "092407.437500", "092407.897500", "092408.357500", "092408.817500", "092409.277500", "092409.737500", "092410.197500", "092410.657500", "092411.117500", "092411.577500", "092412.037500", "092412.497500", "092412.957500", "092413.417500", "092413.877500", "092414.337500", "092414.797500", "092415.257500", "092415.717500", "092416.177500", "092416.637500", "092417.097500", "092417.557500", "092418.017500", "092418.477500", "092418.937500", "092419.397500", "092419.857500", "092420.317500", "092420.777500", "092421.237500", "092421.697500", "092422.157500", "092422.617500", "092423.077500", "092423.537500", "092423.997500", "092424.457500", "092424.917500", "092425.377500", "092425.837500", "092426.297500", "092426.757500", "092427.217500", "092427.677500", "092428.137500", "092428.597500", "092429.057500", "092429.517500", "092429.977500", "092430.437500", "092430.897500", "092431.357500", "092431.817500", "092432.277500", "092432.737500", "092433.197500", "092433.657500", "092434.117500", "092434.577500", "092435.037500", "092435.497500", "092435.957500", "092436.417500", "092436.877500", "092437.337500", "092437.797500", "092438.257500", "092438.717500", "092439.177500", "092439.637500", "092440.097500", "092440.557500", "092441.017500", "092441.477500", "092441.937500", "092442.397500", "092442.857500", "092443.317500", "092443.777500", "092444.237500", "092444.697500", "092445.157500", "092445.617500", "092446.077500", "092446.537500", "092446.997500", "092447.457500", "092447.917500", "092448.377500", "092448.837500", "092449.297500", "092449.757500", "092450.217500", "092450.677500", "092451.137500", "092451.597500", "092452.057500", "092452.517500", "092452.977500", "092453.437500", "092453.897500", "092454.357500", "092454.817500", "092455.277500", "092455.737500", "092456.197500", "092456.657500", "092457.117500", "092457.577500", "092458.037500", "092458.497500", "092458.957500", "092459.417500", "092459.877500", "092500.337500", "092500.797500", "092501.257500", "092501.717500", "092502.177500", "092502.637500", "092503.097500", "092503.557500", "092504.017500", "092504.477500", "092504.937500", "092505.397500", "092505.857500", "092506.317500", "092506.777500", "092507.237500", "092507.697500", "092508.157500", "092508.617500", "092509.077500", "092509.537500", "092509.997500", "092510.457500", "092510.917500", "092511.377500", "092511.837500", "092512.297500"],
