{
  "AcquisitionMatrixPE": 82,
  "AcquisitionNumber": 1,
  "AcquisitionTime": "09:09:46.202500",
  "BandwidthPerPixelPhaseEncode": 24.888,
  "BaseResolution": 82,
  "BodyPartExamined": "BRAIN",
  "ConsistencyInfo": "N4_VE11C_LATEST_20160120",
  "ConversionSoftware": "dcm2niix",
  "ConversionSoftwareVersion": "v1.0.20201102",
  "DerivedVendorReportedEchoSpacing": 0.00049,
  "DeviceSerialNumber": "66112",
  "DwellTime": 2e-06,
  "EchoTime": 0.0272,
  "EchoTrainLength": 82,
  "EffectiveEchoSpacing": 0.00049,
  "FlipAngle": 44,
  "ImageComments": "Unaliased MB8/PE3",
  "ImageOrientationPatientDICOM": [0.996309, 0.0766261, 0.0386814, -0.0770117, 0.996993, 0.00857628],
  "ImageType": [
    "ORIGINAL",
    "PRIMARY",
    "M",
    "MB",
    "ND",
    "NORM",
    "MOSAIC"
],
  "ImagingFrequency": 123.252,
  "InPlanePhaseEncodingDirectionDICOM": "COL",
  "InstitutionAddress": "Maynard 3,Hanover,NH,US,03755",
  "InstitutionName": "Dartmouth College - PBS",
  "InstitutionalDepartmentName": "Department",
  "MRAcquisitionType": "2D",
  "MagneticFieldStrength": 3,
  "Manufacturer": "Siemens",
  "ManufacturersModelName": "Prisma",
  "Modality": "MR",
  "MultibandAccelerationFactor": 8,
  "PartialFourier": 1,
  "PatientPosition": "HFS",
  "PercentPhaseFOV": 100,
  "PercentSampling": 100,
  "PhaseEncodingDirection": "j-",
  "PhaseEncodingSteps": 82,
  "PhaseResolution": 1,
  "PixelBandwidth": 3050,
  "ProcedureStepDescription": "Wager_Wager^1076_spacetop",
  "ProtocolName": "func_run-01_task-social_acq-ap-mb8",
  "PulseSequenceDetails": "%CustomerSeq%\\cmrr_mbep2d_bold",
  "ReceiveCoilActiveElements": "HEA;HEP",
  "ReceiveCoilName": "Head_32",
  "ReconMatrixPE": 82,
  "RepetitionTime": 0.46,
  "SAR": 0.0823237,
  "ScanOptions": "FS",
  "ScanningSequence": "EP",
  "SequenceName": "epfid2d1_82",
  "SequenceVariant": "SK\\SS",
  "SeriesDescription": "func_run-01_task-social_acq-ap-mb8",
  "SeriesNumber": 8,
  "ShimSetting": [4168, -7724, -7220, 519, 55, -34, -10, 49],
  "SliceThickness": 2.7,
  "SliceTiming": [0, 0.2525, 0.0625, 0.315, 0.1275, 0.3775, 0.19, 0, 0.2525, 0.0625, 0.315, 0.1275, 0.3775, 0.19, 0, 0.2525, 0.0625, 0.315, 0.1275, 0.3775, 0.19, 0, 0.2525, 0.0625, 0.315, 0.1275, 0.3775, 0.19, 0, 0.2525, 0.0625, 0.315, 0.1275, 0.3775, 0.19, 0, 0.2525, 0.0625, 0.315, 0.1275, 0.3775, 0.19, 0, 0.2525, 0.0625, 0.315, 0.1275, 0.3775, 0.19, 0, 0.2525, 0.0625, 0.315, 0.1275, 0.3775, 0.19],
  "SoftwareVersions": "syngo MR E11",
  "SpacingBetweenSlices": 2.7,
  "StationName": "AWP66112",
  "TaskName": "social",
  "TotalReadoutTime": 0.03969,
  "TxRefAmp": 249.39,
  "WipMemBlock": "e1ed7816-a3e7-4e79-bae6-68b2e5f67a89||Sequence: R016 ve11c/master r/e634e98; Dec 19 2017 11:00:25 by eja",
  "dcmmeta_affine": [
    [-2.673024892807007, -0.20661674439907074, 0.1023513674736023, 124.52884674072266],
    [-0.20558226108551025, 2.6748602390289307, 0.03111356869339943, -90.90364837646484],
    [0.10377932339906693, -0.02300952561199665, 2.6978800296783447, -54.702484130859375],
    [0.0, 0.0, 0.0, 1.0]
],
  "dcmmeta_reorient_transform": [
    [0.0, -1.0, 0.0, 81.0],
    [1.0, 0.0, 0.0, 0.0],
    [0.0, 0.0, 1.0, 0.0],
    [0.0, 0.0, 0.0, 1.0]
],
  "dcmmeta_shape": [82, 82, 56, 872],
  "dcmmeta_slice_dim": 2,
  "dcmmeta_version": 0.6,
  "global": {
    "const": {
      "AccessionNumber": "A003848",
      "AcquisitionMatrix": [82, 0, 0, 82],
      "AngioFlag": "N",
      "BitsAllocated": 16,
      "BitsStored": 16,
      "BodyPartExamined": "BRAIN",
      "Columns": 656,
      "EchoNumbers": 1,
      "EchoTime": 27.2,
      "EchoTrainLength": 82,
      "FlipAngle": 44.0,
      "HighBit": 15,
      "ImageOrientationPatient": [0.99630928394019, 0.07662611428788, 0.03868138239156, -0.0770116933631, 0.99699330316008, 0.00857627770638],
      "ImagePositionPatient": [-815.6520487986, -952.4469941875, -92.95465417017],
      "ImageType": [
        "ORIGINAL",
        "PRIMARY",
        "M",
        "MB",
        "ND",
        "NORM",
        "MOSAIC"
],
      "ImagedNucleus": "1H",
      "ImagingFrequency": 123.25216,
      "InPlanePhaseEncodingDirection": "COL",
      "MRAcquisitionType": "2D",
      "MagneticFieldStrength": 3.0,
      "Manufacturer": "SIEMENS",
      "ManufacturerModelName": "Prisma",
      "Modality": "MR",
      "NumberOfAverages": 1.0,
      "NumberOfPhaseEncodingSteps": 82,
      "PercentPhaseFieldOfView": 100.0,
      "PercentSampling": 100.0,
      "PerformedProcedureStepStartTime": "085514.028000",
      "PhotometricInterpretation": "MONOCHROME2",
      "PixelBandwidth": 3050.0,
      "PixelRepresentation": 0,
      "PixelSpacing": [2.6829268932343, 2.6829268932343],
      "ProtocolName": "func_run-01_task-social_acq-ap-mb8",
      "RepetitionTime": 460.0,
      "Rows": 656,
      "SAR": 0.0823237412772,
      "SamplesPerPixel": 1,
      "ScanOptions": "FS",
      "ScanningSequence": "EP",
      "SequenceName": "epfid2d1_82",
      "SequenceVariant": [
        "SK",
        "SS"
],
      "SeriesDescription": "func_run-01_task-social_acq-ap-mb8",
      "SeriesNumber": 8,
      "SeriesTime": "091005.773000",
      "SliceLocation": -50.986434220148,
      "SliceThickness": 2.7000000476837,
      "SmallestImagePixelValue": 0,
      "SoftwareVersions": "syngo MR E11",
      "SpacingBetweenSlices": 2.7000000641702,
      "SpecificCharacterSet": "ISO_IR 100",
      "StudyID": "3",
      "StudyTime": "085513.926000",
      "TransmitCoilName": "Body",
      "VariableFlipAngleFlag": "N",
      "WindowCenterWidthExplanation": "Algo1",
      "dBdt": 0.0},
    "slices": {}
  },
  "time": {
    "samples": {
      "AcquisitionNumber": [1, 2, 3, 4, 5, 6, 7, 8, 9, 10, 11, 12, 13, 14, 15, 16, 17, 18, 19, 20, 21, 22, 23, 24, 25, 26, 27, 28, 29, 30, 31, 32, 33, 34, 35, 36, 37, 38, 39, 40, 41, 42, 43, 44, 45, 46, 47, 48, 49, 50, 51, 52, 53, 54, 55, 56, 57, 58, 59, 60, 61, 62, 63, 64, 65, 66, 67, 68, 69, 70, 71, 72, 73, 74, 75, 76, 77, 78, 79, 80, 81, 82, 83, 84, 85, 86, 87, 88, 89, 90, 91, 92, 93, 94, 95, 96, 97, 98, 99, 100, 101, 102, 103, 104, 105, 106, 107, 108, 109, 110, 111, 112, 113, 114, 115, 116, 117, 118, 119, 120, 121, 122, 123, 124, 125, 126, 127, 128, 129, 130, 131, 132, 133, 134, 135, 136, 137, 138, 139, 140, 141, 142, 143, 144, 145, 146, 147, 148, 149, 150, 151, 152, 153, 154, 155, 156, 157, 158, 159, 160, 161, 162, 163, 164, 165, 166, 167, 168, 169, 170, 171, 172, 173, 174, 175, 176, 177, 178, 179, 180, 181, 182, 183, 184, 185, 186, 187, 188, 189, 190, 191, 192, 193, 194, 195, 196, 197, 198, 199, 200, 201, 202, 203, 204, 205, 206, 207, 208, 209, 210, 211, 212, 213, 214, 215, 216, 217, 218, 219, 220, 221, 222, 223, 224, 225, 226, 227, 228, 229, 230, 231, 232, 233, 234, 235, 236, 237, 238, 239, 240, 241, 242, 243, 244, 245, 246, 247, 248, 249, 250, 251, 252, 253, 254, 255, 256, 257, 258, 259, 260, 261, 262, 263, 264, 265, 266, 267, 268, 269, 270, 271, 272, 273, 274, 275, 276, 277, 278, 279, 280, 281, 282, 283, 284, 285, 286, 287, 288, 289, 290, 291, 292, 293, 294, 295, 296, 297, 298, 299, 300, 301, 302, 303, 304, 305, 306, 307, 308, 309, 310, 311, 312, 313, 314, 315, 316, 317, 318, 319, 320, 321, 322, 323, 324, 325, 326, 327, 328, 329, 330, 331, 332, 333, 334, 335, 336, 337, 338, 339, 340, 341, 342, 343, 344, 345, 346, 347, 348, 349, 350, 351, 352, 353, 354, 355, 356, 357, 358, 359, 360, 361, 362, 363, 364, 365, 366, 367, 368, 369, 370, 371, 372, 373, 374, 375, 376, 377, 378, 379, 380, 381, 382, 383, 384, 385, 386, 387, 388, 389, 390, 391, 392, 393, 394, 395, 396, 397, 398, 399, 400, 401, 402, 403, 404, 405, 406, 407, 408, 409, 410, 411, 412, 413, 414, 415, 416, 417, 418, 419, 420, 421, 422, 423, 424, 425, 426, 427, 428, 429, 430, 431, 432, 433, 434, 435, 436, 437, 438, 439, 440, 441, 442, 443, 444, 445, 446, 447, 448, 449, 450, 451, 452, 453, 454, 455, 456, 457, 458, 459, 460, 461, 462, 463, 464, 465, 466, 467, 468, 469, 470, 471, 472, 473, 474, 475, 476, 477, 478, 479, 480, 481, 482, 483, 484, 485, 486, 487, 488, 489, 490, 491, 492, 493, 494, 495, 496, 497, 498, 499, 500, 501, 502, 503, 504, 505, 506, 507, 508, 509, 510, 511, 512, 513, 514, 515, 516, 517, 518, 519, 520, 521, 522, 523, 524, 525, 526, 527, 528, 529, 530, 531, 532, 533, 534, 535, 536, 537, 538, 539, 540, 541, 542, 543, 544, 545, 546, 547, 548, 549, 550, 551, 552, 553, 554, 555, 556, 557, 558, 559, 560, 561, 562, 563, 564, 565, 566, 567, 568, 569, 570, 571, 572, 573, 574, 575, 576, 577, 578, 579, 580, 581, 582, 583, 584, 585, 586, 587, 588, 589, 590, 591, 592, 593, 594, 595, 596, 597, 598, 599, 600, 601, 602, 603, 604, 605, 606, 607, 608, 609, 610, 611, 612, 613, 614, 615, 616, 617, 618, 619, 620, 621, 622, 623, 624, 625, 626, 627, 628, 629, 630, 631, 632, 633, 634, 635, 636, 637, 638, 639, 640, 641, 642, 643, 644, 645, 646, 647, 648, 649, 650, 651, 652, 653, 654, 655, 656, 657, 658, 659, 660, 661, 662, 663, 664, 665, 666, 667, 668, 669, 670, 671, 672, 673, 674, 675, 676, 677, 678, 679, 680, 681, 682, 683, 684, 685, 686, 687, 688, 689, 690, 691, 692, 693, 694, 695, 696, 697, 698, 699, 700, 701, 702, 703, 704, 705, 706, 707, 708, 709, 710, 711, 712, 713, 714, 715, 716, 717, 718, 719, 720, 721, 722, 723, 724, 725, 726, 727, 728, 729, 730, 731, 732, 733, 734, 735, 736, 737, 738, 739, 740, 741, 742, 743, 744, 745, 746, 747, 748, 749, 750, 751, 752, 753, 754, 755, 756, 757, 758, 759, 760, 761, 762, 763, 764, 765, 766, 767, 768, 769, 770, 771, 772, 773, 774, 775, 776, 777, 778, 779, 780, 781, 782, 783, 784, 785, 786, 787, 788, 789, 790, 791, 792, 793, 794, 795, 796, 797, 798, 799, 800, 801, 802, 803, 804, 805, 806, 807, 808, 809, 810, 811, 812, 813, 814, 815, 816, 817, 818, 819, 820, 821, 822, 823, 824, 825, 826, 827, 828, 829, 830, 831, 832, 833, 834, 835, 836, 837, 838, 839, 840, 841, 842, 843, 844, 845, 846, 847, 848, 849, 850, 851, 852, 853, 854, 855, 856, 857, 858, 859, 860, 861, 862, 863, 864, 865, 866, 867, 868, 869, 870, 871, 872],
      "AcquisitionTime": ["090946.202500", "090946.662500", "090947.122500", "090947.582500", "090948.042500", "090948.502500", "090948.962500", "090949.422500", "090949.882500", "090950.342500", "090950.802500", "090951.262500", "090951.722500", "090952.182500", "090952.642500", "090953.102500", "090953.562500", "090954.022500", "090954.482500", "090954.942500", "090955.402500", "090955.862500", "090956.322500", "090956.782500", "090957.242500", "090957.702500", "090958.162500", "090958.622500", "090959.082500", "090959.542500", "091000.002500", "091000.462500", "091000.922500", "091001.382500", "091001.842500", "091002.302500", "091002.762500", "091003.222500", "091003.682500", "091004.142500", "091004.602500", "091005.062500", "091005.522500", "091005.982500", "091006.442500", "091006.902500", "091007.362500", "091007.822500", "091008.282500", "091008.742500", "091009.202500", "091009.662500", "091010.122500", "091010.582500", "091011.042500", "091011.502500", "091011.962500", "091012.422500", "091012.882500", "091013.342500", "091013.802500", "091014.262500", "091014.722500", "091015.182500", "091015.642500", "091016.102500", "091016.562500", "091017.022500", "091017.482500", "091017.942500", "091018.402500", "091018.862500", "091019.322500", "091019.782500", "091020.242500", "091020.702500", "091021.162500", "091021.622500", "091022.082500", "091022.542500", "091023.002500", "091023.462500", "091023.922500", "091024.382500", "091024.842500", "091025.302500", "091025.762500", "091026.222500", "091026.682500", "091027.142500", "091027.602500", "091028.062500", "091028.522500", "091028.982500", "091029.442500", "091029.902500", "091030.362500", "091030.822500", "091031.282500", "091031.742500", "091032.202500", "091032.662500", "091033.122500", "091033.582500", "091034.042500", "091034.502500", "091034.962500", "091035.422500", "091035.882500", "091036.342500", "091036.802500", "091037.262500", "091037.722500", "091038.182500", "091038.642500", "091039.102500", "091039.562500", "091040.022500", "091040.482500", "091040.942500", "091041.402500", "091041.862500", "091042.322500", "091042.782500", "091043.242500", "091043.702500", "091044.162500", "091044.622500", "091045.082500", "091045.542500", "091046.002500", "091046.462500", "091046.922500", "091047.382500", "091047.842500", "091048.302500", "091048.762500", "091049.222500", "091049.682500", "091050.142500", "091050.602500", "091051.062500", "091051.522500", "091051.982500", "091052.442500", "091052.902500", "091053.362500", "091053.822500", "091054.282500", "091054.742500", "091055.202500", "091055.662500", "091056.122500", "091056.582500", "091057.042500", "091057.502500", "091057.962500", "091058.422500", "091058.882500", "091059.342500", "091059.802500", "091100.262500", "091100.722500", "091101.182500", "091101.642500", "091102.102500", "091102.562500", "091103.022500", "091103.482500", "091103.942500", "091104.402500", "091104.862500", "091105.322500", "091105.782500", "091106.242500", "091106.702500", "091107.162500", "091107.622500", "091108.082500", "091108.542500", "091109.002500", "091109.462500", "091109.922500", "091110.382500", "091110.842500", "091111.302500", "091111.762500", "091112.222500", "091112.682500", "091113.142500", "091113.602500", "091114.062500", "091114.522500", "091114.982500", "091115.442500", "091115.902500", "091116.362500", "091116.822500", "091117.282500", "091117.742500", "091118.202500", "091118.662500", "091119.122500", "091119.582500", "091120.042500", "091120.502500", "091120.962500", "091121.422500", "091121.882500", "091122.342500", "091122.802500", "091123.262500", "091123.722500", "091124.182500", "091124.642500", "091125.102500", "091125.562500", "091126.022500", "091126.482500", "091126.942500", "091127.402500", "091127.862500", "091128.322500", "091128.782500", "091129.242500", "091129.702500", "091130.162500", "091130.622500", "091131.082500", "091131.542500", "091132.002500", "091132.462500", "091132.922500", "091133.382500", "091133.842500", "091134.302500", "091134.762500", "091135.222500", "091135.682500", "091136.142500", "091136.602500", "091137.062500", "091137.522500", "091137.982500", "091138.442500", "091138.902500", "091139.362500", "091139.822500", "091140.282500", "091140.742500", "091141.202500", "091141.662500", "091142.122500", "091142.582500", "091143.042500", "091143.502500", "091143.962500", "091144.422500", "091144.882500", "091145.342500", "091145.802500", "091146.262500", "091146.722500", "091147.182500", "091147.642500", "091148.102500", "091148.562500", "091149.022500", "091149.482500", "091149.942500", "091150.402500", "091150.862500", "091151.322500", "091151.782500", "091152.242500", "091152.702500", "091153.162500", "091153.622500", "091154.082500", "091154.542500", "091155.002500", "091155.462500", "091155.922500", "091156.382500", "091156.842500", "091157.302500", "091157.762500", "091158.222500", "091158.682500", "091159.142500", "091159.602500", "091200.062500", "091200.522500", "091200.982500", "091201.442500", "091201.902500", "091202.362500", "091202.822500", "091203.282500", "091203.742500", "091204.202500", "091204.662500", "091205.122500", "091205.582500", "091206.042500", "091206.502500", "091206.962500", "091207.422500", "091207.882500", "091208.342500", "091208.802500", "091209.262500", "091209.722500", "091210.182500", "091210.642500", "091211.102500", "091211.562500", "091212.022500", "091212.482500", "091212.942500", "091213.402500", "091213.862500", "091214.322500", "091214.782500", "091215.242500", "091215.702500", "091216.162500", "091216.622500", "091217.082500", "091217.542500", "091218.002500", "091218.462500", "091218.922500", "091219.382500", "091219.842500", "091220.302500", "091220.762500", "091221.222500", "091221.682500", "091222.142500", "091222.602500", "091223.062500", "091223.522500", "091223.982500", "091224.442500", "091224.902500", "091225.362500", "091225.822500", "091226.282500", "091226.742500", "091227.202500", "091227.662500", "091228.122500", "091228.582500", "091229.042500", "091229.502500", "091229.962500", "091230.422500", "091230.882500", "091231.342500", "091231.802500", "091232.262500", "091232.722500", "091233.182500", "091233.642500", "091234.102500", "091234.562500", "091235.022500", "091235.482500", "091235.942500", "091236.402500", "091236.862500", "091237.322500", "091237.782500", "091238.242500", "091238.702500", "091239.162500", "091239.622500", "091240.082500", "091240.542500", "091241.002500", "091241.462500", "091241.922500", "091242.382500", "091242.842500", "091243.302500", "091243.762500", "091244.222500", "091244.682500", "091245.142500", "091245.602500", "091246.062500", "091246.522500", "091246.982500", "091247.442500", "091247.902500", "091248.362500", "091248.822500", "091249.282500", "091249.742500", "091250.202500", "091250.662500", "091251.122500", "091251.582500", "091252.042500", "091252.502500", "091252.962500", "091253.422500", "091253.882500", "091254.342500", "091254.802500", "091255.262500", "091255.722500", "091256.182500", "091256.642500", "091257.102500", "091257.562500", "091258.022500", "091258.482500", "091258.942500", "091259.402500", "091259.862500", "091300.322500", "091300.782500", "091301.242500", "091301.702500", "091302.162500", "091302.622500", "091303.082500", "091303.542500", "091304.002500", "091304.462500", "091304.922500", "091305.382500", "091305.842500", "091306.302500", "091306.762500", "091307.222500", "091307.682500", "091308.142500", "091308.602500", "091309.062500", "091309.522500", "091309.982500", "091310.442500", "091310.902500", "091311.362500", "091311.822500", "091312.282500", "091312.742500", "091313.202500", "091313.662500", "091314.122500", "091314.582500", "091315.042500", "091315.502500", "091315.962500", "091316.422500", "091316.882500", "091317.342500", "091317.802500", "091318.262500", "091318.722500", "091319.182500", "091319.642500", "091320.102500", "091320.562500", "091321.022500", "091321.482500", "091321.942500", "091322.402500", "091322.862500", "091323.322500", "091323.782500", "091324.242500", "091324.702500", "091325.162500", "091325.622500", "091326.082500", "091326.542500", "091327.002500", "091327.462500", "091327.922500", "091328.382500", "091328.842500", "091329.302500", "091329.762500", "091330.222500", "091330.682500", "091331.142500", "091331.602500", "091332.062500", "091332.522500", "091332.982500", "091333.442500", "091333.902500", "091334.362500", "091334.822500", "091335.282500", "091335.742500", "091336.202500", "091336.662500", "091337.122500", "091337.582500", "091338.042500", "091338.502500", "091338.962500", "091339.422500", "091339.882500", "091340.342500", "091340.802500", "091341.262500", "091341.722500", "091342.182500", "091342.642500", "091343.102500", "091343.562500", "091344.022500", "091344.482500", "091344.942500", "091345.402500", "091345.862500", "091346.322500", "091346.782500", "091347.242500", "091347.702500", "091348.162500", "091348.622500", "091349.082500", "091349.542500", "091350.002500", "091350.462500", "091350.922500", "091351.382500", "091351.842500", "091352.302500", "091352.762500", "091353.222500", "091353.682500", "091354.142500", "091354.602500", "091355.062500", "091355.522500", "091355.982500", "091356.442500", "091356.902500", "091357.362500", "091357.822500", "091358.282500", "091358.742500", "091359.202500", "091359.662500", "091400.122500", "091400.582500", "091401.042500", "091401.502500", "091401.962500", "091402.422500", "091402.882500", "091403.342500", "091403.802500", "091404.262500", "091404.722500", "091405.182500", "091405.642500", "091406.102500", "091406.562500", "091407.022500", "091407.482500", "091407.942500", "091408.402500", "091408.862500", "091409.322500", "091409.782500", "091410.242500", "091410.702500", "091411.162500", "091411.622500", "091412.082500", "091412.542500", "091413.002500", "091413.462500", "091413.922500", "091414.382500", "091414.842500", "091415.302500", "091415.762500", "091416.222500", "091416.682500", "091417.142500", "091417.602500", "091418.062500", "091418.522500", "091418.982500", "091419.442500", "091419.902500", "091420.362500", "091420.822500", "091421.282500", "091421.742500", "091422.202500", "091422.662500", "091423.122500", "091423.582500", "091424.042500", "091424.502500", "091424.962500", "091425.422500", "091425.882500", "091426.342500", "091426.802500", "091427.262500", "091427.722500", "091428.182500", "091428.642500", "091429.102500", "091429.562500", "091430.022500", "091430.482500", "091430.942500", "091431.402500", "091431.862500", "091432.322500", "091432.782500", "091433.242500", "091433.702500", "091434.162500", "091434.622500", "091435.082500", "091435.542500", "091436.002500", "091436.462500", "091436.922500", "091437.382500", "091437.842500", "091438.302500", "091438.762500", "091439.222500", "091439.682500", "091440.142500", "091440.602500", "091441.062500", "091441.522500", "091441.982500", "091442.442500", "091442.902500", "091443.362500", "091443.822500", "091444.282500", "091444.742500", "091445.202500", "091445.662500", "091446.122500", "091446.582500", "091447.042500", "091447.502500", "091447.962500", "091448.422500", "091448.882500", "091449.342500", "091449.802500", "091450.262500", "091450.722500", "091451.182500", "091451.642500", "091452.102500", "091452.562500", "091453.022500", "091453.482500", "091453.942500", "091454.402500", "091454.862500", "091455.322500", "091455.782500", "091456.242500", "091456.702500", "091457.162500", "091457.622500", "091458.082500", "091458.542500", "091459.002500", "091459.462500", "091459.922500", "091500.382500", "091500.842500", "091501.302500", "091501.762500", "091502.222500", "091502.682500", "091503.142500", "091503.602500", "091504.062500", "091504.522500", "091504.982500", "091505.442500", "091505.902500", "091506.362500", "091506.822500", "091507.282500", "091507.742500", "091508.202500", "091508.662500", "091509.122500", "091509.582500", "091510.042500", "091510.502500", "091510.962500", "091511.422500", "091511.882500", "091512.342500", "091512.802500", "091513.262500", "091513.722500", "091514.182500", "091514.642500", "091515.102500", "091515.562500", "091516.022500", "091516.482500", "091516.942500", "091517.402500", "091517.862500", "091518.322500", "091518.782500", "091519.242500", "091519.702500", "091520.162500", "091520.622500", "091521.082500", "091521.542500", "091522.002500", "091522.462500", "091522.922500", "091523.382500", "091523.842500", "091524.302500", "091524.762500", "091525.222500", "091525.682500", "091526.142500", "091526.602500", "091527.062500", "091527.522500", "091527.982500", "091528.442500", "091528.902500", "091529.362500", "091529.822500", "091530.282500", "091530.742500", "091531.202500", "091531.662500", "091532.122500", "091532.582500", "091533.042500", "091533.502500", "091533.962500", "091534.422500", "091534.882500", "091535.342500", "091535.802500", "091536.262500", "091536.722500", "091537.182500", "091537.642500", "091538.102500", "091538.562500", "091539.022500", "091539.482500", "091539.942500", "091540.402500", "091540.862500", "091541.322500", "091541.782500", "091542.242500", "091542.702500", "091543.162500", "091543.622500", "091544.082500", "091544.542500", "091545.002500", "091545.462500", "091545.922500", "091546.382500", "091546.842500", "091547.302500", "091547.762500", "091548.222500", "091548.682500", "091549.142500", "091549.602500", "091550.062500", "091550.522500", "091550.982500", "091551.442500", "091551.902500", "091552.362500", "091552.822500", "091553.282500", "091553.742500", "091554.202500", "091554.662500", "091555.122500", "091555.582500", "091556.042500", "091556.502500", "091556.962500", "091557.422500", "091557.882500", "091558.342500", "091558.802500", "091559.262500", "091559.722500", "091600.182500", "091600.642500", "091601.102500", "091601.562500", "091602.022500", "091602.482500", "091602.942500", "091603.402500", "091603.862500", "091604.322500", "091604.782500", "091605.242500", "091605.702500", "091606.162500", "091606.622500", "091607.082500", "091607.542500", "091608.002500", "091608.462500", "091608.922500", "091609.382500", "091609.842500", "091610.302500", "091610.762500", "091611.222500", "091611.682500", "091612.142500", "091612.602500", "091613.062500", "091613.522500", "091613.982500", "091614.442500", "091614.902500", "091615.362500", "091615.822500", "091616.282500", "091616.742500", "091617.202500", "091617.662500", "091618.122500", "091618.582500", "091619.042500", "091619.502500", "091619.962500", "091620.422500", "091620.882500", "091621.342500", "091621.802500", "091622.262500", "091622.722500", "091623.182500", "091623.642500", "091624.102500", "091624.562500", "091625.022500", "091625.482500", "091625.942500", "091626.402500", "091626.862500"],
