{
  "AcquisitionMatrixPE": 140,
  "AcquisitionNumber": 1,
  "AcquisitionTime": "20:57:21.055000",
  "BandwidthPerPixelPhaseEncode": 10.352,
  "BaseResolution": 140,
  "BodyPartExamined": "BRAIN",
  "ConsistencyInfo": "N4_VE11E_LATEST_20181129",
  "ConversionSoftware": "dcm2niix",
  "ConversionSoftwareVersion": "v1.0.20201102",
  "DerivedVendorReportedEchoSpacing": 0.000689998,
  "DeviceSerialNumber": "66112",
  "DiffusionScheme": "Monopolar",
  "DwellTime": 2.1e-06,
  "EchoTime": 0.0884,
  "EchoTrainLength": 105,
  "EffectiveEchoSpacing": 0.000689998,
  "FlipAngle": 90,
  "ImageComments": "Unaliased MB3/PE3 SENSE1",
  "ImageOrientationPatientDICOM": [0.999009, -0.032619, 0.0302699, 0.0265089, 0.982578, 0.183949],
  "ImageType": [
    "ORIGINAL",
    "PRIMARY",
    "DIFFUSION",
    "NONE",
    "MB",
    "ND",
    "MOSAIC"
],
  "ImagingFrequency": 123.252,
  "InPlanePhaseEncodingDirectionDICOM": "COL",
  "InstitutionAddress": "Maynard 3,Hanover,NH,US,03755",
  "InstitutionName": "Dartmouth College - PBS",
  "InstitutionalDepartmentName": "Department",
  "MRAcquisitionType": "2D",
  "MagneticFieldStrength": 3,
  "Manufacturer": "Siemens",
  "ManufacturersModelName": "Prisma",
  "Modality": "MR",
  "MultibandAccelerationFactor": 3,
  "PartialFourier": 0.75,
  "PatientPosition": "HFS",
  "PercentPhaseFOV": 100,
  "PercentSampling": 100,
  "PhaseEncodingDirection": "j-",
  "PhaseEncodingSteps": 105,
  "PhaseResolution": 1,
  "PixelBandwidth": 1700,
  "ProcedureStepDescription": "Wager_Wager^1076_spacetop",
  "ProtocolName": "dwi_acq-96dir-6b0-mb",
  "PulseSequenceDetails": "%CustomerSeq%\\cmrr_mbep2d_diff",
  "ReceiveCoilActiveElements": "HEA;HEP",
  "ReceiveCoilName": "Head_32",
  "ReconMatrixPE": 140,
  "RepetitionTime": 4.11,
  "SAR": 0.257084,
  "ScanOptions": "PFP\\FS",
  "ScanningSequence": "EP",
  "SequenceName": "ep_b5#1",
  "SequenceVariant": "SK\\SS",
  "SeriesDescription": "dwi_acq-96dir-6b0-mb",
  "SeriesNumber": 8,
  "ShimSetting": [4130, -7718, -7227, 541, -134, -111, -79, 53],
  "SliceThickness": 1.7,
  "SliceTiming": [0, 2.1225, 0.1525, 2.2725, 0.3025, 2.425, 0.455, 2.575, 0.6075, 2.7275, 0.7575, 2.88, 0.91, 3.03, 1.06, 3.1825, 1.2125, 3.3325, 1.365, 3.485, 1.515, 3.635, 1.6675, 3.7875, 1.8175, 3.94, 1.97, 0, 2.1225, 0.1525, 2.2725, 0.3025, 2.425, 0.455, 2.575, 0.6075, 2.7275, 0.7575, 2.88, 0.91, 3.03, 1.06, 3.1825, 1.2125, 3.3325, 1.365, 3.485, 1.515, 3.635, 1.6675, 3.7875, 1.8175, 3.94, 1.97, 0, 2.1225, 0.1525, 2.2725, 0.3025, 2.425, 0.455, 2.575, 0.6075, 2.7275, 0.7575, 2.88, 0.91, 3.03, 1.06, 3.1825, 1.2125, 3.3325, 1.365, 3.485, 1.515, 3.635, 1.6675, 3.7875, 1.8175, 3.94, 1.97],
  "SoftwareVersions": "syngo MR E11",
  "SpacingBetweenSlices": 1.7,
  "StationName": "AWP66112",
  "TotalReadoutTime": 0.0959097,
  "TxRefAmp": 228.938,
  "WipMemBlock": "eec424b2-c707-4932-8864-26ed92c40558||Sequence: R016 ve11e/master r/434b28f1; Aug  7 2019 19:06:17 by eja",
  "dcmmeta_affine": [
    [-1.7125874757766724, 0.045443810522556305, 0.060762710869312286, 119.57439422607422],
    [0.055918317288160324, 1.6844199895858765, 0.31103911995887756, -111.13997650146484],
    [0.05189124494791031, -0.31534087657928467, 1.6701984405517578, -20.207992553710938],
    [0.0, 0.0, 0.0, 1.0]
],
  "dcmmeta_reorient_transform": [
    [0.0, -1.0, 0.0, 139.0],
    [1.0, 0.0, 0.0, 0.0],
    [0.0, 0.0, 1.0, 0.0],
    [0.0, 0.0, 0.0, 1.0]
],
  "dcmmeta_shape": [140, 140, 81, 103],
  "dcmmeta_slice_dim": 2,
  "dcmmeta_version": 0.6,
  "global": {
    "const": {
      "AccessionNumber": "A004035",
      "AcquisitionMatrix": [140, 0, 0, 140],
      "AngioFlag": "N",
      "BitsAllocated": 16,
      "BitsStored": 16,
      "BodyPartExamined": "BRAIN",
      "Columns": 1260,
      "EchoNumbers": 1,
      "EchoTime": 88.4,
      "EchoTrainLength": 105,
      "FlipAngle": 90.0,
      "HighBit": 15,
      "ImageOrientationPatient": [0.99900937596207, -0.0326190183081, 0.03026989237653, 0.02650888830738, 0.98257829468569, 0.18394883433516],
      "ImagePositionPatient": [-1110.3886274525, -1034.955313424, -269.69035266574],
      "ImageType": [
        "ORIGINAL",
        "PRIMARY",
        "DIFFUSION",
        "NONE",
        "MB",
        "ND",
        "MOSAIC"
],
      "ImagedNucleus": "1H",
      "ImagingFrequency": 123.252304,
      "InPlanePhaseEncodingDirection": "COL",
      "MRAcquisitionType": "2D",
      "MagneticFieldStrength": 3.0,
      "Manufacturer": "SIEMENS",
      "ManufacturerModelName": "Prisma",
      "Modality": "MR",
      "NumberOfAverages": 1.0,
      "NumberOfPhaseEncodingSteps": 105,
      "PercentPhaseFieldOfView": 100.0,
      "PercentSampling": 100.0,
      "PerformedProcedureStepStartTime": "204927.339000",
      "PhotometricInterpretation": "MONOCHROME2",
      "PixelBandwidth": 1700.0,
      "PixelRepresentation": 0,
      "PixelSpacing": [1.7142857313156, 1.7142857313156],
      "ProtocolName": "dwi_acq-96dir-6b0-mb",
      "RepetitionTime": 4110.0,
      "Rows": 1260,
      "SAR": 0.25708418661263,
      "SamplesPerPixel": 1,
      "ScanOptions": [
        "PFP",
        "FS"
],
      "ScanningSequence": "EP",
      "SequenceVariant": [
        "SK",
        "SS"
],
      "SeriesDescription": "dwi_acq-96dir-6b0-mb",
      "SeriesNumber": 8,
      "SeriesTime": "205811.792000",
      "SliceLocation": -35.914454607921,
      "SliceThickness": 1.7000000476837,
      "SmallestImagePixelValue": 0,
      "SoftwareVersions": "syngo MR E11",
      "SpacingBetweenSlices": 1.7000000364767,
      "SpecificCharacterSet": "ISO_IR 100",
      "StudyID": "1",
      "StudyTime": "204927.192000",
      "TransmitCoilName": "Body",
      "VariableFlipAngleFlag": "N",
      "WindowCenterWidthExplanation": "Algo1"
    },
    "slices": {}
  },
  "time": {
    "samples": {
      "AcquisitionNumber": [1, 2, 3, 4, 5, 6, 7, 8, 9, 10, 11, 12, 13, 14, 15, 16, 17, 18, 19, 20, 21, 22, 23, 24, 25, 26, 27, 28, 29, 30, 31, 32, 33, 34, 35, 36, 37, 38, 39, 40, 41, 42, 43, 44, 45, 46, 47, 48, 49, 50, 51, 52, 53, 54, 55, 56, 57, 58, 59, 60, 61, 62, 63, 64, 65, 66, 67, 68, 69, 70, 71, 72, 73, 74, 75, 76, 77, 78, 79, 80, 81, 82, 83, 84, 85, 86, 87, 88, 89, 90, 91, 92, 93, 94, 95, 96, 97, 98, 99, 100, 101, 102, 103],
      "AcquisitionTime": ["205721.055000", "205725.165000", "205729.275000", "205733.385000", "205737.495000", "205741.605000", "205745.715000", "205749.825000", "205753.935000", "205758.045000", "205802.155000", "205806.265000", "205810.375000", "205814.485000", "205818.595000", "205822.705000", "205826.815000", "205830.925000", "205835.035000", "205839.145000", "205843.255000", "205847.365000", "205851.475000", "205855.585000", "205859.695000", "205903.805000", "205907.915000", "205912.025000", "205916.135000", "205920.245000", "205924.355000", "205928.465000", "205932.575000", "205936.685000", "205940.795000", "205944.905000", "205949.015000", "205953.125000", "205957.235000", "210001.345000", "210005.455000", "210009.565000", "210013.675000", "210017.785000", "210021.895000", "210026.005000", "210030.115000", "210034.225000", "210038.335000", "210042.445000", "210046.555000", "210050.665000", "210054.775000", "210058.885000", "210102.995000", "210107.105000", "210111.215000", "210115.325000", "210119.435000", "210123.545000", "210127.655000", "210131.765000", "210135.875000", "210139.985000", "210144.095000", "210148.205000", "210152.315000", "210156.425000", "210200.535000", "210204.645000", "210208.755000", "210212.865000", "210216.975000", "210221.085000", "210225.195000", "210229.305000", "210233.415000", "210237.525000", "210241.635000", "210245.745000", "210249.855000", "210253.965000", "210258.075000", "210302.185000", "210306.295000", "210310.405000", "210314.515000", "210318.625000", "210322.735000", "210326.845000", "210330.955000", "210335.065000", "210339.175000", "210343.285000", "210347.395000", "210351.505000", "210355.615000", "210359.725000", "210403.835000", "210407.945000", "210412.055000", "210416.165000", "210420.275000"],
      "ContentTime": ["205811.795000", "205811.799000", "205811.802000", "205811.805000", "205811.809000", "205811.811000", "205811.814000", "205811.817000", "205811.820000", "205811.823000", "205811.827000", "205811.830000", "205951.791000", "205951.794000", "205951.798000", "205951.801000", "205951.804000", "205951.807000", "205951.818000", "205951.821000", "205951.824000", "205951.827000", "205951.830000", "205951.833000", "205951.836000", "205951.839000", "205951.842000", "205951.845000", "205951.848000", "205951.851000", "205951.854000", "205951.857000", "205951.860000", "205951.863000", "205951.866000", "205951.870000", "210131.790000", "210131.793000", "210131.796000", "210131.799000", "210131.802000", "210131.805000", "210131.808000", "210131.812000", "210131.815000", "210131.818000", "210131.821000", "210131.824000", "210131.827000", "210131.838000", "210131.841000", "210131.844000", "210131.861000", "210131.864000", "210131.867000", "210131.870000", "210131.873000", "210131.876000", "210131.879000", "210131.882000", "210251.791000", "210251.794000", "210251.797000", "210251.801000", "210251.804000", "210251.807000", "210251.810000", "210251.813000", "210251.816000", "210251.819000", "210251.822000", "210251.825000", "210251.828000", "210251.831000", "210251.834000", "210251.838000", "210251.841000", "210251.843000", "210251.846000", "210251.850000", "210425.087000", "210425.090000", "210425.093000", "210425.096000", "210425.099000", "210425.103000", "210425.106000", "210425.109000", "210425.112000", "210425.115000", "210425.118000", "210425.121000", "210425.124000", "210425.127000", "210425.131000", "210425.134000", "210425.137000", "210425.140000", "210425.144000", "210425.147000", "210425.151000", "210425.154000", "210425.157000"],
      "InstanceCreationTime": ["205811.795000", "205811.799000", "205811.802000", "205811.805000", "205811.809000", "205811.811000", "205811.814000", "205811.817000", "205811.820000", "205811.823000", "205811.827000", "205811.830000", "205951.791000", "205951.794000", "205951.798000", "205951.801000", "205951.804000", "205951.807000", "205951.818000", "205951.821000", "205951.824000", "205951.827000", "205951.830000", "205951.833000", "205951.836000", "205951.839000", "205951.842000", "205951.845000", "205951.848000", "205951.851000", "205951.854000", "205951.857000", "205951.860000", "205951.863000", "205951.866000", "205951.870000", "210131.790000", "210131.793000", "210131.796000", "210131.799000", "210131.802000", "210131.805000", "210131.808000", "210131.812000", "210131.815000", "210131.818000", "210131.821000", "210131.824000", "210131.827000", "210131.838000", "210131.841000", "210131.844000", "210131.861000", "210131.864000", "210131.867000", "210131.870000", "210131.873000", "210131.876000", "210131.879000", "210131.882000", "210251.791000", "210251.794000", "210251.797000", "210251.801000", "210251.804000", "210251.807000", "210251.810000", "210251.813000", "210251.816000", "210251.819000", "210251.822000", "210251.825000", "210251.828000", "210251.831000", "210251.834000", "210251.838000", "210251.841000", "210251.843000", "210251.846000", "210251.850000", "210425.087000", "210425.090000", "210425.093000", "210425.096000", "210425.099000", "210425.103000", "210425.106000", "210425.109000", "210425.112000", "210425.115000", "210425.118000", "210425.121000", "210425.124000", "210425.127000", "210425.131000", "210425.134000", "210425.137000", "210425.140000", "210425.144000", "210425.147000", "210425.151000", "210425.154000", "210425.157000"],
      "InstanceNumber": [1, 2, 3, 4, 5, 6, 7, 8, 9, 10, 11, 12, 13, 14, 15, 16, 17, 18, 19, 20, 21, 22, 23, 24, 25, 26, 27, 28, 29, 30, 31, 32, 33, 34, 35, 36, 37, 38, 39, 40, 41, 42, 43, 44, 45, 46, 47, 48, 49, 50, 51, 52, 53, 54, 55, 56, 57, 58, 59, 60, 61, 62, 63, 64, 65, 66, 67, 68, 69, 70, 71, 72, 73, 74, 75, 76, 77, 78, 79, 80, 81, 82, 83, 84, 85, 86, 87, 88, 89, 90, 91, 92, 93, 94, 95, 96, 97, 98, 99, 100, 101, 102, 103],
      "LargestImagePixelValue": [65535, 65535, 61623, 61086, 58881, 57785, 60291, 62993, 65535, 43699, 39285, 38873, 41053, 39610, 41118, 40862, 44386, 45951, 43227, 39671, 43008, 44378, 44693, 42356, 65535, 23986, 22186, 20773, 22870, 21735, 23463, 21600, 24551, 23180, 22400, 22389, 21288, 22873, 22726, 22125, 65535, 12751, 12983, 13789, 14020, 11803, 13122, 12973, 13215, 12195, 12471, 12318, 11619, 11311, 13725, 12583, 12632, 12981, 13763, 13772, 13245, 13723, 11929, 12330, 13375, 14010, 12312, 11910, 13189, 12283, 13670, 13349, 12477, 65535, 14278, 12467, 11587, 12978, 12294, 12866, 13000, 14606, 12368, 14935, 12285, 13219, 13430, 13324, 13371, 13990, 12327, 13722, 13550, 12315, 12663, 13537, 11513, 12587, 13803, 13536, 12895, 12981, 65535],
      "SequenceName": [
 "ep_b5#1",
 "ep_b5#1",
 "ep_b500#2",
 "ep_b500#3",
 "ep_b500#4",
 "ep_b505#5",
 "ep_b495#6",
 "ep_b500#7",
 "ep_b5#8",
 "ep_b1000#9",
 "ep_b1005#10",
 "ep_b1000#11",
 "ep_b1005#12",
 "ep_b995#13",
 "ep_b995#14",
 "ep_b1005#15",
 "ep_b1000#16",
 "ep_b1000#17",
 "ep_b995#18",
 "ep_b1000#19",
 "ep_b995#20",
 "ep_b1000#21",
 "ep_b1005#22",
 "ep_b1005#23",
 "ep_b5#24",
 "ep_b2000#25",
 "ep_b1995#26",
 "ep_b1995#27",
 "ep_b1995#28",
 "ep_b2005#29",
 "ep_b2010#30",
 "ep_b2005#31",
 "ep_b2005#32",
 "ep_b1995#33",
 "ep_b1990#34",
 "ep_b1995#35",
 "ep_b2005#36",
 "ep_b2000#37",
 "ep_b2010#38",
 "ep_b2000#39",
 "ep_b5#40",
 "ep_b3000#41",
 "ep_b3005#42",
 "ep_b3010#43",
 "ep_b3010#44",
 "ep_b2995#45",
 "ep_b3000#46",
 "ep_b2990#47",
 "ep_b3005#48",
 "ep_b3000#49",
 "ep_b2990#50",
 "ep_b2990#51",
 "ep_b2995#52",
 "ep_b2995#53",
 "ep_b3010#54",
 "ep_b3000#55",
 "ep_b2995#56",
 "ep_b3000#57",
 "ep_b2990#58",
 "ep_b2990#59",
 "ep_b3000#60",
 "ep_b2990#61",
 "ep_b2990#62",
 "ep_b2995#63",
 "ep_b3005#64",
 "ep_b3010#65",
 "ep_b3000#66",
 "ep_b3005#67",
 "ep_b3010#68",
 "ep_b3005#69",
 "ep_b3005#70",
 "ep_b3005#71",
 "ep_b2990#72",
 "ep_b5#73",
 "ep_b3010#74",
 "ep_b3000#75",
 "ep_b3005#76",
 "ep_b3005#77",
 "ep_b2995#78",
 "ep_b3005#79",
 "ep_b2995#80",
 "ep_b3010#81",
 "ep_b3010#82",
 "ep_b3005#83",
 "ep_b3000#84",
 "ep_b3000#85",
 "ep_b3010#86",
 "ep_b3010#87",
 "ep_b2990#88",
 "ep_b3010#89",
 "ep_b2990#90",
 "ep_b2995#91",
 "ep_b2995#92",
 "ep_b2995#93",
 "ep_b3005#94",
 "ep_b3005#95",
 "ep_b2995#96",
 "ep_b3000#97",
 "ep_b2990#98",
 "ep_b3000#99",
 "ep_b3000#100",
 "ep_b2995#101",
 "ep_b5#102"
],
      "WindowCenter": [10444.0, 10452.0, 7171.0, 7202.0, 7163.0, 7107.0, 7218.0, 7194.0, 10445.0, 5413.0, 5396.0, 5363.0, 5329.0, 5379.0, 5413.0, 5386.0, 5414.0, 5399.0, 5415.0, 5369.0, 5435.0, 5406.0, 5406.0, 5417.0, 10457.0, 3516.0, 3486.0, 3469.0, 3558.0, 3511.0, 3535.0, 3500.0, 3489.0, 3536.0, 3556.0, 3534.0, 3455.0, 3504.0, 3533.0, 3474.0, 10447.0, 2510.0, 2457.0, 2562.0, 2559.0, 2468.0, 2528.0, 2562.0, 2460.0, 2472.0, 2491.0, 2521.0, 2476.0, 2496.0, 2563.0, 2454.0, 2514.0, 2484.0, 2563.0, 2544.0, 2514.0, 2529.0, 2553.0, 2523.0, 2555.0, 2575.0, 2464.0, 2494.0, 2524.0, 2487.0, 2521.0, 2573.0, 2552.0, 10456.0, 2571.0, 2487.0, 2428.0, 2515.0, 2447.0, 2473.0, 2478.0, 2524.0, 2534.0, 2516.0, 2486.0, 2522.0, 2471.0, 2488.0, 2535.0, 2545.0, 2528.0, 2496.0, 2500.0, 2523.0, 2491.0, 2536.0, 2539.0, 2487.0, 2562.0, 2484.0, 2509.0, 2552.0, 10467.0],
      "WindowWidth": [23709.0, 23738.0, 15113.0, 15162.0, 15091.0, 15017.0, 15204.0, 15145.0, 23714.0, 11580.0, 11588.0, 11500.0, 11453.0, 11538.0, 11609.0, 11555.0, 11568.0, 11545.0, 11587.0, 11502.0, 11625.0, 11560.0, 11578.0, 11583.0, 23770.0, 7912.0, 7850.0, 7834.0, 7979.0, 7926.0, 7961.0, 7882.0, 7867.0, 7943.0, 7994.0, 7959.0, 7810.0, 7870.0, 7956.0, 7830.0, 23748.0, 5978.0, 5849.0, 6073.0, 6053.0, 5899.0, 5994.0, 6068.0, 5858.0, 5909.0, 5917.0, 5982.0, 5929.0, 5980.0, 6079.0, 5866.0, 5997.0, 5900.0, 6066.0, 6021.0, 5963.0, 5991.0, 6062.0, 6006.0, 6047.0, 6095.0, 5878.0, 5945.0, 6007.0, 5946.0, 5997.0, 6090.0, 6050.0, 23779.0, 6075.0, 5913.0, 5816.0, 5974.0, 5832.0, 5883.0, 5903.0, 5970.0, 6021.0, 5972.0, 5943.0, 6002.0, 5874.0, 5914.0, 6018.0, 6025.0, 6024.0, 5916.0, 5930.0, 6007.0, 5933.0, 6030.0, 6039.0, 5913.0, 6067.0, 5901.0, 5973.0, 6064.0, 23789.0]
    },
    "slices": {}
  }
}