{
  "AcquisitionMatrixPE": 82,
  "AcquisitionNumber": 1,
  "AcquisitionTime": "13:24:7.730000",
  "BandwidthPerPixelPhaseEncode": 24.888,
  "BaseResolution": 82,
  "BodyPartExamined": "BRAIN",
  "ConsistencyInfo": "N4_VE11C_LATEST_20160120",
  "ConversionSoftware": "dcm2niix",
  "ConversionSoftwareVersion": "v1.0.20201102",
  "DerivedVendorReportedEchoSpacing": 0.00049,
  "DeviceSerialNumber": "66112",
  "DwellTime": 2e-06,
  "EchoTime": 0.0272,
  "EchoTrainLength": 82,
  "EffectiveEchoSpacing": 0.00049,
  "FlipAngle": 44,
  "ImageComments": "Unaliased MB8/PE3",
  "ImageOrientationPatientDICOM": [0.999182, -0.0374765, 0.0151811, 0.0383847, 0.997162, -0.0647674],
  "ImageType": [
    "ORIGINAL",
    "PRIMARY",
    "M",
    "MB",
    "ND",
    "NORM",
    "MOSAIC"
],
  "ImagingFrequency": 123.252,
  "InPlanePhaseEncodingDirectionDICOM": "COL",
  "InstitutionAddress": "Maynard 3,Hanover,NH,US,03755",
  "InstitutionName": "Dartmouth College - PBS",
  "InstitutionalDepartmentName": "Department",
  "MRAcquisitionType": "2D",
  "MagneticFieldStrength": 3,
  "Manufacturer": "Siemens",
  "ManufacturersModelName": "Prisma",
  "Modality": "MR",
  "MultibandAccelerationFactor": 8,
  "PartialFourier": 1,
  "PatientPosition": "HFS",
  "PercentPhaseFOV": 100,
  "PercentSampling": 100,
  "PhaseEncodingDirection": "j-",
  "PhaseEncodingSteps": 82,
  "PhaseResolution": 1,
  "PixelBandwidth": 3050,
  "ProcedureStepDescription": "Wager_Wager^1076_spacetop",
  "ProtocolName": "func_run-02_task-narratives_acq-ap-mb8",
  "PulseSequenceDetails": "%CustomerSeq%\\cmrr_mbep2d_bold",
  "ReceiveCoilActiveElements": "HEA;HEP",
  "ReceiveCoilName": "Head_32",
  "ReconMatrixPE": 82,
  "RepetitionTime": 0.46,
  "SAR": 0.103618,
  "ScanOptions": "FS",
  "ScanningSequence": "EP",
  "SequenceName": "epfid2d1_82",
  "SequenceVariant": "SK\\SS",
  "SeriesDescription": "func_run-02_task-narratives_acq-ap-mb8",
  "SeriesNumber": 10,
  "ShimSetting": [4142, -7770, -7224, 623, -74, -158, -36, 64],
  "SliceThickness": 2.7,
  "SliceTiming": [0, 0.25, 0.0625, 0.3125, 0.125, 0.375, 0.1875, 0, 0.25, 0.0625, 0.3125, 0.125, 0.375, 0.1875, 0, 0.25, 0.0625, 0.3125, 0.125, 0.375, 0.1875, 0, 0.25, 0.0625, 0.3125, 0.125, 0.375, 0.1875, 0, 0.25, 0.0625, 0.3125, 0.125, 0.375, 0.1875, 0, 0.25, 0.0625, 0.3125, 0.125, 0.375, 0.1875, 0, 0.25, 0.0625, 0.3125, 0.125, 0.375, 0.1875, 0, 0.25, 0.0625, 0.3125, 0.125, 0.375, 0.1875],
  "SoftwareVersions": "syngo MR E11",
  "SpacingBetweenSlices": 2.7,
  "StationName": "AWP66112",
  "TaskName": "narratives",
  "TotalReadoutTime": 0.03969,
  "TxRefAmp": 255.583,
  "WipMemBlock": "b86ba967-9ca3-4a12-a405-6c9087b1fefe||Sequence: R016 ve11c/master r/e634e98; Dec 19 2017 11:00:25 by eja",
  "dcmmeta_affine": [
    [-2.6807327270507812, 0.10298342257738113, 0.034319039434194565, 106.30611419677734],
    [0.10054660588502884, 2.6753125190734863, -0.17630219459533691, -97.97314453125],
    [0.04072976112365723, 0.17376607656478882, 2.694019317626953, -82.89295196533203],
    [0.0, 0.0, 0.0, 1.0]
],
  "dcmmeta_reorient_transform": [
    [0.0, -1.0, 0.0, 81.0],
    [1.0, 0.0, 0.0, 0.0],
    [0.0, 0.0, 1.0, 0.0],
    [0.0, 0.0, 0.0, 1.0]
],
  "dcmmeta_shape": [82, 82, 56, 1098],
  "dcmmeta_slice_dim": 2,
  "dcmmeta_version": 0.6,
  "global": {
    "const": {
      "AccessionNumber": "A003826",
      "AcquisitionMatrix": [82, 0, 0, 82],
      "AngioFlag": "N",
      "BitsAllocated": 16,
      "BitsStored": 16,
      "BodyPartExamined": "BRAIN",
      "Columns": 656,
      "EchoNumbers": 1,
      "EchoTime": 27.2,
      "EchoTrainLength": 82,
      "FlipAngle": 44.0,
      "HighBit": 15,
      "ImageOrientationPatient": [0.99918219021614, -0.0374764616659, 0.01518109271049, 0.03838472937558, 0.99716187358318, -0.0647673561515],
      "ImagePositionPatient": [-913.5743161282, -857.68494867449, -30.636479404497],
      "ImageType": [
        "ORIGINAL",
        "PRIMARY",
        "M",
        "MB",
        "ND",
        "NORM",
        "MOSAIC"
],
      "ImagedNucleus": "1H",
      "ImagingFrequency": 123.252209,
      "InPlanePhaseEncodingDirection": "COL",
      "MRAcquisitionType": "2D",
      "MagneticFieldStrength": 3.0,
      "Manufacturer": "SIEMENS",
      "ManufacturerModelName": "Prisma",
      "Modality": "MR",
      "NumberOfAverages": 1.0,
      "NumberOfPhaseEncodingSteps": 82,
      "PercentPhaseFieldOfView": 100.0,
      "PercentSampling": 100.0,
      "PerformedProcedureStepStartTime": "130051.067000",
      "PhotometricInterpretation": "MONOCHROME2",
      "PixelBandwidth": 3050.0,
      "PixelRepresentation": 0,
      "PixelSpacing": [2.6829268932343, 2.6829268932343],
      "ProtocolName": "func_run-02_task-narratives_acq-ap-mb8",
      "RepetitionTime": 460.0,
      "Rows": 656,
      "SAR": 0.10361822904818,
      "SamplesPerPixel": 1,
      "ScanOptions": "FS",
      "ScanningSequence": "EP",
      "SequenceName": "epfid2d1_82",
      "SequenceVariant": [
        "SK",
        "SS"
],
      "SeriesDescription": "func_run-02_task-narratives_acq-ap-mb8",
      "SeriesNumber": 10,
      "SeriesTime": "132421.210000",
      "SliceLocation": -74.960746251171,
      "SliceThickness": 2.7000000476837,
      "SmallestImagePixelValue": 0,
      "SoftwareVersions": "syngo MR E11",
      "SpacingBetweenSlices": 2.6999999954433,
      "SpecificCharacterSet": "ISO_IR 100",
      "StudyID": "2",
      "StudyTime": "130051.001000",
      "TransmitCoilName": "Body",
      "VariableFlipAngleFlag": "N",
      "WindowCenterWidthExplanation": "Algo1",
      "dBdt": 0.0},
    "slices": {}
  },
  "time": {
    "samples": {
      "AcquisitionNumber": [1, 2, 3, 4, 5, 6, 7, 8, 9, 10, 11, 12, 13, 14, 15, 16, 17, 18, 19, 20, 21, 22, 23, 24, 25, 26, 27, 28, 29, 30, 31, 32, 33, 34, 35, 36, 37, 38, 39, 40, 41, 42, 43, 44, 45, 46, 47, 48, 49, 50, 51, 52, 53, 54, 55, 56, 57, 58, 59, 60, 61, 62, 63, 64, 65, 66, 67, 68, 69, 70, 71, 72, 73, 74, 75, 76, 77, 78, 79, 80, 81, 82, 83, 84, 85, 86, 87, 88, 89, 90, 91, 92, 93, 94, 95, 96, 97, 98, 99, 100, 101, 102, 103, 104, 105, 106, 107, 108, 109, 110, 111, 112, 113, 114, 115, 116, 117, 118, 119, 120, 121, 122, 123, 124, 125, 126, 127, 128, 129, 130, 131, 132, 133, 134, 135, 136, 137, 138, 139, 140, 141, 142, 143, 144, 145, 146, 147, 148, 149, 150, 151, 152, 153, 154, 155, 156, 157, 158, 159, 160, 161, 162, 163, 164, 165, 166, 167, 168, 169, 170, 171, 172, 173, 174, 175, 176, 177, 178, 179, 180, 181, 182, 183, 184, 185, 186, 187, 188, 189, 190, 191, 192, 193, 194, 195, 196, 197, 198, 199, 200, 201, 202, 203, 204, 205, 206, 207, 208, 209, 210, 211, 212, 213, 214, 215, 216, 217, 218, 219, 220, 221, 222, 223, 224, 225, 226, 227, 228, 229, 230, 231, 232, 233, 234, 235, 236, 237, 238, 239, 240, 241, 242, 243, 244, 245, 246, 247, 248, 249, 250, 251, 252, 253, 254, 255, 256, 257, 258, 259, 260, 261, 262, 263, 264, 265, 266, 267, 268, 269, 270, 271, 272, 273, 274, 275, 276, 277, 278, 279, 280, 281, 282, 283, 284, 285, 286, 287, 288, 289, 290, 291, 292, 293, 294, 295, 296, 297, 298, 299, 300, 301, 302, 303, 304, 305, 306, 307, 308, 309, 310, 311, 312, 313, 314, 315, 316, 317, 318, 319, 320, 321, 322, 323, 324, 325, 326, 327, 328, 329, 330, 331, 332, 333, 334, 335, 336, 337, 338, 339, 340, 341, 342, 343, 344, 345, 346, 347, 348, 349, 350, 351, 352, 353, 354, 355, 356, 357, 358, 359, 360, 361, 362, 363, 364, 365, 366, 367, 368, 369, 370, 371, 372, 373, 374, 375, 376, 377, 378, 379, 380, 381, 382, 383, 384, 385, 386, 387, 388, 389, 390, 391, 392, 393, 394, 395, 396, 397, 398, 399, 400, 401, 402, 403, 404, 405, 406, 407, 408, 409, 410, 411, 412, 413, 414, 415, 416, 417, 418, 419, 420, 421, 422, 423, 424, 425, 426, 427, 428, 429, 430, 431, 432, 433, 434, 435, 436, 437, 438, 439, 440, 441, 442, 443, 444, 445, 446, 447, 448, 449, 450, 451, 452, 453, 454, 455, 456, 457, 458, 459, 460, 461, 462, 463, 464, 465, 466, 467, 468, 469, 470, 471, 472, 473, 474, 475, 476, 477, 478, 479, 480, 481, 482, 483, 484, 485, 486, 487, 488, 489, 490, 491, 492, 493, 494, 495, 496, 497, 498, 499, 500, 501, 502, 503, 504, 505, 506, 507, 508, 509, 510, 511, 512, 513, 514, 515, 516, 517, 518, 519, 520, 521, 522, 523, 524, 525, 526, 527, 528, 529, 530, 531, 532, 533, 534, 535, 536, 537, 538, 539, 540, 541, 542, 543, 544, 545, 546, 547, 548, 549, 550, 551, 552, 553, 554, 555, 556, 557, 558, 559, 560, 561, 562, 563, 564, 565, 566, 567, 568, 569, 570, 571, 572, 573, 574, 575, 576, 577, 578, 579, 580, 581, 582, 583, 584, 585, 586, 587, 588, 589, 590, 591, 592, 593, 594, 595, 596, 597, 598, 599, 600, 601, 602, 603, 604, 605, 606, 607, 608, 609, 610, 611, 612, 613, 614, 615, 616, 617, 618, 619, 620, 621, 622, 623, 624, 625, 626, 627, 628, 629, 630, 631, 632, 633, 634, 635, 636, 637, 638, 639, 640, 641, 642, 643, 644, 645, 646, 647, 648, 649, 650, 651, 652, 653, 654, 655, 656, 657, 658, 659, 660, 661, 662, 663, 664, 665, 666, 667, 668, 669, 670, 671, 672, 673, 674, 675, 676, 677, 678, 679, 680, 681, 682, 683, 684, 685, 686, 687, 688, 689, 690, 691, 692, 693, 694, 695, 696, 697, 698, 699, 700, 701, 702, 703, 704, 705, 706, 707, 708, 709, 710, 711, 712, 713, 714, 715, 716, 717, 718, 719, 720, 721, 722, 723, 724, 725, 726, 727, 728, 729, 730, 731, 732, 733, 734, 735, 736, 737, 738, 739, 740, 741, 742, 743, 744, 745, 746, 747, 748, 749, 750, 751, 752, 753, 754, 755, 756, 757, 758, 759, 760, 761, 762, 763, 764, 765, 766, 767, 768, 769, 770, 771, 772, 773, 774, 775, 776, 777, 778, 779, 780, 781, 782, 783, 784, 785, 786, 787, 788, 789, 790, 791, 792, 793, 794, 795, 796, 797, 798, 799, 800, 801, 802, 803, 804, 805, 806, 807, 808, 809, 810, 811, 812, 813, 814, 815, 816, 817, 818, 819, 820, 821, 822, 823, 824, 825, 826, 827, 828, 829, 830, 831, 832, 833, 834, 835, 836, 837, 838, 839, 840, 841, 842, 843, 844, 845, 846, 847, 848, 849, 850, 851, 852, 853, 854, 855, 856, 857, 858, 859, 860, 861, 862, 863, 864, 865, 866, 867, 868, 869, 870, 871, 872, 873, 874, 875, 876, 877, 878, 879, 880, 881, 882, 883, 884, 885, 886, 887, 888, 889, 890, 891, 892, 893, 894, 895, 896, 897, 898, 899, 900, 901, 902, 903, 904, 905, 906, 907, 908, 909, 910, 911, 912, 913, 914, 915, 916, 917, 918, 919, 920, 921, 922, 923, 924, 925, 926, 927, 928, 929, 930, 931, 932, 933, 934, 935, 936, 937, 938, 939, 940, 941, 942, 943, 944, 945, 946, 947, 948, 949, 950, 951, 952, 953, 954, 955, 956, 957, 958, 959, 960, 961, 962, 963, 964, 965, 966, 967, 968, 969, 970, 971, 972, 973, 974, 975, 976, 977, 978, 979, 980, 981, 982, 983, 984, 985, 986, 987, 988, 989, 990, 991, 992, 993, 994, 995, 996, 997, 998, 999, 1000, 1001, 1002, 1003, 1004, 1005, 1006, 1007, 1008, 1009, 1010, 1011, 1012, 1013, 1014, 1015, 1016, 1017, 1018, 1019, 1020, 1021, 1022, 1023, 1024, 1025, 1026, 1027, 1028, 1029, 1030, 1031, 1032, 1033, 1034, 1035, 1036, 1037, 1038, 1039, 1040, 1041, 1042, 1043, 1044, 1045, 1046, 1047, 1048, 1049, 1050, 1051, 1052, 1053, 1054, 1055, 1056, 1057, 1058, 1059, 1060, 1061, 1062, 1063, 1064, 1065, 1066, 1067, 1068, 1069, 1070, 1071, 1072, 1073, 1074, 1075, 1076, 1077, 1078, 1079, 1080, 1081, 1082, 1083, 1084, 1085, 1086, 1087, 1088, 1089, 1090, 1091, 1092, 1093, 1094, 1095, 1096, 1097, 1098],
      "AcquisitionTime": ["132407.730000", "132408.190000", "132408.650000", "132409.110000", "132409.570000", "132410.030000", "132410.490000", "132410.950000", "132411.410000", "132411.870000", "132412.330000", "132412.790000", "132413.250000", "132413.710000", "132414.170000", "132414.630000", "132415.090000", "132415.550000", "132416.010000", "132416.470000", "132416.930000", "132417.390000", "132417.850000", "132418.310000", "132418.770000", "132419.230000", "132419.690000", "132420.150000", "132420.610000", "132421.070000", "132421.530000", "132421.990000", "132422.450000", "132422.910000", "132423.370000", "132423.830000", "132424.290000", "132424.750000", "132425.210000", "132425.670000", "132426.130000", "132426.590000", "132427.050000", "132427.510000", "132427.970000", "132428.430000", "132428.890000", "132429.350000", "132429.810000", "132430.270000", "132430.730000", "132431.190000", "132431.650000", "132432.110000", "132432.570000", "132433.030000", "132433.490000", "132433.950000", "132434.410000", "132434.870000", "132435.330000", "132435.790000", "132436.250000", "132436.710000", "132437.170000", "132437.630000", "132438.090000", "132438.550000", "132439.010000", "132439.470000", "132439.930000", "132440.390000", "132440.850000", "132441.310000", "132441.770000", "132442.230000", "132442.690000", "132443.150000", "132443.610000", "132444.070000", "132444.530000", "132444.990000", "132445.450000", "132445.910000", "132446.370000", "132446.830000", "132447.290000", "132447.750000", "132448.210000", "132448.670000", "132449.130000", "132449.590000", "132450.050000", "132450.510000", "132450.970000", "132451.430000", "132451.890000", "132452.350000", "132452.810000", "132453.270000", "132453.730000", "132454.190000", "132454.650000", "132455.110000", "132455.570000", "132456.030000", "132456.490000", "132456.950000", "132457.410000", "132457.870000", "132458.330000", "132458.790000", "132459.250000", "132459.710000", "132500.170000", "132500.630000", "132501.090000", "132501.550000", "132502.010000", "132502.470000", "132502.930000", "132503.390000", "132503.850000", "132504.310000", "132504.770000", "132505.230000", "132505.690000", "132506.150000", "132506.610000", "132507.070000", "132507.530000", "132507.990000", "132508.450000", "132508.910000", "132509.370000", "132509.830000", "132510.290000", "132510.750000", "132511.210000", "132511.670000", "132512.130000", "132512.590000", "132513.050000", "132513.510000", "132513.970000", "132514.430000", "132514.890000", "132515.350000", "132515.810000", "132516.270000", "132516.730000", "132517.190000", "132517.650000", "132518.110000", "132518.570000", "132519.030000", "132519.490000", "132519.950000", "132520.410000", "132520.870000", "132521.330000", "132521.790000", "132522.250000", "132522.710000", "132523.170000", "132523.630000", "132524.090000", "132524.550000", "132525.010000", "132525.470000", "132525.930000", "132526.390000", "132526.850000", "132527.310000", "132527.770000", "132528.230000", "132528.690000", "132529.150000", "132529.610000", "132530.070000", "132530.530000", "132530.990000", "132531.450000", "132531.910000", "132532.370000", "132532.830000", "132533.290000", "132533.750000", "132534.210000", "132534.670000", "132535.130000", "132535.590000", "132536.050000", "132536.510000", "132536.970000", "132537.430000", "132537.890000", "132538.350000", "132538.810000", "132539.270000", "132539.730000", "132540.190000", "132540.650000", "132541.110000", "132541.570000", "132542.030000", "132542.490000", "132542.950000", "132543.410000", "132543.870000", "132544.330000", "132544.790000", "132545.250000", "132545.710000", "132546.170000", "132546.630000", "132547.090000", "132547.550000", "132548.010000", "132548.470000", "132548.930000", "132549.390000", "132549.850000", "132550.310000", "132550.770000", "132551.230000", "132551.690000", "132552.150000", "132552.610000", "132553.070000", "132553.530000", "132553.990000", "132554.450000", "132554.910000", "132555.370000", "132555.830000", "132556.290000", "132556.750000", "132557.210000", "132557.670000", "132558.130000", "132558.590000", "132559.050000", "132559.510000", "132559.970000", "132600.430000", "132600.890000", "132601.350000", "132601.810000", "132602.270000", "132602.730000", "132603.190000", "132603.650000", "132604.110000", "132604.570000", "132605.030000", "132605.490000", "132605.950000", "132606.410000", "132606.870000", "132607.330000", "132607.790000", "132608.250000", "132608.710000", "132609.170000", "132609.630000", "132610.090000", "132610.550000", "132611.010000", "132611.470000", "132611.930000", "132612.390000", "132612.850000", "132613.310000", "132613.770000", "132614.230000", "132614.690000", "132615.150000", "132615.610000", "132616.070000", "132616.530000", "132616.990000", "132617.450000", "132617.910000", "132618.370000", "132618.830000", "132619.290000", "132619.750000", "132620.210000", "132620.670000", "132621.130000", "132621.590000", "132622.050000", "132622.510000", "132622.970000", "132623.430000", "132623.890000", "132624.350000", "132624.810000", "132625.270000", "132625.730000", "132626.190000", "132626.650000", "132627.110000", "132627.570000", "132628.030000", "132628.490000", "132628.950000", "132629.410000", "132629.870000", "132630.330000", "132630.790000", "132631.250000", "132631.710000", "132632.170000", "132632.630000", "132633.090000", "132633.550000", "132634.010000", "132634.470000", "132634.930000", "132635.390000", "132635.850000", "132636.310000", "132636.770000", "132637.230000", "132637.690000", "132638.150000", "132638.610000", "132639.070000", "132639.530000", "132639.990000", "132640.450000", "132640.910000", "132641.370000", "132641.830000", "132642.290000", "132642.750000", "132643.210000", "132643.670000", "132644.130000", "132644.590000", "132645.050000", "132645.510000", "132645.970000", "132646.430000", "132646.890000", "132647.350000", "132647.810000", "132648.270000", "132648.730000", "132649.190000", "132649.650000", "132650.110000", "132650.570000", "132651.030000", "132651.490000", "132651.950000", "132652.410000", "132652.870000", "132653.330000", "132653.790000", "132654.250000", "132654.710000", "132655.170000", "132655.630000", "132656.090000", "132656.550000", "132657.010000", "132657.470000", "132657.930000", "132658.390000", "132658.850000", "132659.310000", "132659.770000", "132700.230000", "132700.690000", "132701.150000", "132701.610000", "132702.070000", "132702.530000", "132702.990000", "132703.450000", "132703.910000", "132704.370000", "132704.830000", "132705.290000", "132705.750000", "132706.210000", "132706.670000", "132707.130000", "132707.590000", "132708.050000", "132708.510000", "132708.970000", "132709.430000", "132709.890000", "132710.350000", "132710.810000", "132711.270000", "132711.730000", "132712.190000", "132712.650000", "132713.110000", "132713.570000", "132714.030000", "132714.490000", "132714.950000", "132715.410000", "132715.870000", "132716.330000", "132716.790000", "132717.250000", "132717.710000", "132718.170000", "132718.630000", "132719.090000", "132719.550000", "132720.010000", "132720.470000", "132720.930000", "132721.390000", "132721.850000", "132722.310000", "132722.770000", "132723.230000", "132723.690000", "132724.150000", "132724.610000", "132725.070000", "132725.530000", "132725.990000", "132726.450000", "132726.910000", "132727.370000", "132727.830000", "132728.290000", "132728.750000", "132729.210000", "132729.670000", "132730.130000", "132730.590000", "132731.050000", "132731.510000", "132731.970000", "132732.430000", "132732.890000", "132733.350000", "132733.810000", "132734.270000", "132734.730000", "132735.190000", "132735.650000", "132736.110000", "132736.570000", "132737.030000", "132737.490000", "132737.950000", "132738.410000", "132738.870000", "132739.330000", "132739.790000", "132740.250000", "132740.710000", "132741.170000", "132741.630000", "132742.090000", "132742.550000", "132743.010000", "132743.470000", "132743.930000", "132744.390000", "132744.850000", "132745.310000", "132745.770000", "132746.230000", "132746.690000", "132747.150000", "132747.610000", "132748.070000", "132748.530000", "132748.990000", "132749.450000", "132749.910000", "132750.370000", "132750.830000", "132751.290000", "132751.750000", "132752.210000", "132752.670000", "132753.130000", "132753.590000", "132754.050000", "132754.510000", "132754.970000", "132755.430000", "132755.890000", "132756.350000", "132756.810000", "132757.270000", "132757.730000", "132758.190000", "132758.650000", "132759.110000", "132759.570000", "132800.030000", "132800.490000", "132800.950000", "132801.410000", "132801.870000", "132802.330000", "132802.790000", "132803.250000", "132803.710000", "132804.170000", "132804.630000", "132805.090000", "132805.550000", "132806.010000", "132806.470000", "132806.930000", "132807.390000", "132807.850000", "132808.310000", "132808.770000", "132809.230000", "132809.690000", "132810.150000", "132810.610000", "132811.070000", "132811.530000", "132811.990000", "132812.450000", "132812.910000", "132813.370000", "132813.830000", "132814.290000", "132814.750000", "132815.210000", "132815.670000", "132816.130000", "132816.590000", "132817.050000", "132817.510000", "132817.970000", "132818.430000", "132818.890000", "132819.350000", "132819.810000", "132820.270000", "132820.730000", "132821.190000", "132821.650000", "132822.110000", "132822.570000", "132823.030000", "132823.490000", "132823.950000", "132824.410000", "132824.870000", "132825.330000", "132825.790000", "132826.250000", "132826.710000", "132827.170000", "132827.630000", "132828.090000", "132828.550000", "132829.010000", "132829.470000", "132829.930000", "132830.390000", "132830.850000", "132831.310000", "132831.770000", "132832.230000", "132832.690000", "132833.150000", "132833.610000", "132834.070000", "132834.530000", "132834.990000", "132835.450000", "132835.910000", "132836.370000", "132836.830000", "132837.290000", "132837.750000", "132838.210000", "132838.670000", "132839.130000", "132839.590000", "132840.050000", "132840.510000", "132840.970000", "132841.430000", "132841.890000", "132842.350000", "132842.810000", "132843.270000", "132843.730000", "132844.190000", "132844.650000", "132845.110000", "132845.570000", "132846.030000", "132846.490000", "132846.950000", "132847.410000", "132847.870000", "132848.330000", "132848.790000", "132849.250000", "132849.710000", "132850.170000", "132850.630000", "132851.090000", "132851.550000", "132852.010000", "132852.470000", "132852.930000", "132853.390000", "132853.850000", "132854.310000", "132854.770000", "132855.230000", "132855.690000", "132856.150000", "132856.610000", "132857.070000", "132857.530000", "132857.990000", "132858.450000", "132858.910000", "132859.370000", "132859.830000", "132900.290000", "132900.750000", "132901.210000", "132901.670000", "132902.130000", "132902.590000", "132903.050000", "132903.510000", "132903.970000", "132904.430000", "132904.890000", "132905.350000", "132905.810000", "132906.270000", "132906.730000", "132907.190000", "132907.650000", "132908.110000", "132908.570000", "132909.030000", "132909.490000", "132909.950000", "132910.410000", "132910.870000", "132911.330000", "132911.790000", "132912.250000", "132912.710000", "132913.170000", "132913.630000", "132914.090000", "132914.550000", "132915.010000", "132915.470000", "132915.930000", "132916.390000", "132916.850000", "132917.310000", "132917.770000", "132918.230000", "132918.690000", "132919.150000", "132919.610000", "132920.070000", "132920.530000", "132920.990000", "132921.450000", "132921.910000", "132922.370000", "132922.830000", "132923.290000", "132923.750000", "132924.210000", "132924.670000", "132925.130000", "132925.590000", "132926.050000", "132926.510000", "132926.970000", "132927.430000", "132927.890000", "132928.350000", "132928.810000", "132929.270000", "132929.730000", "132930.190000", "132930.650000", "132931.110000", "132931.570000", "132932.030000", "132932.490000", "132932.950000", "132933.410000", "132933.870000", "132934.330000", "132934.790000", "132935.250000", "132935.710000", "132936.170000", "132936.630000", "132937.090000", "132937.550000", "132938.010000", "132938.470000", "132938.930000", "132939.390000", "132939.850000", "132940.310000", "132940.770000", "132941.230000", "132941.690000", "132942.150000", "132942.610000", "132943.070000", "132943.530000", "132943.990000", "132944.450000", "132944.910000", "132945.370000", "132945.830000", "132946.290000", "132946.750000", "132947.210000", "132947.670000", "132948.130000", "132948.590000", "132949.050000", "132949.510000", "132949.970000", "132950.430000", "132950.890000", "132951.350000", "132951.810000", "132952.270000", "132952.730000", "132953.190000", "132953.650000", "132954.110000", "132954.570000", "132955.030000", "132955.490000", "132955.950000", "132956.410000", "132956.870000", "132957.330000", "132957.790000", "132958.250000", "132958.710000", "132959.170000", "132959.630000", "133000.090000", "133000.550000", "133001.010000", "133001.470000", "133001.930000", "133002.390000", "133002.850000", "133003.310000", "133003.770000", "133004.230000", "133004.690000", "133005.150000", "133005.610000", "133006.070000", "133006.530000", "133006.990000", "133007.450000", "133007.910000", "133008.370000", "133008.830000", "133009.290000", "133009.750000", "133010.210000", "133010.670000", "133011.130000", "133011.590000", "133012.050000", "133012.510000", "133012.970000", "133013.430000", "133013.890000", "133014.350000", "133014.810000", "133015.270000", "133015.730000", "133016.190000", "133016.650000", "133017.110000", "133017.570000", "133018.030000", "133018.490000", "133018.950000", "133019.410000", "133019.870000", "133020.330000", "133020.790000", "133021.250000", "133021.710000", "133022.170000", "133022.630000", "133023.090000", "133023.550000", "133024.010000", "133024.470000", "133024.930000", "133025.390000", "133025.850000", "133026.310000", "133026.770000", "133027.230000", "133027.690000", "133028.150000", "133028.610000", "133029.070000", "133029.530000", "133029.990000", "133030.450000", "133030.910000", "133031.370000", "133031.830000", "133032.290000", "133032.750000", "133033.210000", "133033.670000", "133034.130000", "133034.590000", "133035.050000", "133035.510000", "133035.970000", "133036.430000", "133036.890000", "133037.350000", "133037.810000", "133038.270000", "133038.730000", "133039.190000", "133039.650000", "133040.110000", "133040.570000", "133041.030000", "133041.490000", "133041.950000", "133042.410000", "133042.870000", "133043.330000", "133043.790000", "133044.250000", "133044.710000", "133045.170000", "133045.630000", "133046.090000", "133046.550000", "133047.010000", "133047.470000", "133047.930000", "133048.390000", "133048.850000", "133049.310000", "133049.770000", "133050.230000", "133050.690000", "133051.150000", "133051.610000", "133052.070000", "133052.530000", "133052.990000", "133053.450000", "133053.910000", "133054.370000", "133054.830000", "133055.290000", "133055.750000", "133056.210000", "133056.670000", "133057.130000", "133057.590000", "133058.050000", "133058.510000", "133058.970000", "133059.430000", "133059.890000", "133100.350000", "133100.810000", "133101.270000", "133101.730000", "133102.190000", "133102.650000", "133103.110000", "133103.570000", "133104.030000", "133104.490000", "133104.950000", "133105.410000", "133105.870000", "133106.330000", "133106.790000", "133107.250000", "133107.710000", "133108.170000", "133108.630000", "133109.090000", "133109.550000", "133110.010000", "133110.470000", "133110.930000", "133111.390000", "133111.850000", "133112.310000", "133112.770000", "133113.230000", "133113.690000", "133114.150000", "133114.610000", "133115.070000", "133115.530000", "133115.990000", "133116.450000", "133116.910000", "133117.370000", "133117.830000", "133118.290000", "133118.750000", "133119.210000", "133119.670000", "133120.130000", "133120.590000", "133121.050000", "133121.510000", "133121.970000", "133122.430000", "133122.890000", "133123.350000", "133123.810000", "133124.270000", "133124.730000", "133125.190000", "133125.650000", "133126.110000", "133126.570000", "133127.030000", "133127.490000", "133127.950000", "133128.410000", "133128.870000", "133129.330000", "133129.790000", "133130.250000", "133130.710000", "133131.170000", "133131.630000", "133132.090000", "133132.550000", "133133.010000", "133133.470000", "133133.930000", "133134.390000", "133134.850000", "133135.310000", "133135.770000", "133136.230000", "133136.690000", "133137.150000", "133137.610000", "133138.070000", "133138.530000", "133138.990000", "133139.450000", "133139.910000", "133140.370000", "133140.830000", "133141.290000", "133141.750000", "133142.210000", "133142.670000", "133143.130000", "133143.590000", "133144.050000", "133144.510000", "133144.970000", "133145.430000", "133145.890000", "133146.350000", "133146.810000", "133147.270000", "133147.730000", "133148.190000", "133148.650000", "133149.110000", "133149.570000", "133150.030000", "133150.490000", "133150.950000", "133151.410000", "133151.870000", "133152.330000", "133152.790000", "133153.250000", "133153.710000", "133154.170000", "133154.630000", "133155.090000", "133155.550000", "133156.010000", "133156.470000", "133156.930000", "133157.390000", "133157.850000", "133158.310000", "133158.770000", "133159.230000", "133159.690000", "133200.150000", "133200.610000", "133201.070000", "133201.530000", "133201.990000", "133202.450000", "133202.910000", "133203.370000", "133203.830000", "133204.290000", "133204.750000", "133205.210000", "133205.670000", "133206.130000", "133206.590000", "133207.050000", "133207.510000", "133207.970000", "133208.430000", "133208.890000", "133209.350000", "133209.810000", "133210.270000", "133210.730000", "133211.190000", "133211.650000", "133212.110000", "133212.570000", "133213.030000", "133213.490000", "133213.950000", "133214.410000", "133214.870000", "133215.330000", "133215.790000", "133216.250000", "133216.710000", "133217.170000", "133217.630000", "133218.090000", "133218.550000", "133219.010000", "133219.470000", "133219.930000", "133220.390000", "133220.850000", "133221.310000", "133221.770000", "133222.230000", "133222.690000", "133223.150000", "133223.610000", "133224.070000", "133224.530000", "133224.990000", "133225.450000", "133225.910000", "133226.370000", "133226.830000", "133227.290000", "133227.750000", "133228.210000", "133228.670000", "133229.130000", "133229.590000", "133230.050000", "133230.510000", "133230.970000", "133231.430000", "133231.890000", "133232.350000"],
