{
  "AcquisitionMatrixPE": 82,
  "AcquisitionNumber": 1,
  "AcquisitionTime": "13:15:53.025000",
  "BandwidthPerPixelPhaseEncode": 24.888,
  "BaseResolution": 82,
  "BodyPartExamined": "BRAIN",
  "ConsistencyInfo": "N4_VE11C_LATEST_20160120",
  "ConversionSoftware": "dcm2niix",
  "ConversionSoftwareVersion": "v1.0.20201102",
  "DerivedVendorReportedEchoSpacing": 0.00049,
  "DeviceSerialNumber": "66112",
  "DwellTime": 2e-06,
  "EchoTime": 0.0272,
  "EchoTrainLength": 82,
  "EffectiveEchoSpacing": 0.00049,
  "FlipAngle": 44,
  "ImageComments": "Unaliased MB8/PE3",
  "ImageOrientationPatientDICOM": [0.999182, -0.0374765, 0.0151811, 0.0383847, 0.997162, -0.0647674],
  "ImageType": [
    "ORIGINAL",
    "PRIMARY",
    "M",
    "MB",
    "ND",
    "NORM",
    "MOSAIC"
],
  "ImagingFrequency": 123.252,
  "InPlanePhaseEncodingDirectionDICOM": "COL",
  "InstitutionAddress": "Maynard 3,Hanover,NH,US,03755",
  "InstitutionName": "Dartmouth College - PBS",
  "InstitutionalDepartmentName": "Department",
  "MRAcquisitionType": "2D",
  "MagneticFieldStrength": 3,
  "Manufacturer": "Siemens",
  "ManufacturersModelName": "Prisma",
  "Modality": "MR",
  "MultibandAccelerationFactor": 8,
  "PartialFourier": 1,
  "PatientPosition": "HFS",
  "PercentPhaseFOV": 100,
  "PercentSampling": 100,
  "PhaseEncodingDirection": "j-",
  "PhaseEncodingSteps": 82,
  "PhaseResolution": 1,
  "PixelBandwidth": 3050,
  "ProcedureStepDescription": "Wager_Wager^1076_spacetop",
  "ProtocolName": "func_run-01_task-narratives_acq-ap-mb8",
  "PulseSequenceDetails": "%CustomerSeq%\\cmrr_mbep2d_bold",
  "ReceiveCoilActiveElements": "HEA;HEP",
  "ReceiveCoilName": "Head_32",
  "ReconMatrixPE": 82,
  "RepetitionTime": 0.46,
  "SAR": 0.103549,
  "ScanOptions": "FS",
  "ScanningSequence": "EP",
  "SequenceName": "epfid2d1_82",
  "SequenceVariant": "SK\\SS",
  "SeriesDescription": "func_run-01_task-narratives_acq-ap-mb8",
  "SeriesNumber": 8,
  "ShimSetting": [4142, -7770, -7224, 623, -74, -158, -36, 64],
  "SliceThickness": 2.7,
  "SliceTiming": [0, 0.2525, 0.0625, 0.315, 0.125, 0.3775, 0.1875, 0, 0.2525, 0.0625, 0.315, 0.125, 0.3775, 0.1875, 0, 0.2525, 0.0625, 0.315, 0.125, 0.3775, 0.1875, 0, 0.2525, 0.0625, 0.315, 0.125, 0.3775, 0.1875, 0, 0.2525, 0.0625, 0.315, 0.125, 0.3775, 0.1875, 0, 0.2525, 0.0625, 0.315, 0.125, 0.3775, 0.1875, 0, 0.2525, 0.0625, 0.315, 0.125, 0.3775, 0.1875, 0, 0.2525, 0.0625, 0.315, 0.125, 0.3775, 0.1875],
  "SoftwareVersions": "syngo MR E11",
  "SpacingBetweenSlices": 2.7,
  "StationName": "AWP66112",
  "TaskName": "narratives",
  "TotalReadoutTime": 0.03969,
  "TxRefAmp": 255.583,
  "WipMemBlock": "0e1c55b1-6750-4fbf-b825-81844dbedf49||Sequence: R016 ve11c/master r/e634e98; Dec 19 2017 11:00:25 by eja",
  "dcmmeta_affine": [
    [-2.6807327270507812, 0.10298342257738113, 0.034319039434194565, 106.30611419677734],
    [0.10054660588502884, 2.6753125190734863, -0.17630219459533691, -97.97314453125],
    [0.04072976112365723, 0.17376607656478882, 2.694019317626953, -82.89295196533203],
    [0.0, 0.0, 0.0, 1.0]
],
  "dcmmeta_reorient_transform": [
    [0.0, -1.0, 0.0, 81.0],
    [1.0, 0.0, 0.0, 0.0],
    [0.0, 0.0, 1.0, 0.0],
    [0.0, 0.0, 0.0, 1.0]
],
  "dcmmeta_shape": [82, 82, 56, 967],
  "dcmmeta_slice_dim": 2,
  "dcmmeta_version": 0.6,
  "global": {
    "const": {
      "AccessionNumber": "A003826",
      "AcquisitionMatrix": [82, 0, 0, 82],
      "AngioFlag": "N",
      "BitsAllocated": 16,
      "BitsStored": 16,
      "BodyPartExamined": "BRAIN",
      "Columns": 656,
      "EchoNumbers": 1,
      "EchoTime": 27.2,
      "EchoTrainLength": 82,
      "FlipAngle": 44.0,
      "HighBit": 15,
      "ImageOrientationPatient": [0.99918219021614, -0.0374764616659, 0.01518109271049, 0.03838472937558, 0.99716187358318, -0.0647673561515],
      "ImagePositionPatient": [-913.5743161282, -857.68494867449, -30.636479404497],
      "ImageType": [
        "ORIGINAL",
        "PRIMARY",
        "M",
        "MB",
        "ND",
        "NORM",
        "MOSAIC"
],
      "ImagedNucleus": "1H",
      "ImagingFrequency": 123.252207,
      "InPlanePhaseEncodingDirection": "COL",
      "MRAcquisitionType": "2D",
      "MagneticFieldStrength": 3.0,
      "Manufacturer": "SIEMENS",
      "ManufacturerModelName": "Prisma",
      "Modality": "MR",
      "NumberOfAverages": 1.0,
      "NumberOfPhaseEncodingSteps": 82,
      "PercentPhaseFieldOfView": 100.0,
      "PercentSampling": 100.0,
      "PerformedProcedureStepStartTime": "130051.067000",
      "PhotometricInterpretation": "MONOCHROME2",
      "PixelBandwidth": 3050.0,
      "PixelRepresentation": 0,
      "PixelSpacing": [2.6829268932343, 2.6829268932343],
      "ProtocolName": "func_run-01_task-narratives_acq-ap-mb8",
      "RepetitionTime": 460.0,
      "Rows": 656,
      "SAR": 0.10354878091329,
      "SamplesPerPixel": 1,
      "ScanOptions": "FS",
      "ScanningSequence": "EP",
      "SequenceName": "epfid2d1_82",
      "SequenceVariant": [
        "SK",
        "SS"
],
      "SeriesDescription": "func_run-01_task-narratives_acq-ap-mb8",
      "SeriesNumber": 8,
      "SeriesTime": "131621.360000",
      "SliceLocation": -74.960746251171,
      "SliceThickness": 2.7000000476837,
      "SmallestImagePixelValue": 0,
      "SoftwareVersions": "syngo MR E11",
      "SpacingBetweenSlices": 2.6999999954433,
      "SpecificCharacterSet": "ISO_IR 100",
      "StudyID": "2",
      "StudyTime": "130051.001000",
      "TransmitCoilName": "Body",
      "VariableFlipAngleFlag": "N",
      "WindowCenterWidthExplanation": "Algo1",
      "dBdt": 0.0},
    "slices": {}
  },
  "time": {
    "samples": {
      "AcquisitionNumber": [1, 2, 3, 4, 5, 6, 7, 8, 9, 10, 11, 12, 13, 14, 15, 16, 17, 18, 19, 20, 21, 22, 23, 24, 25, 26, 27, 28, 29, 30, 31, 32, 33, 34, 35, 36, 37, 38, 39, 40, 41, 42, 43, 44, 45, 46, 47, 48, 49, 50, 51, 52, 53, 54, 55, 56, 57, 58, 59, 60, 61, 62, 63, 64, 65, 66, 67, 68, 69, 70, 71, 72, 73, 74, 75, 76, 77, 78, 79, 80, 81, 82, 83, 84, 85, 86, 87, 88, 89, 90, 91, 92, 93, 94, 95, 96, 97, 98, 99, 100, 101, 102, 103, 104, 105, 106, 107, 108, 109, 110, 111, 112, 113, 114, 115, 116, 117, 118, 119, 120, 121, 122, 123, 124, 125, 126, 127, 128, 129, 130, 131, 132, 133, 134, 135, 136, 137, 138, 139, 140, 141, 142, 143, 144, 145, 146, 147, 148, 149, 150, 151, 152, 153, 154, 155, 156, 157, 158, 159, 160, 161, 162, 163, 164, 165, 166, 167, 168, 169, 170, 171, 172, 173, 174, 175, 176, 177, 178, 179, 180, 181, 182, 183, 184, 185, 186, 187, 188, 189, 190, 191, 192, 193, 194, 195, 196, 197, 198, 199, 200, 201, 202, 203, 204, 205, 206, 207, 208, 209, 210, 211, 212, 213, 214, 215, 216, 217, 218, 219, 220, 221, 222, 223, 224, 225, 226, 227, 228, 229, 230, 231, 232, 233, 234, 235, 236, 237, 238, 239, 240, 241, 242, 243, 244, 245, 246, 247, 248, 249, 250, 251, 252, 253, 254, 255, 256, 257, 258, 259, 260, 261, 262, 263, 264, 265, 266, 267, 268, 269, 270, 271, 272, 273, 274, 275, 276, 277, 278, 279, 280, 281, 282, 283, 284, 285, 286, 287, 288, 289, 290, 291, 292, 293, 294, 295, 296, 297, 298, 299, 300, 301, 302, 303, 304, 305, 306, 307, 308, 309, 310, 311, 312, 313, 314, 315, 316, 317, 318, 319, 320, 321, 322, 323, 324, 325, 326, 327, 328, 329, 330, 331, 332, 333, 334, 335, 336, 337, 338, 339, 340, 341, 342, 343, 344, 345, 346, 347, 348, 349, 350, 351, 352, 353, 354, 355, 356, 357, 358, 359, 360, 361, 362, 363, 364, 365, 366, 367, 368, 369, 370, 371, 372, 373, 374, 375, 376, 377, 378, 379, 380, 381, 382, 383, 384, 385, 386, 387, 388, 389, 390, 391, 392, 393, 394, 395, 396, 397, 398, 399, 400, 401, 402, 403, 404, 405, 406, 407, 408, 409, 410, 411, 412, 413, 414, 415, 416, 417, 418, 419, 420, 421, 422, 423, 424, 425, 426, 427, 428, 429, 430, 431, 432, 433, 434, 435, 436, 437, 438, 439, 440, 441, 442, 443, 444, 445, 446, 447, 448, 449, 450, 451, 452, 453, 454, 455, 456, 457, 458, 459, 460, 461, 462, 463, 464, 465, 466, 467, 468, 469, 470, 471, 472, 473, 474, 475, 476, 477, 478, 479, 480, 481, 482, 483, 484, 485, 486, 487, 488, 489, 490, 491, 492, 493, 494, 495, 496, 497, 498, 499, 500, 501, 502, 503, 504, 505, 506, 507, 508, 509, 510, 511, 512, 513, 514, 515, 516, 517, 518, 519, 520, 521, 522, 523, 524, 525, 526, 527, 528, 529, 530, 531, 532, 533, 534, 535, 536, 537, 538, 539, 540, 541, 542, 543, 544, 545, 546, 547, 548, 549, 550, 551, 552, 553, 554, 555, 556, 557, 558, 559, 560, 561, 562, 563, 564, 565, 566, 567, 568, 569, 570, 571, 572, 573, 574, 575, 576, 577, 578, 579, 580, 581, 582, 583, 584, 585, 586, 587, 588, 589, 590, 591, 592, 593, 594, 595, 596, 597, 598, 599, 600, 601, 602, 603, 604, 605, 606, 607, 608, 609, 610, 611, 612, 613, 614, 615, 616, 617, 618, 619, 620, 621, 622, 623, 624, 625, 626, 627, 628, 629, 630, 631, 632, 633, 634, 635, 636, 637, 638, 639, 640, 641, 642, 643, 644, 645, 646, 647, 648, 649, 650, 651, 652, 653, 654, 655, 656, 657, 658, 659, 660, 661, 662, 663, 664, 665, 666, 667, 668, 669, 670, 671, 672, 673, 674, 675, 676, 677, 678, 679, 680, 681, 682, 683, 684, 685, 686, 687, 688, 689, 690, 691, 692, 693, 694, 695, 696, 697, 698, 699, 700, 701, 702, 703, 704, 705, 706, 707, 708, 709, 710, 711, 712, 713, 714, 715, 716, 717, 718, 719, 720, 721, 722, 723, 724, 725, 726, 727, 728, 729, 730, 731, 732, 733, 734, 735, 736, 737, 738, 739, 740, 741, 742, 743, 744, 745, 746, 747, 748, 749, 750, 751, 752, 753, 754, 755, 756, 757, 758, 759, 760, 761, 762, 763, 764, 765, 766, 767, 768, 769, 770, 771, 772, 773, 774, 775, 776, 777, 778, 779, 780, 781, 782, 783, 784, 785, 786, 787, 788, 789, 790, 791, 792, 793, 794, 795, 796, 797, 798, 799, 800, 801, 802, 803, 804, 805, 806, 807, 808, 809, 810, 811, 812, 813, 814, 815, 816, 817, 818, 819, 820, 821, 822, 823, 824, 825, 826, 827, 828, 829, 830, 831, 832, 833, 834, 835, 836, 837, 838, 839, 840, 841, 842, 843, 844, 845, 846, 847, 848, 849, 850, 851, 852, 853, 854, 855, 856, 857, 858, 859, 860, 861, 862, 863, 864, 865, 866, 867, 868, 869, 870, 871, 872, 873, 874, 875, 876, 877, 878, 879, 880, 881, 882, 883, 884, 885, 886, 887, 888, 889, 890, 891, 892, 893, 894, 895, 896, 897, 898, 899, 900, 901, 902, 903, 904, 905, 906, 907, 908, 909, 910, 911, 912, 913, 914, 915, 916, 917, 918, 919, 920, 921, 922, 923, 924, 925, 926, 927, 928, 929, 930, 931, 932, 933, 934, 935, 936, 937, 938, 939, 940, 941, 942, 943, 944, 945, 946, 947, 948, 949, 950, 951, 952, 953, 954, 955, 956, 957, 958, 959, 960, 961, 962, 963, 964, 965, 966, 967],
      "AcquisitionTime": ["131553.025000", "131553.485000", "131553.945000", "131554.405000", "131554.865000", "131555.325000", "131555.785000", "131556.245000", "131556.705000", "131557.165000", "131557.625000", "131558.085000", "131558.545000", "131559.005000", "131559.465000", "131559.925000", "131600.385000", "131600.845000", "131601.305000", "131601.765000", "131602.225000", "131602.685000", "131603.145000", "131603.605000", "131604.065000", "131604.525000", "131604.985000", "131605.445000", "131605.905000", "131606.365000", "131606.825000", "131607.285000", "131607.745000", "131608.205000", "131608.665000", "131609.125000", "131609.585000", "131610.045000", "131610.505000", "131610.965000", "131611.425000", "131611.885000", "131612.345000", "131612.805000", "131613.265000", "131613.725000", "131614.185000", "131614.645000", "131615.105000", "131615.565000", "131616.025000", "131616.485000", "131616.945000", "131617.405000", "131617.865000", "131618.325000", "131618.785000", "131619.245000", "131619.705000", "131620.165000", "131620.625000", "131621.085000", "131621.545000", "131622.005000", "131622.465000", "131622.925000", "131623.385000", "131623.845000", "131624.305000", "131624.765000", "131625.225000", "131625.685000", "131626.145000", "131626.605000", "131627.065000", "131627.525000", "131627.985000", "131628.445000", "131628.905000", "131629.365000", "131629.825000", "131630.285000", "131630.745000", "131631.205000", "131631.665000", "131632.125000", "131632.585000", "131633.045000", "131633.505000", "131633.965000", "131634.425000", "131634.885000", "131635.345000", "131635.805000", "131636.265000", "131636.725000", "131637.185000", "131637.645000", "131638.105000", "131638.565000", "131639.025000", "131639.485000", "131639.945000", "131640.405000", "131640.865000", "131641.325000", "131641.785000", "131642.245000", "131642.705000", "131643.165000", "131643.625000", "131644.085000", "131644.545000", "131645.005000", "131645.465000", "131645.925000", "131646.385000", "131646.845000", "131647.305000", "131647.765000", "131648.225000", "131648.685000", "131649.145000", "131649.605000", "131650.065000", "131650.525000", "131650.985000", "131651.445000", "131651.905000", "131652.365000", "131652.825000", "131653.285000", "131653.745000", "131654.205000", "131654.665000", "131655.125000", "131655.585000", "131656.045000", "131656.505000", "131656.965000", "131657.425000", "131657.885000", "131658.345000", "131658.805000", "131659.265000", "131659.725000", "131700.185000", "131700.645000", "131701.105000", "131701.565000", "131702.025000", "131702.485000", "131702.945000", "131703.405000", "131703.865000", "131704.325000", "131704.785000", "131705.245000", "131705.705000", "131706.165000", "131706.625000", "131707.085000", "131707.545000", "131708.005000", "131708.465000", "131708.925000", "131709.385000", "131709.845000", "131710.305000", "131710.765000", "131711.225000", "131711.685000", "131712.145000", "131712.605000", "131713.065000", "131713.525000", "131713.985000", "131714.445000", "131714.905000", "131715.365000", "131715.825000", "131716.285000", "131716.745000", "131717.205000", "131717.665000", "131718.125000", "131718.585000", "131719.045000", "131719.505000", "131719.965000", "131720.425000", "131720.885000", "131721.345000", "131721.805000", "131722.265000", "131722.725000", "131723.185000", "131723.645000", "131724.105000", "131724.565000", "131725.025000", "131725.485000", "131725.945000", "131726.405000", "131726.865000", "131727.325000", "131727.785000", "131728.245000", "131728.705000", "131729.165000", "131729.625000", "131730.085000", "131730.545000", "131731.005000", "131731.465000", "131731.925000", "131732.385000", "131732.845000", "131733.305000", "131733.765000", "131734.225000", "131734.685000", "131735.145000", "131735.605000", "131736.065000", "131736.525000", "131736.985000", "131737.445000", "131737.905000", "131738.365000", "131738.825000", "131739.285000", "131739.745000", "131740.205000", "131740.665000", "131741.125000", "131741.585000", "131742.045000", "131742.505000", "131742.965000", "131743.425000", "131743.885000", "131744.345000", "131744.805000", "131745.265000", "131745.725000", "131746.185000", "131746.645000", "131747.105000", "131747.565000", "131748.025000", "131748.485000", "131748.945000", "131749.405000", "131749.865000", "131750.325000", "131750.785000", "131751.245000", "131751.705000", "131752.165000", "131752.625000", "131753.085000", "131753.545000", "131754.005000", "131754.465000", "131754.925000", "131755.385000", "131755.845000", "131756.305000", "131756.765000", "131757.225000", "131757.685000", "131758.145000", "131758.605000", "131759.065000", "131759.525000", "131759.985000", "131800.445000", "131800.905000", "131801.365000", "131801.825000", "131802.285000", "131802.745000", "131803.205000", "131803.665000", "131804.125000", "131804.585000", "131805.045000", "131805.505000", "131805.965000", "131806.425000", "131806.885000", "131807.345000", "131807.805000", "131808.265000", "131808.725000", "131809.185000", "131809.645000", "131810.105000", "131810.565000", "131811.025000", "131811.485000", "131811.945000", "131812.405000", "131812.865000", "131813.325000", "131813.785000", "131814.245000", "131814.705000", "131815.165000", "131815.625000", "131816.085000", "131816.545000", "131817.005000", "131817.465000", "131817.925000", "131818.385000", "131818.845000", "131819.305000", "131819.765000", "131820.225000", "131820.685000", "131821.145000", "131821.605000", "131822.065000", "131822.525000", "131822.985000", "131823.445000", "131823.905000", "131824.365000", "131824.825000", "131825.285000", "131825.745000", "131826.205000", "131826.665000", "131827.125000", "131827.585000", "131828.045000", "131828.505000", "131828.965000", "131829.425000", "131829.885000", "131830.345000", "131830.805000", "131831.265000", "131831.725000", "131832.185000", "131832.645000", "131833.105000", "131833.565000", "131834.025000", "131834.485000", "131834.945000", "131835.405000", "131835.865000", "131836.325000", "131836.785000", "131837.245000", "131837.705000", "131838.165000", "131838.625000", "131839.085000", "131839.545000", "131840.005000", "131840.465000", "131840.925000", "131841.385000", "131841.845000", "131842.305000", "131842.765000", "131843.225000", "131843.685000", "131844.145000", "131844.605000", "131845.065000", "131845.525000", "131845.985000", "131846.445000", "131846.905000", "131847.365000", "131847.825000", "131848.285000", "131848.745000", "131849.205000", "131849.665000", "131850.125000", "131850.585000", "131851.045000", "131851.505000", "131851.965000", "131852.425000", "131852.885000", "131853.345000", "131853.805000", "131854.265000", "131854.725000", "131855.185000", "131855.645000", "131856.105000", "131856.565000", "131857.025000", "131857.485000", "131857.945000", "131858.405000", "131858.865000", "131859.325000", "131859.785000", "131900.245000", "131900.705000", "131901.165000", "131901.625000", "131902.085000", "131902.545000", "131903.005000", "131903.465000", "131903.925000", "131904.385000", "131904.845000", "131905.305000", "131905.765000", "131906.225000", "131906.685000", "131907.145000", "131907.605000", "131908.065000", "131908.525000", "131908.985000", "131909.445000", "131909.905000", "131910.365000", "131910.825000", "131911.285000", "131911.745000", "131912.205000", "131912.665000", "131913.125000", "131913.585000", "131914.045000", "131914.505000", "131914.965000", "131915.425000", "131915.885000", "131916.345000", "131916.805000", "131917.265000", "131917.725000", "131918.185000", "131918.645000", "131919.105000", "131919.565000", "131920.025000", "131920.485000", "131920.945000", "131921.405000", "131921.865000", "131922.325000", "131922.785000", "131923.245000", "131923.705000", "131924.165000", "131924.625000", "131925.085000", "131925.545000", "131926.005000", "131926.465000", "131926.925000", "131927.385000", "131927.845000", "131928.305000", "131928.765000", "131929.225000", "131929.685000", "131930.145000", "131930.605000", "131931.065000", "131931.525000", "131931.985000", "131932.445000", "131932.905000", "131933.365000", "131933.825000", "131934.285000", "131934.745000", "131935.205000", "131935.665000", "131936.125000", "131936.585000", "131937.045000", "131937.505000", "131937.965000", "131938.425000", "131938.885000", "131939.345000", "131939.805000", "131940.265000", "131940.725000", "131941.185000", "131941.645000", "131942.105000", "131942.565000", "131943.025000", "131943.485000", "131943.945000", "131944.405000", "131944.865000", "131945.325000", "131945.785000", "131946.245000", "131946.705000", "131947.165000", "131947.625000", "131948.085000", "131948.545000", "131949.005000", "131949.465000", "131949.925000", "131950.385000", "131950.845000", "131951.305000", "131951.765000", "131952.225000", "131952.685000", "131953.145000", "131953.605000", "131954.065000", "131954.525000", "131954.985000", "131955.445000", "131955.905000", "131956.365000", "131956.825000", "131957.285000", "131957.745000", "131958.205000", "131958.665000", "131959.125000", "131959.585000", "132000.045000", "132000.505000", "132000.965000", "132001.425000", "132001.885000", "132002.345000", "132002.805000", "132003.265000", "132003.725000", "132004.185000", "132004.645000", "132005.105000", "132005.565000", "132006.025000", "132006.485000", "132006.945000", "132007.405000", "132007.865000", "132008.325000", "132008.785000", "132009.245000", "132009.705000", "132010.165000", "132010.625000", "132011.085000", "132011.545000", "132012.005000", "132012.465000", "132012.925000", "132013.385000", "132013.845000", "132014.305000", "132014.765000", "132015.225000", "132015.685000", "132016.145000", "132016.605000", "132017.065000", "132017.525000", "132017.985000", "132018.445000", "132018.905000", "132019.365000", "132019.825000", "132020.285000", "132020.745000", "132021.205000", "132021.665000", "132022.125000", "132022.585000", "132023.045000", "132023.505000", "132023.965000", "132024.425000", "132024.885000", "132025.345000", "132025.805000", "132026.265000", "132026.725000", "132027.185000", "132027.645000", "132028.105000", "132028.565000", "132029.025000", "132029.485000", "132029.945000", "132030.405000", "132030.865000", "132031.325000", "132031.785000", "132032.245000", "132032.705000", "132033.165000", "132033.625000", "132034.085000", "132034.545000", "132035.005000", "132035.465000", "132035.925000", "132036.385000", "132036.845000", "132037.305000", "132037.765000", "132038.225000", "132038.685000", "132039.145000", "132039.605000", "132040.065000", "132040.525000", "132040.985000", "132041.445000", "132041.905000", "132042.365000", "132042.825000", "132043.285000", "132043.745000", "132044.205000", "132044.665000", "132045.125000", "132045.585000", "132046.045000", "132046.505000", "132046.965000", "132047.425000", "132047.885000", "132048.345000", "132048.805000", "132049.265000", "132049.725000", "132050.185000", "132050.645000", "132051.105000", "132051.565000", "132052.025000", "132052.485000", "132052.945000", "132053.405000", "132053.865000", "132054.325000", "132054.785000", "132055.245000", "132055.705000", "132056.165000", "132056.625000", "132057.085000", "132057.545000", "132058.005000", "132058.465000", "132058.925000", "132059.385000", "132059.845000", "132100.305000", "132100.765000", "132101.225000", "132101.685000", "132102.145000", "132102.605000", "132103.065000", "132103.525000", "132103.985000", "132104.445000", "132104.905000", "132105.365000", "132105.825000", "132106.285000", "132106.745000", "132107.205000", "132107.665000", "132108.125000", "132108.585000", "132109.045000", "132109.505000", "132109.965000", "132110.425000", "132110.885000", "132111.345000", "132111.805000", "132112.265000", "132112.725000", "132113.185000", "132113.645000", "132114.105000", "132114.565000", "132115.025000", "132115.485000", "132115.945000", "132116.405000", "132116.865000", "132117.325000", "132117.785000", "132118.245000", "132118.705000", "132119.165000", "132119.625000", "132120.085000", "132120.545000", "132121.005000", "132121.465000", "132121.925000", "132122.385000", "132122.845000", "132123.305000", "132123.765000", "132124.225000", "132124.685000", "132125.145000", "132125.605000", "132126.065000", "132126.525000", "132126.985000", "132127.445000", "132127.905000", "132128.365000", "132128.825000", "132129.285000", "132129.745000", "132130.205000", "132130.665000", "132131.125000", "132131.585000", "132132.045000", "132132.505000", "132132.965000", "132133.425000", "132133.885000", "132134.345000", "132134.805000", "132135.265000", "132135.725000", "132136.185000", "132136.645000", "132137.105000", "132137.565000", "132138.025000", "132138.485000", "132138.945000", "132139.405000", "132139.865000", "132140.325000", "132140.785000", "132141.245000", "132141.705000", "132142.165000", "132142.625000", "132143.085000", "132143.545000", "132144.005000", "132144.465000", "132144.925000", "132145.385000", "132145.845000", "132146.305000", "132146.765000", "132147.225000", "132147.685000", "132148.145000", "132148.605000", "132149.065000", "132149.525000", "132149.985000", "132150.445000", "132150.905000", "132151.365000", "132151.825000", "132152.285000", "132152.745000", "132153.205000", "132153.665000", "132154.125000", "132154.585000", "132155.045000", "132155.505000", "132155.965000", "132156.425000", "132156.885000", "132157.345000", "132157.805000", "132158.265000", "132158.725000", "132159.185000", "132159.645000", "132200.105000", "132200.565000", "132201.025000", "132201.485000", "132201.945000", "132202.405000", "132202.865000", "132203.325000", "132203.785000", "132204.245000", "132204.705000", "132205.165000", "132205.625000", "132206.085000", "132206.545000", "132207.005000", "132207.465000", "132207.925000", "132208.385000", "132208.845000", "132209.305000", "132209.765000", "132210.225000", "132210.685000", "132211.145000", "132211.605000", "132212.065000", "132212.525000", "132212.985000", "132213.445000", "132213.905000", "132214.365000", "132214.825000", "132215.285000", "132215.745000", "132216.205000", "132216.665000", "132217.125000", "132217.585000", "132218.045000", "132218.505000", "132218.965000", "132219.425000", "132219.885000", "132220.345000", "132220.805000", "132221.265000", "132221.725000", "132222.185000", "132222.645000", "132223.105000", "132223.565000", "132224.025000", "132224.485000", "132224.945000", "132225.405000", "132225.865000", "132226.325000", "132226.785000", "132227.245000", "132227.705000", "132228.165000", "132228.625000", "132229.085000", "132229.545000", "132230.005000", "132230.465000", "132230.925000", "132231.385000", "132231.845000", "132232.305000", "132232.765000", "132233.225000", "132233.685000", "132234.145000", "132234.605000", "132235.065000", "132235.525000", "132235.985000", "132236.445000", "132236.905000", "132237.365000", "132237.825000", "132238.285000", "132238.745000", "132239.205000", "132239.665000", "132240.125000", "132240.585000", "132241.045000", "132241.505000", "132241.965000", "132242.425000", "132242.885000", "132243.345000", "132243.805000", "132244.265000", "132244.725000", "132245.185000", "132245.645000", "132246.105000", "132246.565000", "132247.025000", "132247.485000", "132247.945000", "132248.405000", "132248.865000", "132249.325000", "132249.785000", "132250.245000", "132250.705000", "132251.165000", "132251.625000", "132252.085000", "132252.545000", "132253.005000", "132253.465000", "132253.925000", "132254.385000", "132254.845000", "132255.305000", "132255.765000", "132256.225000", "132256.685000", "132257.145000", "132257.605000", "132258.065000", "132258.525000", "132258.985000", "132259.445000", "132259.905000", "132300.365000", "132300.825000", "132301.285000", "132301.745000", "132302.205000", "132302.665000", "132303.125000", "132303.585000", "132304.045000", "132304.505000", "132304.965000", "132305.425000", "132305.885000", "132306.345000", "132306.805000", "132307.265000", "132307.725000", "132308.185000", "132308.645000", "132309.105000", "132309.565000", "132310.025000", "132310.485000", "132310.945000", "132311.405000", "132311.865000", "132312.325000", "132312.785000", "132313.245000", "132313.705000", "132314.165000", "132314.625000", "132315.085000", "132315.545000", "132316.005000", "132316.465000", "132316.925000", "132317.385000"],
