{
  "AcquisitionMatrixPE": 82,
  "AcquisitionNumber": 1,
  "AcquisitionTime": "14:21:16.747500",
  "BandwidthPerPixelPhaseEncode": 24.888,
  "BaseResolution": 82,
  "BodyPartExamined": "BRAIN",
  "ConsistencyInfo": "N4_VE11C_LATEST_20160120",
  "ConversionSoftware": "dcm2niix",
  "ConversionSoftwareVersion": "v1.0.20201102",
  "DerivedVendorReportedEchoSpacing": 0.00049,
  "DeviceSerialNumber": "66112",
  "DwellTime": 2e-06,
  "EchoTime": 0.0272,
  "EchoTrainLength": 82,
  "EffectiveEchoSpacing": 0.00049,
  "FlipAngle": 44,
  "ImageComments": "Unaliased MB8/PE3",
  "ImageOrientationPatientDICOM": [0.9991, -0.0419005, 0.00660443, 0.042224, 0.997273, -0.0605355],
  "ImageType": [
    "ORIGINAL",
    "PRIMARY",
    "M",
    "MB",
    "ND",
    "NORM",
    "MOSAIC"
],
  "ImagingFrequency": 123.252,
  "InPlanePhaseEncodingDirectionDICOM": "COL",
  "InstitutionAddress": "Maynard 3,Hanover,NH,US,03755",
  "InstitutionName": "Dartmouth College - PBS",
  "InstitutionalDepartmentName": "Department",
  "MRAcquisitionType": "2D",
  "MagneticFieldStrength": 3,
  "Manufacturer": "Siemens",
  "ManufacturersModelName": "Prisma",
  "Modality": "MR",
  "MultibandAccelerationFactor": 8,
  "PartialFourier": 1,
  "PatientPosition": "HFS",
  "PercentPhaseFOV": 100,
  "PercentSampling": 100,
  "PhaseEncodingDirection": "j-",
  "PhaseEncodingSteps": 82,
  "PhaseResolution": 1,
  "PixelBandwidth": 3050,
  "ProcedureStepDescription": "Wager_Wager^1076_spacetop",
  "ProtocolName": "func_run-01_task-alignvideo_acq-ap-mb8",
  "PulseSequenceDetails": "%CustomerSeq%\\cmrr_mbep2d_bold",
  "ReceiveCoilActiveElements": "HEA;HEP",
  "ReceiveCoilName": "Head_32",
  "ReconMatrixPE": 82,
  "RepetitionTime": 0.46,
  "SAR": 0.10346,
  "ScanOptions": "FS",
  "ScanningSequence": "EP",
  "SequenceName": "epfid2d1_82",
  "SequenceVariant": "SK\\SS",
  "SeriesDescription": "func_run-01_task-alignvideo_acq-ap-mb8",
  "SeriesNumber": 28,
  "ShimSetting": [4141, -7763, -7215, 655, -77, -110, -28, 63],
  "SliceThickness": 2.7,
  "SliceTiming": [0, 0.2525, 0.0625, 0.315, 0.125, 0.3775, 0.19, 0, 0.2525, 0.0625, 0.315, 0.125, 0.3775, 0.19, 0, 0.2525, 0.0625, 0.315, 0.125, 0.3775, 0.19, 0, 0.2525, 0.0625, 0.315, 0.125, 0.3775, 0.19, 0, 0.2525, 0.0625, 0.315, 0.125, 0.3775, 0.19, 0, 0.2525, 0.0625, 0.315, 0.125, 0.3775, 0.19, 0, 0.2525, 0.0625, 0.315, 0.125, 0.3775, 0.19, 0, 0.2525, 0.0625, 0.315, 0.125, 0.3775, 0.19],
  "SoftwareVersions": "syngo MR E11",
  "SpacingBetweenSlices": 2.7,
  "StationName": "AWP66112",
  "TaskName": "alignvideo",
  "TotalReadoutTime": 0.03969,
  "TxRefAmp": 255.583,
  "WipMemBlock": "fd954594-f994-4d13-92e1-9f7040746ed8||Sequence: R016 ve11c/master r/e634e98; Dec 19 2017 11:00:25 by eja",
  "dcmmeta_affine": [
    [-2.6805121898651123, 0.11328399181365967, 0.0109348613768816, 106.29029846191406],
    [0.11241599917411804, 2.6756093502044678, -0.16405163705348969, -99.57898712158203],
    [0.017719199880957603, 0.16241227090358734, 2.6949892044067383, -73.49156188964844],
    [0.0, 0.0, 0.0, 1.0]
],
  "dcmmeta_reorient_transform": [
    [0.0, -1.0, 0.0, 81.0],
    [1.0, 0.0, 0.0, 0.0],
    [0.0, 0.0, 1.0, 0.0],
    [0.0, 0.0, 0.0, 1.0]
],
  "dcmmeta_shape": [82, 82, 56, 839],
  "dcmmeta_slice_dim": 2,
  "dcmmeta_version": 0.6,
  "global": {
    "const": {
      "AccessionNumber": "A003826",
      "AcquisitionMatrix": [82, 0, 0, 82],
      "AngioFlag": "N",
      "BitsAllocated": 16,
      "BitsStored": 16,
      "BodyPartExamined": "BRAIN",
      "Columns": 656,
      "EchoNumbers": 1,
      "EchoTime": 27.2,
      "EchoTrainLength": 82,
      "FlipAngle": 44.0,
      "HighBit": 15,
      "ImageOrientationPatient": [0.99909995946586, -0.0419005072933, 0.00660442911115, 0.04222403239623, 0.99727257378341, -0.0605354827157],
      "ImagePositionPatient": [-917.28579804326, -852.78188477617, -18.809256901578],
      "ImageType": [
        "ORIGINAL",
        "PRIMARY",
        "M",
        "MB",
        "ND",
        "NORM",
        "MOSAIC"
],
      "ImagedNucleus": "1H",
      "ImagingFrequency": 123.252209,
      "InPlanePhaseEncodingDirection": "COL",
      "MRAcquisitionType": "2D",
      "MagneticFieldStrength": 3.0,
      "Manufacturer": "SIEMENS",
      "ManufacturerModelName": "Prisma",
      "Modality": "MR",
      "NumberOfAverages": 1.0,
      "NumberOfPhaseEncodingSteps": 82,
      "PercentPhaseFieldOfView": 100.0,
      "PercentSampling": 100.0,
      "PerformedProcedureStepStartTime": "130051.067000",
      "PhotometricInterpretation": "MONOCHROME2",
      "PixelBandwidth": 3050.0,
      "PixelRepresentation": 0,
      "PixelSpacing": [2.6829268932343, 2.6829268932343],
      "ProtocolName": "func_run-01_task-alignvideo_acq-ap-mb8",
      "RepetitionTime": 460.0,
      "Rows": 656,
      "SAR": 0.10346034658357,
      "SamplesPerPixel": 1,
      "ScanOptions": "FS",
      "ScanningSequence": "EP",
      "SequenceName": "epfid2d1_82",
      "SequenceVariant": [
        "SK",
        "SS"
],
      "SeriesDescription": "func_run-01_task-alignvideo_acq-ap-mb8",
      "SeriesNumber": 28,
      "SeriesTime": "142141.217000",
      "SliceLocation": -66.874301600627,
      "SliceThickness": 2.7000000476837,
      "SmallestImagePixelValue": 0,
      "SoftwareVersions": "syngo MR E11",
      "SpacingBetweenSlices": 2.6999999613316,
      "SpecificCharacterSet": "ISO_IR 100",
      "StudyID": "2",
      "StudyTime": "130051.001000",
      "TransmitCoilName": "Body",
      "VariableFlipAngleFlag": "N",
      "WindowCenterWidthExplanation": "Algo1",
      "dBdt": 0.0},
    "slices": {}
  },
  "time": {
    "samples": {
      "AcquisitionNumber": [1, 2, 3, 4, 5, 6, 7, 8, 9, 10, 11, 12, 13, 14, 15, 16, 17, 18, 19, 20, 21, 22, 23, 24, 25, 26, 27, 28, 29, 30, 31, 32, 33, 34, 35, 36, 37, 38, 39, 40, 41, 42, 43, 44, 45, 46, 47, 48, 49, 50, 51, 52, 53, 54, 55, 56, 57, 58, 59, 60, 61, 62, 63, 64, 65, 66, 67, 68, 69, 70, 71, 72, 73, 74, 75, 76, 77, 78, 79, 80, 81, 82, 83, 84, 85, 86, 87, 88, 89, 90, 91, 92, 93, 94, 95, 96, 97, 98, 99, 100, 101, 102, 103, 104, 105, 106, 107, 108, 109, 110, 111, 112, 113, 114, 115, 116, 117, 118, 119, 120, 121, 122, 123, 124, 125, 126, 127, 128, 129, 130, 131, 132, 133, 134, 135, 136, 137, 138, 139, 140, 141, 142, 143, 144, 145, 146, 147, 148, 149, 150, 151, 152, 153, 154, 155, 156, 157, 158, 159, 160, 161, 162, 163, 164, 165, 166, 167, 168, 169, 170, 171, 172, 173, 174, 175, 176, 177, 178, 179, 180, 181, 182, 183, 184, 185, 186, 187, 188, 189, 190, 191, 192, 193, 194, 195, 196, 197, 198, 199, 200, 201, 202, 203, 204, 205, 206, 207, 208, 209, 210, 211, 212, 213, 214, 215, 216, 217, 218, 219, 220, 221, 222, 223, 224, 225, 226, 227, 228, 229, 230, 231, 232, 233, 234, 235, 236, 237, 238, 239, 240, 241, 242, 243, 244, 245, 246, 247, 248, 249, 250, 251, 252, 253, 254, 255, 256, 257, 258, 259, 260, 261, 262, 263, 264, 265, 266, 267, 268, 269, 270, 271, 272, 273, 274, 275, 276, 277, 278, 279, 280, 281, 282, 283, 284, 285, 286, 287, 288, 289, 290, 291, 292, 293, 294, 295, 296, 297, 298, 299, 300, 301, 302, 303, 304, 305, 306, 307, 308, 309, 310, 311, 312, 313, 314, 315, 316, 317, 318, 319, 320, 321, 322, 323, 324, 325, 326, 327, 328, 329, 330, 331, 332, 333, 334, 335, 336, 337, 338, 339, 340, 341, 342, 343, 344, 345, 346, 347, 348, 349, 350, 351, 352, 353, 354, 355, 356, 357, 358, 359, 360, 361, 362, 363, 364, 365, 366, 367, 368, 369, 370, 371, 372, 373, 374, 375, 376, 377, 378, 379, 380, 381, 382, 383, 384, 385, 386, 387, 388, 389, 390, 391, 392, 393, 394, 395, 396, 397, 398, 399, 400, 401, 402, 403, 404, 405, 406, 407, 408, 409, 410, 411, 412, 413, 414, 415, 416, 417, 418, 419, 420, 421, 422, 423, 424, 425, 426, 427, 428, 429, 430, 431, 432, 433, 434, 435, 436, 437, 438, 439, 440, 441, 442, 443, 444, 445, 446, 447, 448, 449, 450, 451, 452, 453, 454, 455, 456, 457, 458, 459, 460, 461, 462, 463, 464, 465, 466, 467, 468, 469, 470, 471, 472, 473, 474, 475, 476, 477, 478, 479, 480, 481, 482, 483, 484, 485, 486, 487, 488, 489, 490, 491, 492, 493, 494, 495, 496, 497, 498, 499, 500, 501, 502, 503, 504, 505, 506, 507, 508, 509, 510, 511, 512, 513, 514, 515, 516, 517, 518, 519, 520, 521, 522, 523, 524, 525, 526, 527, 528, 529, 530, 531, 532, 533, 534, 535, 536, 537, 538, 539, 540, 541, 542, 543, 544, 545, 546, 547, 548, 549, 550, 551, 552, 553, 554, 555, 556, 557, 558, 559, 560, 561, 562, 563, 564, 565, 566, 567, 568, 569, 570, 571, 572, 573, 574, 575, 576, 577, 578, 579, 580, 581, 582, 583, 584, 585, 586, 587, 588, 589, 590, 591, 592, 593, 594, 595, 596, 597, 598, 599, 600, 601, 602, 603, 604, 605, 606, 607, 608, 609, 610, 611, 612, 613, 614, 615, 616, 617, 618, 619, 620, 621, 622, 623, 624, 625, 626, 627, 628, 629, 630, 631, 632, 633, 634, 635, 636, 637, 638, 639, 640, 641, 642, 643, 644, 645, 646, 647, 648, 649, 650, 651, 652, 653, 654, 655, 656, 657, 658, 659, 660, 661, 662, 663, 664, 665, 666, 667, 668, 669, 670, 671, 672, 673, 674, 675, 676, 677, 678, 679, 680, 681, 682, 683, 684, 685, 686, 687, 688, 689, 690, 691, 692, 693, 694, 695, 696, 697, 698, 699, 700, 701, 702, 703, 704, 705, 706, 707, 708, 709, 710, 711, 712, 713, 714, 715, 716, 717, 718, 719, 720, 721, 722, 723, 724, 725, 726, 727, 728, 729, 730, 731, 732, 733, 734, 735, 736, 737, 738, 739, 740, 741, 742, 743, 744, 745, 746, 747, 748, 749, 750, 751, 752, 753, 754, 755, 756, 757, 758, 759, 760, 761, 762, 763, 764, 765, 766, 767, 768, 769, 770, 771, 772, 773, 774, 775, 776, 777, 778, 779, 780, 781, 782, 783, 784, 785, 786, 787, 788, 789, 790, 791, 792, 793, 794, 795, 796, 797, 798, 799, 800, 801, 802, 803, 804, 805, 806, 807, 808, 809, 810, 811, 812, 813, 814, 815, 816, 817, 818, 819, 820, 821, 822, 823, 824, 825, 826, 827, 828, 829, 830, 831, 832, 833, 834, 835, 836, 837, 838, 839],
      "AcquisitionTime": ["142116.747500", "142117.207500", "142117.667500", "142118.127500", "142118.587500", "142119.047500", "142119.507500", "142119.967500", "142120.427500", "142120.887500", "142121.347500", "142121.807500", "142122.267500", "142122.727500", "142123.187500", "142123.647500", "142124.107500", "142124.567500", "142125.027500", "142125.487500", "142125.947500", "142126.407500", "142126.867500", "142127.327500", "142127.787500", "142128.247500", "142128.707500", "142129.167500", "142129.627500", "142130.087500", "142130.547500", "142131.007500", "142131.467500", "142131.927500", "142132.387500", "142132.847500", "142133.307500", "142133.767500", "142134.227500", "142134.687500", "142135.147500", "142135.607500", "142136.067500", "142136.527500", "142136.987500", "142137.447500", "142137.907500", "142138.367500", "142138.827500", "142139.287500", "142139.747500", "142140.207500", "142140.667500", "142141.127500", "142141.587500", "142142.047500", "142142.507500", "142142.967500", "142143.427500", "142143.887500", "142144.347500", "142144.807500", "142145.267500", "142145.727500", "142146.187500", "142146.647500", "142147.107500", "142147.567500", "142148.027500", "142148.487500", "142148.947500", "142149.407500", "142149.867500", "142150.327500", "142150.787500", "142151.247500", "142151.707500", "142152.167500", "142152.627500", "142153.087500", "142153.547500", "142154.007500", "142154.467500", "142154.927500", "142155.387500", "142155.847500", "142156.307500", "142156.767500", "142157.227500", "142157.687500", "142158.147500", "142158.607500", "142159.067500", "142159.527500", "142159.987500", "142200.447500", "142200.907500", "142201.367500", "142201.827500", "142202.287500", "142202.747500", "142203.207500", "142203.667500", "142204.127500", "142204.587500", "142205.047500", "142205.507500", "142205.967500", "142206.427500", "142206.887500", "142207.347500", "142207.807500", "142208.267500", "142208.727500", "142209.187500", "142209.647500", "142210.107500", "142210.567500", "142211.027500", "142211.487500", "142211.947500", "142212.407500", "142212.867500", "142213.327500", "142213.787500", "142214.247500", "142214.707500", "142215.167500", "142215.627500", "142216.087500", "142216.547500", "142217.007500", "142217.467500", "142217.927500", "142218.387500", "142218.847500", "142219.307500", "142219.767500", "142220.227500", "142220.687500", "142221.147500", "142221.607500", "142222.067500", "142222.527500", "142222.987500", "142223.447500", "142223.907500", "142224.367500", "142224.827500", "142225.287500", "142225.747500", "142226.207500", "142226.667500", "142227.127500", "142227.587500", "142228.047500", "142228.507500", "142228.967500", "142229.427500", "142229.887500", "142230.347500", "142230.807500", "142231.267500", "142231.727500", "142232.187500", "142232.647500", "142233.107500", "142233.567500", "142234.027500", "142234.487500", "142234.947500", "142235.407500", "142235.867500", "142236.327500", "142236.787500", "142237.247500", "142237.707500", "142238.167500", "142238.627500", "142239.087500", "142239.547500", "142240.007500", "142240.467500", "142240.927500", "142241.387500", "142241.847500", "142242.307500", "142242.767500", "142243.227500", "142243.687500", "142244.147500", "142244.607500", "142245.067500", "142245.527500", "142245.987500", "142246.447500", "142246.907500", "142247.367500", "142247.827500", "142248.287500", "142248.747500", "142249.207500", "142249.667500", "142250.127500", "142250.587500", "142251.047500", "142251.507500", "142251.967500", "142252.427500", "142252.887500", "142253.347500", "142253.807500", "142254.267500", "142254.727500", "142255.187500", "142255.647500", "142256.107500", "142256.567500", "142257.027500", "142257.487500", "142257.947500", "142258.407500", "142258.867500", "142259.327500", "142259.787500", "142300.247500", "142300.707500", "142301.167500", "142301.627500", "142302.087500", "142302.547500", "142303.007500", "142303.467500", "142303.927500", "142304.387500", "142304.847500", "142305.307500", "142305.767500", "142306.227500", "142306.687500", "142307.147500", "142307.607500", "142308.067500", "142308.527500", "142308.987500", "142309.447500", "142309.907500", "142310.367500", "142310.827500", "142311.287500", "142311.747500", "142312.207500", "142312.667500", "142313.127500", "142313.587500", "142314.047500", "142314.507500", "142314.967500", "142315.427500", "142315.887500", "142316.347500", "142316.807500", "142317.267500", "142317.727500", "142318.187500", "142318.647500", "142319.107500", "142319.567500", "142320.027500", "142320.487500", "142320.947500", "142321.407500", "142321.867500", "142322.327500", "142322.787500", "142323.247500", "142323.707500", "142324.167500", "142324.627500", "142325.087500", "142325.547500", "142326.007500", "142326.467500", "142326.927500", "142327.387500", "142327.847500", "142328.307500", "142328.767500", "142329.227500", "142329.687500", "142330.147500", "142330.607500", "142331.067500", "142331.527500", "142331.987500", "142332.447500", "142332.907500", "142333.367500", "142333.827500", "142334.287500", "142334.747500", "142335.207500", "142335.667500", "142336.127500", "142336.587500", "142337.047500", "142337.507500", "142337.967500", "142338.427500", "142338.887500", "142339.347500", "142339.807500", "142340.267500", "142340.727500", "142341.187500", "142341.647500", "142342.107500", "142342.567500", "142343.027500", "142343.487500", "142343.947500", "142344.407500", "142344.867500", "142345.327500", "142345.787500", "142346.247500", "142346.707500", "142347.167500", "142347.627500", "142348.087500", "142348.547500", "142349.007500", "142349.467500", "142349.927500", "142350.387500", "142350.847500", "142351.307500", "142351.767500", "142352.227500", "142352.687500", "142353.147500", "142353.607500", "142354.067500", "142354.527500", "142354.987500", "142355.447500", "142355.907500", "142356.367500", "142356.827500", "142357.287500", "142357.747500", "142358.207500", "142358.667500", "142359.127500", "142359.587500", "142400.047500", "142400.507500", "142400.967500", "142401.427500", "142401.887500", "142402.347500", "142402.807500", "142403.267500", "142403.727500", "142404.187500", "142404.647500", "142405.107500", "142405.567500", "142406.027500", "142406.487500", "142406.947500", "142407.407500", "142407.867500", "142408.327500", "142408.787500", "142409.247500", "142409.707500", "142410.167500", "142410.627500", "142411.087500", "142411.547500", "142412.007500", "142412.467500", "142412.927500", "142413.387500", "142413.847500", "142414.307500", "142414.767500", "142415.227500", "142415.687500", "142416.147500", "142416.607500", "142417.067500", "142417.527500", "142417.987500", "142418.447500", "142418.907500", "142419.367500", "142419.827500", "142420.287500", "142420.747500", "142421.207500", "142421.667500", "142422.127500", "142422.587500", "142423.047500", "142423.507500", "142423.967500", "142424.427500", "142424.887500", "142425.347500", "142425.807500", "142426.267500", "142426.727500", "142427.187500", "142427.647500", "142428.107500", "142428.567500", "142429.027500", "142429.487500", "142429.947500", "142430.407500", "142430.867500", "142431.327500", "142431.787500", "142432.247500", "142432.707500", "142433.167500", "142433.627500", "142434.087500", "142434.547500", "142435.007500", "142435.467500", "142435.927500", "142436.387500", "142436.847500", "142437.307500", "142437.767500", "142438.227500", "142438.687500", "142439.147500", "142439.607500", "142440.067500", "142440.527500", "142440.987500", "142441.447500", "142441.907500", "142442.367500", "142442.827500", "142443.287500", "142443.747500", "142444.207500", "142444.667500", "142445.127500", "142445.587500", "142446.047500", "142446.507500", "142446.967500", "142447.427500", "142447.887500", "142448.347500", "142448.807500", "142449.267500", "142449.727500", "142450.187500", "142450.647500", "142451.107500", "142451.567500", "142452.027500", "142452.487500", "142452.947500", "142453.407500", "142453.867500", "142454.327500", "142454.787500", "142455.247500", "142455.707500", "142456.167500", "142456.627500", "142457.087500", "142457.547500", "142458.007500", "142458.467500", "142458.927500", "142459.387500", "142459.847500", "142500.307500", "142500.767500", "142501.227500", "142501.687500", "142502.147500", "142502.607500", "142503.067500", "142503.527500", "142503.987500", "142504.447500", "142504.907500", "142505.367500", "142505.827500", "142506.287500", "142506.747500", "142507.207500", "142507.667500", "142508.127500", "142508.587500", "142509.047500", "142509.507500", "142509.967500", "142510.427500", "142510.887500", "142511.347500", "142511.807500", "142512.267500", "142512.727500", "142513.187500", "142513.647500", "142514.107500", "142514.567500", "142515.027500", "142515.487500", "142515.947500", "142516.407500", "142516.867500", "142517.327500", "142517.787500", "142518.247500", "142518.707500", "142519.167500", "142519.627500", "142520.087500", "142520.547500", "142521.007500", "142521.467500", "142521.927500", "142522.387500", "142522.847500", "142523.307500", "142523.767500", "142524.227500", "142524.687500", "142525.147500", "142525.607500", "142526.067500", "142526.527500", "142526.987500", "142527.447500", "142527.907500", "142528.367500", "142528.827500", "142529.287500", "142529.747500", "142530.207500", "142530.667500", "142531.127500", "142531.587500", "142532.047500", "142532.507500", "142532.967500", "142533.427500", "142533.887500", "142534.347500", "142534.807500", "142535.267500", "142535.727500", "142536.187500", "142536.647500", "142537.107500", "142537.567500", "142538.027500", "142538.487500", "142538.947500", "142539.407500", "142539.867500", "142540.327500", "142540.787500", "142541.247500", "142541.707500", "142542.167500", "142542.627500", "142543.087500", "142543.547500", "142544.007500", "142544.467500", "142544.927500", "142545.387500", "142545.847500", "142546.307500", "142546.767500", "142547.227500", "142547.687500", "142548.147500", "142548.607500", "142549.067500", "142549.527500", "142549.987500", "142550.447500", "142550.907500", "142551.367500", "142551.827500", "142552.287500", "142552.747500", "142553.207500", "142553.667500", "142554.127500", "142554.587500", "142555.047500", "142555.507500", "142555.967500", "142556.427500", "142556.887500", "142557.347500", "142557.807500", "142558.267500", "142558.727500", "142559.187500", "142559.647500", "142600.107500", "142600.567500", "142601.027500", "142601.487500", "142601.947500", "142602.407500", "142602.867500", "142603.327500", "142603.787500", "142604.247500", "142604.707500", "142605.167500", "142605.627500", "142606.087500", "142606.547500", "142607.007500", "142607.467500", "142607.927500", "142608.387500", "142608.847500", "142609.307500", "142609.767500", "142610.227500", "142610.687500", "142611.147500", "142611.607500", "142612.067500", "142612.527500", "142612.987500", "142613.447500", "142613.907500", "142614.367500", "142614.827500", "142615.287500", "142615.747500", "142616.207500", "142616.667500", "142617.127500", "142617.587500", "142618.047500", "142618.507500", "142618.967500", "142619.427500", "142619.887500", "142620.347500", "142620.807500", "142621.267500", "142621.727500", "142622.187500", "142622.647500", "142623.107500", "142623.567500", "142624.027500", "142624.487500", "142624.947500", "142625.407500", "142625.867500", "142626.327500", "142626.787500", "142627.247500", "142627.707500", "142628.167500", "142628.627500", "142629.087500", "142629.547500", "142630.007500", "142630.467500", "142630.927500", "142631.387500", "142631.847500", "142632.307500", "142632.767500", "142633.227500", "142633.687500", "142634.147500", "142634.607500", "142635.067500", "142635.527500", "142635.987500", "142636.447500", "142636.907500", "142637.367500", "142637.827500", "142638.287500", "142638.747500", "142639.207500", "142639.667500", "142640.127500", "142640.587500", "142641.047500", "142641.507500", "142641.967500", "142642.427500", "142642.887500", "142643.347500", "142643.807500", "142644.267500", "142644.727500", "142645.187500", "142645.647500", "142646.107500", "142646.567500", "142647.027500", "142647.487500", "142647.947500", "142648.407500", "142648.867500", "142649.327500", "142649.787500", "142650.247500", "142650.707500", "142651.167500", "142651.627500", "142652.087500", "142652.547500", "142653.007500", "142653.467500", "142653.927500", "142654.387500", "142654.847500", "142655.307500", "142655.767500", "142656.227500", "142656.687500", "142657.147500", "142657.607500", "142658.067500", "142658.527500", "142658.987500", "142659.447500", "142659.907500", "142700.367500", "142700.827500", "142701.287500", "142701.747500", "142702.207500", "142702.667500", "142703.127500", "142703.587500", "142704.047500", "142704.507500", "142704.967500", "142705.427500", "142705.887500", "142706.347500", "142706.807500", "142707.267500", "142707.727500", "142708.187500", "142708.647500", "142709.107500", "142709.567500", "142710.027500", "142710.487500", "142710.947500", "142711.407500", "142711.867500", "142712.327500", "142712.787500", "142713.247500", "142713.707500", "142714.167500", "142714.627500", "142715.087500", "142715.547500", "142716.007500", "142716.467500", "142716.927500", "142717.387500", "142717.847500", "142718.307500", "142718.767500", "142719.227500", "142719.687500", "142720.147500", "142720.607500", "142721.067500", "142721.527500", "142721.987500", "142722.447500", "142722.907500", "142723.367500", "142723.827500", "142724.287500", "142724.747500", "142725.207500", "142725.667500", "142726.127500", "142726.587500", "142727.047500", "142727.507500", "142727.967500", "142728.427500", "142728.887500", "142729.347500", "142729.807500", "142730.267500", "142730.727500", "142731.187500", "142731.647500", "142732.107500", "142732.567500", "142733.027500", "142733.487500", "142733.947500", "142734.407500", "142734.867500", "142735.327500", "142735.787500", "142736.247500", "142736.707500", "142737.167500", "142737.627500", "142738.087500", "142738.547500", "142739.007500", "142739.467500", "142739.927500", "142740.387500", "142740.847500", "142741.307500", "142741.767500", "142742.227500"],
