{
  "AcquisitionMatrixPE": 82,
  "AcquisitionNumber": 1,
  "AcquisitionTime": "09:15:48.745000",
  "BandwidthPerPixelPhaseEncode": 24.888,
  "BaseResolution": 82,
  "BodyPartExamined": "BRAIN",
  "ConsistencyInfo": "N4_VE11E_LATEST_20181129",
  "ConversionSoftware": "dcm2niix",
  "ConversionSoftwareVersion": "v1.0.20201102",
  "DerivedVendorReportedEchoSpacing": 0.00049,
  "DeviceSerialNumber": "66112",
  "DwellTime": 2e-06,
  "EchoTime": 0.0272,
  "EchoTrainLength": 82,
  "EffectiveEchoSpacing": 0.00049,
  "FlipAngle": 44,
  "ImageComments": "Unaliased MB8/PE3",
  "ImageOrientationPatientDICOM": [0.998523, -0.0468866, 0.0274424, 0.0411523, 0.982554, 0.181368],
  "ImageType": [
    "ORIGINAL",
    "PRIMARY",
    "M",
    "MB",
    "ND",
    "NORM",
    "MOSAIC"
],
  "ImagingFrequency": 123.252,
  "InPlanePhaseEncodingDirectionDICOM": "COL",
  "InstitutionAddress": "Maynard 3,Hanover,NH,US,03755",
  "InstitutionName": "Dartmouth College - PBS",
  "InstitutionalDepartmentName": "Department",
  "MRAcquisitionType": "2D",
  "MagneticFieldStrength": 3,
  "Manufacturer": "Siemens",
  "ManufacturersModelName": "Prisma",
  "Modality": "MR",
  "MultibandAccelerationFactor": 8,
  "PartialFourier": 1,
  "PatientPosition": "HFS",
  "PercentPhaseFOV": 100,
  "PercentSampling": 100,
  "PhaseEncodingDirection": "j-",
  "PhaseEncodingSteps": 82,
  "PhaseResolution": 1,
  "PixelBandwidth": 3050,
  "ProcedureStepDescription": "Wager_Wager^1076_spacetop",
  "ProtocolName": "func_run-02_task-social_acq-ap-mb8",
  "PulseSequenceDetails": "%CustomerSeq%\\cmrr_mbep2d_bold",
  "ReceiveCoilActiveElements": "HEA;HEP",
  "ReceiveCoilName": "Head_32",
  "ReconMatrixPE": 82,
  "RepetitionTime": 0.46,
  "SAR": 0.0813004,
  "ScanOptions": "FS",
  "ScanningSequence": "EP",
  "SequenceName": "epfid2d1_82",
  "SequenceVariant": "SK\\SS",
  "SeriesDescription": "func_run-02_task-social_acq-ap-mb8",
  "SeriesNumber": 14,
  "ShimSetting": [4150, -7817, -7194, 538, -40, -232, -26, 81],
  "SliceThickness": 2.7,
  "SliceTiming": [0, 0.2525, 0.0625, 0.315, 0.1275, 0.3775, 0.19, 0, 0.2525, 0.0625, 0.315, 0.1275, 0.3775, 0.19, 0, 0.2525, 0.0625, 0.315, 0.1275, 0.3775, 0.19, 0, 0.2525, 0.0625, 0.315, 0.1275, 0.3775, 0.19, 0, 0.2525, 0.0625, 0.315, 0.1275, 0.3775, 0.19, 0, 0.2525, 0.0625, 0.315, 0.1275, 0.3775, 0.19, 0, 0.2525, 0.0625, 0.315, 0.1275, 0.3775, 0.19, 0, 0.2525, 0.0625, 0.315, 0.1275, 0.3775, 0.19],
  "SoftwareVersions": "syngo MR E11",
  "SpacingBetweenSlices": 2.7,
  "StationName": "AWP66112",
  "TaskName": "social",
  "TotalReadoutTime": 0.03969,
  "TxRefAmp": 251.173,
  "WipMemBlock": "bcadfa81-8a23-4655-80bc-fbdbcdb0c405||Sequence: R016 ve11e/master r/434b28f1; Aug  7 2019 18:53:46 by eja",
  "dcmmeta_affine": [
    [-2.678964614868164, 0.11040852218866348, 0.09576195478439331, 107.46157836914062],
    [0.1257934421300888, 2.636120557785034, 0.48592016100883484, -89.93579864501953],
    [0.07362604886293411, -0.4865959882736206, 2.6541874408721924, -55.258121490478516],
    [0.0, 0.0, 0.0, 1.0]
],
  "dcmmeta_reorient_transform": [
    [0.0, -1.0, 0.0, 81.0],
    [1.0, 0.0, 0.0, 0.0],
    [0.0, 0.0, 1.0, 0.0],
    [0.0, 0.0, 0.0, 1.0]
],
  "dcmmeta_shape": [82, 82, 56, 872],
  "dcmmeta_slice_dim": 2,
  "dcmmeta_version": 0.6,
  "global": {
    "const": {
      "AccessionNumber": "A004105",
      "AcquisitionMatrix": [82, 0, 0, 82],
      "AngioFlag": "N",
      "BitsAllocated": 16,
      "BitsStored": 16,
      "BodyPartExamined": "BRAIN",
      "Columns": 656,
      "EchoNumbers": 1,
      "EchoTime": 27.2,
      "EchoTrainLength": 82,
      "FlipAngle": 44.0,
      "HighBit": 15,
      "ImageOrientationPatient": [0.99852318700625, -0.0468866481989, 0.02744243486912, 0.04115226767115, 0.98255396089924, 0.18136759574615],
      "ImagePositionPatient": [-916.95478595639, -844.05380639731, -255.45612416913],
      "ImageType": [
        "ORIGINAL",
        "PRIMARY",
        "M",
        "MB",
        "ND",
        "NORM",
        "MOSAIC"
],
      "ImagedNucleus": "1H",
      "ImagingFrequency": 123.25216,
      "InPlanePhaseEncodingDirection": "COL",
      "MRAcquisitionType": "2D",
      "MagneticFieldStrength": 3.0,
      "Manufacturer": "SIEMENS",
      "ManufacturerModelName": "Prisma",
      "Modality": "MR",
      "NumberOfAverages": 1.0,
      "NumberOfPhaseEncodingSteps": 82,
      "PercentPhaseFieldOfView": 100.0,
      "PercentSampling": 100.0,
      "PerformedProcedureStepStartTime": "083141.826000",
      "PhotometricInterpretation": "MONOCHROME2",
      "PixelBandwidth": 3050.0,
      "PixelRepresentation": 0,
      "PixelSpacing": [2.6829268932343, 2.6829268932343],
      "ProtocolName": "func_run-02_task-social_acq-ap-mb8",
      "RepetitionTime": 460.0,
      "Rows": 656,
      "SAR": 0.08130042400072,
      "SamplesPerPixel": 1,
      "ScanOptions": "FS",
      "ScanningSequence": "EP",
      "SequenceName": "epfid2d1_82",
      "SequenceVariant": [
        "SK",
        "SS"
],
      "SeriesDescription": "func_run-02_task-social_acq-ap-mb8",
      "SeriesNumber": 14,
      "SeriesTime": "091605.526000",
      "SliceLocation": -66.694925772807,
      "SliceThickness": 2.7000000476837,
      "SmallestImagePixelValue": 0,
      "SoftwareVersions": "syngo MR E11",
      "SpacingBetweenSlices": 2.6999999422994,
      "SpecificCharacterSet": "ISO_IR 100",
      "StudyID": "1",
      "StudyTime": "083141.663000",
      "TransmitCoilName": "Body",
      "VariableFlipAngleFlag": "N",
      "WindowCenterWidthExplanation": "Algo1"
    },
    "slices": {}
  },
  "time": {
    "samples": {
      "AcquisitionNumber": [1, 2, 3, 4, 5, 6, 7, 8, 9, 10, 11, 12, 13, 14, 15, 16, 17, 18, 19, 20, 21, 22, 23, 24, 25, 26, 27, 28, 29, 30, 31, 32, 33, 34, 35, 36, 37, 38, 39, 40, 41, 42, 43, 44, 45, 46, 47, 48, 49, 50, 51, 52, 53, 54, 55, 56, 57, 58, 59, 60, 61, 62, 63, 64, 65, 66, 67, 68, 69, 70, 71, 72, 73, 74, 75, 76, 77, 78, 79, 80, 81, 82, 83, 84, 85, 86, 87, 88, 89, 90, 91, 92, 93, 94, 95, 96, 97, 98, 99, 100, 101, 102, 103, 104, 105, 106, 107, 108, 109, 110, 111, 112, 113, 114, 115, 116, 117, 118, 119, 120, 121, 122, 123, 124, 125, 126, 127, 128, 129, 130, 131, 132, 133, 134, 135, 136, 137, 138, 139, 140, 141, 142, 143, 144, 145, 146, 147, 148, 149, 150, 151, 152, 153, 154, 155, 156, 157, 158, 159, 160, 161, 162, 163, 164, 165, 166, 167, 168, 169, 170, 171, 172, 173, 174, 175, 176, 177, 178, 179, 180, 181, 182, 183, 184, 185, 186, 187, 188, 189, 190, 191, 192, 193, 194, 195, 196, 197, 198, 199, 200, 201, 202, 203, 204, 205, 206, 207, 208, 209, 210, 211, 212, 213, 214, 215, 216, 217, 218, 219, 220, 221, 222, 223, 224, 225, 226, 227, 228, 229, 230, 231, 232, 233, 234, 235, 236, 237, 238, 239, 240, 241, 242, 243, 244, 245, 246, 247, 248, 249, 250, 251, 252, 253, 254, 255, 256, 257, 258, 259, 260, 261, 262, 263, 264, 265, 266, 267, 268, 269, 270, 271, 272, 273, 274, 275, 276, 277, 278, 279, 280, 281, 282, 283, 284, 285, 286, 287, 288, 289, 290, 291, 292, 293, 294, 295, 296, 297, 298, 299, 300, 301, 302, 303, 304, 305, 306, 307, 308, 309, 310, 311, 312, 313, 314, 315, 316, 317, 318, 319, 320, 321, 322, 323, 324, 325, 326, 327, 328, 329, 330, 331, 332, 333, 334, 335, 336, 337, 338, 339, 340, 341, 342, 343, 344, 345, 346, 347, 348, 349, 350, 351, 352, 353, 354, 355, 356, 357, 358, 359, 360, 361, 362, 363, 364, 365, 366, 367, 368, 369, 370, 371, 372, 373, 374, 375, 376, 377, 378, 379, 380, 381, 382, 383, 384, 385, 386, 387, 388, 389, 390, 391, 392, 393, 394, 395, 396, 397, 398, 399, 400, 401, 402, 403, 404, 405, 406, 407, 408, 409, 410, 411, 412, 413, 414, 415, 416, 417, 418, 419, 420, 421, 422, 423, 424, 425, 426, 427, 428, 429, 430, 431, 432, 433, 434, 435, 436, 437, 438, 439, 440, 441, 442, 443, 444, 445, 446, 447, 448, 449, 450, 451, 452, 453, 454, 455, 456, 457, 458, 459, 460, 461, 462, 463, 464, 465, 466, 467, 468, 469, 470, 471, 472, 473, 474, 475, 476, 477, 478, 479, 480, 481, 482, 483, 484, 485, 486, 487, 488, 489, 490, 491, 492, 493, 494, 495, 496, 497, 498, 499, 500, 501, 502, 503, 504, 505, 506, 507, 508, 509, 510, 511, 512, 513, 514, 515, 516, 517, 518, 519, 520, 521, 522, 523, 524, 525, 526, 527, 528, 529, 530, 531, 532, 533, 534, 535, 536, 537, 538, 539, 540, 541, 542, 543, 544, 545, 546, 547, 548, 549, 550, 551, 552, 553, 554, 555, 556, 557, 558, 559, 560, 561, 562, 563, 564, 565, 566, 567, 568, 569, 570, 571, 572, 573, 574, 575, 576, 577, 578, 579, 580, 581, 582, 583, 584, 585, 586, 587, 588, 589, 590, 591, 592, 593, 594, 595, 596, 597, 598, 599, 600, 601, 602, 603, 604, 605, 606, 607, 608, 609, 610, 611, 612, 613, 614, 615, 616, 617, 618, 619, 620, 621, 622, 623, 624, 625, 626, 627, 628, 629, 630, 631, 632, 633, 634, 635, 636, 637, 638, 639, 640, 641, 642, 643, 644, 645, 646, 647, 648, 649, 650, 651, 652, 653, 654, 655, 656, 657, 658, 659, 660, 661, 662, 663, 664, 665, 666, 667, 668, 669, 670, 671, 672, 673, 674, 675, 676, 677, 678, 679, 680, 681, 682, 683, 684, 685, 686, 687, 688, 689, 690, 691, 692, 693, 694, 695, 696, 697, 698, 699, 700, 701, 702, 703, 704, 705, 706, 707, 708, 709, 710, 711, 712, 713, 714, 715, 716, 717, 718, 719, 720, 721, 722, 723, 724, 725, 726, 727, 728, 729, 730, 731, 732, 733, 734, 735, 736, 737, 738, 739, 740, 741, 742, 743, 744, 745, 746, 747, 748, 749, 750, 751, 752, 753, 754, 755, 756, 757, 758, 759, 760, 761, 762, 763, 764, 765, 766, 767, 768, 769, 770, 771, 772, 773, 774, 775, 776, 777, 778, 779, 780, 781, 782, 783, 784, 785, 786, 787, 788, 789, 790, 791, 792, 793, 794, 795, 796, 797, 798, 799, 800, 801, 802, 803, 804, 805, 806, 807, 808, 809, 810, 811, 812, 813, 814, 815, 816, 817, 818, 819, 820, 821, 822, 823, 824, 825, 826, 827, 828, 829, 830, 831, 832, 833, 834, 835, 836, 837, 838, 839, 840, 841, 842, 843, 844, 845, 846, 847, 848, 849, 850, 851, 852, 853, 854, 855, 856, 857, 858, 859, 860, 861, 862, 863, 864, 865, 866, 867, 868, 869, 870, 871, 872],
      "AcquisitionTime": ["091548.745000", "091549.205000", "091549.665000", "091550.125000", "091550.585000", "091551.045000", "091551.505000", "091551.965000", "091552.425000", "091552.885000", "091553.345000", "091553.805000", "091554.265000", "091554.725000", "091555.185000", "091555.645000", "091556.105000", "091556.565000", "091557.025000", "091557.485000", "091557.945000", "091558.405000", "091558.865000", "091559.325000", "091559.785000", "091600.245000", "091600.705000", "091601.165000", "091601.625000", "091602.085000", "091602.545000", "091603.005000", "091603.465000", "091603.925000", "091604.385000", "091604.845000", "091605.305000", "091605.765000", "091606.225000", "091606.685000", "091607.145000", "091607.605000", "091608.065000", "091608.525000", "091608.985000", "091609.445000", "091609.905000", "091610.365000", "091610.825000", "091611.285000", "091611.745000", "091612.205000", "091612.665000", "091613.125000", "091613.585000", "091614.045000", "091614.505000", "091614.965000", "091615.425000", "091615.885000", "091616.345000", "091616.805000", "091617.265000", "091617.725000", "091618.185000", "091618.645000", "091619.105000", "091619.565000", "091620.025000", "091620.485000", "091620.945000", "091621.405000", "091621.865000", "091622.325000", "091622.785000", "091623.245000", "091623.705000", "091624.165000", "091624.625000", "091625.085000", "091625.545000", "091626.005000", "091626.465000", "091626.925000", "091627.385000", "091627.845000", "091628.305000", "091628.765000", "091629.225000", "091629.685000", "091630.145000", "091630.605000", "091631.065000", "091631.525000", "091631.985000", "091632.445000", "091632.905000", "091633.365000", "091633.825000", "091634.285000", "091634.745000", "091635.205000", "091635.665000", "091636.125000", "091636.585000", "091637.045000", "091637.505000", "091637.965000", "091638.425000", "091638.885000", "091639.345000", "091639.805000", "091640.265000", "091640.725000", "091641.185000", "091641.645000", "091642.105000", "091642.565000", "091643.025000", "091643.485000", "091643.945000", "091644.405000", "091644.865000", "091645.325000", "091645.785000", "091646.245000", "091646.705000", "091647.165000", "091647.625000", "091648.085000", "091648.545000", "091649.005000", "091649.465000", "091649.925000", "091650.385000", "091650.845000", "091651.305000", "091651.765000", "091652.225000", "091652.685000", "091653.145000", "091653.605000", "091654.065000", "091654.525000", "091654.985000", "091655.445000", "091655.905000", "091656.365000", "091656.825000", "091657.285000", "091657.745000", "091658.205000", "091658.665000", "091659.125000", "091659.585000", "091700.045000", "091700.505000", "091700.965000", "091701.425000", "091701.885000", "091702.345000", "091702.805000", "091703.265000", "091703.725000", "091704.185000", "091704.645000", "091705.105000", "091705.565000", "091706.025000", "091706.485000", "091706.945000", "091707.405000", "091707.865000", "091708.325000", "091708.785000", "091709.245000", "091709.705000", "091710.165000", "091710.625000", "091711.085000", "091711.545000", "091712.005000", "091712.465000", "091712.925000", "091713.385000", "091713.845000", "091714.305000", "091714.765000", "091715.225000", "091715.685000", "091716.145000", "091716.605000", "091717.065000", "091717.525000", "091717.985000", "091718.445000", "091718.905000", "091719.365000", "091719.825000", "091720.285000", "091720.745000", "091721.205000", "091721.665000", "091722.125000", "091722.585000", "091723.045000", "091723.505000", "091723.965000", "091724.425000", "091724.885000", "091725.345000", "091725.805000", "091726.265000", "091726.725000", "091727.185000", "091727.645000", "091728.105000", "091728.565000", "091729.025000", "091729.485000", "091729.945000", "091730.405000", "091730.865000", "091731.325000", "091731.785000", "091732.245000", "091732.705000", "091733.165000", "091733.625000", "091734.085000", "091734.545000", "091735.005000", "091735.465000", "091735.925000", "091736.385000", "091736.845000", "091737.305000", "091737.765000", "091738.225000", "091738.685000", "091739.145000", "091739.605000", "091740.065000", "091740.525000", "091740.985000", "091741.445000", "091741.905000", "091742.365000", "091742.825000", "091743.285000", "091743.745000", "091744.205000", "091744.665000", "091745.125000", "091745.585000", "091746.045000", "091746.505000", "091746.965000", "091747.425000", "091747.885000", "091748.345000", "091748.805000", "091749.265000", "091749.725000", "091750.185000", "091750.645000", "091751.105000", "091751.565000", "091752.025000", "091752.485000", "091752.945000", "091753.405000", "091753.865000", "091754.325000", "091754.785000", "091755.245000", "091755.705000", "091756.165000", "091756.625000", "091757.085000", "091757.545000", "091758.005000", "091758.465000", "091758.925000", "091759.385000", "091759.845000", "091800.305000", "091800.765000", "091801.225000", "091801.685000", "091802.145000", "091802.605000", "091803.065000", "091803.525000", "091803.985000", "091804.445000", "091804.905000", "091805.365000", "091805.825000", "091806.285000", "091806.745000", "091807.205000", "091807.665000", "091808.125000", "091808.585000", "091809.045000", "091809.505000", "091809.965000", "091810.425000", "091810.885000", "091811.345000", "091811.805000", "091812.265000", "091812.725000", "091813.185000", "091813.645000", "091814.105000", "091814.565000", "091815.025000", "091815.485000", "091815.945000", "091816.405000", "091816.865000", "091817.325000", "091817.785000", "091818.245000", "091818.705000", "091819.165000", "091819.625000", "091820.085000", "091820.545000", "091821.005000", "091821.465000", "091821.925000", "091822.385000", "091822.845000", "091823.305000", "091823.765000", "091824.225000", "091824.685000", "091825.145000", "091825.605000", "091826.065000", "091826.525000", "091826.985000", "091827.445000", "091827.905000", "091828.365000", "091828.825000", "091829.285000", "091829.745000", "091830.205000", "091830.665000", "091831.125000", "091831.585000", "091832.045000", "091832.505000", "091832.965000", "091833.425000", "091833.885000", "091834.345000", "091834.805000", "091835.265000", "091835.725000", "091836.185000", "091836.645000", "091837.105000", "091837.565000", "091838.025000", "091838.485000", "091838.945000", "091839.405000", "091839.865000", "091840.325000", "091840.785000", "091841.245000", "091841.705000", "091842.165000", "091842.625000", "091843.085000", "091843.545000", "091844.005000", "091844.465000", "091844.925000", "091845.385000", "091845.845000", "091846.305000", "091846.765000", "091847.225000", "091847.685000", "091848.145000", "091848.605000", "091849.065000", "091849.525000", "091849.985000", "091850.445000", "091850.905000", "091851.365000", "091851.825000", "091852.285000", "091852.745000", "091853.205000", "091853.665000", "091854.125000", "091854.585000", "091855.045000", "091855.505000", "091855.965000", "091856.425000", "091856.885000", "091857.345000", "091857.805000", "091858.265000", "091858.725000", "091859.185000", "091859.645000", "091900.105000", "091900.565000", "091901.025000", "091901.485000", "091901.945000", "091902.405000", "091902.865000", "091903.325000", "091903.785000", "091904.245000", "091904.705000", "091905.165000", "091905.625000", "091906.085000", "091906.545000", "091907.005000", "091907.465000", "091907.925000", "091908.385000", "091908.845000", "091909.305000", "091909.765000", "091910.225000", "091910.685000", "091911.145000", "091911.605000", "091912.065000", "091912.525000", "091912.985000", "091913.445000", "091913.905000", "091914.365000", "091914.825000", "091915.285000", "091915.745000", "091916.205000", "091916.665000", "091917.125000", "091917.585000", "091918.045000", "091918.505000", "091918.965000", "091919.425000", "091919.885000", "091920.345000", "091920.805000", "091921.265000", "091921.725000", "091922.185000", "091922.645000", "091923.105000", "091923.565000", "091924.025000", "091924.485000", "091924.945000", "091925.405000", "091925.865000", "091926.325000", "091926.785000", "091927.245000", "091927.705000", "091928.165000", "091928.625000", "091929.085000", "091929.545000", "091930.005000", "091930.465000", "091930.925000", "091931.385000", "091931.845000", "091932.305000", "091932.765000", "091933.225000", "091933.685000", "091934.145000", "091934.605000", "091935.065000", "091935.525000", "091935.985000", "091936.445000", "091936.905000", "091937.365000", "091937.825000", "091938.285000", "091938.745000", "091939.205000", "091939.665000", "091940.125000", "091940.585000", "091941.045000", "091941.505000", "091941.965000", "091942.425000", "091942.885000", "091943.345000", "091943.805000", "091944.265000", "091944.725000", "091945.185000", "091945.645000", "091946.105000", "091946.565000", "091947.025000", "091947.485000", "091947.945000", "091948.405000", "091948.865000", "091949.325000", "091949.785000", "091950.245000", "091950.705000", "091951.165000", "091951.625000", "091952.085000", "091952.545000", "091953.005000", "091953.465000", "091953.925000", "091954.385000", "091954.845000", "091955.305000", "091955.765000", "091956.225000", "091956.685000", "091957.145000", "091957.605000", "091958.065000", "091958.525000", "091958.985000", "091959.445000", "091959.905000", "092000.365000", "092000.825000", "092001.285000", "092001.745000", "092002.205000", "092002.665000", "092003.125000", "092003.585000", "092004.045000", "092004.505000", "092004.965000", "092005.425000", "092005.885000", "092006.345000", "092006.805000", "092007.265000", "092007.725000", "092008.185000", "092008.645000", "092009.105000", "092009.565000", "092010.025000", "092010.485000", "092010.945000", "092011.405000", "092011.865000", "092012.325000", "092012.785000", "092013.245000", "092013.705000", "092014.165000", "092014.625000", "092015.085000", "092015.545000", "092016.005000", "092016.465000", "092016.925000", "092017.385000", "092017.845000", "092018.305000", "092018.765000", "092019.225000", "092019.685000", "092020.145000", "092020.605000", "092021.065000", "092021.525000", "092021.985000", "092022.445000", "092022.905000", "092023.365000", "092023.825000", "092024.285000", "092024.745000", "092025.205000", "092025.665000", "092026.125000", "092026.585000", "092027.045000", "092027.505000", "092027.965000", "092028.425000", "092028.885000", "092029.345000", "092029.805000", "092030.265000", "092030.725000", "092031.185000", "092031.645000", "092032.105000", "092032.565000", "092033.025000", "092033.485000", "092033.945000", "092034.405000", "092034.865000", "092035.325000", "092035.785000", "092036.245000", "092036.705000", "092037.165000", "092037.625000", "092038.085000", "092038.545000", "092039.005000", "092039.465000", "092039.925000", "092040.385000", "092040.845000", "092041.305000", "092041.765000", "092042.225000", "092042.685000", "092043.145000", "092043.605000", "092044.065000", "092044.525000", "092044.985000", "092045.445000", "092045.905000", "092046.365000", "092046.825000", "092047.285000", "092047.745000", "092048.205000", "092048.665000", "092049.125000", "092049.585000", "092050.045000", "092050.505000", "092050.965000", "092051.425000", "092051.885000", "092052.345000", "092052.805000", "092053.265000", "092053.725000", "092054.185000", "092054.645000", "092055.105000", "092055.565000", "092056.025000", "092056.485000", "092056.945000", "092057.405000", "092057.865000", "092058.325000", "092058.785000", "092059.245000", "092059.705000", "092100.165000", "092100.625000", "092101.085000", "092101.545000", "092102.005000", "092102.465000", "092102.925000", "092103.385000", "092103.845000", "092104.305000", "092104.765000", "092105.225000", "092105.685000", "092106.145000", "092106.605000", "092107.065000", "092107.525000", "092107.985000", "092108.445000", "092108.905000", "092109.365000", "092109.825000", "092110.285000", "092110.745000", "092111.205000", "092111.665000", "092112.125000", "092112.585000", "092113.045000", "092113.505000", "092113.965000", "092114.425000", "092114.885000", "092115.345000", "092115.805000", "092116.265000", "092116.725000", "092117.185000", "092117.645000", "092118.105000", "092118.565000", "092119.025000", "092119.485000", "092119.945000", "092120.405000", "092120.865000", "092121.325000", "092121.785000", "092122.245000", "092122.705000", "092123.165000", "092123.625000", "092124.085000", "092124.545000", "092125.005000", "092125.465000", "092125.925000", "092126.385000", "092126.845000", "092127.305000", "092127.765000", "092128.225000", "092128.685000", "092129.145000", "092129.605000", "092130.065000", "092130.525000", "092130.985000", "092131.445000", "092131.905000", "092132.365000", "092132.825000", "092133.285000", "092133.745000", "092134.205000", "092134.665000", "092135.125000", "092135.585000", "092136.045000", "092136.505000", "092136.965000", "092137.425000", "092137.885000", "092138.345000", "092138.805000", "092139.265000", "092139.725000", "092140.185000", "092140.645000", "092141.105000", "092141.565000", "092142.025000", "092142.485000", "092142.945000", "092143.405000", "092143.865000", "092144.325000", "092144.785000", "092145.245000", "092145.705000", "092146.165000", "092146.625000", "092147.085000", "092147.545000", "092148.005000", "092148.465000", "092148.925000", "092149.385000", "092149.845000", "092150.305000", "092150.765000", "092151.225000", "092151.685000", "092152.145000", "092152.605000", "092153.065000", "092153.525000", "092153.985000", "092154.445000", "092154.905000", "092155.365000", "092155.825000", "092156.285000", "092156.745000", "092157.205000", "092157.665000", "092158.125000", "092158.585000", "092159.045000", "092159.505000", "092159.965000", "092200.425000", "092200.885000", "092201.345000", "092201.805000", "092202.265000", "092202.725000", "092203.185000", "092203.645000", "092204.105000", "092204.565000", "092205.025000", "092205.485000", "092205.945000", "092206.405000", "092206.865000", "092207.325000", "092207.785000", "092208.245000", "092208.705000", "092209.165000", "092209.625000", "092210.085000", "092210.545000", "092211.005000", "092211.465000", "092211.925000", "092212.385000", "092212.845000", "092213.305000", "092213.765000", "092214.225000", "092214.685000", "092215.145000", "092215.605000", "092216.065000", "092216.525000", "092216.985000", "092217.445000", "092217.905000", "092218.365000", "092218.825000", "092219.285000", "092219.745000", "092220.205000", "092220.665000", "092221.125000", "092221.585000", "092222.045000", "092222.505000", "092222.965000", "092223.425000", "092223.885000", "092224.345000", "092224.805000", "092225.265000", "092225.725000", "092226.185000", "092226.645000", "092227.105000", "092227.565000", "092228.025000", "092228.485000", "092228.945000", "092229.405000"],
