{
  "AcquisitionMatrixPE": 82,
  "AcquisitionNumber": 1,
  "AcquisitionTime": "10:18:13.577500",
  "BandwidthPerPixelPhaseEncode": 24.888,
  "BaseResolution": 82,
  "BodyPartExamined": "BRAIN",
  "ConsistencyInfo": "N4_VE11E_LATEST_20181129",
  "ConversionSoftware": "dcm2niix",
  "ConversionSoftwareVersion": "v1.0.20201102",
  "DerivedVendorReportedEchoSpacing": 0.00049,
  "DeviceSerialNumber": "66112",
  "DwellTime": 2e-06,
  "EchoTime": 0.0272,
  "EchoTrainLength": 82,
  "EffectiveEchoSpacing": 0.00049,
  "FlipAngle": 44,
  "ImageComments": "Unaliased MB8/PE3",
  "ImageOrientationPatientDICOM": [0.998268, -0.0458341, 0.0368764, 0.0451565, 0.998799, 0.0190042],
  "ImageType": [
    "ORIGINAL",
    "PRIMARY",
    "M",
    "MB",
    "ND",
    "NORM",
    "MOSAIC"
],
  "ImagingFrequency": 123.252,
  "InPlanePhaseEncodingDirectionDICOM": "COL",
  "InstitutionAddress": "Maynard 3,Hanover,NH,US,03755",
  "InstitutionName": "Dartmouth College - PBS",
  "InstitutionalDepartmentName": "Department",
  "MRAcquisitionType": "2D",
  "MagneticFieldStrength": 3,
  "Manufacturer": "Siemens",
  "ManufacturersModelName": "Prisma",
  "Modality": "MR",
  "MultibandAccelerationFactor": 8,
  "PartialFourier": 1,
  "PatientPosition": "HFS",
  "PercentPhaseFOV": 100,
  "PercentSampling": 100,
  "PhaseEncodingDirection": "j-",
  "PhaseEncodingSteps": 82,
  "PhaseResolution": 1,
  "PixelBandwidth": 3050,
  "ProcedureStepDescription": "Wager_Wager^1076_spacetop",
  "ProtocolName": "func_run-03_task-alignvideo_acq-ap-mb8",
  "PulseSequenceDetails": "%CustomerSeq%\\cmrr_mbep2d_bold",
  "ReceiveCoilActiveElements": "HEA;HEP",
  "ReceiveCoilName": "Head_32",
  "ReconMatrixPE": 82,
  "RepetitionTime": 0.46,
  "SAR": 0.0813721,
  "ScanOptions": "FS",
  "ScanningSequence": "EP",
  "SequenceName": "epfid2d1_82",
  "SequenceVariant": "SK\\SS",
  "SeriesDescription": "func_run-03_task-alignvideo_acq-ap-mb8",
  "SeriesNumber": 34,
  "ShimSetting": [4149, -7821, -7196, 507, -40, -240, -16, 83],
  "SliceThickness": 2.7,
  "SliceTiming": [0, 0.25, 0.0625, 0.3125, 0.125, 0.375, 0.1875, 0, 0.25, 0.0625, 0.3125, 0.125, 0.375, 0.1875, 0, 0.25, 0.0625, 0.3125, 0.125, 0.375, 0.1875, 0, 0.25, 0.0625, 0.3125, 0.125, 0.375, 0.1875, 0, 0.25, 0.0625, 0.3125, 0.125, 0.375, 0.1875, 0, 0.25, 0.0625, 0.3125, 0.125, 0.375, 0.1875, 0, 0.25, 0.0625, 0.3125, 0.125, 0.375, 0.1875, 0, 0.25, 0.0625, 0.3125, 0.125, 0.375, 0.1875],
  "SoftwareVersions": "syngo MR E11",
  "SpacingBetweenSlices": 2.7,
  "StationName": "AWP66112",
  "TaskName": "alignvideo",
  "TotalReadoutTime": 0.03969,
  "TxRefAmp": 251.173,
  "WipMemBlock": "a63d96ce-359c-4900-a9f0-4634bbca70f5||Sequence: R016 ve11e/master r/434b28f1; Aug  7 2019 18:53:46 by eja",
  "dcmmeta_affine": [
    [-2.6782805919647217, 0.12115158885717392, 0.10179860889911652, 107.29946899414062],
    [0.12296965718269348, 2.6797051429748535, 0.046726327389478683, -89.04743957519531],
    [0.0989367738366127, -0.050986796617507935, 2.6976757049560547, -80.34261322021484],
    [0.0, 0.0, 0.0, 1.0]
],
  "dcmmeta_reorient_transform": [
    [0.0, -1.0, 0.0, 81.0],
    [1.0, 0.0, 0.0, 0.0],
    [0.0, 0.0, 1.0, 0.0],
    [0.0, 0.0, 0.0, 1.0]
],
  "dcmmeta_shape": [82, 82, 56, 1016],
  "dcmmeta_slice_dim": 2,
  "dcmmeta_version": 0.6,
  "global": {
    "const": {
      "AccessionNumber": "A004105",
      "AcquisitionMatrix": [82, 0, 0, 82],
      "AngioFlag": "N",
      "BitsAllocated": 16,
      "BitsStored": 16,
      "BodyPartExamined": "BRAIN",
      "Columns": 656,
      "EchoNumbers": 1,
      "EchoTime": 27.2,
      "EchoTrainLength": 82,
      "FlipAngle": 44.0,
      "HighBit": 15,
      "ImageOrientationPatient": [0.99826818037539, -0.0458341444817, 0.03687643217065, 0.04515650128454, 0.99879914495011, 0.01900416898124],
      "ImagePositionPatient": [-920.54977485851, -861.79174031893, -127.50060615044],
      "ImageType": [
        "ORIGINAL",
        "PRIMARY",
        "M",
        "MB",
        "ND",
        "NORM",
        "MOSAIC"
],
      "ImagedNucleus": "1H",
      "ImagingFrequency": 123.25218,
      "InPlanePhaseEncodingDirection": "COL",
      "MRAcquisitionType": "2D",
      "MagneticFieldStrength": 3.0,
      "Manufacturer": "SIEMENS",
      "ManufacturerModelName": "Prisma",
      "Modality": "MR",
      "NumberOfAverages": 1.0,
      "NumberOfPhaseEncodingSteps": 82,
      "PercentPhaseFieldOfView": 100.0,
      "PercentSampling": 100.0,
      "PerformedProcedureStepStartTime": "083141.826000",
      "PhotometricInterpretation": "MONOCHROME2",
      "PixelBandwidth": 3050.0,
      "PixelRepresentation": 0,
      "PixelSpacing": [2.6829268932343, 2.6829268932343],
      "ProtocolName": "func_run-03_task-alignvideo_acq-ap-mb8",
      "RepetitionTime": 460.0,
      "Rows": 656,
      "SAR": 0.08137210752659,
      "SamplesPerPixel": 1,
      "ScanOptions": "FS",
      "ScanningSequence": "EP",
      "SequenceName": "epfid2d1_82",
      "SequenceVariant": [
        "SK",
        "SS"
],
      "SeriesDescription": "func_run-03_task-alignvideo_acq-ap-mb8",
      "SeriesNumber": 34,
      "SeriesTime": "101825.610000",
      "SliceLocation": -77.768972867559,
      "SliceThickness": 2.7000000476837,
      "SmallestImagePixelValue": 0,
      "SoftwareVersions": "syngo MR E11",
      "SpacingBetweenSlices": 2.700000060253,
      "SpecificCharacterSet": "ISO_IR 100",
      "StudyID": "1",
      "StudyTime": "083141.663000",
      "TransmitCoilName": "Body",
      "VariableFlipAngleFlag": "N",
      "WindowCenterWidthExplanation": "Algo1"
    },
    "slices": {}
  },
  "time": {
    "samples": {
      "AcquisitionNumber": [1, 2, 3, 4, 5, 6, 7, 8, 9, 10, 11, 12, 13, 14, 15, 16, 17, 18, 19, 20, 21, 22, 23, 24, 25, 26, 27, 28, 29, 30, 31, 32, 33, 34, 35, 36, 37, 38, 39, 40, 41, 42, 43, 44, 45, 46, 47, 48, 49, 50, 51, 52, 53, 54, 55, 56, 57, 58, 59, 60, 61, 62, 63, 64, 65, 66, 67, 68, 69, 70, 71, 72, 73, 74, 75, 76, 77, 78, 79, 80, 81, 82, 83, 84, 85, 86, 87, 88, 89, 90, 91, 92, 93, 94, 95, 96, 97, 98, 99, 100, 101, 102, 103, 104, 105, 106, 107, 108, 109, 110, 111, 112, 113, 114, 115, 116, 117, 118, 119, 120, 121, 122, 123, 124, 125, 126, 127, 128, 129, 130, 131, 132, 133, 134, 135, 136, 137, 138, 139, 140, 141, 142, 143, 144, 145, 146, 147, 148, 149, 150, 151, 152, 153, 154, 155, 156, 157, 158, 159, 160, 161, 162, 163, 164, 165, 166, 167, 168, 169, 170, 171, 172, 173, 174, 175, 176, 177, 178, 179, 180, 181, 182, 183, 184, 185, 186, 187, 188, 189, 190, 191, 192, 193, 194, 195, 196, 197, 198, 199, 200, 201, 202, 203, 204, 205, 206, 207, 208, 209, 210, 211, 212, 213, 214, 215, 216, 217, 218, 219, 220, 221, 222, 223, 224, 225, 226, 227, 228, 229, 230, 231, 232, 233, 234, 235, 236, 237, 238, 239, 240, 241, 242, 243, 244, 245, 246, 247, 248, 249, 250, 251, 252, 253, 254, 255, 256, 257, 258, 259, 260, 261, 262, 263, 264, 265, 266, 267, 268, 269, 270, 271, 272, 273, 274, 275, 276, 277, 278, 279, 280, 281, 282, 283, 284, 285, 286, 287, 288, 289, 290, 291, 292, 293, 294, 295, 296, 297, 298, 299, 300, 301, 302, 303, 304, 305, 306, 307, 308, 309, 310, 311, 312, 313, 314, 315, 316, 317, 318, 319, 320, 321, 322, 323, 324, 325, 326, 327, 328, 329, 330, 331, 332, 333, 334, 335, 336, 337, 338, 339, 340, 341, 342, 343, 344, 345, 346, 347, 348, 349, 350, 351, 352, 353, 354, 355, 356, 357, 358, 359, 360, 361, 362, 363, 364, 365, 366, 367, 368, 369, 370, 371, 372, 373, 374, 375, 376, 377, 378, 379, 380, 381, 382, 383, 384, 385, 386, 387, 388, 389, 390, 391, 392, 393, 394, 395, 396, 397, 398, 399, 400, 401, 402, 403, 404, 405, 406, 407, 408, 409, 410, 411, 412, 413, 414, 415, 416, 417, 418, 419, 420, 421, 422, 423, 424, 425, 426, 427, 428, 429, 430, 431, 432, 433, 434, 435, 436, 437, 438, 439, 440, 441, 442, 443, 444, 445, 446, 447, 448, 449, 450, 451, 452, 453, 454, 455, 456, 457, 458, 459, 460, 461, 462, 463, 464, 465, 466, 467, 468, 469, 470, 471, 472, 473, 474, 475, 476, 477, 478, 479, 480, 481, 482, 483, 484, 485, 486, 487, 488, 489, 490, 491, 492, 493, 494, 495, 496, 497, 498, 499, 500, 501, 502, 503, 504, 505, 506, 507, 508, 509, 510, 511, 512, 513, 514, 515, 516, 517, 518, 519, 520, 521, 522, 523, 524, 525, 526, 527, 528, 529, 530, 531, 532, 533, 534, 535, 536, 537, 538, 539, 540, 541, 542, 543, 544, 545, 546, 547, 548, 549, 550, 551, 552, 553, 554, 555, 556, 557, 558, 559, 560, 561, 562, 563, 564, 565, 566, 567, 568, 569, 570, 571, 572, 573, 574, 575, 576, 577, 578, 579, 580, 581, 582, 583, 584, 585, 586, 587, 588, 589, 590, 591, 592, 593, 594, 595, 596, 597, 598, 599, 600, 601, 602, 603, 604, 605, 606, 607, 608, 609, 610, 611, 612, 613, 614, 615, 616, 617, 618, 619, 620, 621, 622, 623, 624, 625, 626, 627, 628, 629, 630, 631, 632, 633, 634, 635, 636, 637, 638, 639, 640, 641, 642, 643, 644, 645, 646, 647, 648, 649, 650, 651, 652, 653, 654, 655, 656, 657, 658, 659, 660, 661, 662, 663, 664, 665, 666, 667, 668, 669, 670, 671, 672, 673, 674, 675, 676, 677, 678, 679, 680, 681, 682, 683, 684, 685, 686, 687, 688, 689, 690, 691, 692, 693, 694, 695, 696, 697, 698, 699, 700, 701, 702, 703, 704, 705, 706, 707, 708, 709, 710, 711, 712, 713, 714, 715, 716, 717, 718, 719, 720, 721, 722, 723, 724, 725, 726, 727, 728, 729, 730, 731, 732, 733, 734, 735, 736, 737, 738, 739, 740, 741, 742, 743, 744, 745, 746, 747, 748, 749, 750, 751, 752, 753, 754, 755, 756, 757, 758, 759, 760, 761, 762, 763, 764, 765, 766, 767, 768, 769, 770, 771, 772, 773, 774, 775, 776, 777, 778, 779, 780, 781, 782, 783, 784, 785, 786, 787, 788, 789, 790, 791, 792, 793, 794, 795, 796, 797, 798, 799, 800, 801, 802, 803, 804, 805, 806, 807, 808, 809, 810, 811, 812, 813, 814, 815, 816, 817, 818, 819, 820, 821, 822, 823, 824, 825, 826, 827, 828, 829, 830, 831, 832, 833, 834, 835, 836, 837, 838, 839, 840, 841, 842, 843, 844, 845, 846, 847, 848, 849, 850, 851, 852, 853, 854, 855, 856, 857, 858, 859, 860, 861, 862, 863, 864, 865, 866, 867, 868, 869, 870, 871, 872, 873, 874, 875, 876, 877, 878, 879, 880, 881, 882, 883, 884, 885, 886, 887, 888, 889, 890, 891, 892, 893, 894, 895, 896, 897, 898, 899, 900, 901, 902, 903, 904, 905, 906, 907, 908, 909, 910, 911, 912, 913, 914, 915, 916, 917, 918, 919, 920, 921, 922, 923, 924, 925, 926, 927, 928, 929, 930, 931, 932, 933, 934, 935, 936, 937, 938, 939, 940, 941, 942, 943, 944, 945, 946, 947, 948, 949, 950, 951, 952, 953, 954, 955, 956, 957, 958, 959, 960, 961, 962, 963, 964, 965, 966, 967, 968, 969, 970, 971, 972, 973, 974, 975, 976, 977, 978, 979, 980, 981, 982, 983, 984, 985, 986, 987, 988, 989, 990, 991, 992, 993, 994, 995, 996, 997, 998, 999, 1000, 1001, 1002, 1003, 1004, 1005, 1006, 1007, 1008, 1009, 1010, 1011, 1012, 1013, 1014, 1015, 1016],
      "AcquisitionTime": ["101813.577500", "101814.037500", "101814.497500", "101814.957500", "101815.417500", "101815.877500", "101816.337500", "101816.797500", "101817.257500", "101817.717500", "101818.177500", "101818.637500", "101819.097500", "101819.557500", "101820.017500", "101820.477500", "101820.937500", "101821.397500", "101821.857500", "101822.317500", "101822.777500", "101823.237500", "101823.697500", "101824.157500", "101824.617500", "101825.077500", "101825.537500", "101825.997500", "101826.457500", "101826.917500", "101827.377500", "101827.837500", "101828.297500", "101828.757500", "101829.217500", "101829.677500", "101830.137500", "101830.597500", "101831.057500", "101831.517500", "101831.977500", "101832.437500", "101832.897500", "101833.357500", "101833.817500", "101834.277500", "101834.737500", "101835.197500", "101835.657500", "101836.117500", "101836.577500", "101837.037500", "101837.497500", "101837.957500", "101838.417500", "101838.877500", "101839.337500", "101839.797500", "101840.257500", "101840.717500", "101841.177500", "101841.637500", "101842.097500", "101842.557500", "101843.017500", "101843.477500", "101843.937500", "101844.397500", "101844.857500", "101845.317500", "101845.777500", "101846.237500", "101846.697500", "101847.157500", "101847.617500", "101848.077500", "101848.537500", "101848.997500", "101849.457500", "101849.917500", "101850.377500", "101850.837500", "101851.297500", "101851.757500", "101852.217500", "101852.677500", "101853.137500", "101853.597500", "101854.057500", "101854.517500", "101854.977500", "101855.437500", "101855.897500", "101856.357500", "101856.817500", "101857.277500", "101857.737500", "101858.197500", "101858.657500", "101859.117500", "101859.577500", "101900.037500", "101900.497500", "101900.957500", "101901.417500", "101901.877500", "101902.337500", "101902.797500", "101903.257500", "101903.717500", "101904.177500", "101904.637500", "101905.097500", "101905.557500", "101906.017500", "101906.477500", "101906.937500", "101907.397500", "101907.857500", "101908.317500", "101908.777500", "101909.237500", "101909.697500", "101910.157500", "101910.617500", "101911.077500", "101911.537500", "101911.997500", "101912.457500", "101912.917500", "101913.377500", "101913.837500", "101914.297500", "101914.757500", "101915.217500", "101915.677500", "101916.137500", "101916.597500", "101917.057500", "101917.517500", "101917.977500", "101918.437500", "101918.897500", "101919.357500", "101919.817500", "101920.277500", "101920.737500", "101921.197500", "101921.657500", "101922.117500", "101922.577500", "101923.037500", "101923.497500", "101923.957500", "101924.417500", "101924.877500", "101925.337500", "101925.797500", "101926.257500", "101926.717500", "101927.177500", "101927.637500", "101928.097500", "101928.557500", "101929.017500", "101929.477500", "101929.937500", "101930.397500", "101930.857500", "101931.317500", "101931.777500", "101932.237500", "101932.697500", "101933.157500", "101933.617500", "101934.077500", "101934.537500", "101934.997500", "101935.457500", "101935.917500", "101936.377500", "101936.837500", "101937.297500", "101937.757500", "101938.217500", "101938.677500", "101939.137500", "101939.597500", "101940.057500", "101940.517500", "101940.977500", "101941.437500", "101941.897500", "101942.357500", "101942.817500", "101943.277500", "101943.737500", "101944.197500", "101944.657500", "101945.117500", "101945.577500", "101946.037500", "101946.497500", "101946.957500", "101947.417500", "101947.877500", "101948.337500", "101948.797500", "101949.257500", "101949.717500", "101950.177500", "101950.637500", "101951.097500", "101951.557500", "101952.017500", "101952.477500", "101952.937500", "101953.397500", "101953.857500", "101954.317500", "101954.777500", "101955.237500", "101955.697500", "101956.157500", "101956.617500", "101957.077500", "101957.537500", "101957.997500", "101958.457500", "101958.917500", "101959.377500", "101959.837500", "102000.297500", "102000.757500", "102001.217500", "102001.677500", "102002.137500", "102002.597500", "102003.057500", "102003.517500", "102003.977500", "102004.437500", "102004.897500", "102005.357500", "102005.817500", "102006.277500", "102006.737500", "102007.197500", "102007.657500", "102008.117500", "102008.577500", "102009.037500", "102009.497500", "102009.957500", "102010.417500", "102010.877500", "102011.337500", "102011.797500", "102012.257500", "102012.717500", "102013.177500", "102013.637500", "102014.097500", "102014.557500", "102015.017500", "102015.477500", "102015.937500", "102016.397500", "102016.857500", "102017.317500", "102017.777500", "102018.237500", "102018.697500", "102019.157500", "102019.617500", "102020.077500", "102020.537500", "102020.997500", "102021.457500", "102021.917500", "102022.377500", "102022.837500", "102023.297500", "102023.757500", "102024.217500", "102024.677500", "102025.137500", "102025.597500", "102026.057500", "102026.517500", "102026.977500", "102027.437500", "102027.897500", "102028.357500", "102028.817500", "102029.277500", "102029.737500", "102030.197500", "102030.657500", "102031.117500", "102031.577500", "102032.037500", "102032.497500", "102032.957500", "102033.417500", "102033.877500", "102034.337500", "102034.797500", "102035.257500", "102035.717500", "102036.177500", "102036.637500", "102037.097500", "102037.557500", "102038.017500", "102038.477500", "102038.937500", "102039.397500", "102039.857500", "102040.317500", "102040.777500", "102041.237500", "102041.697500", "102042.157500", "102042.617500", "102043.077500", "102043.537500", "102043.997500", "102044.457500", "102044.917500", "102045.377500", "102045.837500", "102046.297500", "102046.757500", "102047.217500", "102047.677500", "102048.137500", "102048.597500", "102049.057500", "102049.517500", "102049.977500", "102050.437500", "102050.897500", "102051.357500", "102051.817500", "102052.277500", "102052.737500", "102053.197500", "102053.657500", "102054.117500", "102054.577500", "102055.037500", "102055.497500", "102055.957500", "102056.417500", "102056.877500", "102057.337500", "102057.797500", "102058.257500", "102058.717500", "102059.177500", "102059.637500", "102100.097500", "102100.557500", "102101.017500", "102101.477500", "102101.937500", "102102.397500", "102102.857500", "102103.317500", "102103.777500", "102104.237500", "102104.697500", "102105.157500", "102105.617500", "102106.077500", "102106.537500", "102106.997500", "102107.457500", "102107.917500", "102108.377500", "102108.837500", "102109.297500", "102109.757500", "102110.217500", "102110.677500", "102111.137500", "102111.597500", "102112.057500", "102112.517500", "102112.977500", "102113.437500", "102113.897500", "102114.357500", "102114.817500", "102115.277500", "102115.737500", "102116.197500", "102116.657500", "102117.117500", "102117.577500", "102118.037500", "102118.497500", "102118.957500", "102119.417500", "102119.877500", "102120.337500", "102120.797500", "102121.257500", "102121.717500", "102122.177500", "102122.637500", "102123.097500", "102123.557500", "102124.017500", "102124.477500", "102124.937500", "102125.397500", "102125.857500", "102126.317500", "102126.777500", "102127.237500", "102127.697500", "102128.157500", "102128.617500", "102129.077500", "102129.537500", "102129.997500", "102130.457500", "102130.917500", "102131.377500", "102131.837500", "102132.297500", "102132.757500", "102133.217500", "102133.677500", "102134.137500", "102134.597500", "102135.057500", "102135.517500", "102135.977500", "102136.437500", "102136.897500", "102137.357500", "102137.817500", "102138.277500", "102138.737500", "102139.197500", "102139.657500", "102140.117500", "102140.577500", "102141.037500", "102141.497500", "102141.957500", "102142.417500", "102142.877500", "102143.337500", "102143.797500", "102144.257500", "102144.717500", "102145.177500", "102145.637500", "102146.097500", "102146.557500", "102147.017500", "102147.477500", "102147.937500", "102148.397500", "102148.857500", "102149.317500", "102149.777500", "102150.237500", "102150.697500", "102151.157500", "102151.617500", "102152.077500", "102152.537500", "102152.997500", "102153.457500", "102153.917500", "102154.377500", "102154.837500", "102155.297500", "102155.757500", "102156.217500", "102156.677500", "102157.137500", "102157.597500", "102158.057500", "102158.517500", "102158.977500", "102159.437500", "102159.897500", "102200.357500", "102200.817500", "102201.277500", "102201.737500", "102202.197500", "102202.657500", "102203.117500", "102203.577500", "102204.037500", "102204.497500", "102204.957500", "102205.417500", "102205.877500", "102206.337500", "102206.797500", "102207.257500", "102207.717500", "102208.177500", "102208.637500", "102209.097500", "102209.557500", "102210.017500", "102210.477500", "102210.937500", "102211.397500", "102211.857500", "102212.317500", "102212.777500", "102213.237500", "102213.697500", "102214.157500", "102214.617500", "102215.077500", "102215.537500", "102215.997500", "102216.457500", "102216.917500", "102217.377500", "102217.837500", "102218.297500", "102218.757500", "102219.217500", "102219.677500", "102220.137500", "102220.597500", "102221.057500", "102221.517500", "102221.977500", "102222.437500", "102222.897500", "102223.357500", "102223.817500", "102224.277500", "102224.737500", "102225.197500", "102225.657500", "102226.117500", "102226.577500", "102227.037500", "102227.497500", "102227.957500", "102228.417500", "102228.877500", "102229.337500", "102229.797500", "102230.257500", "102230.717500", "102231.177500", "102231.637500", "102232.097500", "102232.557500", "102233.017500", "102233.477500", "102233.937500", "102234.397500", "102234.857500", "102235.317500", "102235.777500", "102236.237500", "102236.697500", "102237.157500", "102237.617500", "102238.077500", "102238.537500", "102238.997500", "102239.457500", "102239.917500", "102240.377500", "102240.837500", "102241.297500", "102241.757500", "102242.217500", "102242.677500", "102243.137500", "102243.597500", "102244.057500", "102244.517500", "102244.977500", "102245.437500", "102245.897500", "102246.357500", "102246.817500", "102247.277500", "102247.737500", "102248.197500", "102248.657500", "102249.117500", "102249.577500", "102250.037500", "102250.497500", "102250.957500", "102251.417500", "102251.877500", "102252.337500", "102252.797500", "102253.257500", "102253.717500", "102254.177500", "102254.637500", "102255.097500", "102255.557500", "102256.017500", "102256.477500", "102256.937500", "102257.397500", "102257.857500", "102258.317500", "102258.777500", "102259.237500", "102259.697500", "102300.157500", "102300.617500", "102301.077500", "102301.537500", "102301.997500", "102302.457500", "102302.917500", "102303.377500", "102303.837500", "102304.297500", "102304.757500", "102305.217500", "102305.677500", "102306.137500", "102306.597500", "102307.057500", "102307.517500", "102307.977500", "102308.437500", "102308.897500", "102309.357500", "102309.817500", "102310.277500", "102310.737500", "102311.197500", "102311.657500", "102312.117500", "102312.577500", "102313.037500", "102313.497500", "102313.957500", "102314.417500", "102314.877500", "102315.337500", "102315.797500", "102316.257500", "102316.717500", "102317.177500", "102317.637500", "102318.097500", "102318.557500", "102319.017500", "102319.477500", "102319.937500", "102320.397500", "102320.857500", "102321.317500", "102321.777500", "102322.237500", "102322.697500", "102323.157500", "102323.617500", "102324.077500", "102324.537500", "102324.997500", "102325.457500", "102325.917500", "102326.377500", "102326.837500", "102327.297500", "102327.757500", "102328.217500", "102328.677500", "102329.137500", "102329.597500", "102330.057500", "102330.517500", "102330.977500", "102331.437500", "102331.897500", "102332.357500", "102332.817500", "102333.277500", "102333.737500", "102334.197500", "102334.657500", "102335.117500", "102335.577500", "102336.037500", "102336.497500", "102336.957500", "102337.417500", "102337.877500", "102338.337500", "102338.797500", "102339.257500", "102339.717500", "102340.177500", "102340.637500", "102341.097500", "102341.557500", "102342.017500", "102342.477500", "102342.937500", "102343.397500", "102343.857500", "102344.317500", "102344.777500", "102345.237500", "102345.697500", "102346.157500", "102346.617500", "102347.077500", "102347.537500", "102347.997500", "102348.457500", "102348.917500", "102349.377500", "102349.837500", "102350.297500", "102350.757500", "102351.217500", "102351.677500", "102352.137500", "102352.597500", "102353.057500", "102353.517500", "102353.977500", "102354.437500", "102354.897500", "102355.357500", "102355.817500", "102356.277500", "102356.737500", "102357.197500", "102357.657500", "102358.117500", "102358.577500", "102359.037500", "102359.497500", "102359.957500", "102400.417500", "102400.877500", "102401.337500", "102401.797500", "102402.257500", "102402.717500", "102403.177500", "102403.637500", "102404.097500", "102404.557500", "102405.017500", "102405.477500", "102405.937500", "102406.397500", "102406.857500", "102407.317500", "102407.777500", "102408.237500", "102408.697500", "102409.157500", "102409.617500", "102410.077500", "102410.537500", "102410.997500", "102411.457500", "102411.917500", "102412.377500", "102412.837500", "102413.297500", "102413.757500", "102414.217500", "102414.677500", "102415.137500", "102415.597500", "102416.057500", "102416.517500", "102416.977500", "102417.437500", "102417.897500", "102418.357500", "102418.817500", "102419.277500", "102419.737500", "102420.197500", "102420.657500", "102421.117500", "102421.577500", "102422.037500", "102422.497500", "102422.957500", "102423.417500", "102423.877500", "102424.337500", "102424.797500", "102425.257500", "102425.717500", "102426.177500", "102426.637500", "102427.097500", "102427.557500", "102428.017500", "102428.477500", "102428.937500", "102429.397500", "102429.857500", "102430.317500", "102430.777500", "102431.237500", "102431.697500", "102432.157500", "102432.617500", "102433.077500", "102433.537500", "102433.997500", "102434.457500", "102434.917500", "102435.377500", "102435.837500", "102436.297500", "102436.757500", "102437.217500", "102437.677500", "102438.137500", "102438.597500", "102439.057500", "102439.517500", "102439.977500", "102440.437500", "102440.897500", "102441.357500", "102441.817500", "102442.277500", "102442.737500", "102443.197500", "102443.657500", "102444.117500", "102444.577500", "102445.037500", "102445.497500", "102445.957500", "102446.417500", "102446.877500", "102447.337500", "102447.797500", "102448.257500", "102448.717500", "102449.177500", "102449.637500", "102450.097500", "102450.557500", "102451.017500", "102451.477500", "102451.937500", "102452.397500", "102452.857500", "102453.317500", "102453.777500", "102454.237500", "102454.697500", "102455.157500", "102455.617500", "102456.077500", "102456.537500", "102456.997500", "102457.457500", "102457.917500", "102458.377500", "102458.837500", "102459.297500", "102459.757500", "102500.217500", "102500.677500", "102501.137500", "102501.597500", "102502.057500", "102502.517500", "102502.977500", "102503.437500", "102503.897500", "102504.357500", "102504.817500", "102505.277500", "102505.737500", "102506.197500", "102506.657500", "102507.117500", "102507.577500", "102508.037500", "102508.497500", "102508.957500", "102509.417500", "102509.877500", "102510.337500", "102510.797500", "102511.257500", "102511.717500", "102512.177500", "102512.637500", "102513.097500", "102513.557500", "102514.017500", "102514.477500", "102514.937500", "102515.397500", "102515.857500", "102516.317500", "102516.777500", "102517.237500", "102517.697500", "102518.157500", "102518.617500", "102519.077500", "102519.537500", "102519.997500", "102520.457500", "102520.917500", "102521.377500", "102521.837500", "102522.297500", "102522.757500", "102523.217500", "102523.677500", "102524.137500", "102524.597500", "102525.057500", "102525.517500", "102525.977500", "102526.437500", "102526.897500", "102527.357500", "102527.817500", "102528.277500", "102528.737500", "102529.197500", "102529.657500", "102530.117500", "102530.577500", "102531.037500", "102531.497500", "102531.957500", "102532.417500", "102532.877500", "102533.337500", "102533.797500", "102534.257500", "102534.717500", "102535.177500", "102535.637500", "102536.097500", "102536.557500", "102537.017500", "102537.477500", "102537.937500", "102538.397500", "102538.857500", "102539.317500", "102539.777500", "102540.237500", "102540.697500", "102541.157500", "102541.617500", "102542.077500", "102542.537500", "102542.997500", "102543.457500", "102543.917500", "102544.377500", "102544.837500", "102545.297500", "102545.757500", "102546.217500", "102546.677500", "102547.137500", "102547.597500", "102548.057500", "102548.517500", "102548.977500", "102549.437500", "102549.897500", "102550.357500", "102550.817500", "102551.277500", "102551.737500", "102552.197500", "102552.657500", "102553.117500", "102553.577500", "102554.037500", "102554.497500", "102554.957500", "102555.417500", "102555.877500", "102556.337500", "102556.797500", "102557.257500", "102557.717500", "102558.177500", "102558.637500", "102559.097500", "102559.557500", "102600.017500", "102600.477500"],
