{
  "AcquisitionMatrixPE": 82,
  "AcquisitionNumber": 1,
  "AcquisitionTime": "09:24:26.260000",
  "BandwidthPerPixelPhaseEncode": 24.888,
  "BaseResolution": 82,
  "BodyPartExamined": "BRAIN",
  "ConsistencyInfo": "N4_VE11E_LATEST_20181129",
  "ConversionSoftware": "dcm2niix",
  "ConversionSoftwareVersion": "v1.0.20201102",
  "DerivedVendorReportedEchoSpacing": 0.00049,
  "DeviceSerialNumber": "66112",
  "DwellTime": 2e-06,
  "EchoTime": 0.0272,
  "EchoTrainLength": 82,
  "EffectiveEchoSpacing": 0.00049,
  "FlipAngle": 44,
  "ImageComments": "Unaliased MB8/PE3",
  "ImageOrientationPatientDICOM": [0.998523, -0.0468866, 0.0274424, 0.0411523, 0.982554, 0.181368],
  "ImageType": [
    "ORIGINAL",
    "PRIMARY",
    "M",
    "MB",
    "ND",
    "NORM",
    "MOSAIC"
],
  "ImagingFrequency": 123.252,
  "InPlanePhaseEncodingDirectionDICOM": "COL",
  "InstitutionAddress": "Maynard 3,Hanover,NH,US,03755",
  "InstitutionName": "Dartmouth College - PBS",
  "InstitutionalDepartmentName": "Department",
  "MRAcquisitionType": "2D",
  "MagneticFieldStrength": 3,
  "Manufacturer": "Siemens",
  "ManufacturersModelName": "Prisma",
  "Modality": "MR",
  "MultibandAccelerationFactor": 8,
  "PartialFourier": 1,
  "PatientPosition": "HFS",
  "PercentPhaseFOV": 100,
  "PercentSampling": 100,
  "PhaseEncodingDirection": "j-",
  "PhaseEncodingSteps": 82,
  "PhaseResolution": 1,
  "PixelBandwidth": 3050,
  "ProcedureStepDescription": "Wager_Wager^1076_spacetop",
  "ProtocolName": "func_run-03_task-social_acq-ap-mb8",
  "PulseSequenceDetails": "%CustomerSeq%\\cmrr_mbep2d_bold",
  "ReceiveCoilActiveElements": "HEA;HEP",
  "ReceiveCoilName": "Head_32",
  "ReconMatrixPE": 82,
  "RepetitionTime": 0.46,
  "SAR": 0.0813004,
  "ScanOptions": "FS",
  "ScanningSequence": "EP",
  "SequenceName": "epfid2d1_82",
  "SequenceVariant": "SK\\SS",
  "SeriesDescription": "func_run-03_task-social_acq-ap-mb8",
  "SeriesNumber": 16,
  "ShimSetting": [4150, -7817, -7194, 538, -40, -232, -26, 81],
  "SliceThickness": 2.7,
  "SliceTiming": [0, 0.2525, 0.065, 0.315, 0.1275, 0.3775, 0.19, 0, 0.2525, 0.065, 0.315, 0.1275, 0.3775, 0.19, 0, 0.2525, 0.065, 0.315, 0.1275, 0.3775, 0.19, 0, 0.2525, 0.065, 0.315, 0.1275, 0.3775, 0.19, 0, 0.2525, 0.065, 0.315, 0.1275, 0.3775, 0.19, 0, 0.2525, 0.065, 0.315, 0.1275, 0.3775, 0.19, 0, 0.2525, 0.065, 0.315, 0.1275, 0.3775, 0.19, 0, 0.2525, 0.065, 0.315, 0.1275, 0.3775, 0.19],
  "SoftwareVersions": "syngo MR E11",
  "SpacingBetweenSlices": 2.7,
  "StationName": "AWP66112",
  "TaskName": "social",
  "TotalReadoutTime": 0.03969,
  "TxRefAmp": 251.173,
  "WipMemBlock": "aab49a19-ea59-4700-9b2b-4511bdfaa2bb||Sequence: R016 ve11e/master r/434b28f1; Aug  7 2019 18:53:46 by eja",
  "dcmmeta_affine": [
    [-2.678964614868164, 0.11040852218866348, 0.09576195478439331, 107.46157836914062],
    [0.1257934421300888, 2.636120557785034, 0.48592016100883484, -89.93579864501953],
    [0.07362604886293411, -0.4865959882736206, 2.6541874408721924, -55.258121490478516],
    [0.0, 0.0, 0.0, 1.0]
],
  "dcmmeta_reorient_transform": [
    [0.0, -1.0, 0.0, 81.0],
    [1.0, 0.0, 0.0, 0.0],
    [0.0, 0.0, 1.0, 0.0],
    [0.0, 0.0, 0.0, 1.0]
],
  "dcmmeta_shape": [82, 82, 56, 872],
  "dcmmeta_slice_dim": 2,
  "dcmmeta_version": 0.6,
  "global": {
    "const": {
      "AccessionNumber": "A004105",
      "AcquisitionMatrix": [82, 0, 0, 82],
      "AngioFlag": "N",
      "BitsAllocated": 16,
      "BitsStored": 16,
      "BodyPartExamined": "BRAIN",
      "Columns": 656,
      "EchoNumbers": 1,
      "EchoTime": 27.2,
      "EchoTrainLength": 82,
      "FlipAngle": 44.0,
      "HighBit": 15,
      "ImageOrientationPatient": [0.99852318700625, -0.0468866481989, 0.02744243486912, 0.04115226767115, 0.98255396089924, 0.18136759574615],
      "ImagePositionPatient": [-916.95478595639, -844.05380639731, -255.45612416913],
      "ImageType": [
        "ORIGINAL",
        "PRIMARY",
        "M",
        "MB",
        "ND",
        "NORM",
        "MOSAIC"
],
      "ImagedNucleus": "1H",
      "ImagingFrequency": 123.252167,
      "InPlanePhaseEncodingDirection": "COL",
      "MRAcquisitionType": "2D",
      "MagneticFieldStrength": 3.0,
      "Manufacturer": "SIEMENS",
      "ManufacturerModelName": "Prisma",
      "Modality": "MR",
      "NumberOfAverages": 1.0,
      "NumberOfPhaseEncodingSteps": 82,
      "PercentPhaseFieldOfView": 100.0,
      "PercentSampling": 100.0,
      "PerformedProcedureStepStartTime": "083141.826000",
      "PhotometricInterpretation": "MONOCHROME2",
      "PixelBandwidth": 3050.0,
      "PixelRepresentation": 0,
      "PixelSpacing": [2.6829268932343, 2.6829268932343],
      "ProtocolName": "func_run-03_task-social_acq-ap-mb8",
      "RepetitionTime": 460.0,
      "Rows": 656,
      "SAR": 0.08130042400072,
      "SamplesPerPixel": 1,
      "ScanOptions": "FS",
      "ScanningSequence": "EP",
      "SequenceName": "epfid2d1_82",
      "SequenceVariant": [
        "SK",
        "SS"
],
      "SeriesDescription": "func_run-03_task-social_acq-ap-mb8",
      "SeriesNumber": 16,
      "SeriesTime": "092445.623000",
      "SliceLocation": -66.694925772807,
      "SliceThickness": 2.7000000476837,
      "SmallestImagePixelValue": 0,
      "SoftwareVersions": "syngo MR E11",
      "SpacingBetweenSlices": 2.6999999422994,
      "SpecificCharacterSet": "ISO_IR 100",
      "StudyID": "1",
      "StudyTime": "083141.663000",
      "TransmitCoilName": "Body",
      "VariableFlipAngleFlag": "N",
      "WindowCenterWidthExplanation": "Algo1"
    },
    "slices": {}
  },
  "time": {
    "samples": {
      "AcquisitionNumber": [1, 2, 3, 4, 5, 6, 7, 8, 9, 10, 11, 12, 13, 14, 15, 16, 17, 18, 19, 20, 21, 22, 23, 24, 25, 26, 27, 28, 29, 30, 31, 32, 33, 34, 35, 36, 37, 38, 39, 40, 41, 42, 43, 44, 45, 46, 47, 48, 49, 50, 51, 52, 53, 54, 55, 56, 57, 58, 59, 60, 61, 62, 63, 64, 65, 66, 67, 68, 69, 70, 71, 72, 73, 74, 75, 76, 77, 78, 79, 80, 81, 82, 83, 84, 85, 86, 87, 88, 89, 90, 91, 92, 93, 94, 95, 96, 97, 98, 99, 100, 101, 102, 103, 104, 105, 106, 107, 108, 109, 110, 111, 112, 113, 114, 115, 116, 117, 118, 119, 120, 121, 122, 123, 124, 125, 126, 127, 128, 129, 130, 131, 132, 133, 134, 135, 136, 137, 138, 139, 140, 141, 142, 143, 144, 145, 146, 147, 148, 149, 150, 151, 152, 153, 154, 155, 156, 157, 158, 159, 160, 161, 162, 163, 164, 165, 166, 167, 168, 169, 170, 171, 172, 173, 174, 175, 176, 177, 178, 179, 180, 181, 182, 183, 184, 185, 186, 187, 188, 189, 190, 191, 192, 193, 194, 195, 196, 197, 198, 199, 200, 201, 202, 203, 204, 205, 206, 207, 208, 209, 210, 211, 212, 213, 214, 215, 216, 217, 218, 219, 220, 221, 222, 223, 224, 225, 226, 227, 228, 229, 230, 231, 232, 233, 234, 235, 236, 237, 238, 239, 240, 241, 242, 243, 244, 245, 246, 247, 248, 249, 250, 251, 252, 253, 254, 255, 256, 257, 258, 259, 260, 261, 262, 263, 264, 265, 266, 267, 268, 269, 270, 271, 272, 273, 274, 275, 276, 277, 278, 279, 280, 281, 282, 283, 284, 285, 286, 287, 288, 289, 290, 291, 292, 293, 294, 295, 296, 297, 298, 299, 300, 301, 302, 303, 304, 305, 306, 307, 308, 309, 310, 311, 312, 313, 314, 315, 316, 317, 318, 319, 320, 321, 322, 323, 324, 325, 326, 327, 328, 329, 330, 331, 332, 333, 334, 335, 336, 337, 338, 339, 340, 341, 342, 343, 344, 345, 346, 347, 348, 349, 350, 351, 352, 353, 354, 355, 356, 357, 358, 359, 360, 361, 362, 363, 364, 365, 366, 367, 368, 369, 370, 371, 372, 373, 374, 375, 376, 377, 378, 379, 380, 381, 382, 383, 384, 385, 386, 387, 388, 389, 390, 391, 392, 393, 394, 395, 396, 397, 398, 399, 400, 401, 402, 403, 404, 405, 406, 407, 408, 409, 410, 411, 412, 413, 414, 415, 416, 417, 418, 419, 420, 421, 422, 423, 424, 425, 426, 427, 428, 429, 430, 431, 432, 433, 434, 435, 436, 437, 438, 439, 440, 441, 442, 443, 444, 445, 446, 447, 448, 449, 450, 451, 452, 453, 454, 455, 456, 457, 458, 459, 460, 461, 462, 463, 464, 465, 466, 467, 468, 469, 470, 471, 472, 473, 474, 475, 476, 477, 478, 479, 480, 481, 482, 483, 484, 485, 486, 487, 488, 489, 490, 491, 492, 493, 494, 495, 496, 497, 498, 499, 500, 501, 502, 503, 504, 505, 506, 507, 508, 509, 510, 511, 512, 513, 514, 515, 516, 517, 518, 519, 520, 521, 522, 523, 524, 525, 526, 527, 528, 529, 530, 531, 532, 533, 534, 535, 536, 537, 538, 539, 540, 541, 542, 543, 544, 545, 546, 547, 548, 549, 550, 551, 552, 553, 554, 555, 556, 557, 558, 559, 560, 561, 562, 563, 564, 565, 566, 567, 568, 569, 570, 571, 572, 573, 574, 575, 576, 577, 578, 579, 580, 581, 582, 583, 584, 585, 586, 587, 588, 589, 590, 591, 592, 593, 594, 595, 596, 597, 598, 599, 600, 601, 602, 603, 604, 605, 606, 607, 608, 609, 610, 611, 612, 613, 614, 615, 616, 617, 618, 619, 620, 621, 622, 623, 624, 625, 626, 627, 628, 629, 630, 631, 632, 633, 634, 635, 636, 637, 638, 639, 640, 641, 642, 643, 644, 645, 646, 647, 648, 649, 650, 651, 652, 653, 654, 655, 656, 657, 658, 659, 660, 661, 662, 663, 664, 665, 666, 667, 668, 669, 670, 671, 672, 673, 674, 675, 676, 677, 678, 679, 680, 681, 682, 683, 684, 685, 686, 687, 688, 689, 690, 691, 692, 693, 694, 695, 696, 697, 698, 699, 700, 701, 702, 703, 704, 705, 706, 707, 708, 709, 710, 711, 712, 713, 714, 715, 716, 717, 718, 719, 720, 721, 722, 723, 724, 725, 726, 727, 728, 729, 730, 731, 732, 733, 734, 735, 736, 737, 738, 739, 740, 741, 742, 743, 744, 745, 746, 747, 748, 749, 750, 751, 752, 753, 754, 755, 756, 757, 758, 759, 760, 761, 762, 763, 764, 765, 766, 767, 768, 769, 770, 771, 772, 773, 774, 775, 776, 777, 778, 779, 780, 781, 782, 783, 784, 785, 786, 787, 788, 789, 790, 791, 792, 793, 794, 795, 796, 797, 798, 799, 800, 801, 802, 803, 804, 805, 806, 807, 808, 809, 810, 811, 812, 813, 814, 815, 816, 817, 818, 819, 820, 821, 822, 823, 824, 825, 826, 827, 828, 829, 830, 831, 832, 833, 834, 835, 836, 837, 838, 839, 840, 841, 842, 843, 844, 845, 846, 847, 848, 849, 850, 851, 852, 853, 854, 855, 856, 857, 858, 859, 860, 861, 862, 863, 864, 865, 866, 867, 868, 869, 870, 871, 872],
      "AcquisitionTime": ["092426.260000", "092426.720000", "092427.180000", "092427.640000", "092428.100000", "092428.560000", "092429.020000", "092429.480000", "092429.940000", "092430.400000", "092430.860000", "092431.320000", "092431.780000", "092432.240000", "092432.700000", "092433.160000", "092433.620000", "092434.080000", "092434.540000", "092435.000000", "092435.460000", "092435.920000", "092436.380000", "092436.840000", "092437.300000", "092437.760000", "092438.220000", "092438.680000", "092439.140000", "092439.600000", "092440.060000", "092440.520000", "092440.980000", "092441.440000", "092441.900000", "092442.360000", "092442.820000", "092443.280000", "092443.740000", "092444.200000", "092444.660000", "092445.120000", "092445.580000", "092446.040000", "092446.500000", "092446.960000", "092447.420000", "092447.880000", "092448.340000", "092448.800000", "092449.260000", "092449.720000", "092450.180000", "092450.640000", "092451.100000", "092451.560000", "092452.020000", "092452.480000", "092452.940000", "092453.400000", "092453.860000", "092454.320000", "092454.780000", "092455.240000", "092455.700000", "092456.160000", "092456.620000", "092457.080000", "092457.540000", "092458.000000", "092458.460000", "092458.920000", "092459.380000", "092459.840000", "092500.300000", "092500.760000", "092501.220000", "092501.680000", "092502.140000", "092502.600000", "092503.060000", "092503.520000", "092503.980000", "092504.440000", "092504.900000", "092505.360000", "092505.820000", "092506.280000", "092506.740000", "092507.200000", "092507.660000", "092508.120000", "092508.580000", "092509.040000", "092509.500000", "092509.960000", "092510.420000", "092510.880000", "092511.340000", "092511.800000", "092512.260000", "092512.720000", "092513.180000", "092513.640000", "092514.100000", "092514.560000", "092515.020000", "092515.480000", "092515.940000", "092516.400000", "092516.860000", "092517.320000", "092517.780000", "092518.240000", "092518.700000", "092519.160000", "092519.620000", "092520.080000", "092520.540000", "092521.000000", "092521.460000", "092521.920000", "092522.380000", "092522.840000", "092523.300000", "092523.760000", "092524.220000", "092524.680000", "092525.140000", "092525.600000", "092526.060000", "092526.520000", "092526.980000", "092527.440000", "092527.900000", "092528.360000", "092528.820000", "092529.280000", "092529.740000", "092530.200000", "092530.660000", "092531.120000", "092531.580000", "092532.040000", "092532.500000", "092532.960000", "092533.420000", "092533.880000", "092534.340000", "092534.800000", "092535.260000", "092535.720000", "092536.180000", "092536.640000", "092537.100000", "092537.560000", "092538.020000", "092538.480000", "092538.940000", "092539.400000", "092539.860000", "092540.320000", "092540.780000", "092541.240000", "092541.700000", "092542.160000", "092542.620000", "092543.080000", "092543.540000", "092544.000000", "092544.460000", "092544.920000", "092545.380000", "092545.840000", "092546.300000", "092546.760000", "092547.220000", "092547.680000", "092548.140000", "092548.600000", "092549.060000", "092549.520000", "092549.980000", "092550.440000", "092550.900000", "092551.360000", "092551.820000", "092552.280000", "092552.740000", "092553.200000", "092553.660000", "092554.120000", "092554.580000", "092555.040000", "092555.500000", "092555.960000", "092556.420000", "092556.880000", "092557.340000", "092557.800000", "092558.260000", "092558.720000", "092559.180000", "092559.640000", "092600.100000", "092600.560000", "092601.020000", "092601.480000", "092601.940000", "092602.400000", "092602.860000", "092603.320000", "092603.780000", "092604.240000", "092604.700000", "092605.160000", "092605.620000", "092606.080000", "092606.540000", "092607.000000", "092607.460000", "092607.920000", "092608.380000", "092608.840000", "092609.300000", "092609.760000", "092610.220000", "092610.680000", "092611.140000", "092611.600000", "092612.060000", "092612.520000", "092612.980000", "092613.440000", "092613.900000", "092614.360000", "092614.820000", "092615.280000", "092615.740000", "092616.200000", "092616.660000", "092617.120000", "092617.580000", "092618.040000", "092618.500000", "092618.960000", "092619.420000", "092619.880000", "092620.340000", "092620.800000", "092621.260000", "092621.720000", "092622.180000", "092622.640000", "092623.100000", "092623.560000", "092624.020000", "092624.480000", "092624.940000", "092625.400000", "092625.860000", "092626.320000", "092626.780000", "092627.240000", "092627.700000", "092628.160000", "092628.620000", "092629.080000", "092629.540000", "092630.000000", "092630.460000", "092630.920000", "092631.380000", "092631.840000", "092632.300000", "092632.760000", "092633.220000", "092633.680000", "092634.140000", "092634.600000", "092635.060000", "092635.520000", "092635.980000", "092636.440000", "092636.900000", "092637.360000", "092637.820000", "092638.280000", "092638.740000", "092639.200000", "092639.660000", "092640.120000", "092640.580000", "092641.040000", "092641.500000", "092641.960000", "092642.420000", "092642.880000", "092643.340000", "092643.800000", "092644.260000", "092644.720000", "092645.180000", "092645.640000", "092646.100000", "092646.560000", "092647.020000", "092647.480000", "092647.940000", "092648.400000", "092648.860000", "092649.320000", "092649.780000", "092650.240000", "092650.700000", "092651.160000", "092651.620000", "092652.080000", "092652.540000", "092653.000000", "092653.460000", "092653.920000", "092654.380000", "092654.840000", "092655.300000", "092655.760000", "092656.220000", "092656.680000", "092657.140000", "092657.600000", "092658.060000", "092658.520000", "092658.980000", "092659.440000", "092659.900000", "092700.360000", "092700.820000", "092701.280000", "092701.740000", "092702.200000", "092702.660000", "092703.120000", "092703.580000", "092704.040000", "092704.500000", "092704.960000", "092705.420000", "092705.880000", "092706.340000", "092706.800000", "092707.260000", "092707.720000", "092708.180000", "092708.640000", "092709.100000", "092709.560000", "092710.020000", "092710.480000", "092710.940000", "092711.400000", "092711.860000", "092712.320000", "092712.780000", "092713.240000", "092713.700000", "092714.160000", "092714.620000", "092715.080000", "092715.540000", "092716.000000", "092716.460000", "092716.920000", "092717.380000", "092717.840000", "092718.300000", "092718.760000", "092719.220000", "092719.680000", "092720.140000", "092720.600000", "092721.060000", "092721.520000", "092721.980000", "092722.440000", "092722.900000", "092723.360000", "092723.820000", "092724.280000", "092724.740000", "092725.200000", "092725.660000", "092726.120000", "092726.580000", "092727.040000", "092727.500000", "092727.960000", "092728.420000", "092728.880000", "092729.340000", "092729.800000", "092730.260000", "092730.720000", "092731.180000", "092731.640000", "092732.100000", "092732.560000", "092733.020000", "092733.480000", "092733.940000", "092734.400000", "092734.860000", "092735.320000", "092735.780000", "092736.240000", "092736.700000", "092737.160000", "092737.620000", "092738.080000", "092738.540000", "092739.000000", "092739.460000", "092739.920000", "092740.380000", "092740.840000", "092741.300000", "092741.760000", "092742.220000", "092742.680000", "092743.140000", "092743.600000", "092744.060000", "092744.520000", "092744.980000", "092745.440000", "092745.900000", "092746.360000", "092746.820000", "092747.280000", "092747.740000", "092748.200000", "092748.660000", "092749.120000", "092749.580000", "092750.040000", "092750.500000", "092750.960000", "092751.420000", "092751.880000", "092752.340000", "092752.800000", "092753.260000", "092753.720000", "092754.180000", "092754.640000", "092755.100000", "092755.560000", "092756.020000", "092756.480000", "092756.940000", "092757.400000", "092757.860000", "092758.320000", "092758.780000", "092759.240000", "092759.700000", "092800.160000", "092800.620000", "092801.080000", "092801.540000", "092802.000000", "092802.460000", "092802.920000", "092803.380000", "092803.840000", "092804.300000", "092804.760000", "092805.220000", "092805.680000", "092806.140000", "092806.600000", "092807.060000", "092807.520000", "092807.980000", "092808.440000", "092808.900000", "092809.360000", "092809.820000", "092810.280000", "092810.740000", "092811.200000", "092811.660000", "092812.120000", "092812.580000", "092813.040000", "092813.500000", "092813.960000", "092814.420000", "092814.880000", "092815.340000", "092815.800000", "092816.260000", "092816.720000", "092817.180000", "092817.640000", "092818.100000", "092818.560000", "092819.020000", "092819.480000", "092819.940000", "092820.400000", "092820.860000", "092821.320000", "092821.780000", "092822.240000", "092822.700000", "092823.160000", "092823.620000", "092824.080000", "092824.540000", "092825.000000", "092825.460000", "092825.920000", "092826.380000", "092826.840000", "092827.300000", "092827.760000", "092828.220000", "092828.680000", "092829.140000", "092829.600000", "092830.060000", "092830.520000", "092830.980000", "092831.440000", "092831.900000", "092832.360000", "092832.820000", "092833.280000", "092833.740000", "092834.200000", "092834.660000", "092835.120000", "092835.580000", "092836.040000", "092836.500000", "092836.960000", "092837.420000", "092837.880000", "092838.340000", "092838.800000", "092839.260000", "092839.720000", "092840.180000", "092840.640000", "092841.100000", "092841.560000", "092842.020000", "092842.480000", "092842.940000", "092843.400000", "092843.860000", "092844.320000", "092844.780000", "092845.240000", "092845.700000", "092846.160000", "092846.620000", "092847.080000", "092847.540000", "092848.000000", "092848.460000", "092848.920000", "092849.380000", "092849.840000", "092850.300000", "092850.760000", "092851.220000", "092851.680000", "092852.140000", "092852.600000", "092853.060000", "092853.520000", "092853.980000", "092854.440000", "092854.900000", "092855.360000", "092855.820000", "092856.280000", "092856.740000", "092857.200000", "092857.660000", "092858.120000", "092858.580000", "092859.040000", "092859.500000", "092859.960000", "092900.420000", "092900.880000", "092901.340000", "092901.800000", "092902.260000", "092902.720000", "092903.180000", "092903.640000", "092904.100000", "092904.560000", "092905.020000", "092905.480000", "092905.940000", "092906.400000", "092906.860000", "092907.320000", "092907.780000", "092908.240000", "092908.700000", "092909.160000", "092909.620000", "092910.080000", "092910.540000", "092911.000000", "092911.460000", "092911.920000", "092912.380000", "092912.840000", "092913.300000", "092913.760000", "092914.220000", "092914.680000", "092915.140000", "092915.600000", "092916.060000", "092916.520000", "092916.980000", "092917.440000", "092917.900000", "092918.360000", "092918.820000", "092919.280000", "092919.740000", "092920.200000", "092920.660000", "092921.120000", "092921.580000", "092922.040000", "092922.500000", "092922.960000", "092923.420000", "092923.880000", "092924.340000", "092924.800000", "092925.260000", "092925.720000", "092926.180000", "092926.640000", "092927.100000", "092927.560000", "092928.020000", "092928.480000", "092928.940000", "092929.400000", "092929.860000", "092930.320000", "092930.780000", "092931.240000", "092931.700000", "092932.160000", "092932.620000", "092933.080000", "092933.540000", "092934.000000", "092934.460000", "092934.920000", "092935.380000", "092935.840000", "092936.300000", "092936.760000", "092937.220000", "092937.680000", "092938.140000", "092938.600000", "092939.060000", "092939.520000", "092939.980000", "092940.440000", "092940.900000", "092941.360000", "092941.820000", "092942.280000", "092942.740000", "092943.200000", "092943.660000", "092944.120000", "092944.580000", "092945.040000", "092945.500000", "092945.960000", "092946.420000", "092946.880000", "092947.340000", "092947.800000", "092948.260000", "092948.720000", "092949.180000", "092949.640000", "092950.100000", "092950.560000", "092951.020000", "092951.480000", "092951.940000", "092952.400000", "092952.860000", "092953.320000", "092953.780000", "092954.240000", "092954.700000", "092955.160000", "092955.620000", "092956.080000", "092956.540000", "092957.000000", "092957.460000", "092957.920000", "092958.380000", "092958.840000", "092959.300000", "092959.760000", "093000.220000", "093000.680000", "093001.140000", "093001.600000", "093002.060000", "093002.520000", "093002.980000", "093003.440000", "093003.900000", "093004.360000", "093004.820000", "093005.280000", "093005.740000", "093006.200000", "093006.660000", "093007.120000", "093007.580000", "093008.040000", "093008.500000", "093008.960000", "093009.420000", "093009.880000", "093010.340000", "093010.800000", "093011.260000", "093011.720000", "093012.180000", "093012.640000", "093013.100000", "093013.560000", "093014.020000", "093014.480000", "093014.940000", "093015.400000", "093015.860000", "093016.320000", "093016.780000", "093017.240000", "093017.700000", "093018.160000", "093018.620000", "093019.080000", "093019.540000", "093020.000000", "093020.460000", "093020.920000", "093021.380000", "093021.840000", "093022.300000", "093022.760000", "093023.220000", "093023.680000", "093024.140000", "093024.600000", "093025.060000", "093025.520000", "093025.980000", "093026.440000", "093026.900000", "093027.360000", "093027.820000", "093028.280000", "093028.740000", "093029.200000", "093029.660000", "093030.120000", "093030.580000", "093031.040000", "093031.500000", "093031.960000", "093032.420000", "093032.880000", "093033.340000", "093033.800000", "093034.260000", "093034.720000", "093035.180000", "093035.640000", "093036.100000", "093036.560000", "093037.020000", "093037.480000", "093037.940000", "093038.400000", "093038.860000", "093039.320000", "093039.780000", "093040.240000", "093040.700000", "093041.160000", "093041.620000", "093042.080000", "093042.540000", "093043.000000", "093043.460000", "093043.920000", "093044.380000", "093044.840000", "093045.300000", "093045.760000", "093046.220000", "093046.680000", "093047.140000", "093047.600000", "093048.060000", "093048.520000", "093048.980000", "093049.440000", "093049.900000", "093050.360000", "093050.820000", "093051.280000", "093051.740000", "093052.200000", "093052.660000", "093053.120000", "093053.580000", "093054.040000", "093054.500000", "093054.960000", "093055.420000", "093055.880000", "093056.340000", "093056.800000", "093057.260000", "093057.720000", "093058.180000", "093058.640000", "093059.100000", "093059.560000", "093100.020000", "093100.480000", "093100.940000", "093101.400000", "093101.860000", "093102.320000", "093102.780000", "093103.240000", "093103.700000", "093104.160000", "093104.620000", "093105.080000", "093105.540000", "093106.000000", "093106.460000", "093106.920000"],
