{
  "AcquisitionMatrixPE": 82,
  "AcquisitionNumber": 1,
  "AcquisitionTime": "18:14:4.720000",
  "BandwidthPerPixelPhaseEncode": 24.888,
  "BaseResolution": 82,
  "BodyPartExamined": "BRAIN",
  "ConsistencyInfo": "N4_VE11C_LATEST_20160120",
  "ConversionSoftware": "dcm2niix",
  "ConversionSoftwareVersion": "v1.0.20201102",
  "DerivedVendorReportedEchoSpacing": 0.00049,
  "DeviceSerialNumber": "66112",
  "DwellTime": 2e-06,
  "EchoTime": 0.0272,
  "EchoTrainLength": 82,
  "EffectiveEchoSpacing": 0.00049,
  "FlipAngle": 44,
  "ImageComments": "Unaliased MB8/PE3",
  "ImageOrientationPatientDICOM": [0.999897, 0.000279742, 0.0143689, 0.000523586, 0.998438, -0.0558734],
  "ImageType": [
    "ORIGINAL",
    "PRIMARY",
    "M",
    "MB",
    "ND",
    "NORM",
    "MOSAIC"
],
  "ImagingFrequency": 123.252,
  "InPlanePhaseEncodingDirectionDICOM": "COL",
  "InstitutionAddress": "Maynard 3,Hanover,NH,US,03755",
  "InstitutionName": "Dartmouth College - PBS",
  "InstitutionalDepartmentName": "Department",
  "MRAcquisitionType": "2D",
  "MagneticFieldStrength": 3,
  "Manufacturer": "Siemens",
  "ManufacturersModelName": "Prisma",
  "Modality": "MR",
  "MultibandAccelerationFactor": 8,
  "PartialFourier": 1,
  "PatientPosition": "HFS",
  "PercentPhaseFOV": 100,
  "PercentSampling": 100,
  "PhaseEncodingDirection": "j-",
  "PhaseEncodingSteps": 82,
  "PhaseResolution": 1,
  "PixelBandwidth": 3050,
  "ProcedureStepDescription": "Wager_Wager^1076_spacetop",
  "ProtocolName": "func_run-02_task-faces_acq-ap-mb8",
  "PulseSequenceDetails": "%CustomerSeq%\\cmrr_mbep2d_bold",
  "ReceiveCoilActiveElements": "HEA;HEP",
  "ReceiveCoilName": "Head_32",
  "ReconMatrixPE": 82,
  "RepetitionTime": 0.46,
  "SAR": 0.0903663,
  "ScanOptions": "FS",
  "ScanningSequence": "EP",
  "SequenceName": "epfid2d1_82",
  "SequenceVariant": "SK\\SS",
  "SeriesDescription": "func_run-02_task-faces_acq-ap-mb8",
  "SeriesNumber": 18,
  "ShimSetting": [4154, -7736, -7273, 591, -29, -232, 43, 66],
  "SliceThickness": 2.7,
  "SliceTiming": [0, 0.2525, 0.0625, 0.315, 0.125, 0.3775, 0.1875, 0, 0.2525, 0.0625, 0.315, 0.125, 0.3775, 0.1875, 0, 0.2525, 0.0625, 0.315, 0.125, 0.3775, 0.1875, 0, 0.2525, 0.0625, 0.315, 0.125, 0.3775, 0.1875, 0, 0.2525, 0.0625, 0.315, 0.125, 0.3775, 0.1875, 0, 0.2525, 0.0625, 0.315, 0.125, 0.3775, 0.1875, 0, 0.2525, 0.0625, 0.315, 0.125, 0.3775, 0.1875, 0, 0.2525, 0.0625, 0.315, 0.125, 0.3775, 0.1875],
  "SoftwareVersions": "syngo MR E11",
  "SpacingBetweenSlices": 2.7,
  "StationName": "AWP66112",
  "TaskName": "faces",
  "TotalReadoutTime": 0.03969,
  "TxRefAmp": 258.65,
  "WipMemBlock": "97069ee4-bfae-441b-9ff3-747f21e513fa||Sequence: R016 ve11c/master r/e634e98; Dec 19 2017 11:00:25 by eja",
  "dcmmeta_affine": [
    [-2.682649850845337, 0.0014047439908608794, 0.038777537643909454, 110.65967559814453],
    [-0.000750527367927134, 2.6787354946136475, -0.15086287260055542, -90.82417297363281],
    [0.03855062276124954, 0.14990420639514923, 2.695502996444702, -88.58627319335938],
    [0.0, 0.0, 0.0, 1.0]
],
  "dcmmeta_reorient_transform": [
    [0.0, -1.0, 0.0, 81.0],
    [1.0, 0.0, 0.0, 0.0],
    [0.0, 0.0, 1.0, 0.0],
    [0.0, 0.0, 0.0, 1.0]
],
  "dcmmeta_shape": [82, 82, 56, 914],
  "dcmmeta_slice_dim": 2,
  "dcmmeta_version": 0.6,
  "global": {
    "const": {
      "AccessionNumber": "A003819",
      "AcquisitionMatrix": [82, 0, 0, 82],
      "AngioFlag": "N",
      "BitsAllocated": 16,
      "BitsStored": 16,
      "BodyPartExamined": "BRAIN",
      "Columns": 656,
      "EchoNumbers": 1,
      "EchoTime": 27.2,
      "EchoTrainLength": 82,
      "FlipAngle": 44.0,
      "HighBit": 15,
      "ImageOrientationPatient": [0.99989672335396, 0.00027974201999, 0.01436886809805, 0.00052358638167, 0.99843772502399, -0.0558733845961],
      "ImagePositionPatient": [-881.0971193375, -895.1658656007, -44.485553724712],
      "ImageType": [
        "ORIGINAL",
        "PRIMARY",
        "M",
        "MB",
        "ND",
        "NORM",
        "MOSAIC"
],
      "ImagedNucleus": "1H",
      "ImagingFrequency": 123.252212,
      "InPlanePhaseEncodingDirection": "COL",
      "MRAcquisitionType": "2D",
      "MagneticFieldStrength": 3.0,
      "Manufacturer": "SIEMENS",
      "ManufacturerModelName": "Prisma",
      "Modality": "MR",
      "NumberOfAverages": 1.0,
      "NumberOfPhaseEncodingSteps": 82,
      "PercentPhaseFieldOfView": 100.0,
      "PercentSampling": 100.0,
      "PerformedProcedureStepStartTime": "172421.833000",
      "PhotometricInterpretation": "MONOCHROME2",
      "PixelBandwidth": 3050.0,
      "PixelRepresentation": 0,
      "PixelSpacing": [2.6829268932343, 2.6829268932343],
      "ProtocolName": "func_run-02_task-faces_acq-ap-mb8",
      "RepetitionTime": 460.0,
      "Rows": 656,
      "SAR": 0.09036626599089,
      "SamplesPerPixel": 1,
      "ScanOptions": "FS",
      "ScanningSequence": "EP",
      "SequenceName": "epfid2d1_82",
      "SequenceVariant": [
        "SK",
        "SS"
],
      "SeriesDescription": "func_run-02_task-faces_acq-ap-mb8",
      "SeriesNumber": 18,
      "SeriesTime": "181418.305000",
      "SliceLocation": -81.774616269231,
      "SliceThickness": 2.7000000476837,
      "SmallestImagePixelValue": 0,
      "SoftwareVersions": "syngo MR E11",
      "SpacingBetweenSlices": 2.7000000456335,
      "SpecificCharacterSet": "ISO_IR 100",
      "StudyID": "2",
      "StudyTime": "172421.733000",
      "TransmitCoilName": "Body",
      "VariableFlipAngleFlag": "N",
      "WindowCenterWidthExplanation": "Algo1",
      "dBdt": 0.0},
    "slices": {}
  },
  "time": {
    "samples": {
      "AcquisitionNumber": [1, 2, 3, 4, 5, 6, 7, 8, 9, 10, 11, 12, 13, 14, 15, 16, 17, 18, 19, 20, 21, 22, 23, 24, 25, 26, 27, 28, 29, 30, 31, 32, 33, 34, 35, 36, 37, 38, 39, 40, 41, 42, 43, 44, 45, 46, 47, 48, 49, 50, 51, 52, 53, 54, 55, 56, 57, 58, 59, 60, 61, 62, 63, 64, 65, 66, 67, 68, 69, 70, 71, 72, 73, 74, 75, 76, 77, 78, 79, 80, 81, 82, 83, 84, 85, 86, 87, 88, 89, 90, 91, 92, 93, 94, 95, 96, 97, 98, 99, 100, 101, 102, 103, 104, 105, 106, 107, 108, 109, 110, 111, 112, 113, 114, 115, 116, 117, 118, 119, 120, 121, 122, 123, 124, 125, 126, 127, 128, 129, 130, 131, 132, 133, 134, 135, 136, 137, 138, 139, 140, 141, 142, 143, 144, 145, 146, 147, 148, 149, 150, 151, 152, 153, 154, 155, 156, 157, 158, 159, 160, 161, 162, 163, 164, 165, 166, 167, 168, 169, 170, 171, 172, 173, 174, 175, 176, 177, 178, 179, 180, 181, 182, 183, 184, 185, 186, 187, 188, 189, 190, 191, 192, 193, 194, 195, 196, 197, 198, 199, 200, 201, 202, 203, 204, 205, 206, 207, 208, 209, 210, 211, 212, 213, 214, 215, 216, 217, 218, 219, 220, 221, 222, 223, 224, 225, 226, 227, 228, 229, 230, 231, 232, 233, 234, 235, 236, 237, 238, 239, 240, 241, 242, 243, 244, 245, 246, 247, 248, 249, 250, 251, 252, 253, 254, 255, 256, 257, 258, 259, 260, 261, 262, 263, 264, 265, 266, 267, 268, 269, 270, 271, 272, 273, 274, 275, 276, 277, 278, 279, 280, 281, 282, 283, 284, 285, 286, 287, 288, 289, 290, 291, 292, 293, 294, 295, 296, 297, 298, 299, 300, 301, 302, 303, 304, 305, 306, 307, 308, 309, 310, 311, 312, 313, 314, 315, 316, 317, 318, 319, 320, 321, 322, 323, 324, 325, 326, 327, 328, 329, 330, 331, 332, 333, 334, 335, 336, 337, 338, 339, 340, 341, 342, 343, 344, 345, 346, 347, 348, 349, 350, 351, 352, 353, 354, 355, 356, 357, 358, 359, 360, 361, 362, 363, 364, 365, 366, 367, 368, 369, 370, 371, 372, 373, 374, 375, 376, 377, 378, 379, 380, 381, 382, 383, 384, 385, 386, 387, 388, 389, 390, 391, 392, 393, 394, 395, 396, 397, 398, 399, 400, 401, 402, 403, 404, 405, 406, 407, 408, 409, 410, 411, 412, 413, 414, 415, 416, 417, 418, 419, 420, 421, 422, 423, 424, 425, 426, 427, 428, 429, 430, 431, 432, 433, 434, 435, 436, 437, 438, 439, 440, 441, 442, 443, 444, 445, 446, 447, 448, 449, 450, 451, 452, 453, 454, 455, 456, 457, 458, 459, 460, 461, 462, 463, 464, 465, 466, 467, 468, 469, 470, 471, 472, 473, 474, 475, 476, 477, 478, 479, 480, 481, 482, 483, 484, 485, 486, 487, 488, 489, 490, 491, 492, 493, 494, 495, 496, 497, 498, 499, 500, 501, 502, 503, 504, 505, 506, 507, 508, 509, 510, 511, 512, 513, 514, 515, 516, 517, 518, 519, 520, 521, 522, 523, 524, 525, 526, 527, 528, 529, 530, 531, 532, 533, 534, 535, 536, 537, 538, 539, 540, 541, 542, 543, 544, 545, 546, 547, 548, 549, 550, 551, 552, 553, 554, 555, 556, 557, 558, 559, 560, 561, 562, 563, 564, 565, 566, 567, 568, 569, 570, 571, 572, 573, 574, 575, 576, 577, 578, 579, 580, 581, 582, 583, 584, 585, 586, 587, 588, 589, 590, 591, 592, 593, 594, 595, 596, 597, 598, 599, 600, 601, 602, 603, 604, 605, 606, 607, 608, 609, 610, 611, 612, 613, 614, 615, 616, 617, 618, 619, 620, 621, 622, 623, 624, 625, 626, 627, 628, 629, 630, 631, 632, 633, 634, 635, 636, 637, 638, 639, 640, 641, 642, 643, 644, 645, 646, 647, 648, 649, 650, 651, 652, 653, 654, 655, 656, 657, 658, 659, 660, 661, 662, 663, 664, 665, 666, 667, 668, 669, 670, 671, 672, 673, 674, 675, 676, 677, 678, 679, 680, 681, 682, 683, 684, 685, 686, 687, 688, 689, 690, 691, 692, 693, 694, 695, 696, 697, 698, 699, 700, 701, 702, 703, 704, 705, 706, 707, 708, 709, 710, 711, 712, 713, 714, 715, 716, 717, 718, 719, 720, 721, 722, 723, 724, 725, 726, 727, 728, 729, 730, 731, 732, 733, 734, 735, 736, 737, 738, 739, 740, 741, 742, 743, 744, 745, 746, 747, 748, 749, 750, 751, 752, 753, 754, 755, 756, 757, 758, 759, 760, 761, 762, 763, 764, 765, 766, 767, 768, 769, 770, 771, 772, 773, 774, 775, 776, 777, 778, 779, 780, 781, 782, 783, 784, 785, 786, 787, 788, 789, 790, 791, 792, 793, 794, 795, 796, 797, 798, 799, 800, 801, 802, 803, 804, 805, 806, 807, 808, 809, 810, 811, 812, 813, 814, 815, 816, 817, 818, 819, 820, 821, 822, 823, 824, 825, 826, 827, 828, 829, 830, 831, 832, 833, 834, 835, 836, 837, 838, 839, 840, 841, 842, 843, 844, 845, 846, 847, 848, 849, 850, 851, 852, 853, 854, 855, 856, 857, 858, 859, 860, 861, 862, 863, 864, 865, 866, 867, 868, 869, 870, 871, 872, 873, 874, 875, 876, 877, 878, 879, 880, 881, 882, 883, 884, 885, 886, 887, 888, 889, 890, 891, 892, 893, 894, 895, 896, 897, 898, 899, 900, 901, 902, 903, 904, 905, 906, 907, 908, 909, 910, 911, 912, 913, 914],
      "AcquisitionTime": ["181404.720000", "181405.180000", "181405.640000", "181406.100000", "181406.560000", "181407.020000", "181407.480000", "181407.940000", "181408.400000", "181408.860000", "181409.320000", "181409.780000", "181410.240000", "181410.700000", "181411.160000", "181411.620000", "181412.080000", "181412.540000", "181413.000000", "181413.460000", "181413.920000", "181414.380000", "181414.840000", "181415.300000", "181415.760000", "181416.220000", "181416.680000", "181417.140000", "181417.600000", "181418.060000", "181418.520000", "181418.980000", "181419.440000", "181419.900000", "181420.360000", "181420.820000", "181421.280000", "181421.740000", "181422.200000", "181422.660000", "181423.120000", "181423.580000", "181424.040000", "181424.500000", "181424.960000", "181425.420000", "181425.880000", "181426.340000", "181426.800000", "181427.260000", "181427.720000", "181428.180000", "181428.640000", "181429.100000", "181429.560000", "181430.020000", "181430.480000", "181430.940000", "181431.400000", "181431.860000", "181432.320000", "181432.780000", "181433.240000", "181433.700000", "181434.160000", "181434.620000", "181435.080000", "181435.540000", "181436.000000", "181436.460000", "181436.920000", "181437.380000", "181437.840000", "181438.300000", "181438.760000", "181439.220000", "181439.680000", "181440.140000", "181440.600000", "181441.060000", "181441.520000", "181441.980000", "181442.440000", "181442.900000", "181443.360000", "181443.820000", "181444.280000", "181444.740000", "181445.200000", "181445.660000", "181446.120000", "181446.580000", "181447.040000", "181447.500000", "181447.960000", "181448.420000", "181448.880000", "181449.340000", "181449.800000", "181450.260000", "181450.720000", "181451.180000", "181451.640000", "181452.100000", "181452.560000", "181453.020000", "181453.480000", "181453.940000", "181454.400000", "181454.860000", "181455.320000", "181455.780000", "181456.240000", "181456.700000", "181457.160000", "181457.620000", "181458.080000", "181458.540000", "181459.000000", "181459.460000", "181459.920000", "181500.380000", "181500.840000", "181501.300000", "181501.760000", "181502.220000", "181502.680000", "181503.140000", "181503.600000", "181504.060000", "181504.520000", "181504.980000", "181505.440000", "181505.900000", "181506.360000", "181506.820000", "181507.280000", "181507.740000", "181508.200000", "181508.660000", "181509.120000", "181509.580000", "181510.040000", "181510.500000", "181510.960000", "181511.420000", "181511.880000", "181512.340000", "181512.800000", "181513.260000", "181513.720000", "181514.180000", "181514.640000", "181515.100000", "181515.560000", "181516.020000", "181516.480000", "181516.940000", "181517.400000", "181517.860000", "181518.320000", "181518.780000", "181519.240000", "181519.700000", "181520.160000", "181520.620000", "181521.080000", "181521.540000", "181522.000000", "181522.460000", "181522.920000", "181523.380000", "181523.840000", "181524.300000", "181524.760000", "181525.220000", "181525.680000", "181526.140000", "181526.600000", "181527.060000", "181527.520000", "181527.980000", "181528.440000", "181528.900000", "181529.360000", "181529.820000", "181530.280000", "181530.740000", "181531.200000", "181531.660000", "181532.120000", "181532.580000", "181533.040000", "181533.500000", "181533.960000", "181534.420000", "181534.880000", "181535.340000", "181535.800000", "181536.260000", "181536.720000", "181537.180000", "181537.640000", "181538.100000", "181538.560000", "181539.020000", "181539.480000", "181539.940000", "181540.400000", "181540.860000", "181541.320000", "181541.780000", "181542.240000", "181542.700000", "181543.160000", "181543.620000", "181544.080000", "181544.540000", "181545.000000", "181545.460000", "181545.920000", "181546.380000", "181546.840000", "181547.300000", "181547.760000", "181548.220000", "181548.680000", "181549.140000", "181549.600000", "181550.060000", "181550.520000", "181550.980000", "181551.440000", "181551.900000", "181552.360000", "181552.820000", "181553.280000", "181553.740000", "181554.200000", "181554.660000", "181555.120000", "181555.580000", "181556.040000", "181556.500000", "181556.960000", "181557.420000", "181557.880000", "181558.340000", "181558.800000", "181559.260000", "181559.720000", "181600.180000", "181600.640000", "181601.100000", "181601.560000", "181602.020000", "181602.480000", "181602.940000", "181603.400000", "181603.860000", "181604.320000", "181604.780000", "181605.240000", "181605.700000", "181606.160000", "181606.620000", "181607.080000", "181607.540000", "181608.000000", "181608.460000", "181608.920000", "181609.380000", "181609.840000", "181610.300000", "181610.760000", "181611.220000", "181611.680000", "181612.140000", "181612.600000", "181613.060000", "181613.520000", "181613.980000", "181614.440000", "181614.900000", "181615.360000", "181615.820000", "181616.280000", "181616.740000", "181617.200000", "181617.660000", "181618.120000", "181618.580000", "181619.040000", "181619.500000", "181619.960000", "181620.420000", "181620.880000", "181621.340000", "181621.800000", "181622.260000", "181622.720000", "181623.180000", "181623.640000", "181624.100000", "181624.560000", "181625.020000", "181625.480000", "181625.940000", "181626.400000", "181626.860000", "181627.320000", "181627.780000", "181628.240000", "181628.700000", "181629.160000", "181629.620000", "181630.080000", "181630.540000", "181631.000000", "181631.460000", "181631.920000", "181632.380000", "181632.840000", "181633.300000", "181633.760000", "181634.220000", "181634.680000", "181635.140000", "181635.600000", "181636.060000", "181636.520000", "181636.980000", "181637.440000", "181637.900000", "181638.360000", "181638.820000", "181639.280000", "181639.740000", "181640.200000", "181640.660000", "181641.120000", "181641.580000", "181642.040000", "181642.500000", "181642.960000", "181643.420000", "181643.880000", "181644.340000", "181644.800000", "181645.260000", "181645.720000", "181646.180000", "181646.640000", "181647.100000", "181647.560000", "181648.020000", "181648.480000", "181648.940000", "181649.400000", "181649.860000", "181650.320000", "181650.780000", "181651.240000", "181651.700000", "181652.160000", "181652.620000", "181653.080000", "181653.540000", "181654.000000", "181654.460000", "181654.920000", "181655.380000", "181655.840000", "181656.300000", "181656.760000", "181657.220000", "181657.680000", "181658.140000", "181658.600000", "181659.060000", "181659.520000", "181659.980000", "181700.440000", "181700.900000", "181701.360000", "181701.820000", "181702.280000", "181702.740000", "181703.200000", "181703.660000", "181704.120000", "181704.580000", "181705.040000", "181705.500000", "181705.960000", "181706.420000", "181706.880000", "181707.340000", "181707.800000", "181708.260000", "181708.720000", "181709.180000", "181709.640000", "181710.100000", "181710.560000", "181711.020000", "181711.480000", "181711.940000", "181712.400000", "181712.860000", "181713.320000", "181713.780000", "181714.240000", "181714.700000", "181715.160000", "181715.620000", "181716.080000", "181716.540000", "181717.000000", "181717.460000", "181717.920000", "181718.380000", "181718.840000", "181719.300000", "181719.760000", "181720.220000", "181720.680000", "181721.140000", "181721.600000", "181722.060000", "181722.520000", "181722.980000", "181723.440000", "181723.900000", "181724.360000", "181724.820000", "181725.280000", "181725.740000", "181726.200000", "181726.660000", "181727.120000", "181727.580000", "181728.040000", "181728.500000", "181728.960000", "181729.420000", "181729.880000", "181730.340000", "181730.800000", "181731.260000", "181731.720000", "181732.180000", "181732.640000", "181733.100000", "181733.560000", "181734.020000", "181734.480000", "181734.940000", "181735.400000", "181735.860000", "181736.320000", "181736.780000", "181737.240000", "181737.700000", "181738.160000", "181738.620000", "181739.080000", "181739.540000", "181740.000000", "181740.460000", "181740.920000", "181741.380000", "181741.840000", "181742.300000", "181742.760000", "181743.220000", "181743.680000", "181744.140000", "181744.600000", "181745.060000", "181745.520000", "181745.980000", "181746.440000", "181746.900000", "181747.360000", "181747.820000", "181748.280000", "181748.740000", "181749.200000", "181749.660000", "181750.120000", "181750.580000", "181751.040000", "181751.500000", "181751.960000", "181752.420000", "181752.880000", "181753.340000", "181753.800000", "181754.260000", "181754.720000", "181755.180000", "181755.640000", "181756.100000", "181756.560000", "181757.020000", "181757.480000", "181757.940000", "181758.400000", "181758.860000", "181759.320000", "181759.780000", "181800.240000", "181800.700000", "181801.160000", "181801.620000", "181802.080000", "181802.540000", "181803.000000", "181803.460000", "181803.920000", "181804.380000", "181804.840000", "181805.300000", "181805.760000", "181806.220000", "181806.680000", "181807.140000", "181807.600000", "181808.060000", "181808.520000", "181808.980000", "181809.440000", "181809.900000", "181810.360000", "181810.820000", "181811.280000", "181811.740000", "181812.200000", "181812.660000", "181813.120000", "181813.580000", "181814.040000", "181814.500000", "181814.960000", "181815.420000", "181815.880000", "181816.340000", "181816.800000", "181817.260000", "181817.720000", "181818.180000", "181818.640000", "181819.100000", "181819.560000", "181820.020000", "181820.480000", "181820.940000", "181821.400000", "181821.860000", "181822.320000", "181822.780000", "181823.240000", "181823.700000", "181824.160000", "181824.620000", "181825.080000", "181825.540000", "181826.000000", "181826.460000", "181826.920000", "181827.380000", "181827.840000", "181828.300000", "181828.760000", "181829.220000", "181829.680000", "181830.140000", "181830.600000", "181831.060000", "181831.520000", "181831.980000", "181832.440000", "181832.900000", "181833.360000", "181833.820000", "181834.280000", "181834.740000", "181835.200000", "181835.660000", "181836.120000", "181836.580000", "181837.040000", "181837.500000", "181837.960000", "181838.420000", "181838.880000", "181839.340000", "181839.800000", "181840.260000", "181840.720000", "181841.180000", "181841.640000", "181842.100000", "181842.560000", "181843.020000", "181843.480000", "181843.940000", "181844.400000", "181844.860000", "181845.320000", "181845.780000", "181846.240000", "181846.700000", "181847.160000", "181847.620000", "181848.080000", "181848.540000", "181849.000000", "181849.460000", "181849.920000", "181850.380000", "181850.840000", "181851.300000", "181851.760000", "181852.220000", "181852.680000", "181853.140000", "181853.600000", "181854.060000", "181854.520000", "181854.980000", "181855.440000", "181855.900000", "181856.360000", "181856.820000", "181857.280000", "181857.740000", "181858.200000", "181858.660000", "181859.120000", "181859.580000", "181900.040000", "181900.500000", "181900.960000", "181901.420000", "181901.880000", "181902.340000", "181902.800000", "181903.260000", "181903.720000", "181904.180000", "181904.640000", "181905.100000", "181905.560000", "181906.020000", "181906.480000", "181906.940000", "181907.400000", "181907.860000", "181908.320000", "181908.780000", "181909.240000", "181909.700000", "181910.160000", "181910.620000", "181911.080000", "181911.540000", "181912.000000", "181912.460000", "181912.920000", "181913.380000", "181913.840000", "181914.300000", "181914.760000", "181915.220000", "181915.680000", "181916.140000", "181916.600000", "181917.060000", "181917.520000", "181917.980000", "181918.440000", "181918.900000", "181919.360000", "181919.820000", "181920.280000", "181920.740000", "181921.200000", "181921.660000", "181922.120000", "181922.580000", "181923.040000", "181923.500000", "181923.960000", "181924.420000", "181924.880000", "181925.340000", "181925.800000", "181926.260000", "181926.720000", "181927.180000", "181927.640000", "181928.100000", "181928.560000", "181929.020000", "181929.480000", "181929.940000", "181930.400000", "181930.860000", "181931.320000", "181931.780000", "181932.240000", "181932.700000", "181933.160000", "181933.620000", "181934.080000", "181934.540000", "181935.000000", "181935.460000", "181935.920000", "181936.380000", "181936.840000", "181937.300000", "181937.760000", "181938.220000", "181938.680000", "181939.140000", "181939.600000", "181940.060000", "181940.520000", "181940.980000", "181941.440000", "181941.900000", "181942.360000", "181942.820000", "181943.280000", "181943.740000", "181944.200000", "181944.660000", "181945.120000", "181945.580000", "181946.040000", "181946.500000", "181946.960000", "181947.420000", "181947.880000", "181948.340000", "181948.800000", "181949.260000", "181949.720000", "181950.180000", "181950.640000", "181951.100000", "181951.560000", "181952.020000", "181952.480000", "181952.940000", "181953.400000", "181953.860000", "181954.320000", "181954.780000", "181955.240000", "181955.700000", "181956.160000", "181956.620000", "181957.080000", "181957.540000", "181958.000000", "181958.460000", "181958.920000", "181959.380000", "181959.840000", "182000.300000", "182000.760000", "182001.220000", "182001.680000", "182002.140000", "182002.600000", "182003.060000", "182003.520000", "182003.980000", "182004.440000", "182004.900000", "182005.360000", "182005.820000", "182006.280000", "182006.740000", "182007.200000", "182007.660000", "182008.120000", "182008.580000", "182009.040000", "182009.500000", "182009.960000", "182010.420000", "182010.880000", "182011.340000", "182011.800000", "182012.260000", "182012.720000", "182013.180000", "182013.640000", "182014.100000", "182014.560000", "182015.020000", "182015.480000", "182015.940000", "182016.400000", "182016.860000", "182017.320000", "182017.780000", "182018.240000", "182018.700000", "182019.160000", "182019.620000", "182020.080000", "182020.540000", "182021.000000", "182021.460000", "182021.920000", "182022.380000", "182022.840000", "182023.300000", "182023.760000", "182024.220000", "182024.680000", "182025.140000", "182025.600000", "182026.060000", "182026.520000", "182026.980000", "182027.440000", "182027.900000", "182028.360000", "182028.820000", "182029.280000", "182029.740000", "182030.200000", "182030.660000", "182031.120000", "182031.580000", "182032.040000", "182032.500000", "182032.960000", "182033.420000", "182033.880000", "182034.340000", "182034.800000", "182035.260000", "182035.720000", "182036.180000", "182036.640000", "182037.100000", "182037.560000", "182038.020000", "182038.480000", "182038.940000", "182039.400000", "182039.860000", "182040.320000", "182040.780000", "182041.240000", "182041.700000", "182042.160000", "182042.620000", "182043.080000", "182043.540000", "182044.000000", "182044.460000", "182044.920000", "182045.380000", "182045.840000", "182046.300000", "182046.760000", "182047.220000", "182047.680000", "182048.140000", "182048.600000", "182049.060000", "182049.520000", "182049.980000", "182050.440000", "182050.900000", "182051.360000", "182051.820000", "182052.280000", "182052.740000", "182053.200000", "182053.660000", "182054.120000", "182054.580000", "182055.040000", "182055.500000", "182055.960000", "182056.420000", "182056.880000", "182057.340000", "182057.800000", "182058.260000", "182058.720000", "182059.180000", "182059.640000", "182100.100000", "182100.560000", "182101.020000", "182101.480000", "182101.940000", "182102.400000", "182102.860000", "182103.320000", "182103.780000", "182104.240000", "182104.700000"],
