{
  "AcquisitionMatrixPE": 82,
  "AcquisitionNumber": 1,
  "AcquisitionTime": "18:21:26.232500",
  "BandwidthPerPixelPhaseEncode": 24.888,
  "BaseResolution": 82,
  "BodyPartExamined": "BRAIN",
  "ConsistencyInfo": "N4_VE11C_LATEST_20160120",
  "ConversionSoftware": "dcm2niix",
  "ConversionSoftwareVersion": "v1.0.20201102",
  "DerivedVendorReportedEchoSpacing": 0.00049,
  "DeviceSerialNumber": "66112",
  "DwellTime": 2e-06,
  "EchoTime": 0.0272,
  "EchoTrainLength": 82,
  "EffectiveEchoSpacing": 0.00049,
  "FlipAngle": 44,
  "ImageComments": "Unaliased MB8/PE3",
  "ImageOrientationPatientDICOM": [0.999897, 0.000279742, 0.0143689, 0.000523586, 0.998438, -0.0558734],
  "ImageType": [
    "ORIGINAL",
    "PRIMARY",
    "M",
    "MB",
    "ND",
    "NORM",
    "MOSAIC"
],
  "ImagingFrequency": 123.252,
  "InPlanePhaseEncodingDirectionDICOM": "COL",
  "InstitutionAddress": "Maynard 3,Hanover,NH,US,03755",
  "InstitutionName": "Dartmouth College - PBS",
  "InstitutionalDepartmentName": "Department",
  "MRAcquisitionType": "2D",
  "MagneticFieldStrength": 3,
  "Manufacturer": "Siemens",
  "ManufacturersModelName": "Prisma",
  "Modality": "MR",
  "MultibandAccelerationFactor": 8,
  "PartialFourier": 1,
  "PatientPosition": "HFS",
  "PercentPhaseFOV": 100,
  "PercentSampling": 100,
  "PhaseEncodingDirection": "j-",
  "PhaseEncodingSteps": 82,
  "PhaseResolution": 1,
  "PixelBandwidth": 3050,
  "ProcedureStepDescription": "Wager_Wager^1076_spacetop",
  "ProtocolName": "func_run-03_task-faces_acq-ap-mb8",
  "PulseSequenceDetails": "%CustomerSeq%\\cmrr_mbep2d_bold",
  "ReceiveCoilActiveElements": "HEA;HEP",
  "ReceiveCoilName": "Head_32",
  "ReconMatrixPE": 82,
  "RepetitionTime": 0.46,
  "SAR": 0.0903663,
  "ScanOptions": "FS",
  "ScanningSequence": "EP",
  "SequenceName": "epfid2d1_82",
  "SequenceVariant": "SK\\SS",
  "SeriesDescription": "func_run-03_task-faces_acq-ap-mb8",
  "SeriesNumber": 20,
  "ShimSetting": [4154, -7736, -7273, 591, -29, -232, 43, 66],
  "SliceThickness": 2.7,
  "SliceTiming": [0, 0.25, 0.0625, 0.3125, 0.125, 0.375, 0.1875, 0, 0.25, 0.0625, 0.3125, 0.125, 0.375, 0.1875, 0, 0.25, 0.0625, 0.3125, 0.125, 0.375, 0.1875, 0, 0.25, 0.0625, 0.3125, 0.125, 0.375, 0.1875, 0, 0.25, 0.0625, 0.3125, 0.125, 0.375, 0.1875, 0, 0.25, 0.0625, 0.3125, 0.125, 0.375, 0.1875, 0, 0.25, 0.0625, 0.3125, 0.125, 0.375, 0.1875, 0, 0.25, 0.0625, 0.3125, 0.125, 0.375, 0.1875],
  "SoftwareVersions": "syngo MR E11",
  "SpacingBetweenSlices": 2.7,
  "StationName": "AWP66112",
  "TaskName": "faces",
  "TotalReadoutTime": 0.03969,
  "TxRefAmp": 258.65,
  "WipMemBlock": "3413ccbb-3871-4005-91dc-9e56b52d07d2||Sequence: R016 ve11c/master r/e634e98; Dec 19 2017 11:00:25 by eja",
  "dcmmeta_affine": [
    [-2.682649850845337, 0.0014047439908608794, 0.038777537643909454, 110.65967559814453],
    [-0.000750527367927134, 2.6787354946136475, -0.15086287260055542, -90.82417297363281],
    [0.03855062276124954, 0.14990420639514923, 2.695502996444702, -88.58627319335938],
    [0.0, 0.0, 0.0, 1.0]
],
  "dcmmeta_reorient_transform": [
    [0.0, -1.0, 0.0, 81.0],
    [1.0, 0.0, 0.0, 0.0],
    [0.0, 0.0, 1.0, 0.0],
    [0.0, 0.0, 0.0, 1.0]
],
  "dcmmeta_shape": [82, 82, 56, 914],
  "dcmmeta_slice_dim": 2,
  "dcmmeta_version": 0.6,
  "global": {
    "const": {
      "AccessionNumber": "A003819",
      "AcquisitionMatrix": [82, 0, 0, 82],
      "AngioFlag": "N",
      "BitsAllocated": 16,
      "BitsStored": 16,
      "BodyPartExamined": "BRAIN",
      "Columns": 656,
      "EchoNumbers": 1,
      "EchoTime": 27.2,
      "EchoTrainLength": 82,
      "FlipAngle": 44.0,
      "HighBit": 15,
      "ImageOrientationPatient": [0.99989672335396, 0.00027974201999, 0.01436886809805, 0.00052358638167, 0.99843772502399, -0.0558733845961],
      "ImagePositionPatient": [-881.0971193375, -895.1658656007, -44.485553724712],
      "ImageType": [
        "ORIGINAL",
        "PRIMARY",
        "M",
        "MB",
        "ND",
        "NORM",
        "MOSAIC"
],
      "ImagedNucleus": "1H",
      "ImagingFrequency": 123.252213,
      "InPlanePhaseEncodingDirection": "COL",
      "MRAcquisitionType": "2D",
      "MagneticFieldStrength": 3.0,
      "Manufacturer": "SIEMENS",
      "ManufacturerModelName": "Prisma",
      "Modality": "MR",
      "NumberOfAverages": 1.0,
      "NumberOfPhaseEncodingSteps": 82,
      "PercentPhaseFieldOfView": 100.0,
      "PercentSampling": 100.0,
      "PerformedProcedureStepStartTime": "172421.833000",
      "PhotometricInterpretation": "MONOCHROME2",
      "PixelBandwidth": 3050.0,
      "PixelRepresentation": 0,
      "PixelSpacing": [2.6829268932343, 2.6829268932343],
      "ProtocolName": "func_run-03_task-faces_acq-ap-mb8",
      "RepetitionTime": 460.0,
      "Rows": 656,
      "SAR": 0.09036626599089,
      "SamplesPerPixel": 1,
      "ScanOptions": "FS",
      "ScanningSequence": "EP",
      "SequenceName": "epfid2d1_82",
      "SequenceVariant": [
        "SK",
        "SS"
],
      "SeriesDescription": "func_run-03_task-faces_acq-ap-mb8",
      "SeriesNumber": 20,
      "SeriesTime": "182138.379000",
      "SliceLocation": -81.774616269231,
      "SliceThickness": 2.7000000476837,
      "SmallestImagePixelValue": 0,
      "SoftwareVersions": "syngo MR E11",
      "SpacingBetweenSlices": 2.7000000456335,
      "SpecificCharacterSet": "ISO_IR 100",
      "StudyID": "2",
      "StudyTime": "172421.733000",
      "TransmitCoilName": "Body",
      "VariableFlipAngleFlag": "N",
      "WindowCenterWidthExplanation": "Algo1",
      "dBdt": 0.0},
    "slices": {}
  },
  "time": {
    "samples": {
      "AcquisitionNumber": [1, 2, 3, 4, 5, 6, 7, 8, 9, 10, 11, 12, 13, 14, 15, 16, 17, 18, 19, 20, 21, 22, 23, 24, 25, 26, 27, 28, 29, 30, 31, 32, 33, 34, 35, 36, 37, 38, 39, 40, 41, 42, 43, 44, 45, 46, 47, 48, 49, 50, 51, 52, 53, 54, 55, 56, 57, 58, 59, 60, 61, 62, 63, 64, 65, 66, 67, 68, 69, 70, 71, 72, 73, 74, 75, 76, 77, 78, 79, 80, 81, 82, 83, 84, 85, 86, 87, 88, 89, 90, 91, 92, 93, 94, 95, 96, 97, 98, 99, 100, 101, 102, 103, 104, 105, 106, 107, 108, 109, 110, 111, 112, 113, 114, 115, 116, 117, 118, 119, 120, 121, 122, 123, 124, 125, 126, 127, 128, 129, 130, 131, 132, 133, 134, 135, 136, 137, 138, 139, 140, 141, 142, 143, 144, 145, 146, 147, 148, 149, 150, 151, 152, 153, 154, 155, 156, 157, 158, 159, 160, 161, 162, 163, 164, 165, 166, 167, 168, 169, 170, 171, 172, 173, 174, 175, 176, 177, 178, 179, 180, 181, 182, 183, 184, 185, 186, 187, 188, 189, 190, 191, 192, 193, 194, 195, 196, 197, 198, 199, 200, 201, 202, 203, 204, 205, 206, 207, 208, 209, 210, 211, 212, 213, 214, 215, 216, 217, 218, 219, 220, 221, 222, 223, 224, 225, 226, 227, 228, 229, 230, 231, 232, 233, 234, 235, 236, 237, 238, 239, 240, 241, 242, 243, 244, 245, 246, 247, 248, 249, 250, 251, 252, 253, 254, 255, 256, 257, 258, 259, 260, 261, 262, 263, 264, 265, 266, 267, 268, 269, 270, 271, 272, 273, 274, 275, 276, 277, 278, 279, 280, 281, 282, 283, 284, 285, 286, 287, 288, 289, 290, 291, 292, 293, 294, 295, 296, 297, 298, 299, 300, 301, 302, 303, 304, 305, 306, 307, 308, 309, 310, 311, 312, 313, 314, 315, 316, 317, 318, 319, 320, 321, 322, 323, 324, 325, 326, 327, 328, 329, 330, 331, 332, 333, 334, 335, 336, 337, 338, 339, 340, 341, 342, 343, 344, 345, 346, 347, 348, 349, 350, 351, 352, 353, 354, 355, 356, 357, 358, 359, 360, 361, 362, 363, 364, 365, 366, 367, 368, 369, 370, 371, 372, 373, 374, 375, 376, 377, 378, 379, 380, 381, 382, 383, 384, 385, 386, 387, 388, 389, 390, 391, 392, 393, 394, 395, 396, 397, 398, 399, 400, 401, 402, 403, 404, 405, 406, 407, 408, 409, 410, 411, 412, 413, 414, 415, 416, 417, 418, 419, 420, 421, 422, 423, 424, 425, 426, 427, 428, 429, 430, 431, 432, 433, 434, 435, 436, 437, 438, 439, 440, 441, 442, 443, 444, 445, 446, 447, 448, 449, 450, 451, 452, 453, 454, 455, 456, 457, 458, 459, 460, 461, 462, 463, 464, 465, 466, 467, 468, 469, 470, 471, 472, 473, 474, 475, 476, 477, 478, 479, 480, 481, 482, 483, 484, 485, 486, 487, 488, 489, 490, 491, 492, 493, 494, 495, 496, 497, 498, 499, 500, 501, 502, 503, 504, 505, 506, 507, 508, 509, 510, 511, 512, 513, 514, 515, 516, 517, 518, 519, 520, 521, 522, 523, 524, 525, 526, 527, 528, 529, 530, 531, 532, 533, 534, 535, 536, 537, 538, 539, 540, 541, 542, 543, 544, 545, 546, 547, 548, 549, 550, 551, 552, 553, 554, 555, 556, 557, 558, 559, 560, 561, 562, 563, 564, 565, 566, 567, 568, 569, 570, 571, 572, 573, 574, 575, 576, 577, 578, 579, 580, 581, 582, 583, 584, 585, 586, 587, 588, 589, 590, 591, 592, 593, 594, 595, 596, 597, 598, 599, 600, 601, 602, 603, 604, 605, 606, 607, 608, 609, 610, 611, 612, 613, 614, 615, 616, 617, 618, 619, 620, 621, 622, 623, 624, 625, 626, 627, 628, 629, 630, 631, 632, 633, 634, 635, 636, 637, 638, 639, 640, 641, 642, 643, 644, 645, 646, 647, 648, 649, 650, 651, 652, 653, 654, 655, 656, 657, 658, 659, 660, 661, 662, 663, 664, 665, 666, 667, 668, 669, 670, 671, 672, 673, 674, 675, 676, 677, 678, 679, 680, 681, 682, 683, 684, 685, 686, 687, 688, 689, 690, 691, 692, 693, 694, 695, 696, 697, 698, 699, 700, 701, 702, 703, 704, 705, 706, 707, 708, 709, 710, 711, 712, 713, 714, 715, 716, 717, 718, 719, 720, 721, 722, 723, 724, 725, 726, 727, 728, 729, 730, 731, 732, 733, 734, 735, 736, 737, 738, 739, 740, 741, 742, 743, 744, 745, 746, 747, 748, 749, 750, 751, 752, 753, 754, 755, 756, 757, 758, 759, 760, 761, 762, 763, 764, 765, 766, 767, 768, 769, 770, 771, 772, 773, 774, 775, 776, 777, 778, 779, 780, 781, 782, 783, 784, 785, 786, 787, 788, 789, 790, 791, 792, 793, 794, 795, 796, 797, 798, 799, 800, 801, 802, 803, 804, 805, 806, 807, 808, 809, 810, 811, 812, 813, 814, 815, 816, 817, 818, 819, 820, 821, 822, 823, 824, 825, 826, 827, 828, 829, 830, 831, 832, 833, 834, 835, 836, 837, 838, 839, 840, 841, 842, 843, 844, 845, 846, 847, 848, 849, 850, 851, 852, 853, 854, 855, 856, 857, 858, 859, 860, 861, 862, 863, 864, 865, 866, 867, 868, 869, 870, 871, 872, 873, 874, 875, 876, 877, 878, 879, 880, 881, 882, 883, 884, 885, 886, 887, 888, 889, 890, 891, 892, 893, 894, 895, 896, 897, 898, 899, 900, 901, 902, 903, 904, 905, 906, 907, 908, 909, 910, 911, 912, 913, 914],
      "AcquisitionTime": ["182126.232500", "182126.692500", "182127.152500", "182127.612500", "182128.072500", "182128.532500", "182128.992500", "182129.452500", "182129.912500", "182130.372500", "182130.832500", "182131.292500", "182131.752500", "182132.212500", "182132.672500", "182133.132500", "182133.592500", "182134.052500", "182134.512500", "182134.972500", "182135.432500", "182135.892500", "182136.352500", "182136.812500", "182137.272500", "182137.732500", "182138.192500", "182138.652500", "182139.112500", "182139.572500", "182140.032500", "182140.492500", "182140.952500", "182141.412500", "182141.872500", "182142.332500", "182142.792500", "182143.252500", "182143.712500", "182144.172500", "182144.632500", "182145.092500", "182145.552500", "182146.012500", "182146.472500", "182146.932500", "182147.392500", "182147.852500", "182148.312500", "182148.772500", "182149.232500", "182149.692500", "182150.152500", "182150.612500", "182151.072500", "182151.532500", "182151.992500", "182152.452500", "182152.912500", "182153.372500", "182153.832500", "182154.292500", "182154.752500", "182155.212500", "182155.672500", "182156.132500", "182156.592500", "182157.052500", "182157.512500", "182157.972500", "182158.432500", "182158.892500", "182159.352500", "182159.812500", "182200.272500", "182200.732500", "182201.192500", "182201.652500", "182202.112500", "182202.572500", "182203.032500", "182203.492500", "182203.952500", "182204.412500", "182204.872500", "182205.332500", "182205.792500", "182206.252500", "182206.712500", "182207.172500", "182207.632500", "182208.092500", "182208.552500", "182209.012500", "182209.472500", "182209.932500", "182210.392500", "182210.852500", "182211.312500", "182211.772500", "182212.232500", "182212.692500", "182213.152500", "182213.612500", "182214.072500", "182214.532500", "182214.992500", "182215.452500", "182215.912500", "182216.372500", "182216.832500", "182217.292500", "182217.752500", "182218.212500", "182218.672500", "182219.132500", "182219.592500", "182220.052500", "182220.512500", "182220.972500", "182221.432500", "182221.892500", "182222.352500", "182222.812500", "182223.272500", "182223.732500", "182224.192500", "182224.652500", "182225.112500", "182225.572500", "182226.032500", "182226.492500", "182226.952500", "182227.412500", "182227.872500", "182228.332500", "182228.792500", "182229.252500", "182229.712500", "182230.172500", "182230.632500", "182231.092500", "182231.552500", "182232.012500", "182232.472500", "182232.932500", "182233.392500", "182233.852500", "182234.312500", "182234.772500", "182235.232500", "182235.692500", "182236.152500", "182236.612500", "182237.072500", "182237.532500", "182237.992500", "182238.452500", "182238.912500", "182239.372500", "182239.832500", "182240.292500", "182240.752500", "182241.212500", "182241.672500", "182242.132500", "182242.592500", "182243.052500", "182243.512500", "182243.972500", "182244.432500", "182244.892500", "182245.352500", "182245.812500", "182246.272500", "182246.732500", "182247.192500", "182247.652500", "182248.112500", "182248.572500", "182249.032500", "182249.492500", "182249.952500", "182250.412500", "182250.872500", "182251.332500", "182251.792500", "182252.252500", "182252.712500", "182253.172500", "182253.632500", "182254.092500", "182254.552500", "182255.012500", "182255.472500", "182255.932500", "182256.392500", "182256.852500", "182257.312500", "182257.772500", "182258.232500", "182258.692500", "182259.152500", "182259.612500", "182300.072500", "182300.532500", "182300.992500", "182301.452500", "182301.912500", "182302.372500", "182302.832500", "182303.292500", "182303.752500", "182304.212500", "182304.672500", "182305.132500", "182305.592500", "182306.052500", "182306.512500", "182306.972500", "182307.432500", "182307.892500", "182308.352500", "182308.812500", "182309.272500", "182309.732500", "182310.192500", "182310.652500", "182311.112500", "182311.572500", "182312.032500", "182312.492500", "182312.952500", "182313.412500", "182313.872500", "182314.332500", "182314.792500", "182315.252500", "182315.712500", "182316.172500", "182316.632500", "182317.092500", "182317.552500", "182318.012500", "182318.472500", "182318.932500", "182319.392500", "182319.852500", "182320.312500", "182320.772500", "182321.232500", "182321.692500", "182322.152500", "182322.612500", "182323.072500", "182323.532500", "182323.992500", "182324.452500", "182324.912500", "182325.372500", "182325.832500", "182326.292500", "182326.752500", "182327.212500", "182327.672500", "182328.132500", "182328.592500", "182329.052500", "182329.512500", "182329.972500", "182330.432500", "182330.892500", "182331.352500", "182331.812500", "182332.272500", "182332.732500", "182333.192500", "182333.652500", "182334.112500", "182334.572500", "182335.032500", "182335.492500", "182335.952500", "182336.412500", "182336.872500", "182337.332500", "182337.792500", "182338.252500", "182338.712500", "182339.172500", "182339.632500", "182340.092500", "182340.552500", "182341.012500", "182341.472500", "182341.932500", "182342.392500", "182342.852500", "182343.312500", "182343.772500", "182344.232500", "182344.692500", "182345.152500", "182345.612500", "182346.072500", "182346.532500", "182346.992500", "182347.452500", "182347.912500", "182348.372500", "182348.832500", "182349.292500", "182349.752500", "182350.212500", "182350.672500", "182351.132500", "182351.592500", "182352.052500", "182352.512500", "182352.972500", "182353.432500", "182353.892500", "182354.352500", "182354.812500", "182355.272500", "182355.732500", "182356.192500", "182356.652500", "182357.112500", "182357.572500", "182358.032500", "182358.492500", "182358.952500", "182359.412500", "182359.872500", "182400.332500", "182400.792500", "182401.252500", "182401.712500", "182402.172500", "182402.632500", "182403.092500", "182403.552500", "182404.012500", "182404.472500", "182404.932500", "182405.392500", "182405.852500", "182406.312500", "182406.772500", "182407.232500", "182407.692500", "182408.152500", "182408.612500", "182409.072500", "182409.532500", "182409.992500", "182410.452500", "182410.912500", "182411.372500", "182411.832500", "182412.292500", "182412.752500", "182413.212500", "182413.672500", "182414.132500", "182414.592500", "182415.052500", "182415.512500", "182415.972500", "182416.432500", "182416.892500", "182417.352500", "182417.812500", "182418.272500", "182418.732500", "182419.192500", "182419.652500", "182420.112500", "182420.572500", "182421.032500", "182421.492500", "182421.952500", "182422.412500", "182422.872500", "182423.332500", "182423.792500", "182424.252500", "182424.712500", "182425.172500", "182425.632500", "182426.092500", "182426.552500", "182427.012500", "182427.472500", "182427.932500", "182428.392500", "182428.852500", "182429.312500", "182429.772500", "182430.232500", "182430.692500", "182431.152500", "182431.612500", "182432.072500", "182432.532500", "182432.992500", "182433.452500", "182433.912500", "182434.372500", "182434.832500", "182435.292500", "182435.752500", "182436.212500", "182436.672500", "182437.132500", "182437.592500", "182438.052500", "182438.512500", "182438.972500", "182439.432500", "182439.892500", "182440.352500", "182440.812500", "182441.272500", "182441.732500", "182442.192500", "182442.652500", "182443.112500", "182443.572500", "182444.032500", "182444.492500", "182444.952500", "182445.412500", "182445.872500", "182446.332500", "182446.792500", "182447.252500", "182447.712500", "182448.172500", "182448.632500", "182449.092500", "182449.552500", "182450.012500", "182450.472500", "182450.932500", "182451.392500", "182451.852500", "182452.312500", "182452.772500", "182453.232500", "182453.692500", "182454.152500", "182454.612500", "182455.072500", "182455.532500", "182455.992500", "182456.452500", "182456.912500", "182457.372500", "182457.832500", "182458.292500", "182458.752500", "182459.212500", "182459.672500", "182500.132500", "182500.592500", "182501.052500", "182501.512500", "182501.972500", "182502.432500", "182502.892500", "182503.352500", "182503.812500", "182504.272500", "182504.732500", "182505.192500", "182505.652500", "182506.112500", "182506.572500", "182507.032500", "182507.492500", "182507.952500", "182508.412500", "182508.872500", "182509.332500", "182509.792500", "182510.252500", "182510.712500", "182511.172500", "182511.632500", "182512.092500", "182512.552500", "182513.012500", "182513.472500", "182513.932500", "182514.392500", "182514.852500", "182515.312500", "182515.772500", "182516.232500", "182516.692500", "182517.152500", "182517.612500", "182518.072500", "182518.532500", "182518.992500", "182519.452500", "182519.912500", "182520.372500", "182520.832500", "182521.292500", "182521.752500", "182522.212500", "182522.672500", "182523.132500", "182523.592500", "182524.052500", "182524.512500", "182524.972500", "182525.432500", "182525.892500", "182526.352500", "182526.812500", "182527.272500", "182527.732500", "182528.192500", "182528.652500", "182529.112500", "182529.572500", "182530.032500", "182530.492500", "182530.952500", "182531.412500", "182531.872500", "182532.332500", "182532.792500", "182533.252500", "182533.712500", "182534.172500", "182534.632500", "182535.092500", "182535.552500", "182536.012500", "182536.472500", "182536.932500", "182537.392500", "182537.852500", "182538.312500", "182538.772500", "182539.232500", "182539.692500", "182540.152500", "182540.612500", "182541.072500", "182541.532500", "182541.992500", "182542.452500", "182542.912500", "182543.372500", "182543.832500", "182544.292500", "182544.752500", "182545.212500", "182545.672500", "182546.132500", "182546.592500", "182547.052500", "182547.512500", "182547.972500", "182548.432500", "182548.892500", "182549.352500", "182549.812500", "182550.272500", "182550.732500", "182551.192500", "182551.652500", "182552.112500", "182552.572500", "182553.032500", "182553.492500", "182553.952500", "182554.412500", "182554.872500", "182555.332500", "182555.792500", "182556.252500", "182556.712500", "182557.172500", "182557.632500", "182558.092500", "182558.552500", "182559.012500", "182559.472500", "182559.932500", "182600.392500", "182600.852500", "182601.312500", "182601.772500", "182602.232500", "182602.692500", "182603.152500", "182603.612500", "182604.072500", "182604.532500", "182604.992500", "182605.452500", "182605.912500", "182606.372500", "182606.832500", "182607.292500", "182607.752500", "182608.212500", "182608.672500", "182609.132500", "182609.592500", "182610.052500", "182610.512500", "182610.972500", "182611.432500", "182611.892500", "182612.352500", "182612.812500", "182613.272500", "182613.732500", "182614.192500", "182614.652500", "182615.112500", "182615.572500", "182616.032500", "182616.492500", "182616.952500", "182617.412500", "182617.872500", "182618.332500", "182618.792500", "182619.252500", "182619.712500", "182620.172500", "182620.632500", "182621.092500", "182621.552500", "182622.012500", "182622.472500", "182622.932500", "182623.392500", "182623.852500", "182624.312500", "182624.772500", "182625.232500", "182625.692500", "182626.152500", "182626.612500", "182627.072500", "182627.532500", "182627.992500", "182628.452500", "182628.912500", "182629.372500", "182629.832500", "182630.292500", "182630.752500", "182631.212500", "182631.672500", "182632.132500", "182632.592500", "182633.052500", "182633.512500", "182633.972500", "182634.432500", "182634.892500", "182635.352500", "182635.812500", "182636.272500", "182636.732500", "182637.192500", "182637.652500", "182638.112500", "182638.572500", "182639.032500", "182639.492500", "182639.952500", "182640.412500", "182640.872500", "182641.332500", "182641.792500", "182642.252500", "182642.712500", "182643.172500", "182643.632500", "182644.092500", "182644.552500", "182645.012500", "182645.472500", "182645.932500", "182646.392500", "182646.852500", "182647.312500", "182647.772500", "182648.232500", "182648.692500", "182649.152500", "182649.612500", "182650.072500", "182650.532500", "182650.992500", "182651.452500", "182651.912500", "182652.372500", "182652.832500", "182653.292500", "182653.752500", "182654.212500", "182654.672500", "182655.132500", "182655.592500", "182656.052500", "182656.512500", "182656.972500", "182657.432500", "182657.892500", "182658.352500", "182658.812500", "182659.272500", "182659.732500", "182700.192500", "182700.652500", "182701.112500", "182701.572500", "182702.032500", "182702.492500", "182702.952500", "182703.412500", "182703.872500", "182704.332500", "182704.792500", "182705.252500", "182705.712500", "182706.172500", "182706.632500", "182707.092500", "182707.552500", "182708.012500", "182708.472500", "182708.932500", "182709.392500", "182709.852500", "182710.312500", "182710.772500", "182711.232500", "182711.692500", "182712.152500", "182712.612500", "182713.072500", "182713.532500", "182713.992500", "182714.452500", "182714.912500", "182715.372500", "182715.832500", "182716.292500", "182716.752500", "182717.212500", "182717.672500", "182718.132500", "182718.592500", "182719.052500", "182719.512500", "182719.972500", "182720.432500", "182720.892500", "182721.352500", "182721.812500", "182722.272500", "182722.732500", "182723.192500", "182723.652500", "182724.112500", "182724.572500", "182725.032500", "182725.492500", "182725.952500", "182726.412500", "182726.872500", "182727.332500", "182727.792500", "182728.252500", "182728.712500", "182729.172500", "182729.632500", "182730.092500", "182730.552500", "182731.012500", "182731.472500", "182731.932500", "182732.392500", "182732.852500", "182733.312500", "182733.772500", "182734.232500", "182734.692500", "182735.152500", "182735.612500", "182736.072500", "182736.532500", "182736.992500", "182737.452500", "182737.912500", "182738.372500", "182738.832500", "182739.292500", "182739.752500", "182740.212500", "182740.672500", "182741.132500", "182741.592500", "182742.052500", "182742.512500", "182742.972500", "182743.432500", "182743.892500", "182744.352500", "182744.812500", "182745.272500", "182745.732500", "182746.192500", "182746.652500", "182747.112500", "182747.572500", "182748.032500", "182748.492500", "182748.952500", "182749.412500", "182749.872500", "182750.332500", "182750.792500", "182751.252500", "182751.712500", "182752.172500", "182752.632500", "182753.092500", "182753.552500", "182754.012500", "182754.472500", "182754.932500", "182755.392500", "182755.852500", "182756.312500", "182756.772500", "182757.232500", "182757.692500", "182758.152500", "182758.612500", "182759.072500", "182759.532500", "182759.992500", "182800.452500", "182800.912500", "182801.372500", "182801.832500", "182802.292500", "182802.752500", "182803.212500", "182803.672500", "182804.132500", "182804.592500", "182805.052500", "182805.512500", "182805.972500", "182806.432500", "182806.892500", "182807.352500", "182807.812500", "182808.272500", "182808.732500", "182809.192500", "182809.652500", "182810.112500", "182810.572500", "182811.032500", "182811.492500", "182811.952500", "182812.412500", "182812.872500", "182813.332500", "182813.792500", "182814.252500", "182814.712500", "182815.172500", "182815.632500", "182816.092500", "182816.552500", "182817.012500", "182817.472500", "182817.932500", "182818.392500", "182818.852500", "182819.312500", "182819.772500", "182820.232500", "182820.692500", "182821.152500", "182821.612500", "182822.072500", "182822.532500", "182822.992500", "182823.452500", "182823.912500", "182824.372500", "182824.832500", "182825.292500", "182825.752500", "182826.212500"],
