{
  "AcquisitionMatrixPE": 82,
  "AcquisitionNumber": 1,
  "AcquisitionTime": "17:29:56.667500",
  "BandwidthPerPixelPhaseEncode": 24.888,
  "BaseResolution": 82,
  "BodyPartExamined": "BRAIN",
  "ConsistencyInfo": "N4_VE11C_LATEST_20160120",
  "ConversionSoftware": "dcm2niix",
  "ConversionSoftwareVersion": "v1.0.20201102",
  "DerivedVendorReportedEchoSpacing": 0.00049,
  "DeviceSerialNumber": "66112",
  "DwellTime": 2e-06,
  "EchoTime": 0.0272,
  "EchoTrainLength": 82,
  "EffectiveEchoSpacing": 0.00049,
  "FlipAngle": 44,
  "ImageComments": "Unaliased MB8/PE3",
  "ImageOrientationPatientDICOM": [0.999897, 0.000279742, 0.0143689, 0.000523586, 0.998438, -0.0558734],
  "ImageType": [
    "ORIGINAL",
    "PRIMARY",
    "M",
    "MB",
    "ND",
    "NORM",
    "MOSAIC"
],
  "ImagingFrequency": 123.252,
  "InPlanePhaseEncodingDirectionDICOM": "COL",
  "InstitutionAddress": "Maynard 3,Hanover,NH,US,03755",
  "InstitutionName": "Dartmouth College - PBS",
  "InstitutionalDepartmentName": "Department",
  "MRAcquisitionType": "2D",
  "MagneticFieldStrength": 3,
  "Manufacturer": "Siemens",
  "ManufacturersModelName": "Prisma",
  "Modality": "MR",
  "MultibandAccelerationFactor": 8,
  "PartialFourier": 1,
  "PatientPosition": "HFS",
  "PercentPhaseFOV": 100,
  "PercentSampling": 100,
  "PhaseEncodingDirection": "j-",
  "PhaseEncodingSteps": 82,
  "PhaseResolution": 1,
  "PixelBandwidth": 3050,
  "ProcedureStepDescription": "Wager_Wager^1076_spacetop",
  "ProtocolName": "func_run-01_task-narratives_acq-ap-mb8",
  "PulseSequenceDetails": "%CustomerSeq%\\cmrr_mbep2d_bold",
  "ReceiveCoilActiveElements": "HEA;HEP",
  "ReceiveCoilName": "Head_32",
  "ReconMatrixPE": 82,
  "RepetitionTime": 0.46,
  "SAR": 0.0903957,
  "ScanOptions": "FS",
  "ScanningSequence": "EP",
  "SequenceName": "epfid2d1_82",
  "SequenceVariant": "SK\\SS",
  "SeriesDescription": "func_run-01_task-narratives_acq-ap-mb8",
  "SeriesNumber": 8,
  "ShimSetting": [4154, -7736, -7273, 591, -29, -232, 43, 66],
  "SliceThickness": 2.7,
  "SliceTiming": [0, 0.2525, 0.0625, 0.315, 0.1275, 0.3775, 0.19, 0, 0.2525, 0.0625, 0.315, 0.1275, 0.3775, 0.19, 0, 0.2525, 0.0625, 0.315, 0.1275, 0.3775, 0.19, 0, 0.2525, 0.0625, 0.315, 0.1275, 0.3775, 0.19, 0, 0.2525, 0.0625, 0.315, 0.1275, 0.3775, 0.19, 0, 0.2525, 0.0625, 0.315, 0.1275, 0.3775, 0.19, 0, 0.2525, 0.0625, 0.315, 0.1275, 0.3775, 0.19, 0, 0.2525, 0.0625, 0.315, 0.1275, 0.3775, 0.19],
  "SoftwareVersions": "syngo MR E11",
  "SpacingBetweenSlices": 2.7,
  "StationName": "AWP66112",
  "TaskName": "narratives",
  "TotalReadoutTime": 0.03969,
  "TxRefAmp": 258.65,
  "WipMemBlock": "beff9838-4e71-49d3-b5f6-c7e03b174dcd||Sequence: R016 ve11c/master r/e634e98; Dec 19 2017 11:00:25 by eja",
  "dcmmeta_affine": [
    [-2.682649850845337, 0.0014047439908608794, 0.038777537643909454, 110.65967559814453],
    [-0.000750527367927134, 2.6787354946136475, -0.15086287260055542, -90.82417297363281],
    [0.03855062276124954, 0.14990420639514923, 2.695502996444702, -88.58627319335938],
    [0.0, 0.0, 0.0, 1.0]
],
  "dcmmeta_reorient_transform": [
    [0.0, -1.0, 0.0, 81.0],
    [1.0, 0.0, 0.0, 0.0],
    [0.0, 0.0, 1.0, 0.0],
    [0.0, 0.0, 0.0, 1.0]
],
  "dcmmeta_shape": [82, 82, 56, 967],
  "dcmmeta_slice_dim": 2,
  "dcmmeta_version": 0.6,
  "global": {
    "const": {
      "AccessionNumber": "A003819",
      "AcquisitionMatrix": [82, 0, 0, 82],
      "AngioFlag": "N",
      "BitsAllocated": 16,
      "BitsStored": 16,
      "BodyPartExamined": "BRAIN",
      "Columns": 656,
      "EchoNumbers": 1,
      "EchoTime": 27.2,
      "EchoTrainLength": 82,
      "FlipAngle": 44.0,
      "HighBit": 15,
      "ImageOrientationPatient": [0.99989672335396, 0.00027974201999, 0.01436886809805, 0.00052358638167, 0.99843772502399, -0.0558733845961],
      "ImagePositionPatient": [-881.0971193375, -895.1658656007, -44.485553724712],
      "ImageType": [
        "ORIGINAL",
        "PRIMARY",
        "M",
        "MB",
        "ND",
        "NORM",
        "MOSAIC"
],
      "ImagedNucleus": "1H",
      "ImagingFrequency": 123.252202,
      "InPlanePhaseEncodingDirection": "COL",
      "MRAcquisitionType": "2D",
      "MagneticFieldStrength": 3.0,
      "Manufacturer": "SIEMENS",
      "ManufacturerModelName": "Prisma",
      "Modality": "MR",
      "NumberOfAverages": 1.0,
      "NumberOfPhaseEncodingSteps": 82,
      "PercentPhaseFieldOfView": 100.0,
      "PercentSampling": 100.0,
      "PerformedProcedureStepStartTime": "172421.833000",
      "PhotometricInterpretation": "MONOCHROME2",
      "PixelBandwidth": 3050.0,
      "PixelRepresentation": 0,
      "PixelSpacing": [2.6829268932343, 2.6829268932343],
      "ProtocolName": "func_run-01_task-narratives_acq-ap-mb8",
      "RepetitionTime": 460.0,
      "Rows": 656,
      "SAR": 0.09039564885538,
      "SamplesPerPixel": 1,
      "ScanOptions": "FS",
      "ScanningSequence": "EP",
      "SequenceName": "epfid2d1_82",
      "SequenceVariant": [
        "SK",
        "SS"
],
      "SeriesDescription": "func_run-01_task-narratives_acq-ap-mb8",
      "SeriesNumber": 8,
      "SeriesTime": "173018.369000",
      "SliceLocation": -81.774616269231,
      "SliceThickness": 2.7000000476837,
      "SmallestImagePixelValue": 0,
      "SoftwareVersions": "syngo MR E11",
      "SpacingBetweenSlices": 2.7000000456335,
      "SpecificCharacterSet": "ISO_IR 100",
      "StudyID": "2",
      "StudyTime": "172421.733000",
      "TransmitCoilName": "Body",
      "VariableFlipAngleFlag": "N",
      "WindowCenterWidthExplanation": "Algo1",
      "dBdt": 0.0},
    "slices": {}
  },
  "time": {
    "samples": {
      "AcquisitionNumber": [1, 2, 3, 4, 5, 6, 7, 8, 9, 10, 11, 12, 13, 14, 15, 16, 17, 18, 19, 20, 21, 22, 23, 24, 25, 26, 27, 28, 29, 30, 31, 32, 33, 34, 35, 36, 37, 38, 39, 40, 41, 42, 43, 44, 45, 46, 47, 48, 49, 50, 51, 52, 53, 54, 55, 56, 57, 58, 59, 60, 61, 62, 63, 64, 65, 66, 67, 68, 69, 70, 71, 72, 73, 74, 75, 76, 77, 78, 79, 80, 81, 82, 83, 84, 85, 86, 87, 88, 89, 90, 91, 92, 93, 94, 95, 96, 97, 98, 99, 100, 101, 102, 103, 104, 105, 106, 107, 108, 109, 110, 111, 112, 113, 114, 115, 116, 117, 118, 119, 120, 121, 122, 123, 124, 125, 126, 127, 128, 129, 130, 131, 132, 133, 134, 135, 136, 137, 138, 139, 140, 141, 142, 143, 144, 145, 146, 147, 148, 149, 150, 151, 152, 153, 154, 155, 156, 157, 158, 159, 160, 161, 162, 163, 164, 165, 166, 167, 168, 169, 170, 171, 172, 173, 174, 175, 176, 177, 178, 179, 180, 181, 182, 183, 184, 185, 186, 187, 188, 189, 190, 191, 192, 193, 194, 195, 196, 197, 198, 199, 200, 201, 202, 203, 204, 205, 206, 207, 208, 209, 210, 211, 212, 213, 214, 215, 216, 217, 218, 219, 220, 221, 222, 223, 224, 225, 226, 227, 228, 229, 230, 231, 232, 233, 234, 235, 236, 237, 238, 239, 240, 241, 242, 243, 244, 245, 246, 247, 248, 249, 250, 251, 252, 253, 254, 255, 256, 257, 258, 259, 260, 261, 262, 263, 264, 265, 266, 267, 268, 269, 270, 271, 272, 273, 274, 275, 276, 277, 278, 279, 280, 281, 282, 283, 284, 285, 286, 287, 288, 289, 290, 291, 292, 293, 294, 295, 296, 297, 298, 299, 300, 301, 302, 303, 304, 305, 306, 307, 308, 309, 310, 311, 312, 313, 314, 315, 316, 317, 318, 319, 320, 321, 322, 323, 324, 325, 326, 327, 328, 329, 330, 331, 332, 333, 334, 335, 336, 337, 338, 339, 340, 341, 342, 343, 344, 345, 346, 347, 348, 349, 350, 351, 352, 353, 354, 355, 356, 357, 358, 359, 360, 361, 362, 363, 364, 365, 366, 367, 368, 369, 370, 371, 372, 373, 374, 375, 376, 377, 378, 379, 380, 381, 382, 383, 384, 385, 386, 387, 388, 389, 390, 391, 392, 393, 394, 395, 396, 397, 398, 399, 400, 401, 402, 403, 404, 405, 406, 407, 408, 409, 410, 411, 412, 413, 414, 415, 416, 417, 418, 419, 420, 421, 422, 423, 424, 425, 426, 427, 428, 429, 430, 431, 432, 433, 434, 435, 436, 437, 438, 439, 440, 441, 442, 443, 444, 445, 446, 447, 448, 449, 450, 451, 452, 453, 454, 455, 456, 457, 458, 459, 460, 461, 462, 463, 464, 465, 466, 467, 468, 469, 470, 471, 472, 473, 474, 475, 476, 477, 478, 479, 480, 481, 482, 483, 484, 485, 486, 487, 488, 489, 490, 491, 492, 493, 494, 495, 496, 497, 498, 499, 500, 501, 502, 503, 504, 505, 506, 507, 508, 509, 510, 511, 512, 513, 514, 515, 516, 517, 518, 519, 520, 521, 522, 523, 524, 525, 526, 527, 528, 529, 530, 531, 532, 533, 534, 535, 536, 537, 538, 539, 540, 541, 542, 543, 544, 545, 546, 547, 548, 549, 550, 551, 552, 553, 554, 555, 556, 557, 558, 559, 560, 561, 562, 563, 564, 565, 566, 567, 568, 569, 570, 571, 572, 573, 574, 575, 576, 577, 578, 579, 580, 581, 582, 583, 584, 585, 586, 587, 588, 589, 590, 591, 592, 593, 594, 595, 596, 597, 598, 599, 600, 601, 602, 603, 604, 605, 606, 607, 608, 609, 610, 611, 612, 613, 614, 615, 616, 617, 618, 619, 620, 621, 622, 623, 624, 625, 626, 627, 628, 629, 630, 631, 632, 633, 634, 635, 636, 637, 638, 639, 640, 641, 642, 643, 644, 645, 646, 647, 648, 649, 650, 651, 652, 653, 654, 655, 656, 657, 658, 659, 660, 661, 662, 663, 664, 665, 666, 667, 668, 669, 670, 671, 672, 673, 674, 675, 676, 677, 678, 679, 680, 681, 682, 683, 684, 685, 686, 687, 688, 689, 690, 691, 692, 693, 694, 695, 696, 697, 698, 699, 700, 701, 702, 703, 704, 705, 706, 707, 708, 709, 710, 711, 712, 713, 714, 715, 716, 717, 718, 719, 720, 721, 722, 723, 724, 725, 726, 727, 728, 729, 730, 731, 732, 733, 734, 735, 736, 737, 738, 739, 740, 741, 742, 743, 744, 745, 746, 747, 748, 749, 750, 751, 752, 753, 754, 755, 756, 757, 758, 759, 760, 761, 762, 763, 764, 765, 766, 767, 768, 769, 770, 771, 772, 773, 774, 775, 776, 777, 778, 779, 780, 781, 782, 783, 784, 785, 786, 787, 788, 789, 790, 791, 792, 793, 794, 795, 796, 797, 798, 799, 800, 801, 802, 803, 804, 805, 806, 807, 808, 809, 810, 811, 812, 813, 814, 815, 816, 817, 818, 819, 820, 821, 822, 823, 824, 825, 826, 827, 828, 829, 830, 831, 832, 833, 834, 835, 836, 837, 838, 839, 840, 841, 842, 843, 844, 845, 846, 847, 848, 849, 850, 851, 852, 853, 854, 855, 856, 857, 858, 859, 860, 861, 862, 863, 864, 865, 866, 867, 868, 869, 870, 871, 872, 873, 874, 875, 876, 877, 878, 879, 880, 881, 882, 883, 884, 885, 886, 887, 888, 889, 890, 891, 892, 893, 894, 895, 896, 897, 898, 899, 900, 901, 902, 903, 904, 905, 906, 907, 908, 909, 910, 911, 912, 913, 914, 915, 916, 917, 918, 919, 920, 921, 922, 923, 924, 925, 926, 927, 928, 929, 930, 931, 932, 933, 934, 935, 936, 937, 938, 939, 940, 941, 942, 943, 944, 945, 946, 947, 948, 949, 950, 951, 952, 953, 954, 955, 956, 957, 958, 959, 960, 961, 962, 963, 964, 965, 966, 967],
      "AcquisitionTime": ["172956.667500", "172957.127500", "172957.587500", "172958.047500", "172958.507500", "172958.967500", "172959.427500", "172959.887500", "173000.347500", "173000.807500", "173001.267500", "173001.727500", "173002.187500", "173002.647500", "173003.107500", "173003.567500", "173004.027500", "173004.487500", "173004.947500", "173005.407500", "173005.867500", "173006.327500", "173006.787500", "173007.247500", "173007.707500", "173008.167500", "173008.627500", "173009.087500", "173009.547500", "173010.007500", "173010.467500", "173010.927500", "173011.387500", "173011.847500", "173012.307500", "173012.767500", "173013.227500", "173013.687500", "173014.147500", "173014.607500", "173015.067500", "173015.527500", "173015.987500", "173016.447500", "173016.907500", "173017.367500", "173017.827500", "173018.287500", "173018.747500", "173019.207500", "173019.667500", "173020.127500", "173020.587500", "173021.047500", "173021.507500", "173021.967500", "173022.427500", "173022.887500", "173023.347500", "173023.807500", "173024.267500", "173024.727500", "173025.187500", "173025.647500", "173026.107500", "173026.567500", "173027.027500", "173027.487500", "173027.947500", "173028.407500", "173028.867500", "173029.327500", "173029.787500", "173030.247500", "173030.707500", "173031.167500", "173031.627500", "173032.087500", "173032.547500", "173033.007500", "173033.467500", "173033.927500", "173034.387500", "173034.847500", "173035.307500", "173035.767500", "173036.227500", "173036.687500", "173037.147500", "173037.607500", "173038.067500", "173038.527500", "173038.987500", "173039.447500", "173039.907500", "173040.367500", "173040.827500", "173041.287500", "173041.747500", "173042.207500", "173042.667500", "173043.127500", "173043.587500", "173044.047500", "173044.507500", "173044.967500", "173045.427500", "173045.887500", "173046.347500", "173046.807500", "173047.267500", "173047.727500", "173048.187500", "173048.647500", "173049.107500", "173049.567500", "173050.027500", "173050.487500", "173050.947500", "173051.407500", "173051.867500", "173052.327500", "173052.787500", "173053.247500", "173053.707500", "173054.167500", "173054.627500", "173055.087500", "173055.547500", "173056.007500", "173056.467500", "173056.927500", "173057.387500", "173057.847500", "173058.307500", "173058.767500", "173059.227500", "173059.687500", "173100.147500", "173100.607500", "173101.067500", "173101.527500", "173101.987500", "173102.447500", "173102.907500", "173103.367500", "173103.827500", "173104.287500", "173104.747500", "173105.207500", "173105.667500", "173106.127500", "173106.587500", "173107.047500", "173107.507500", "173107.967500", "173108.427500", "173108.887500", "173109.347500", "173109.807500", "173110.267500", "173110.727500", "173111.187500", "173111.647500", "173112.107500", "173112.567500", "173113.027500", "173113.487500", "173113.947500", "173114.407500", "173114.867500", "173115.327500", "173115.787500", "173116.247500", "173116.707500", "173117.167500", "173117.627500", "173118.087500", "173118.547500", "173119.007500", "173119.467500", "173119.927500", "173120.387500", "173120.847500", "173121.307500", "173121.767500", "173122.227500", "173122.687500", "173123.147500", "173123.607500", "173124.067500", "173124.527500", "173124.987500", "173125.447500", "173125.907500", "173126.367500", "173126.827500", "173127.287500", "173127.747500", "173128.207500", "173128.667500", "173129.127500", "173129.587500", "173130.047500", "173130.507500", "173130.967500", "173131.427500", "173131.887500", "173132.347500", "173132.807500", "173133.267500", "173133.727500", "173134.187500", "173134.647500", "173135.107500", "173135.567500", "173136.027500", "173136.487500", "173136.947500", "173137.407500", "173137.867500", "173138.327500", "173138.787500", "173139.247500", "173139.707500", "173140.167500", "173140.627500", "173141.087500", "173141.547500", "173142.007500", "173142.467500", "173142.927500", "173143.387500", "173143.847500", "173144.307500", "173144.767500", "173145.227500", "173145.687500", "173146.147500", "173146.607500", "173147.067500", "173147.527500", "173147.987500", "173148.447500", "173148.907500", "173149.367500", "173149.827500", "173150.287500", "173150.747500", "173151.207500", "173151.667500", "173152.127500", "173152.587500", "173153.047500", "173153.507500", "173153.967500", "173154.427500", "173154.887500", "173155.347500", "173155.807500", "173156.267500", "173156.727500", "173157.187500", "173157.647500", "173158.107500", "173158.567500", "173159.027500", "173159.487500", "173159.947500", "173200.407500", "173200.867500", "173201.327500", "173201.787500", "173202.247500", "173202.707500", "173203.167500", "173203.627500", "173204.087500", "173204.547500", "173205.007500", "173205.467500", "173205.927500", "173206.387500", "173206.847500", "173207.307500", "173207.767500", "173208.227500", "173208.687500", "173209.147500", "173209.607500", "173210.067500", "173210.527500", "173210.987500", "173211.447500", "173211.907500", "173212.367500", "173212.827500", "173213.287500", "173213.747500", "173214.207500", "173214.667500", "173215.127500", "173215.587500", "173216.047500", "173216.507500", "173216.967500", "173217.427500", "173217.887500", "173218.347500", "173218.807500", "173219.267500", "173219.727500", "173220.187500", "173220.647500", "173221.107500", "173221.567500", "173222.027500", "173222.487500", "173222.947500", "173223.407500", "173223.867500", "173224.327500", "173224.787500", "173225.247500", "173225.707500", "173226.167500", "173226.627500", "173227.087500", "173227.547500", "173228.007500", "173228.467500", "173228.927500", "173229.387500", "173229.847500", "173230.307500", "173230.767500", "173231.227500", "173231.687500", "173232.147500", "173232.607500", "173233.067500", "173233.527500", "173233.987500", "173234.447500", "173234.907500", "173235.367500", "173235.827500", "173236.287500", "173236.747500", "173237.207500", "173237.667500", "173238.127500", "173238.587500", "173239.047500", "173239.507500", "173239.967500", "173240.427500", "173240.887500", "173241.347500", "173241.807500", "173242.267500", "173242.727500", "173243.187500", "173243.647500", "173244.107500", "173244.567500", "173245.027500", "173245.487500", "173245.947500", "173246.407500", "173246.867500", "173247.327500", "173247.787500", "173248.247500", "173248.707500", "173249.167500", "173249.627500", "173250.087500", "173250.547500", "173251.007500", "173251.467500", "173251.927500", "173252.387500", "173252.847500", "173253.307500", "173253.767500", "173254.227500", "173254.687500", "173255.147500", "173255.607500", "173256.067500", "173256.527500", "173256.987500", "173257.447500", "173257.907500", "173258.367500", "173258.827500", "173259.287500", "173259.747500", "173300.207500", "173300.667500", "173301.127500", "173301.587500", "173302.047500", "173302.507500", "173302.967500", "173303.427500", "173303.887500", "173304.347500", "173304.807500", "173305.267500", "173305.727500", "173306.187500", "173306.647500", "173307.107500", "173307.567500", "173308.027500", "173308.487500", "173308.947500", "173309.407500", "173309.867500", "173310.327500", "173310.787500", "173311.247500", "173311.707500", "173312.167500", "173312.627500", "173313.087500", "173313.547500", "173314.007500", "173314.467500", "173314.927500", "173315.387500", "173315.847500", "173316.307500", "173316.767500", "173317.227500", "173317.687500", "173318.147500", "173318.607500", "173319.067500", "173319.527500", "173319.987500", "173320.447500", "173320.907500", "173321.367500", "173321.827500", "173322.287500", "173322.747500", "173323.207500", "173323.667500", "173324.127500", "173324.587500", "173325.047500", "173325.507500", "173325.967500", "173326.427500", "173326.887500", "173327.347500", "173327.807500", "173328.267500", "173328.727500", "173329.187500", "173329.647500", "173330.107500", "173330.567500", "173331.027500", "173331.487500", "173331.947500", "173332.407500", "173332.867500", "173333.327500", "173333.787500", "173334.247500", "173334.707500", "173335.167500", "173335.627500", "173336.087500", "173336.547500", "173337.007500", "173337.467500", "173337.927500", "173338.387500", "173338.847500", "173339.307500", "173339.767500", "173340.227500", "173340.687500", "173341.147500", "173341.607500", "173342.067500", "173342.527500", "173342.987500", "173343.447500", "173343.907500", "173344.367500", "173344.827500", "173345.287500", "173345.747500", "173346.207500", "173346.667500", "173347.127500", "173347.587500", "173348.047500", "173348.507500", "173348.967500", "173349.427500", "173349.887500", "173350.347500", "173350.807500", "173351.267500", "173351.727500", "173352.187500", "173352.647500", "173353.107500", "173353.567500", "173354.027500", "173354.487500", "173354.947500", "173355.407500", "173355.867500", "173356.327500", "173356.787500", "173357.247500", "173357.707500", "173358.167500", "173358.627500", "173359.087500", "173359.547500", "173400.007500", "173400.467500", "173400.927500", "173401.387500", "173401.847500", "173402.307500", "173402.767500", "173403.227500", "173403.687500", "173404.147500", "173404.607500", "173405.067500", "173405.527500", "173405.987500", "173406.447500", "173406.907500", "173407.367500", "173407.827500", "173408.287500", "173408.747500", "173409.207500", "173409.667500", "173410.127500", "173410.587500", "173411.047500", "173411.507500", "173411.967500", "173412.427500", "173412.887500", "173413.347500", "173413.807500", "173414.267500", "173414.727500", "173415.187500", "173415.647500", "173416.107500", "173416.567500", "173417.027500", "173417.487500", "173417.947500", "173418.407500", "173418.867500", "173419.327500", "173419.787500", "173420.247500", "173420.707500", "173421.167500", "173421.627500", "173422.087500", "173422.547500", "173423.007500", "173423.467500", "173423.927500", "173424.387500", "173424.847500", "173425.307500", "173425.767500", "173426.227500", "173426.687500", "173427.147500", "173427.607500", "173428.067500", "173428.527500", "173428.987500", "173429.447500", "173429.907500", "173430.367500", "173430.827500", "173431.287500", "173431.747500", "173432.207500", "173432.667500", "173433.127500", "173433.587500", "173434.047500", "173434.507500", "173434.967500", "173435.427500", "173435.887500", "173436.347500", "173436.807500", "173437.267500", "173437.727500", "173438.187500", "173438.647500", "173439.107500", "173439.567500", "173440.027500", "173440.487500", "173440.947500", "173441.407500", "173441.867500", "173442.327500", "173442.787500", "173443.247500", "173443.707500", "173444.167500", "173444.627500", "173445.087500", "173445.547500", "173446.007500", "173446.467500", "173446.927500", "173447.387500", "173447.847500", "173448.307500", "173448.767500", "173449.227500", "173449.687500", "173450.147500", "173450.607500", "173451.067500", "173451.527500", "173451.987500", "173452.447500", "173452.907500", "173453.367500", "173453.827500", "173454.287500", "173454.747500", "173455.207500", "173455.667500", "173456.127500", "173456.587500", "173457.047500", "173457.507500", "173457.967500", "173458.427500", "173458.887500", "173459.347500", "173459.807500", "173500.267500", "173500.727500", "173501.187500", "173501.647500", "173502.107500", "173502.567500", "173503.027500", "173503.487500", "173503.947500", "173504.407500", "173504.867500", "173505.327500", "173505.787500", "173506.247500", "173506.707500", "173507.167500", "173507.627500", "173508.087500", "173508.547500", "173509.007500", "173509.467500", "173509.927500", "173510.387500", "173510.847500", "173511.307500", "173511.767500", "173512.227500", "173512.687500", "173513.147500", "173513.607500", "173514.067500", "173514.527500", "173514.987500", "173515.447500", "173515.907500", "173516.367500", "173516.827500", "173517.287500", "173517.747500", "173518.207500", "173518.667500", "173519.127500", "173519.587500", "173520.047500", "173520.507500", "173520.967500", "173521.427500", "173521.887500", "173522.347500", "173522.807500", "173523.267500", "173523.727500", "173524.187500", "173524.647500", "173525.107500", "173525.567500", "173526.027500", "173526.487500", "173526.947500", "173527.407500", "173527.867500", "173528.327500", "173528.787500", "173529.247500", "173529.707500", "173530.167500", "173530.627500", "173531.087500", "173531.547500", "173532.007500", "173532.467500", "173532.927500", "173533.387500", "173533.847500", "173534.307500", "173534.767500", "173535.227500", "173535.687500", "173536.147500", "173536.607500", "173537.067500", "173537.527500", "173537.987500", "173538.447500", "173538.907500", "173539.367500", "173539.827500", "173540.287500", "173540.747500", "173541.207500", "173541.667500", "173542.127500", "173542.587500", "173543.047500", "173543.507500", "173543.967500", "173544.427500", "173544.887500", "173545.347500", "173545.807500", "173546.267500", "173546.727500", "173547.187500", "173547.647500", "173548.107500", "173548.567500", "173549.027500", "173549.487500", "173549.947500", "173550.407500", "173550.867500", "173551.327500", "173551.787500", "173552.247500", "173552.707500", "173553.167500", "173553.627500", "173554.087500", "173554.547500", "173555.007500", "173555.467500", "173555.927500", "173556.387500", "173556.847500", "173557.307500", "173557.767500", "173558.227500", "173558.687500", "173559.147500", "173559.607500", "173600.067500", "173600.527500", "173600.987500", "173601.447500", "173601.907500", "173602.367500", "173602.827500", "173603.287500", "173603.747500", "173604.207500", "173604.667500", "173605.127500", "173605.587500", "173606.047500", "173606.507500", "173606.967500", "173607.427500", "173607.887500", "173608.347500", "173608.807500", "173609.267500", "173609.727500", "173610.187500", "173610.647500", "173611.107500", "173611.567500", "173612.027500", "173612.487500", "173612.947500", "173613.407500", "173613.867500", "173614.327500", "173614.787500", "173615.247500", "173615.707500", "173616.167500", "173616.627500", "173617.087500", "173617.547500", "173618.007500", "173618.467500", "173618.927500", "173619.387500", "173619.847500", "173620.307500", "173620.767500", "173621.227500", "173621.687500", "173622.147500", "173622.607500", "173623.067500", "173623.527500", "173623.987500", "173624.447500", "173624.907500", "173625.367500", "173625.827500", "173626.287500", "173626.747500", "173627.207500", "173627.667500", "173628.127500", "173628.587500", "173629.047500", "173629.507500", "173629.967500", "173630.427500", "173630.887500", "173631.347500", "173631.807500", "173632.267500", "173632.727500", "173633.187500", "173633.647500", "173634.107500", "173634.567500", "173635.027500", "173635.487500", "173635.947500", "173636.407500", "173636.867500", "173637.327500", "173637.787500", "173638.247500", "173638.707500", "173639.167500", "173639.627500", "173640.087500", "173640.547500", "173641.007500", "173641.467500", "173641.927500", "173642.387500", "173642.847500", "173643.307500", "173643.767500", "173644.227500", "173644.687500", "173645.147500", "173645.607500", "173646.067500", "173646.527500", "173646.987500", "173647.447500", "173647.907500", "173648.367500", "173648.827500", "173649.287500", "173649.747500", "173650.207500", "173650.667500", "173651.127500", "173651.587500", "173652.047500", "173652.507500", "173652.967500", "173653.427500", "173653.887500", "173654.347500", "173654.807500", "173655.267500", "173655.727500", "173656.187500", "173656.647500", "173657.107500", "173657.567500", "173658.027500", "173658.487500", "173658.947500", "173659.407500", "173659.867500", "173700.327500", "173700.787500", "173701.247500", "173701.707500", "173702.167500", "173702.627500", "173703.087500", "173703.547500", "173704.007500", "173704.467500", "173704.927500", "173705.387500", "173705.847500", "173706.307500", "173706.767500", "173707.227500", "173707.687500", "173708.147500", "173708.607500", "173709.067500", "173709.527500", "173709.987500", "173710.447500", "173710.907500", "173711.367500", "173711.827500", "173712.287500", "173712.747500", "173713.207500", "173713.667500", "173714.127500", "173714.587500", "173715.047500", "173715.507500", "173715.967500", "173716.427500", "173716.887500", "173717.347500", "173717.807500", "173718.267500", "173718.727500", "173719.187500", "173719.647500", "173720.107500", "173720.567500", "173721.027500"],
