{
  "AcquisitionMatrixPE": 82,
  "AcquisitionNumber": 1,
  "AcquisitionTime": "19:01:42.782500",
  "BandwidthPerPixelPhaseEncode": 24.888,
  "BaseResolution": 82,
  "BodyPartExamined": "BRAIN",
  "ConsistencyInfo": "N4_VE11C_LATEST_20160120",
  "ConversionSoftware": "dcm2niix",
  "ConversionSoftwareVersion": "v1.0.20201102",
  "DerivedVendorReportedEchoSpacing": 0.00049,
  "DeviceSerialNumber": "66112",
  "DwellTime": 2e-06,
  "EchoTime": 0.0272,
  "EchoTrainLength": 82,
  "EffectiveEchoSpacing": 0.00049,
  "FlipAngle": 44,
  "ImageComments": "Unaliased MB8/PE3",
  "ImageOrientationPatientDICOM": [0.999482, 0.018891, 0.0260592, -0.018842, 0.99982, -0.00212298],
  "ImageType": [
    "ORIGINAL",
    "PRIMARY",
    "M",
    "MB",
    "ND",
    "NORM",
    "MOSAIC"
],
  "ImagingFrequency": 123.252,
  "InPlanePhaseEncodingDirectionDICOM": "COL",
  "InstitutionAddress": "Maynard 3,Hanover,NH,US,03755",
  "InstitutionName": "Dartmouth College - PBS",
  "InstitutionalDepartmentName": "Department",
  "MRAcquisitionType": "2D",
  "MagneticFieldStrength": 3,
  "Manufacturer": "Siemens",
  "ManufacturersModelName": "Prisma",
  "Modality": "MR",
  "MultibandAccelerationFactor": 8,
  "PartialFourier": 1,
  "PatientPosition": "HFS",
  "PercentPhaseFOV": 100,
  "PercentSampling": 100,
  "PhaseEncodingDirection": "j-",
  "PhaseEncodingSteps": 82,
  "PhaseResolution": 1,
  "PixelBandwidth": 3050,
  "ProcedureStepDescription": "Wager_Wager^1076_spacetop",
  "ProtocolName": "func_run-04_task-alignvideo_acq-ap-mb8",
  "PulseSequenceDetails": "%CustomerSeq%\\cmrr_mbep2d_bold",
  "ReceiveCoilActiveElements": "HEA;HEP",
  "ReceiveCoilName": "Head_32",
  "ReconMatrixPE": 82,
  "RepetitionTime": 0.46,
  "SAR": 0.0903663,
  "ScanOptions": "FS",
  "ScanningSequence": "EP",
  "SequenceName": "epfid2d1_82",
  "SequenceVariant": "SK\\SS",
  "SeriesDescription": "func_run-04_task-alignvideo_acq-ap-mb8",
  "SeriesNumber": 34,
  "ShimSetting": [4155, -7735, -7275, 578, -28, -215, 41, 69],
  "SliceThickness": 2.7,
  "SliceTiming": [0, 0.25, 0.0625, 0.3125, 0.125, 0.3775, 0.1875, 0, 0.25, 0.0625, 0.3125, 0.125, 0.3775, 0.1875, 0, 0.25, 0.0625, 0.3125, 0.125, 0.3775, 0.1875, 0, 0.25, 0.0625, 0.3125, 0.125, 0.3775, 0.1875, 0, 0.25, 0.0625, 0.3125, 0.125, 0.3775, 0.1875, 0, 0.25, 0.0625, 0.3125, 0.125, 0.3775, 0.1875, 0, 0.25, 0.0625, 0.3125, 0.125, 0.3775, 0.1875, 0, 0.25, 0.0625, 0.3125, 0.125, 0.3775, 0.1875],
  "SoftwareVersions": "syngo MR E11",
  "SpacingBetweenSlices": 2.7,
  "StationName": "AWP66112",
  "TaskName": "alignvideo",
  "TotalReadoutTime": 0.03969,
  "TxRefAmp": 258.65,
  "WipMemBlock": "181ef96b-c79e-4f3e-8862-a3359e846905||Sequence: R016 ve11c/master r/e634e98; Dec 19 2017 11:00:25 by eja",
  "dcmmeta_affine": [
    [-2.681536912918091, -0.05055182799696922, 0.07045552134513855, 111.5897216796875],
    [-0.05068317800760269, 2.6824445724487305, -0.004403355065733194, -93.03976440429688],
    [0.06991497427225113, 0.005695803090929985, 2.6990768909454346, -82.97439575195312],
    [0.0, 0.0, 0.0, 1.0]
],
  "dcmmeta_reorient_transform": [
    [0.0, -1.0, 0.0, 81.0],
    [1.0, 0.0, 0.0, 0.0],
    [0.0, 0.0, 1.0, 0.0],
    [0.0, 0.0, 0.0, 1.0]
],
  "dcmmeta_shape": [82, 82, 56, 914],
  "dcmmeta_slice_dim": 2,
  "dcmmeta_version": 0.6,
  "global": {
    "const": {
      "AccessionNumber": "A003819",
      "AcquisitionMatrix": [82, 0, 0, 82],
      "AngioFlag": "N",
      "BitsAllocated": 16,
      "BitsStored": 16,
      "BodyPartExamined": "BRAIN",
      "Columns": 656,
      "EchoNumbers": 1,
      "EchoTime": 27.2,
      "EchoTrainLength": 82,
      "FlipAngle": 44.0,
      "HighBit": 15,
      "ImageOrientationPatient": [0.99948188939036, 0.01889100197353, 0.02605921766118, -0.0188420447674, 0.99982021898956, -0.0021229810777],
      "ImagePositionPatient": [-862.58772052273, -908.6459037555, -100.94393935483],
      "ImageType": [
        "ORIGINAL",
        "PRIMARY",
        "M",
        "MB",
        "ND",
        "NORM",
        "MOSAIC"
],
      "ImagedNucleus": "1H",
      "ImagingFrequency": 123.252214,
      "InPlanePhaseEncodingDirection": "COL",
      "MRAcquisitionType": "2D",
      "MagneticFieldStrength": 3.0,
      "Manufacturer": "SIEMENS",
      "ManufacturerModelName": "Prisma",
      "Modality": "MR",
      "NumberOfAverages": 1.0,
      "NumberOfPhaseEncodingSteps": 82,
      "PercentPhaseFieldOfView": 100.0,
      "PercentSampling": 100.0,
      "PerformedProcedureStepStartTime": "172421.833000",
      "PhotometricInterpretation": "MONOCHROME2",
      "PixelBandwidth": 3050.0,
      "PixelRepresentation": 0,
      "PixelSpacing": [2.6829268932343, 2.6829268932343],
      "ProtocolName": "func_run-04_task-alignvideo_acq-ap-mb8",
      "RepetitionTime": 460.0,
      "Rows": 656,
      "SAR": 0.09036626599089,
      "SamplesPerPixel": 1,
      "ScanOptions": "FS",
      "ScanningSequence": "EP",
      "SequenceName": "epfid2d1_82",
      "SequenceVariant": [
        "SK",
        "SS"
],
      "SeriesDescription": "func_run-04_task-alignvideo_acq-ap-mb8",
      "SeriesNumber": 34,
      "SeriesTime": "190158.235000",
      "SliceLocation": -79.882402400954,
      "SliceThickness": 2.7000000476837,
      "SmallestImagePixelValue": 0,
      "SoftwareVersions": "syngo MR E11",
      "SpacingBetweenSlices": 2.6999999860245,
      "SpecificCharacterSet": "ISO_IR 100",
      "StudyID": "2",
      "StudyTime": "172421.733000",
      "TransmitCoilName": "Body",
      "VariableFlipAngleFlag": "N",
      "WindowCenterWidthExplanation": "Algo1",
      "dBdt": 0.0},
    "slices": {}
  },
  "time": {
    "samples": {
      "AcquisitionNumber": [1, 2, 3, 4, 5, 6, 7, 8, 9, 10, 11, 12, 13, 14, 15, 16, 17, 18, 19, 20, 21, 22, 23, 24, 25, 26, 27, 28, 29, 30, 31, 32, 33, 34, 35, 36, 37, 38, 39, 40, 41, 42, 43, 44, 45, 46, 47, 48, 49, 50, 51, 52, 53, 54, 55, 56, 57, 58, 59, 60, 61, 62, 63, 64, 65, 66, 67, 68, 69, 70, 71, 72, 73, 74, 75, 76, 77, 78, 79, 80, 81, 82, 83, 84, 85, 86, 87, 88, 89, 90, 91, 92, 93, 94, 95, 96, 97, 98, 99, 100, 101, 102, 103, 104, 105, 106, 107, 108, 109, 110, 111, 112, 113, 114, 115, 116, 117, 118, 119, 120, 121, 122, 123, 124, 125, 126, 127, 128, 129, 130, 131, 132, 133, 134, 135, 136, 137, 138, 139, 140, 141, 142, 143, 144, 145, 146, 147, 148, 149, 150, 151, 152, 153, 154, 155, 156, 157, 158, 159, 160, 161, 162, 163, 164, 165, 166, 167, 168, 169, 170, 171, 172, 173, 174, 175, 176, 177, 178, 179, 180, 181, 182, 183, 184, 185, 186, 187, 188, 189, 190, 191, 192, 193, 194, 195, 196, 197, 198, 199, 200, 201, 202, 203, 204, 205, 206, 207, 208, 209, 210, 211, 212, 213, 214, 215, 216, 217, 218, 219, 220, 221, 222, 223, 224, 225, 226, 227, 228, 229, 230, 231, 232, 233, 234, 235, 236, 237, 238, 239, 240, 241, 242, 243, 244, 245, 246, 247, 248, 249, 250, 251, 252, 253, 254, 255, 256, 257, 258, 259, 260, 261, 262, 263, 264, 265, 266, 267, 268, 269, 270, 271, 272, 273, 274, 275, 276, 277, 278, 279, 280, 281, 282, 283, 284, 285, 286, 287, 288, 289, 290, 291, 292, 293, 294, 295, 296, 297, 298, 299, 300, 301, 302, 303, 304, 305, 306, 307, 308, 309, 310, 311, 312, 313, 314, 315, 316, 317, 318, 319, 320, 321, 322, 323, 324, 325, 326, 327, 328, 329, 330, 331, 332, 333, 334, 335, 336, 337, 338, 339, 340, 341, 342, 343, 344, 345, 346, 347, 348, 349, 350, 351, 352, 353, 354, 355, 356, 357, 358, 359, 360, 361, 362, 363, 364, 365, 366, 367, 368, 369, 370, 371, 372, 373, 374, 375, 376, 377, 378, 379, 380, 381, 382, 383, 384, 385, 386, 387, 388, 389, 390, 391, 392, 393, 394, 395, 396, 397, 398, 399, 400, 401, 402, 403, 404, 405, 406, 407, 408, 409, 410, 411, 412, 413, 414, 415, 416, 417, 418, 419, 420, 421, 422, 423, 424, 425, 426, 427, 428, 429, 430, 431, 432, 433, 434, 435, 436, 437, 438, 439, 440, 441, 442, 443, 444, 445, 446, 447, 448, 449, 450, 451, 452, 453, 454, 455, 456, 457, 458, 459, 460, 461, 462, 463, 464, 465, 466, 467, 468, 469, 470, 471, 472, 473, 474, 475, 476, 477, 478, 479, 480, 481, 482, 483, 484, 485, 486, 487, 488, 489, 490, 491, 492, 493, 494, 495, 496, 497, 498, 499, 500, 501, 502, 503, 504, 505, 506, 507, 508, 509, 510, 511, 512, 513, 514, 515, 516, 517, 518, 519, 520, 521, 522, 523, 524, 525, 526, 527, 528, 529, 530, 531, 532, 533, 534, 535, 536, 537, 538, 539, 540, 541, 542, 543, 544, 545, 546, 547, 548, 549, 550, 551, 552, 553, 554, 555, 556, 557, 558, 559, 560, 561, 562, 563, 564, 565, 566, 567, 568, 569, 570, 571, 572, 573, 574, 575, 576, 577, 578, 579, 580, 581, 582, 583, 584, 585, 586, 587, 588, 589, 590, 591, 592, 593, 594, 595, 596, 597, 598, 599, 600, 601, 602, 603, 604, 605, 606, 607, 608, 609, 610, 611, 612, 613, 614, 615, 616, 617, 618, 619, 620, 621, 622, 623, 624, 625, 626, 627, 628, 629, 630, 631, 632, 633, 634, 635, 636, 637, 638, 639, 640, 641, 642, 643, 644, 645, 646, 647, 648, 649, 650, 651, 652, 653, 654, 655, 656, 657, 658, 659, 660, 661, 662, 663, 664, 665, 666, 667, 668, 669, 670, 671, 672, 673, 674, 675, 676, 677, 678, 679, 680, 681, 682, 683, 684, 685, 686, 687, 688, 689, 690, 691, 692, 693, 694, 695, 696, 697, 698, 699, 700, 701, 702, 703, 704, 705, 706, 707, 708, 709, 710, 711, 712, 713, 714, 715, 716, 717, 718, 719, 720, 721, 722, 723, 724, 725, 726, 727, 728, 729, 730, 731, 732, 733, 734, 735, 736, 737, 738, 739, 740, 741, 742, 743, 744, 745, 746, 747, 748, 749, 750, 751, 752, 753, 754, 755, 756, 757, 758, 759, 760, 761, 762, 763, 764, 765, 766, 767, 768, 769, 770, 771, 772, 773, 774, 775, 776, 777, 778, 779, 780, 781, 782, 783, 784, 785, 786, 787, 788, 789, 790, 791, 792, 793, 794, 795, 796, 797, 798, 799, 800, 801, 802, 803, 804, 805, 806, 807, 808, 809, 810, 811, 812, 813, 814, 815, 816, 817, 818, 819, 820, 821, 822, 823, 824, 825, 826, 827, 828, 829, 830, 831, 832, 833, 834, 835, 836, 837, 838, 839, 840, 841, 842, 843, 844, 845, 846, 847, 848, 849, 850, 851, 852, 853, 854, 855, 856, 857, 858, 859, 860, 861, 862, 863, 864, 865, 866, 867, 868, 869, 870, 871, 872, 873, 874, 875, 876, 877, 878, 879, 880, 881, 882, 883, 884, 885, 886, 887, 888, 889, 890, 891, 892, 893, 894, 895, 896, 897, 898, 899, 900, 901, 902, 903, 904, 905, 906, 907, 908, 909, 910, 911, 912, 913, 914],
      "AcquisitionTime": ["190142.782500", "190143.242500", "190143.702500", "190144.162500", "190144.622500", "190145.082500", "190145.542500", "190146.002500", "190146.462500", "190146.922500", "190147.382500", "190147.842500", "190148.302500", "190148.762500", "190149.222500", "190149.682500", "190150.142500", "190150.602500", "190151.062500", "190151.522500", "190151.982500", "190152.442500", "190152.902500", "190153.362500", "190153.822500", "190154.282500", "190154.742500", "190155.202500", "190155.662500", "190156.122500", "190156.582500", "190157.042500", "190157.502500", "190157.962500", "190158.422500", "190158.882500", "190159.342500", "190159.802500", "190200.262500", "190200.722500", "190201.182500", "190201.642500", "190202.102500", "190202.562500", "190203.022500", "190203.482500", "190203.942500", "190204.402500", "190204.862500", "190205.322500", "190205.782500", "190206.242500", "190206.702500", "190207.162500", "190207.622500", "190208.082500", "190208.542500", "190209.002500", "190209.462500", "190209.922500", "190210.382500", "190210.842500", "190211.302500", "190211.762500", "190212.222500", "190212.682500", "190213.142500", "190213.602500", "190214.062500", "190214.522500", "190214.982500", "190215.442500", "190215.902500", "190216.362500", "190216.822500", "190217.282500", "190217.742500", "190218.202500", "190218.662500", "190219.122500", "190219.582500", "190220.042500", "190220.502500", "190220.962500", "190221.422500", "190221.882500", "190222.342500", "190222.802500", "190223.262500", "190223.722500", "190224.182500", "190224.642500", "190225.102500", "190225.562500", "190226.022500", "190226.482500", "190226.942500", "190227.402500", "190227.862500", "190228.322500", "190228.782500", "190229.242500", "190229.702500", "190230.162500", "190230.622500", "190231.082500", "190231.542500", "190232.002500", "190232.462500", "190232.922500", "190233.382500", "190233.842500", "190234.302500", "190234.762500", "190235.222500", "190235.682500", "190236.142500", "190236.602500", "190237.062500", "190237.522500", "190237.982500", "190238.442500", "190238.902500", "190239.362500", "190239.822500", "190240.282500", "190240.742500", "190241.202500", "190241.662500", "190242.122500", "190242.582500", "190243.042500", "190243.502500", "190243.962500", "190244.422500", "190244.882500", "190245.342500", "190245.802500", "190246.262500", "190246.722500", "190247.182500", "190247.642500", "190248.102500", "190248.562500", "190249.022500", "190249.482500", "190249.942500", "190250.402500", "190250.862500", "190251.322500", "190251.782500", "190252.242500", "190252.702500", "190253.162500", "190253.622500", "190254.082500", "190254.542500", "190255.002500", "190255.462500", "190255.922500", "190256.382500", "190256.842500", "190257.302500", "190257.762500", "190258.222500", "190258.682500", "190259.142500", "190259.602500", "190300.062500", "190300.522500", "190300.982500", "190301.442500", "190301.902500", "190302.362500", "190302.822500", "190303.282500", "190303.742500", "190304.202500", "190304.662500", "190305.122500", "190305.582500", "190306.042500", "190306.502500", "190306.962500", "190307.422500", "190307.882500", "190308.342500", "190308.802500", "190309.262500", "190309.722500", "190310.182500", "190310.642500", "190311.102500", "190311.562500", "190312.022500", "190312.482500", "190312.942500", "190313.402500", "190313.862500", "190314.322500", "190314.782500", "190315.242500", "190315.702500", "190316.162500", "190316.622500", "190317.082500", "190317.542500", "190318.002500", "190318.462500", "190318.922500", "190319.382500", "190319.842500", "190320.302500", "190320.762500", "190321.222500", "190321.682500", "190322.142500", "190322.602500", "190323.062500", "190323.522500", "190323.982500", "190324.442500", "190324.902500", "190325.362500", "190325.822500", "190326.282500", "190326.742500", "190327.202500", "190327.662500", "190328.122500", "190328.582500", "190329.042500", "190329.502500", "190329.962500", "190330.422500", "190330.882500", "190331.342500", "190331.802500", "190332.262500", "190332.722500", "190333.182500", "190333.642500", "190334.102500", "190334.562500", "190335.022500", "190335.482500", "190335.942500", "190336.402500", "190336.862500", "190337.322500", "190337.782500", "190338.242500", "190338.702500", "190339.162500", "190339.622500", "190340.082500", "190340.542500", "190341.002500", "190341.462500", "190341.922500", "190342.382500", "190342.842500", "190343.302500", "190343.762500", "190344.222500", "190344.682500", "190345.142500", "190345.602500", "190346.062500", "190346.522500", "190346.982500", "190347.442500", "190347.902500", "190348.362500", "190348.822500", "190349.282500", "190349.742500", "190350.202500", "190350.662500", "190351.122500", "190351.582500", "190352.042500", "190352.502500", "190352.962500", "190353.422500", "190353.882500", "190354.342500", "190354.802500", "190355.262500", "190355.722500", "190356.182500", "190356.642500", "190357.102500", "190357.562500", "190358.022500", "190358.482500", "190358.942500", "190359.402500", "190359.862500", "190400.322500", "190400.782500", "190401.242500", "190401.702500", "190402.162500", "190402.622500", "190403.082500", "190403.542500", "190404.002500", "190404.462500", "190404.922500", "190405.382500", "190405.842500", "190406.302500", "190406.762500", "190407.222500", "190407.682500", "190408.142500", "190408.602500", "190409.062500", "190409.522500", "190409.982500", "190410.442500", "190410.902500", "190411.362500", "190411.822500", "190412.282500", "190412.742500", "190413.202500", "190413.662500", "190414.122500", "190414.582500", "190415.042500", "190415.502500", "190415.962500", "190416.422500", "190416.882500", "190417.342500", "190417.802500", "190418.262500", "190418.722500", "190419.182500", "190419.642500", "190420.102500", "190420.562500", "190421.022500", "190421.482500", "190421.942500", "190422.402500", "190422.862500", "190423.322500", "190423.782500", "190424.242500", "190424.702500", "190425.162500", "190425.622500", "190426.082500", "190426.542500", "190427.002500", "190427.462500", "190427.922500", "190428.382500", "190428.842500", "190429.302500", "190429.762500", "190430.222500", "190430.682500", "190431.142500", "190431.602500", "190432.062500", "190432.522500", "190432.982500", "190433.442500", "190433.902500", "190434.362500", "190434.822500", "190435.282500", "190435.742500", "190436.202500", "190436.662500", "190437.122500", "190437.582500", "190438.042500", "190438.502500", "190438.962500", "190439.422500", "190439.882500", "190440.342500", "190440.802500", "190441.262500", "190441.722500", "190442.182500", "190442.642500", "190443.102500", "190443.562500", "190444.022500", "190444.482500", "190444.942500", "190445.402500", "190445.862500", "190446.322500", "190446.782500", "190447.242500", "190447.702500", "190448.162500", "190448.622500", "190449.082500", "190449.542500", "190450.002500", "190450.462500", "190450.922500", "190451.382500", "190451.842500", "190452.302500", "190452.762500", "190453.222500", "190453.682500", "190454.142500", "190454.602500", "190455.062500", "190455.522500", "190455.982500", "190456.442500", "190456.902500", "190457.362500", "190457.822500", "190458.282500", "190458.742500", "190459.202500", "190459.662500", "190500.122500", "190500.582500", "190501.042500", "190501.502500", "190501.962500", "190502.422500", "190502.882500", "190503.342500", "190503.802500", "190504.262500", "190504.722500", "190505.182500", "190505.642500", "190506.102500", "190506.562500", "190507.022500", "190507.482500", "190507.942500", "190508.402500", "190508.862500", "190509.322500", "190509.782500", "190510.242500", "190510.702500", "190511.162500", "190511.622500", "190512.082500", "190512.542500", "190513.002500", "190513.462500", "190513.922500", "190514.382500", "190514.842500", "190515.302500", "190515.762500", "190516.222500", "190516.682500", "190517.142500", "190517.602500", "190518.062500", "190518.522500", "190518.982500", "190519.442500", "190519.902500", "190520.362500", "190520.822500", "190521.282500", "190521.742500", "190522.202500", "190522.662500", "190523.122500", "190523.582500", "190524.042500", "190524.502500", "190524.962500", "190525.422500", "190525.882500", "190526.342500", "190526.802500", "190527.262500", "190527.722500", "190528.182500", "190528.642500", "190529.102500", "190529.562500", "190530.022500", "190530.482500", "190530.942500", "190531.402500", "190531.862500", "190532.322500", "190532.782500", "190533.242500", "190533.702500", "190534.162500", "190534.622500", "190535.082500", "190535.542500", "190536.002500", "190536.462500", "190536.922500", "190537.382500", "190537.842500", "190538.302500", "190538.762500", "190539.222500", "190539.682500", "190540.142500", "190540.602500", "190541.062500", "190541.522500", "190541.982500", "190542.442500", "190542.902500", "190543.362500", "190543.822500", "190544.282500", "190544.742500", "190545.202500", "190545.662500", "190546.122500", "190546.582500", "190547.042500", "190547.502500", "190547.962500", "190548.422500", "190548.882500", "190549.342500", "190549.802500", "190550.262500", "190550.722500", "190551.182500", "190551.642500", "190552.102500", "190552.562500", "190553.022500", "190553.482500", "190553.942500", "190554.402500", "190554.862500", "190555.322500", "190555.782500", "190556.242500", "190556.702500", "190557.162500", "190557.622500", "190558.082500", "190558.542500", "190559.002500", "190559.462500", "190559.922500", "190600.382500", "190600.842500", "190601.302500", "190601.762500", "190602.222500", "190602.682500", "190603.142500", "190603.602500", "190604.062500", "190604.522500", "190604.982500", "190605.442500", "190605.902500", "190606.362500", "190606.822500", "190607.282500", "190607.742500", "190608.202500", "190608.662500", "190609.122500", "190609.582500", "190610.042500", "190610.502500", "190610.962500", "190611.422500", "190611.882500", "190612.342500", "190612.802500", "190613.262500", "190613.722500", "190614.182500", "190614.642500", "190615.102500", "190615.562500", "190616.022500", "190616.482500", "190616.942500", "190617.402500", "190617.862500", "190618.322500", "190618.782500", "190619.242500", "190619.702500", "190620.162500", "190620.622500", "190621.082500", "190621.542500", "190622.002500", "190622.462500", "190622.922500", "190623.382500", "190623.842500", "190624.302500", "190624.762500", "190625.222500", "190625.682500", "190626.142500", "190626.602500", "190627.062500", "190627.522500", "190627.982500", "190628.442500", "190628.902500", "190629.362500", "190629.822500", "190630.282500", "190630.742500", "190631.202500", "190631.662500", "190632.122500", "190632.582500", "190633.042500", "190633.502500", "190633.962500", "190634.422500", "190634.882500", "190635.342500", "190635.802500", "190636.262500", "190636.722500", "190637.182500", "190637.642500", "190638.102500", "190638.562500", "190639.022500", "190639.482500", "190639.942500", "190640.402500", "190640.862500", "190641.322500", "190641.782500", "190642.242500", "190642.702500", "190643.162500", "190643.622500", "190644.082500", "190644.542500", "190645.002500", "190645.462500", "190645.922500", "190646.382500", "190646.842500", "190647.302500", "190647.762500", "190648.222500", "190648.682500", "190649.142500", "190649.602500", "190650.062500", "190650.522500", "190650.982500", "190651.442500", "190651.902500", "190652.362500", "190652.822500", "190653.282500", "190653.742500", "190654.202500", "190654.662500", "190655.122500", "190655.582500", "190656.042500", "190656.502500", "190656.962500", "190657.422500", "190657.882500", "190658.342500", "190658.802500", "190659.262500", "190659.722500", "190700.182500", "190700.642500", "190701.102500", "190701.562500", "190702.022500", "190702.482500", "190702.942500", "190703.402500", "190703.862500", "190704.322500", "190704.782500", "190705.242500", "190705.702500", "190706.162500", "190706.622500", "190707.082500", "190707.542500", "190708.002500", "190708.462500", "190708.922500", "190709.382500", "190709.842500", "190710.302500", "190710.762500", "190711.222500", "190711.682500", "190712.142500", "190712.602500", "190713.062500", "190713.522500", "190713.982500", "190714.442500", "190714.902500", "190715.362500", "190715.822500", "190716.282500", "190716.742500", "190717.202500", "190717.662500", "190718.122500", "190718.582500", "190719.042500", "190719.502500", "190719.962500", "190720.422500", "190720.882500", "190721.342500", "190721.802500", "190722.262500", "190722.722500", "190723.182500", "190723.642500", "190724.102500", "190724.562500", "190725.022500", "190725.482500", "190725.942500", "190726.402500", "190726.862500", "190727.322500", "190727.782500", "190728.242500", "190728.702500", "190729.162500", "190729.622500", "190730.082500", "190730.542500", "190731.002500", "190731.462500", "190731.922500", "190732.382500", "190732.842500", "190733.302500", "190733.762500", "190734.222500", "190734.682500", "190735.142500", "190735.602500", "190736.062500", "190736.522500", "190736.982500", "190737.442500", "190737.902500", "190738.362500", "190738.822500", "190739.282500", "190739.742500", "190740.202500", "190740.662500", "190741.122500", "190741.582500", "190742.042500", "190742.502500", "190742.962500", "190743.422500", "190743.882500", "190744.342500", "190744.802500", "190745.262500", "190745.722500", "190746.182500", "190746.642500", "190747.102500", "190747.562500", "190748.022500", "190748.482500", "190748.942500", "190749.402500", "190749.862500", "190750.322500", "190750.782500", "190751.242500", "190751.702500", "190752.162500", "190752.622500", "190753.082500", "190753.542500", "190754.002500", "190754.462500", "190754.922500", "190755.382500", "190755.842500", "190756.302500", "190756.762500", "190757.222500", "190757.682500", "190758.142500", "190758.602500", "190759.062500", "190759.522500", "190759.982500", "190800.442500", "190800.902500", "190801.362500", "190801.822500", "190802.282500", "190802.742500", "190803.202500", "190803.662500", "190804.122500", "190804.582500", "190805.042500", "190805.502500", "190805.962500", "190806.422500", "190806.882500", "190807.342500", "190807.802500", "190808.262500", "190808.722500", "190809.182500", "190809.642500", "190810.102500", "190810.562500", "190811.022500", "190811.482500", "190811.942500", "190812.402500", "190812.862500", "190813.322500", "190813.782500", "190814.242500", "190814.702500", "190815.162500", "190815.622500", "190816.082500", "190816.542500", "190817.002500", "190817.462500", "190817.922500", "190818.382500", "190818.842500", "190819.302500", "190819.762500", "190820.222500", "190820.682500", "190821.142500", "190821.602500", "190822.062500", "190822.522500", "190822.982500", "190823.442500", "190823.902500", "190824.362500", "190824.822500", "190825.282500", "190825.742500", "190826.202500", "190826.662500", "190827.122500", "190827.582500", "190828.042500", "190828.502500", "190828.962500", "190829.422500", "190829.882500", "190830.342500", "190830.802500", "190831.262500", "190831.722500", "190832.182500", "190832.642500", "190833.102500", "190833.562500", "190834.022500", "190834.482500", "190834.942500", "190835.402500", "190835.862500", "190836.322500", "190836.782500", "190837.242500", "190837.702500", "190838.162500", "190838.622500", "190839.082500", "190839.542500", "190840.002500", "190840.462500", "190840.922500", "190841.382500", "190841.842500", "190842.302500", "190842.762500"],
