{
  "AcquisitionMatrixPE": 82,
  "AcquisitionNumber": 1,
  "AcquisitionTime": "17:37:38.885000",
  "BandwidthPerPixelPhaseEncode": 24.888,
  "BaseResolution": 82,
  "BodyPartExamined": "BRAIN",
  "ConsistencyInfo": "N4_VE11C_LATEST_20160120",
  "ConversionSoftware": "dcm2niix",
  "ConversionSoftwareVersion": "v1.0.20201102",
  "DerivedVendorReportedEchoSpacing": 0.00049,
  "DeviceSerialNumber": "66112",
  "DwellTime": 2e-06,
  "EchoTime": 0.0272,
  "EchoTrainLength": 82,
  "EffectiveEchoSpacing": 0.00049,
  "FlipAngle": 44,
  "ImageComments": "Unaliased MB8/PE3",
  "ImageOrientationPatientDICOM": [0.999897, 0.000279742, 0.0143689, 0.000523586, 0.998438, -0.0558734],
  "ImageType": [
    "ORIGINAL",
    "PRIMARY",
    "M",
    "MB",
    "ND",
    "NORM",
    "MOSAIC"
],
  "ImagingFrequency": 123.252,
  "InPlanePhaseEncodingDirectionDICOM": "COL",
  "InstitutionAddress": "Maynard 3,Hanover,NH,US,03755",
  "InstitutionName": "Dartmouth College - PBS",
  "InstitutionalDepartmentName": "Department",
  "MRAcquisitionType": "2D",
  "MagneticFieldStrength": 3,
  "Manufacturer": "Siemens",
  "ManufacturersModelName": "Prisma",
  "Modality": "MR",
  "MultibandAccelerationFactor": 8,
  "PartialFourier": 1,
  "PatientPosition": "HFS",
  "PercentPhaseFOV": 100,
  "PercentSampling": 100,
  "PhaseEncodingDirection": "j-",
  "PhaseEncodingSteps": 82,
  "PhaseResolution": 1,
  "PixelBandwidth": 3050,
  "ProcedureStepDescription": "Wager_Wager^1076_spacetop",
  "ProtocolName": "func_run-02_task-narratives_acq-ap-mb8",
  "PulseSequenceDetails": "%CustomerSeq%\\cmrr_mbep2d_bold",
  "ReceiveCoilActiveElements": "HEA;HEP",
  "ReceiveCoilName": "Head_32",
  "ReconMatrixPE": 82,
  "RepetitionTime": 0.46,
  "SAR": 0.0904563,
  "ScanOptions": "FS",
  "ScanningSequence": "EP",
  "SequenceName": "epfid2d1_82",
  "SequenceVariant": "SK\\SS",
  "SeriesDescription": "func_run-02_task-narratives_acq-ap-mb8",
  "SeriesNumber": 10,
  "ShimSetting": [4154, -7736, -7273, 591, -29, -232, 43, 66],
  "SliceThickness": 2.7,
  "SliceTiming": [0, 0.2525, 0.0625, 0.315, 0.1275, 0.3775, 0.19, 0, 0.2525, 0.0625, 0.315, 0.1275, 0.3775, 0.19, 0, 0.2525, 0.0625, 0.315, 0.1275, 0.3775, 0.19, 0, 0.2525, 0.0625, 0.315, 0.1275, 0.3775, 0.19, 0, 0.2525, 0.0625, 0.315, 0.1275, 0.3775, 0.19, 0, 0.2525, 0.0625, 0.315, 0.1275, 0.3775, 0.19, 0, 0.2525, 0.0625, 0.315, 0.1275, 0.3775, 0.19, 0, 0.2525, 0.0625, 0.315, 0.1275, 0.3775, 0.19],
  "SoftwareVersions": "syngo MR E11",
  "SpacingBetweenSlices": 2.7,
  "StationName": "AWP66112",
  "TaskName": "narratives",
  "TotalReadoutTime": 0.03969,
  "TxRefAmp": 258.65,
  "WipMemBlock": "d7238bca-2cd4-4229-994c-46216b28a1ef||Sequence: R016 ve11c/master r/e634e98; Dec 19 2017 11:00:25 by eja",
  "dcmmeta_affine": [
    [-2.682649850845337, 0.0014047439908608794, 0.038777537643909454, 110.65967559814453],
    [-0.000750527367927134, 2.6787354946136475, -0.15086287260055542, -90.82417297363281],
    [0.03855062276124954, 0.14990420639514923, 2.695502996444702, -88.58627319335938],
    [0.0, 0.0, 0.0, 1.0]
],
  "dcmmeta_reorient_transform": [
    [0.0, -1.0, 0.0, 81.0],
    [1.0, 0.0, 0.0, 0.0],
    [0.0, 0.0, 1.0, 0.0],
    [0.0, 0.0, 0.0, 1.0]
],
  "dcmmeta_shape": [82, 82, 56, 1098],
  "dcmmeta_slice_dim": 2,
  "dcmmeta_version": 0.6,
  "global": {
    "const": {
      "AccessionNumber": "A003819",
      "AcquisitionMatrix": [82, 0, 0, 82],
      "AngioFlag": "N",
      "BitsAllocated": 16,
      "BitsStored": 16,
      "BodyPartExamined": "BRAIN",
      "Columns": 656,
      "EchoNumbers": 1,
      "EchoTime": 27.2,
      "EchoTrainLength": 82,
      "FlipAngle": 44.0,
      "HighBit": 15,
      "ImageOrientationPatient": [0.99989672335396, 0.00027974201999, 0.01436886809805, 0.00052358638167, 0.99843772502399, -0.0558733845961],
      "ImagePositionPatient": [-881.0971193375, -895.1658656007, -44.485553724712],
      "ImageType": [
        "ORIGINAL",
        "PRIMARY",
        "M",
        "MB",
        "ND",
        "NORM",
        "MOSAIC"
],
      "ImagedNucleus": "1H",
      "ImagingFrequency": 123.252206,
      "InPlanePhaseEncodingDirection": "COL",
      "MRAcquisitionType": "2D",
      "MagneticFieldStrength": 3.0,
      "Manufacturer": "SIEMENS",
      "ManufacturerModelName": "Prisma",
      "Modality": "MR",
      "NumberOfAverages": 1.0,
      "NumberOfPhaseEncodingSteps": 82,
      "PercentPhaseFieldOfView": 100.0,
      "PercentSampling": 100.0,
      "PerformedProcedureStepStartTime": "172421.833000",
      "PhotometricInterpretation": "MONOCHROME2",
      "PixelBandwidth": 3050.0,
      "PixelRepresentation": 0,
      "PixelSpacing": [2.6829268932343, 2.6829268932343],
      "ProtocolName": "func_run-02_task-narratives_acq-ap-mb8",
      "RepetitionTime": 460.0,
      "Rows": 656,
      "SAR": 0.09045627414244,
      "SamplesPerPixel": 1,
      "ScanOptions": "FS",
      "ScanningSequence": "EP",
      "SequenceName": "epfid2d1_82",
      "SequenceVariant": [
        "SK",
        "SS"
],
      "SeriesDescription": "func_run-02_task-narratives_acq-ap-mb8",
      "SeriesNumber": 10,
      "SeriesTime": "173758.219000",
      "SliceLocation": -81.774616269231,
      "SliceThickness": 2.7000000476837,
      "SmallestImagePixelValue": 0,
      "SoftwareVersions": "syngo MR E11",
      "SpacingBetweenSlices": 2.7000000456335,
      "SpecificCharacterSet": "ISO_IR 100",
      "StudyID": "2",
      "StudyTime": "172421.733000",
      "TransmitCoilName": "Body",
      "VariableFlipAngleFlag": "N",
      "WindowCenterWidthExplanation": "Algo1",
      "dBdt": 0.0},
    "slices": {}
  },
  "time": {
    "samples": {
      "AcquisitionNumber": [1, 2, 3, 4, 5, 6, 7, 8, 9, 10, 11, 12, 13, 14, 15, 16, 17, 18, 19, 20, 21, 22, 23, 24, 25, 26, 27, 28, 29, 30, 31, 32, 33, 34, 35, 36, 37, 38, 39, 40, 41, 42, 43, 44, 45, 46, 47, 48, 49, 50, 51, 52, 53, 54, 55, 56, 57, 58, 59, 60, 61, 62, 63, 64, 65, 66, 67, 68, 69, 70, 71, 72, 73, 74, 75, 76, 77, 78, 79, 80, 81, 82, 83, 84, 85, 86, 87, 88, 89, 90, 91, 92, 93, 94, 95, 96, 97, 98, 99, 100, 101, 102, 103, 104, 105, 106, 107, 108, 109, 110, 111, 112, 113, 114, 115, 116, 117, 118, 119, 120, 121, 122, 123, 124, 125, 126, 127, 128, 129, 130, 131, 132, 133, 134, 135, 136, 137, 138, 139, 140, 141, 142, 143, 144, 145, 146, 147, 148, 149, 150, 151, 152, 153, 154, 155, 156, 157, 158, 159, 160, 161, 162, 163, 164, 165, 166, 167, 168, 169, 170, 171, 172, 173, 174, 175, 176, 177, 178, 179, 180, 181, 182, 183, 184, 185, 186, 187, 188, 189, 190, 191, 192, 193, 194, 195, 196, 197, 198, 199, 200, 201, 202, 203, 204, 205, 206, 207, 208, 209, 210, 211, 212, 213, 214, 215, 216, 217, 218, 219, 220, 221, 222, 223, 224, 225, 226, 227, 228, 229, 230, 231, 232, 233, 234, 235, 236, 237, 238, 239, 240, 241, 242, 243, 244, 245, 246, 247, 248, 249, 250, 251, 252, 253, 254, 255, 256, 257, 258, 259, 260, 261, 262, 263, 264, 265, 266, 267, 268, 269, 270, 271, 272, 273, 274, 275, 276, 277, 278, 279, 280, 281, 282, 283, 284, 285, 286, 287, 288, 289, 290, 291, 292, 293, 294, 295, 296, 297, 298, 299, 300, 301, 302, 303, 304, 305, 306, 307, 308, 309, 310, 311, 312, 313, 314, 315, 316, 317, 318, 319, 320, 321, 322, 323, 324, 325, 326, 327, 328, 329, 330, 331, 332, 333, 334, 335, 336, 337, 338, 339, 340, 341, 342, 343, 344, 345, 346, 347, 348, 349, 350, 351, 352, 353, 354, 355, 356, 357, 358, 359, 360, 361, 362, 363, 364, 365, 366, 367, 368, 369, 370, 371, 372, 373, 374, 375, 376, 377, 378, 379, 380, 381, 382, 383, 384, 385, 386, 387, 388, 389, 390, 391, 392, 393, 394, 395, 396, 397, 398, 399, 400, 401, 402, 403, 404, 405, 406, 407, 408, 409, 410, 411, 412, 413, 414, 415, 416, 417, 418, 419, 420, 421, 422, 423, 424, 425, 426, 427, 428, 429, 430, 431, 432, 433, 434, 435, 436, 437, 438, 439, 440, 441, 442, 443, 444, 445, 446, 447, 448, 449, 450, 451, 452, 453, 454, 455, 456, 457, 458, 459, 460, 461, 462, 463, 464, 465, 466, 467, 468, 469, 470, 471, 472, 473, 474, 475, 476, 477, 478, 479, 480, 481, 482, 483, 484, 485, 486, 487, 488, 489, 490, 491, 492, 493, 494, 495, 496, 497, 498, 499, 500, 501, 502, 503, 504, 505, 506, 507, 508, 509, 510, 511, 512, 513, 514, 515, 516, 517, 518, 519, 520, 521, 522, 523, 524, 525, 526, 527, 528, 529, 530, 531, 532, 533, 534, 535, 536, 537, 538, 539, 540, 541, 542, 543, 544, 545, 546, 547, 548, 549, 550, 551, 552, 553, 554, 555, 556, 557, 558, 559, 560, 561, 562, 563, 564, 565, 566, 567, 568, 569, 570, 571, 572, 573, 574, 575, 576, 577, 578, 579, 580, 581, 582, 583, 584, 585, 586, 587, 588, 589, 590, 591, 592, 593, 594, 595, 596, 597, 598, 599, 600, 601, 602, 603, 604, 605, 606, 607, 608, 609, 610, 611, 612, 613, 614, 615, 616, 617, 618, 619, 620, 621, 622, 623, 624, 625, 626, 627, 628, 629, 630, 631, 632, 633, 634, 635, 636, 637, 638, 639, 640, 641, 642, 643, 644, 645, 646, 647, 648, 649, 650, 651, 652, 653, 654, 655, 656, 657, 658, 659, 660, 661, 662, 663, 664, 665, 666, 667, 668, 669, 670, 671, 672, 673, 674, 675, 676, 677, 678, 679, 680, 681, 682, 683, 684, 685, 686, 687, 688, 689, 690, 691, 692, 693, 694, 695, 696, 697, 698, 699, 700, 701, 702, 703, 704, 705, 706, 707, 708, 709, 710, 711, 712, 713, 714, 715, 716, 717, 718, 719, 720, 721, 722, 723, 724, 725, 726, 727, 728, 729, 730, 731, 732, 733, 734, 735, 736, 737, 738, 739, 740, 741, 742, 743, 744, 745, 746, 747, 748, 749, 750, 751, 752, 753, 754, 755, 756, 757, 758, 759, 760, 761, 762, 763, 764, 765, 766, 767, 768, 769, 770, 771, 772, 773, 774, 775, 776, 777, 778, 779, 780, 781, 782, 783, 784, 785, 786, 787, 788, 789, 790, 791, 792, 793, 794, 795, 796, 797, 798, 799, 800, 801, 802, 803, 804, 805, 806, 807, 808, 809, 810, 811, 812, 813, 814, 815, 816, 817, 818, 819, 820, 821, 822, 823, 824, 825, 826, 827, 828, 829, 830, 831, 832, 833, 834, 835, 836, 837, 838, 839, 840, 841, 842, 843, 844, 845, 846, 847, 848, 849, 850, 851, 852, 853, 854, 855, 856, 857, 858, 859, 860, 861, 862, 863, 864, 865, 866, 867, 868, 869, 870, 871, 872, 873, 874, 875, 876, 877, 878, 879, 880, 881, 882, 883, 884, 885, 886, 887, 888, 889, 890, 891, 892, 893, 894, 895, 896, 897, 898, 899, 900, 901, 902, 903, 904, 905, 906, 907, 908, 909, 910, 911, 912, 913, 914, 915, 916, 917, 918, 919, 920, 921, 922, 923, 924, 925, 926, 927, 928, 929, 930, 931, 932, 933, 934, 935, 936, 937, 938, 939, 940, 941, 942, 943, 944, 945, 946, 947, 948, 949, 950, 951, 952, 953, 954, 955, 956, 957, 958, 959, 960, 961, 962, 963, 964, 965, 966, 967, 968, 969, 970, 971, 972, 973, 974, 975, 976, 977, 978, 979, 980, 981, 982, 983, 984, 985, 986, 987, 988, 989, 990, 991, 992, 993, 994, 995, 996, 997, 998, 999, 1000, 1001, 1002, 1003, 1004, 1005, 1006, 1007, 1008, 1009, 1010, 1011, 1012, 1013, 1014, 1015, 1016, 1017, 1018, 1019, 1020, 1021, 1022, 1023, 1024, 1025, 1026, 1027, 1028, 1029, 1030, 1031, 1032, 1033, 1034, 1035, 1036, 1037, 1038, 1039, 1040, 1041, 1042, 1043, 1044, 1045, 1046, 1047, 1048, 1049, 1050, 1051, 1052, 1053, 1054, 1055, 1056, 1057, 1058, 1059, 1060, 1061, 1062, 1063, 1064, 1065, 1066, 1067, 1068, 1069, 1070, 1071, 1072, 1073, 1074, 1075, 1076, 1077, 1078, 1079, 1080, 1081, 1082, 1083, 1084, 1085, 1086, 1087, 1088, 1089, 1090, 1091, 1092, 1093, 1094, 1095, 1096, 1097, 1098],
      "AcquisitionTime": ["173738.885000", "173739.345000", "173739.805000", "173740.265000", "173740.725000", "173741.185000", "173741.645000", "173742.105000", "173742.565000", "173743.025000", "173743.485000", "173743.945000", "173744.405000", "173744.865000", "173745.325000", "173745.785000", "173746.245000", "173746.705000", "173747.165000", "173747.625000", "173748.085000", "173748.545000", "173749.005000", "173749.465000", "173749.925000", "173750.385000", "173750.845000", "173751.305000", "173751.765000", "173752.225000", "173752.685000", "173753.145000", "173753.605000", "173754.065000", "173754.525000", "173754.985000", "173755.445000", "173755.905000", "173756.365000", "173756.825000", "173757.285000", "173757.745000", "173758.205000", "173758.665000", "173759.125000", "173759.585000", "173800.045000", "173800.505000", "173800.965000", "173801.425000", "173801.885000", "173802.345000", "173802.805000", "173803.265000", "173803.725000", "173804.185000", "173804.645000", "173805.105000", "173805.565000", "173806.025000", "173806.485000", "173806.945000", "173807.405000", "173807.865000", "173808.325000", "173808.785000", "173809.245000", "173809.705000", "173810.165000", "173810.625000", "173811.085000", "173811.545000", "173812.005000", "173812.465000", "173812.925000", "173813.385000", "173813.845000", "173814.305000", "173814.765000", "173815.225000", "173815.685000", "173816.145000", "173816.605000", "173817.065000", "173817.525000", "173817.985000", "173818.445000", "173818.905000", "173819.365000", "173819.825000", "173820.285000", "173820.745000", "173821.205000", "173821.665000", "173822.125000", "173822.585000", "173823.045000", "173823.505000", "173823.965000", "173824.425000", "173824.885000", "173825.345000", "173825.805000", "173826.265000", "173826.725000", "173827.185000", "173827.645000", "173828.105000", "173828.565000", "173829.025000", "173829.485000", "173829.945000", "173830.405000", "173830.865000", "173831.325000", "173831.785000", "173832.245000", "173832.705000", "173833.165000", "173833.625000", "173834.085000", "173834.545000", "173835.005000", "173835.465000", "173835.925000", "173836.385000", "173836.845000", "173837.305000", "173837.765000", "173838.225000", "173838.685000", "173839.145000", "173839.605000", "173840.065000", "173840.525000", "173840.985000", "173841.445000", "173841.905000", "173842.365000", "173842.825000", "173843.285000", "173843.745000", "173844.205000", "173844.665000", "173845.125000", "173845.585000", "173846.045000", "173846.505000", "173846.965000", "173847.425000", "173847.885000", "173848.345000", "173848.805000", "173849.265000", "173849.725000", "173850.185000", "173850.645000", "173851.105000", "173851.565000", "173852.025000", "173852.485000", "173852.945000", "173853.405000", "173853.865000", "173854.325000", "173854.785000", "173855.245000", "173855.705000", "173856.165000", "173856.625000", "173857.085000", "173857.545000", "173858.005000", "173858.465000", "173858.925000", "173859.385000", "173859.845000", "173900.305000", "173900.765000", "173901.225000", "173901.685000", "173902.145000", "173902.605000", "173903.065000", "173903.525000", "173903.985000", "173904.445000", "173904.905000", "173905.365000", "173905.825000", "173906.285000", "173906.745000", "173907.205000", "173907.665000", "173908.125000", "173908.585000", "173909.045000", "173909.505000", "173909.965000", "173910.425000", "173910.885000", "173911.345000", "173911.805000", "173912.265000", "173912.725000", "173913.185000", "173913.645000", "173914.105000", "173914.565000", "173915.025000", "173915.485000", "173915.945000", "173916.405000", "173916.865000", "173917.325000", "173917.785000", "173918.245000", "173918.705000", "173919.165000", "173919.625000", "173920.085000", "173920.545000", "173921.005000", "173921.465000", "173921.925000", "173922.385000", "173922.845000", "173923.305000", "173923.765000", "173924.225000", "173924.685000", "173925.145000", "173925.605000", "173926.065000", "173926.525000", "173926.985000", "173927.445000", "173927.905000", "173928.365000", "173928.825000", "173929.285000", "173929.745000", "173930.205000", "173930.665000", "173931.125000", "173931.585000", "173932.045000", "173932.505000", "173932.965000", "173933.425000", "173933.885000", "173934.345000", "173934.805000", "173935.265000", "173935.725000", "173936.185000", "173936.645000", "173937.105000", "173937.565000", "173938.025000", "173938.485000", "173938.945000", "173939.405000", "173939.865000", "173940.325000", "173940.785000", "173941.245000", "173941.705000", "173942.165000", "173942.625000", "173943.085000", "173943.545000", "173944.005000", "173944.465000", "173944.925000", "173945.385000", "173945.845000", "173946.305000", "173946.765000", "173947.225000", "173947.685000", "173948.145000", "173948.605000", "173949.065000", "173949.525000", "173949.985000", "173950.445000", "173950.905000", "173951.365000", "173951.825000", "173952.285000", "173952.745000", "173953.205000", "173953.665000", "173954.125000", "173954.585000", "173955.045000", "173955.505000", "173955.965000", "173956.425000", "173956.885000", "173957.345000", "173957.805000", "173958.265000", "173958.725000", "173959.185000", "173959.645000", "174000.105000", "174000.565000", "174001.025000", "174001.485000", "174001.945000", "174002.405000", "174002.865000", "174003.325000", "174003.785000", "174004.245000", "174004.705000", "174005.165000", "174005.625000", "174006.085000", "174006.545000", "174007.005000", "174007.465000", "174007.925000", "174008.385000", "174008.845000", "174009.305000", "174009.765000", "174010.225000", "174010.685000", "174011.145000", "174011.605000", "174012.065000", "174012.525000", "174012.985000", "174013.445000", "174013.905000", "174014.365000", "174014.825000", "174015.285000", "174015.745000", "174016.205000", "174016.665000", "174017.125000", "174017.585000", "174018.045000", "174018.505000", "174018.965000", "174019.425000", "174019.885000", "174020.345000", "174020.805000", "174021.265000", "174021.725000", "174022.185000", "174022.645000", "174023.105000", "174023.565000", "174024.025000", "174024.485000", "174024.945000", "174025.405000", "174025.865000", "174026.325000", "174026.785000", "174027.245000", "174027.705000", "174028.165000", "174028.625000", "174029.085000", "174029.545000", "174030.005000", "174030.465000", "174030.925000", "174031.385000", "174031.845000", "174032.305000", "174032.765000", "174033.225000", "174033.685000", "174034.145000", "174034.605000", "174035.065000", "174035.525000", "174035.985000", "174036.445000", "174036.905000", "174037.365000", "174037.825000", "174038.285000", "174038.745000", "174039.205000", "174039.665000", "174040.125000", "174040.585000", "174041.045000", "174041.505000", "174041.965000", "174042.425000", "174042.885000", "174043.345000", "174043.805000", "174044.265000", "174044.725000", "174045.185000", "174045.645000", "174046.105000", "174046.565000", "174047.025000", "174047.485000", "174047.945000", "174048.405000", "174048.865000", "174049.325000", "174049.785000", "174050.245000", "174050.705000", "174051.165000", "174051.625000", "174052.085000", "174052.545000", "174053.005000", "174053.465000", "174053.925000", "174054.385000", "174054.845000", "174055.305000", "174055.765000", "174056.225000", "174056.685000", "174057.145000", "174057.605000", "174058.065000", "174058.525000", "174058.985000", "174059.445000", "174059.905000", "174100.365000", "174100.825000", "174101.285000", "174101.745000", "174102.205000", "174102.665000", "174103.125000", "174103.585000", "174104.045000", "174104.505000", "174104.965000", "174105.425000", "174105.885000", "174106.345000", "174106.805000", "174107.265000", "174107.725000", "174108.185000", "174108.645000", "174109.105000", "174109.565000", "174110.025000", "174110.485000", "174110.945000", "174111.405000", "174111.865000", "174112.325000", "174112.785000", "174113.245000", "174113.705000", "174114.165000", "174114.625000", "174115.085000", "174115.545000", "174116.005000", "174116.465000", "174116.925000", "174117.385000", "174117.845000", "174118.305000", "174118.765000", "174119.225000", "174119.685000", "174120.145000", "174120.605000", "174121.065000", "174121.525000", "174121.985000", "174122.445000", "174122.905000", "174123.365000", "174123.825000", "174124.285000", "174124.745000", "174125.205000", "174125.665000", "174126.125000", "174126.585000", "174127.045000", "174127.505000", "174127.965000", "174128.425000", "174128.885000", "174129.345000", "174129.805000", "174130.265000", "174130.725000", "174131.185000", "174131.645000", "174132.105000", "174132.565000", "174133.025000", "174133.485000", "174133.945000", "174134.405000", "174134.865000", "174135.325000", "174135.785000", "174136.245000", "174136.705000", "174137.165000", "174137.625000", "174138.085000", "174138.545000", "174139.005000", "174139.465000", "174139.925000", "174140.385000", "174140.845000", "174141.305000", "174141.765000", "174142.225000", "174142.685000", "174143.145000", "174143.605000", "174144.065000", "174144.525000", "174144.985000", "174145.445000", "174145.905000", "174146.365000", "174146.825000", "174147.285000", "174147.745000", "174148.205000", "174148.665000", "174149.125000", "174149.585000", "174150.045000", "174150.505000", "174150.965000", "174151.425000", "174151.885000", "174152.345000", "174152.805000", "174153.265000", "174153.725000", "174154.185000", "174154.645000", "174155.105000", "174155.565000", "174156.025000", "174156.485000", "174156.945000", "174157.405000", "174157.865000", "174158.325000", "174158.785000", "174159.245000", "174159.705000", "174200.165000", "174200.625000", "174201.085000", "174201.545000", "174202.005000", "174202.465000", "174202.925000", "174203.385000", "174203.845000", "174204.305000", "174204.765000", "174205.225000", "174205.685000", "174206.145000", "174206.605000", "174207.065000", "174207.525000", "174207.985000", "174208.445000", "174208.905000", "174209.365000", "174209.825000", "174210.285000", "174210.745000", "174211.205000", "174211.665000", "174212.125000", "174212.585000", "174213.045000", "174213.505000", "174213.965000", "174214.425000", "174214.885000", "174215.345000", "174215.805000", "174216.265000", "174216.725000", "174217.185000", "174217.645000", "174218.105000", "174218.565000", "174219.025000", "174219.485000", "174219.945000", "174220.405000", "174220.865000", "174221.325000", "174221.785000", "174222.245000", "174222.705000", "174223.165000", "174223.625000", "174224.085000", "174224.545000", "174225.005000", "174225.465000", "174225.925000", "174226.385000", "174226.845000", "174227.305000", "174227.765000", "174228.225000", "174228.685000", "174229.145000", "174229.605000", "174230.065000", "174230.525000", "174230.985000", "174231.445000", "174231.905000", "174232.365000", "174232.825000", "174233.285000", "174233.745000", "174234.205000", "174234.665000", "174235.125000", "174235.585000", "174236.045000", "174236.505000", "174236.965000", "174237.425000", "174237.885000", "174238.345000", "174238.805000", "174239.265000", "174239.725000", "174240.185000", "174240.645000", "174241.105000", "174241.565000", "174242.025000", "174242.485000", "174242.945000", "174243.405000", "174243.865000", "174244.325000", "174244.785000", "174245.245000", "174245.705000", "174246.165000", "174246.625000", "174247.085000", "174247.545000", "174248.005000", "174248.465000", "174248.925000", "174249.385000", "174249.845000", "174250.305000", "174250.765000", "174251.225000", "174251.685000", "174252.145000", "174252.605000", "174253.065000", "174253.525000", "174253.985000", "174254.445000", "174254.905000", "174255.365000", "174255.825000", "174256.285000", "174256.745000", "174257.205000", "174257.665000", "174258.125000", "174258.585000", "174259.045000", "174259.505000", "174259.965000", "174300.425000", "174300.885000", "174301.345000", "174301.805000", "174302.265000", "174302.725000", "174303.185000", "174303.645000", "174304.105000", "174304.565000", "174305.025000", "174305.485000", "174305.945000", "174306.405000", "174306.865000", "174307.325000", "174307.785000", "174308.245000", "174308.705000", "174309.165000", "174309.625000", "174310.085000", "174310.545000", "174311.005000", "174311.465000", "174311.925000", "174312.385000", "174312.845000", "174313.305000", "174313.765000", "174314.225000", "174314.685000", "174315.145000", "174315.605000", "174316.065000", "174316.525000", "174316.985000", "174317.445000", "174317.905000", "174318.365000", "174318.825000", "174319.285000", "174319.745000", "174320.205000", "174320.665000", "174321.125000", "174321.585000", "174322.045000", "174322.505000", "174322.965000", "174323.425000", "174323.885000", "174324.345000", "174324.805000", "174325.265000", "174325.725000", "174326.185000", "174326.645000", "174327.105000", "174327.565000", "174328.025000", "174328.485000", "174328.945000", "174329.405000", "174329.865000", "174330.325000", "174330.785000", "174331.245000", "174331.705000", "174332.165000", "174332.625000", "174333.085000", "174333.545000", "174334.005000", "174334.465000", "174334.925000", "174335.385000", "174335.845000", "174336.305000", "174336.765000", "174337.225000", "174337.685000", "174338.145000", "174338.605000", "174339.065000", "174339.525000", "174339.985000", "174340.445000", "174340.905000", "174341.365000", "174341.825000", "174342.285000", "174342.745000", "174343.205000", "174343.665000", "174344.125000", "174344.585000", "174345.045000", "174345.505000", "174345.965000", "174346.425000", "174346.885000", "174347.345000", "174347.805000", "174348.265000", "174348.725000", "174349.185000", "174349.645000", "174350.105000", "174350.565000", "174351.025000", "174351.485000", "174351.945000", "174352.405000", "174352.865000", "174353.325000", "174353.785000", "174354.245000", "174354.705000", "174355.165000", "174355.625000", "174356.085000", "174356.545000", "174357.005000", "174357.465000", "174357.925000", "174358.385000", "174358.845000", "174359.305000", "174359.765000", "174400.225000", "174400.685000", "174401.145000", "174401.605000", "174402.065000", "174402.525000", "174402.985000", "174403.445000", "174403.905000", "174404.365000", "174404.825000", "174405.285000", "174405.745000", "174406.205000", "174406.665000", "174407.125000", "174407.585000", "174408.045000", "174408.505000", "174408.965000", "174409.425000", "174409.885000", "174410.345000", "174410.805000", "174411.265000", "174411.725000", "174412.185000", "174412.645000", "174413.105000", "174413.565000", "174414.025000", "174414.485000", "174414.945000", "174415.405000", "174415.865000", "174416.325000", "174416.785000", "174417.245000", "174417.705000", "174418.165000", "174418.625000", "174419.085000", "174419.545000", "174420.005000", "174420.465000", "174420.925000", "174421.385000", "174421.845000", "174422.305000", "174422.765000", "174423.225000", "174423.685000", "174424.145000", "174424.605000", "174425.065000", "174425.525000", "174425.985000", "174426.445000", "174426.905000", "174427.365000", "174427.825000", "174428.285000", "174428.745000", "174429.205000", "174429.665000", "174430.125000", "174430.585000", "174431.045000", "174431.505000", "174431.965000", "174432.425000", "174432.885000", "174433.345000", "174433.805000", "174434.265000", "174434.725000", "174435.185000", "174435.645000", "174436.105000", "174436.565000", "174437.025000", "174437.485000", "174437.945000", "174438.405000", "174438.865000", "174439.325000", "174439.785000", "174440.245000", "174440.705000", "174441.165000", "174441.625000", "174442.085000", "174442.545000", "174443.005000", "174443.465000", "174443.925000", "174444.385000", "174444.845000", "174445.305000", "174445.765000", "174446.225000", "174446.685000", "174447.145000", "174447.605000", "174448.065000", "174448.525000", "174448.985000", "174449.445000", "174449.905000", "174450.365000", "174450.825000", "174451.285000", "174451.745000", "174452.205000", "174452.665000", "174453.125000", "174453.585000", "174454.045000", "174454.505000", "174454.965000", "174455.425000", "174455.885000", "174456.345000", "174456.805000", "174457.265000", "174457.725000", "174458.185000", "174458.645000", "174459.105000", "174459.565000", "174500.025000", "174500.485000", "174500.945000", "174501.405000", "174501.865000", "174502.325000", "174502.785000", "174503.245000", "174503.705000", "174504.165000", "174504.625000", "174505.085000", "174505.545000", "174506.005000", "174506.465000", "174506.925000", "174507.385000", "174507.845000", "174508.305000", "174508.765000", "174509.225000", "174509.685000", "174510.145000", "174510.605000", "174511.065000", "174511.525000", "174511.985000", "174512.445000", "174512.905000", "174513.365000", "174513.825000", "174514.285000", "174514.745000", "174515.205000", "174515.665000", "174516.125000", "174516.585000", "174517.045000", "174517.505000", "174517.965000", "174518.425000", "174518.885000", "174519.345000", "174519.805000", "174520.265000", "174520.725000", "174521.185000", "174521.645000", "174522.105000", "174522.565000", "174523.025000", "174523.485000", "174523.945000", "174524.405000", "174524.865000", "174525.325000", "174525.785000", "174526.245000", "174526.705000", "174527.165000", "174527.625000", "174528.085000", "174528.545000", "174529.005000", "174529.465000", "174529.925000", "174530.385000", "174530.845000", "174531.305000", "174531.765000", "174532.225000", "174532.685000", "174533.145000", "174533.605000", "174534.065000", "174534.525000", "174534.985000", "174535.445000", "174535.905000", "174536.365000", "174536.825000", "174537.285000", "174537.745000", "174538.205000", "174538.665000", "174539.125000", "174539.585000", "174540.045000", "174540.505000", "174540.965000", "174541.425000", "174541.885000", "174542.345000", "174542.805000", "174543.265000", "174543.725000", "174544.185000", "174544.645000", "174545.105000", "174545.565000", "174546.025000", "174546.485000", "174546.945000", "174547.405000", "174547.865000", "174548.325000", "174548.785000", "174549.245000", "174549.705000", "174550.165000", "174550.625000", "174551.085000", "174551.545000", "174552.005000", "174552.465000", "174552.925000", "174553.385000", "174553.845000", "174554.305000", "174554.765000", "174555.225000", "174555.685000", "174556.145000", "174556.605000", "174557.065000", "174557.525000", "174557.985000", "174558.445000", "174558.905000", "174559.365000", "174559.825000", "174600.285000", "174600.745000", "174601.205000", "174601.665000", "174602.125000", "174602.585000", "174603.045000", "174603.505000"],
