{
  "AcquisitionMatrixPE": 140,
  "AcquisitionNumber": 1,
  "AcquisitionTime": "13:38:32.105000",
  "BandwidthPerPixelPhaseEncode": 10.352,
  "BaseResolution": 140,
  "BodyPartExamined": "BRAIN",
  "ConsistencyInfo": "N4_VE11C_LATEST_20160120",
  "ConversionSoftware": "dcm2niix",
  "ConversionSoftwareVersion": "v1.0.20201102",
  "DerivedVendorReportedEchoSpacing": 0.000689998,
  "DeviceSerialNumber": "66112",
  "DiffusionScheme": "Monopolar",
  "DwellTime": 2.1e-06,
  "EchoTime": 0.0884,
  "EchoTrainLength": 105,
  "EffectiveEchoSpacing": 0.000689998,
  "FlipAngle": 90,
  "ImageComments": "Unaliased MB3/PE3 SENSE1",
  "ImageOrientationPatientDICOM": [0.999229, -0.034574, -0.0185751, 0.0373386, 0.983231, 0.178499],
  "ImageType": [
    "ORIGINAL",
    "PRIMARY",
    "DIFFUSION",
    "NONE",
    "MB",
    "ND",
    "MOSAIC"
],
  "ImagingFrequency": 123.252,
  "InPlanePhaseEncodingDirectionDICOM": "COL",
  "InstitutionAddress": "Maynard 3,Hanover,NH,US,03755",
  "InstitutionName": "Dartmouth College - PBS",
  "InstitutionalDepartmentName": "Department",
  "MRAcquisitionType": "2D",
  "MagneticFieldStrength": 3,
  "Manufacturer": "Siemens",
  "ManufacturersModelName": "Prisma",
  "Modality": "MR",
  "MultibandAccelerationFactor": 3,
  "PartialFourier": 0.75,
  "PatientPosition": "HFS",
  "PercentPhaseFOV": 100,
  "PercentSampling": 100,
  "PhaseEncodingDirection": "j-",
  "PhaseEncodingSteps": 105,
  "PhaseResolution": 1,
  "PixelBandwidth": 1700,
  "ProcedureStepDescription": "Wager_Wager^1076_spacetop",
  "ProtocolName": "dwi_acq-96dir-6b0-mb",
  "PulseSequenceDetails": "%CustomerSeq%\\cmrr_mbep2d_diff",
  "ReceiveCoilActiveElements": "HEA;HEP",
  "ReceiveCoilName": "Head_32",
  "ReconMatrixPE": 140,
  "RepetitionTime": 4.11,
  "SAR": 0.253488,
  "ScanOptions": "PFP\\FS",
  "ScanningSequence": "EP",
  "SequenceName": "ep_b5#1",
  "SequenceVariant": "SK\\SS",
  "SeriesDescription": "dwi_acq-96dir-6b0-mb",
  "SeriesNumber": 8,
  "ShimSetting": [4145, -7704, -7260, 399, -32, -2, 63, 83],
  "SliceThickness": 1.7,
  "SliceTiming": [0, 2.12, 0.1525, 2.2725, 0.3025, 2.425, 0.455, 2.575, 0.6075, 2.7275, 0.7575, 2.8775, 0.91, 3.03, 1.06, 3.1825, 1.2125, 3.3325, 1.3625, 3.485, 1.515, 3.635, 1.6675, 3.7875, 1.8175, 3.94, 1.97, 0, 2.12, 0.1525, 2.2725, 0.3025, 2.425, 0.455, 2.575, 0.6075, 2.7275, 0.7575, 2.8775, 0.91, 3.03, 1.06, 3.1825, 1.2125, 3.3325, 1.3625, 3.485, 1.515, 3.635, 1.6675, 3.7875, 1.8175, 3.94, 1.97, 0, 2.12, 0.1525, 2.2725, 0.3025, 2.425, 0.455, 2.575, 0.6075, 2.7275, 0.7575, 2.8775, 0.91, 3.03, 1.06, 3.1825, 1.2125, 3.3325, 1.3625, 3.485, 1.515, 3.635, 1.6675, 3.7875, 1.8175, 3.94, 1.97],
  "SoftwareVersions": "syngo MR E11",
  "SpacingBetweenSlices": 1.7,
  "StationName": "AWP66112",
  "TotalReadoutTime": 0.0959097,
  "TxRefAmp": 228.908,
  "WipMemBlock": "317e542c-54c3-4ff5-b441-52498d3a92cf||Sequence: R016 ve11c/master r/e634e98; Dec 19 2017 11:11:25 by eja",
  "dcmmeta_affine": [
    [-1.7129648923873901, 0.06400905549526215, -0.020556814968585968, 119.63475799560547],
    [0.059269655495882034, 1.6855396032333374, 0.30439308285713196, -102.87287139892578],
    [-0.03184308111667633, -0.3059977889060974, 1.6724001169204712, -30.512678146362305],
    [0.0, 0.0, 0.0, 1.0]
],
  "dcmmeta_reorient_transform": [
    [0.0, -1.0, 0.0, 139.0],
    [1.0, 0.0, 0.0, 0.0],
    [0.0, 0.0, 1.0, 0.0],
    [0.0, 0.0, 0.0, 1.0]
],
  "dcmmeta_shape": [140, 140, 81, 103],
  "dcmmeta_slice_dim": 2,
  "dcmmeta_version": 0.6,
  "global": {
    "const": {
      "AccessionNumber": "A003817",
      "AcquisitionMatrix": [140, 0, 0, 140],
      "AngioFlag": "N",
      "BitsAllocated": 16,
      "BitsStored": 16,
      "BodyPartExamined": "BRAIN",
      "Columns": 1260,
      "EchoNumbers": 1,
      "EchoTime": 88.4,
      "EchoTrainLength": 105,
      "FlipAngle": 90.0,
      "HighBit": 15,
      "ImageOrientationPatient": [0.99922950586048, -0.0345739662328, -0.0185751305984, 0.0373386161844, 0.98323142650534, 0.17849871056594],
      "ImagePositionPatient": [-1123.6374270573, -1042.1283028985, -226.57300930997],
      "ImageType": [
        "ORIGINAL",
        "PRIMARY",
        "DIFFUSION",
        "NONE",
        "MB",
        "ND",
        "MOSAIC"
],
      "ImagedNucleus": "1H",
      "ImagingFrequency": 123.252225,
      "InPlanePhaseEncodingDirection": "COL",
      "MRAcquisitionType": "2D",
      "MagneticFieldStrength": 3.0,
      "Manufacturer": "SIEMENS",
      "ManufacturerModelName": "Prisma",
      "Modality": "MR",
      "NumberOfAverages": 1.0,
      "NumberOfPhaseEncodingSteps": 105,
      "PercentPhaseFieldOfView": 100.0,
      "PercentSampling": 100.0,
      "PerformedProcedureStepStartTime": "131335.708000",
      "PhotometricInterpretation": "MONOCHROME2",
      "PixelBandwidth": 1700.0,
      "PixelRepresentation": 0,
      "PixelSpacing": [1.7142857313156, 1.7142857313156],
      "ProtocolName": "dwi_acq-96dir-6b0-mb",
      "RepetitionTime": 4110.0,
      "Rows": 1260,
      "SAR": 0.25348814686354,
      "SamplesPerPixel": 1,
      "ScanOptions": [
        "PFP",
        "FS"
],
      "ScanningSequence": "EP",
      "SequenceVariant": [
        "SK",
        "SS"
],
      "SeriesDescription": "dwi_acq-96dir-6b0-mb",
      "SeriesNumber": 8,
      "SeriesTime": "133958.196000",
      "SliceLocation": -49.883827380741,
      "SliceThickness": 1.7000000476837,
      "SmallestImagePixelValue": 0,
      "SoftwareVersions": "syngo MR E11",
      "SpacingBetweenSlices": 1.6999999835376,
      "SpecificCharacterSet": "ISO_IR 100",
      "StudyID": "1",
      "StudyTime": "131335.643000",
      "TransmitCoilName": "Body",
      "VariableFlipAngleFlag": "N",
      "WindowCenterWidthExplanation": "Algo1",
      "dBdt": 0.0},
    "slices": {}
  },
  "time": {
    "samples": {
      "AcquisitionNumber": [1, 2, 3, 4, 5, 6, 7, 8, 9, 10, 11, 12, 13, 14, 15, 16, 17, 18, 19, 20, 21, 22, 23, 24, 25, 26, 27, 28, 29, 30, 31, 32, 33, 34, 35, 36, 37, 38, 39, 40, 41, 42, 43, 44, 45, 46, 47, 48, 49, 50, 51, 52, 53, 54, 55, 56, 57, 58, 59, 60, 61, 62, 63, 64, 65, 66, 67, 68, 69, 70, 71, 72, 73, 74, 75, 76, 77, 78, 79, 80, 81, 82, 83, 84, 85, 86, 87, 88, 89, 90, 91, 92, 93, 94, 95, 96, 97, 98, 99, 100, 101, 102, 103],
      "AcquisitionTime": ["133832.105000", "133836.215000", "133840.325000", "133844.435000", "133848.545000", "133852.655000", "133856.765000", "133900.875000", "133904.985000", "133909.095000", "133913.205000", "133917.315000", "133921.425000", "133925.535000", "133929.645000", "133933.755000", "133937.865000", "133941.975000", "133946.085000", "133950.195000", "133954.305000", "133958.415000", "134002.525000", "134006.635000", "134010.745000", "134014.855000", "134018.965000", "134023.075000", "134027.185000", "134031.295000", "134035.405000", "134039.515000", "134043.625000", "134047.735000", "134051.845000", "134055.955000", "134100.065000", "134104.175000", "134108.285000", "134112.395000", "134116.505000", "134120.615000", "134124.725000", "134128.835000", "134132.945000", "134137.055000", "134141.165000", "134145.275000", "134149.385000", "134153.495000", "134157.605000", "134201.715000", "134205.825000", "134209.935000", "134214.045000", "134218.155000", "134222.265000", "134226.375000", "134230.485000", "134234.595000", "134238.705000", "134242.815000", "134246.925000", "134251.035000", "134255.145000", "134259.255000", "134303.365000", "134307.475000", "134311.585000", "134315.695000", "134319.805000", "134323.915000", "134328.025000", "134332.135000", "134336.245000", "134340.355000", "134344.465000", "134348.575000", "134352.685000", "134356.795000", "134400.905000", "134405.015000", "134409.125000", "134413.235000", "134417.345000", "134421.455000", "134425.565000", "134429.675000", "134433.785000", "134437.895000", "134442.005000", "134446.115000", "134450.225000", "134454.335000", "134458.445000", "134502.555000", "134506.665000", "134510.775000", "134514.885000", "134518.995000", "134523.105000", "134527.215000", "134531.325000"],
      "ContentTime": ["133958.200000", "133958.205000", "133958.208000", "133958.211000", "133958.215000", "133958.218000", "133958.221000", "133958.232000", "133958.235000", "133958.239000", "133958.242000", "133958.245000", "133958.249000", "133958.252000", "133958.255000", "133958.259000", "133958.262000", "133958.266000", "133958.269000", "133958.272000", "134118.195000", "134118.199000", "134118.202000", "134118.206000", "134118.213000", "134118.217000", "134118.220000", "134118.223000", "134118.227000", "134118.230000", "134118.234000", "134118.237000", "134118.240000", "134118.244000", "134118.247000", "134118.250000", "134118.253000", "134118.257000", "134118.260000", "134118.263000", "134258.195000", "134258.199000", "134258.202000", "134258.213000", "134258.216000", "134258.219000", "134258.222000", "134258.226000", "134258.229000", "134258.232000", "134258.236000", "134258.239000", "134258.242000", "134258.246000", "134258.249000", "134258.252000", "134258.255000", "134258.259000", "134258.262000", "134258.265000", "134258.269000", "134258.272000", "134258.275000", "134258.279000", "134418.194000", "134418.198000", "134418.201000", "134418.204000", "134418.208000", "134418.211000", "134418.215000", "134418.218000", "134418.221000", "134418.225000", "134418.228000", "134418.231000", "134418.234000", "134418.238000", "134418.241000", "134418.244000", "134418.248000", "134418.251000", "134418.254000", "134418.258000", "134518.207000", "134518.210000", "134518.214000", "134518.217000", "134518.220000", "134518.223000", "134518.227000", "134518.230000", "134518.233000", "134518.237000", "134518.240000", "134518.243000", "134518.247000", "134518.250000", "134535.778000", "134535.782000", "134535.786000", "134535.789000", "134535.794000"],
      "InstanceCreationTime": ["133958.200000", "133958.205000", "133958.208000", "133958.211000", "133958.215000", "133958.218000", "133958.221000", "133958.232000", "133958.235000", "133958.239000", "133958.242000", "133958.245000", "133958.249000", "133958.252000", "133958.255000", "133958.259000", "133958.262000", "133958.266000", "133958.269000", "133958.272000", "134118.195000", "134118.199000", "134118.202000", "134118.206000", "134118.213000", "134118.217000", "134118.220000", "134118.223000", "134118.227000", "134118.230000", "134118.234000", "134118.237000", "134118.240000", "134118.244000", "134118.247000", "134118.250000", "134118.253000", "134118.257000", "134118.260000", "134118.263000", "134258.195000", "134258.199000", "134258.202000", "134258.213000", "134258.216000", "134258.219000", "134258.222000", "134258.226000", "134258.229000", "134258.232000", "134258.236000", "134258.239000", "134258.242000", "134258.246000", "134258.249000", "134258.252000", "134258.255000", "134258.259000", "134258.262000", "134258.265000", "134258.269000", "134258.272000", "134258.275000", "134258.279000", "134418.194000", "134418.198000", "134418.201000", "134418.204000", "134418.208000", "134418.211000", "134418.215000", "134418.218000", "134418.221000", "134418.225000", "134418.228000", "134418.231000", "134418.234000", "134418.238000", "134418.241000", "134418.244000", "134418.248000", "134418.251000", "134418.254000", "134418.258000", "134518.207000", "134518.210000", "134518.214000", "134518.217000", "134518.220000", "134518.223000", "134518.227000", "134518.230000", "134518.233000", "134518.237000", "134518.240000", "134518.243000", "134518.247000", "134518.250000", "134535.778000", "134535.782000", "134535.786000", "134535.789000", "134535.794000"],
      "InstanceNumber": [1, 2, 3, 4, 5, 6, 7, 8, 9, 10, 11, 12, 13, 14, 15, 16, 17, 18, 19, 20, 21, 22, 23, 24, 25, 26, 27, 28, 29, 30, 31, 32, 33, 34, 35, 36, 37, 38, 39, 40, 41, 42, 43, 44, 45, 46, 47, 48, 49, 50, 51, 52, 53, 54, 55, 56, 57, 58, 59, 60, 61, 62, 63, 64, 65, 66, 67, 68, 69, 70, 71, 72, 73, 74, 75, 76, 77, 78, 79, 80, 81, 82, 83, 84, 85, 86, 87, 88, 89, 90, 91, 92, 93, 94, 95, 96, 97, 98, 99, 100, 101, 102, 103],
      "LargestImagePixelValue": [65535, 65535, 48536, 49511, 50376, 49360, 47948, 48657, 65535, 33224, 32453, 35329, 36519, 35269, 35551, 34974, 34436, 35607, 31877, 35032, 34728, 35556, 31386, 32090, 65535, 19626, 19660, 19843, 17975, 19314, 20402, 16545, 18337, 18823, 17221, 20329, 20208, 18882, 15931, 19648, 65535, 12186, 11610, 14416, 13210, 12343, 10547, 11167, 11806, 11474, 12499, 13149, 10182, 12642, 10861, 11543, 12946, 11201, 12148, 15956, 10717, 14789, 10108, 10290, 9837, 9593, 11688, 10098, 10363, 11546, 11937, 8933, 10686, 65535, 12314, 10553, 11946, 9883, 12422, 11896, 11333, 12825, 10552, 12557, 13102, 10585, 11711, 12895, 12137, 12452, 12264, 11201, 10755, 10835, 12399, 14236, 10463, 9657, 11546, 10333, 12027, 9868, 65535],
      "SequenceName": [
 "ep_b5#1",
 "ep_b5#1",
 "ep_b500#2",
 "ep_b500#3",
 "ep_b500#4",
 "ep_b505#5",
 "ep_b495#6",
 "ep_b500#7",
 "ep_b5#8",
 "ep_b1000#9",
 "ep_b1005#10",
 "ep_b995#11",
 "ep_b1005#12",
 "ep_b995#13",
 "ep_b995#14",
 "ep_b1005#15",
 "ep_b1000#16",
 "ep_b1000#17",
 "ep_b995#18",
 "ep_b1000#19",
 "ep_b995#20",
 "ep_b1000#21",
 "ep_b1005#22",
 "ep_b1005#23",
 "ep_b5#24",
 "ep_b2000#25",
 "ep_b1995#26",
 "ep_b1995#27",
 "ep_b1995#28",
 "ep_b2005#29",
 "ep_b2010#30",
 "ep_b2005#31",
 "ep_b2005#32",
 "ep_b1995#33",
 "ep_b1990#34",
 "ep_b1995#35",
 "ep_b2005#36",
 "ep_b2000#37",
 "ep_b2010#38",
 "ep_b2000#39",
 "ep_b5#40",
 "ep_b3000#41",
 "ep_b3005#42",
 "ep_b3010#43",
 "ep_b3010#44",
 "ep_b3000#45",
 "ep_b3000#46",
 "ep_b2990#47",
 "ep_b3005#48",
 "ep_b3000#49",
 "ep_b2990#50",
 "ep_b2990#51",
 "ep_b2995#52",
 "ep_b2995#53",
 "ep_b3010#54",
 "ep_b3000#55",
 "ep_b2995#56",
 "ep_b3000#57",
 "ep_b2990#58",
 "ep_b2990#59",
 "ep_b3000#60",
 "ep_b2990#61",
 "ep_b2990#62",
 "ep_b2995#63",
 "ep_b3005#64",
 "ep_b3010#65",
 "ep_b3000#66",
 "ep_b3005#67",
 "ep_b3010#68",
 "ep_b3005#69",
 "ep_b3005#70",
 "ep_b3010#71",
 "ep_b2990#72",
 "ep_b5#73",
 "ep_b3010#74",
 "ep_b3000#75",
 "ep_b3005#76",
 "ep_b3005#77",
 "ep_b2995#78",
 "ep_b3005#79",
 "ep_b2995#80",
 "ep_b3010#81",
 "ep_b3010#82",
 "ep_b3005#83",
 "ep_b3000#84",
 "ep_b3005#85",
 "ep_b3010#86",
 "ep_b3010#87",
 "ep_b2990#88",
 "ep_b3010#89",
 "ep_b2995#90",
 "ep_b2995#91",
 "ep_b2995#92",
 "ep_b2995#93",
 "ep_b3005#94",
 "ep_b3005#95",
 "ep_b2995#96",
 "ep_b3000#97",
 "ep_b2990#98",
 "ep_b3000#99",
 "ep_b2995#100",
 "ep_b2995#101",
 "ep_b5#102"
],
      "WindowCenter": [11205.0, 11202.0, 7840.0, 7868.0, 7844.0, 7802.0, 7904.0, 7867.0, 11206.0, 5883.0, 5831.0, 5900.0, 5899.0, 5933.0, 5959.0, 5872.0, 5935.0, 5901.0, 5894.0, 5879.0, 5963.0, 5894.0, 5839.0, 5847.0, 11218.0, 3757.0, 3733.0, 3781.0, 3799.0, 3752.0, 3766.0, 3703.0, 3729.0, 3770.0, 3775.0, 3791.0, 3746.0, 3731.0, 3709.0, 3736.0, 11249.0, 2624.0, 2590.0, 2681.0, 2673.0, 2632.0, 2600.0, 2657.0, 2592.0, 2589.0, 2650.0, 2691.0, 2597.0, 2664.0, 2605.0, 2599.0, 2636.0, 2579.0, 2680.0, 2732.0, 2575.0, 2692.0, 2651.0, 2622.0, 2579.0, 2575.0, 2580.0, 2563.0, 2581.0, 2601.0, 2614.0, 2553.0, 2647.0, 11161.0, 2650.0, 2598.0, 2593.0, 2555.0, 2633.0, 2600.0, 2575.0, 2645.0, 2604.0, 2623.0, 2646.0, 2578.0, 2606.0, 2631.0, 2652.0, 2650.0, 2667.0, 2595.0, 2586.0, 2630.0, 2601.0, 2665.0, 2646.0, 2521.0, 2681.0, 2549.0, 2610.0, 2617.0, 11225.0],
      "WindowWidth": [25745.0, 25732.0, 16665.0, 16724.0, 16652.0, 16592.0, 16795.0, 16712.0, 25746.0, 12647.0, 12566.0, 12676.0, 12679.0, 12765.0, 12789.0, 12615.0, 12732.0, 12684.0, 12664.0, 12613.0, 12783.0, 12651.0, 12584.0, 12559.0, 25784.0, 8470.0, 8433.0, 8536.0, 8557.0, 8466.0, 8492.0, 8387.0, 8449.0, 8500.0, 8527.0, 8536.0, 8458.0, 8421.0, 8399.0, 8441.0, 25888.0, 6268.0, 6186.0, 6340.0, 6330.0, 6275.0, 6231.0, 6330.0, 6193.0, 6213.0, 6299.0, 6376.0, 6246.0, 6336.0, 6241.0, 6228.0, 6285.0, 6166.0, 6361.0, 6423.0, 6180.0, 6356.0, 6338.0, 6295.0, 6202.0, 6206.0, 6174.0, 6167.0, 6203.0, 6234.0, 6258.0, 6180.0, 6315.0, 25549.0, 6295.0, 6219.0, 6196.0, 6163.0, 6266.0, 6201.0, 6184.0, 6288.0, 6240.0, 6261.0, 6303.0, 6196.0, 6221.0, 6262.0, 6315.0, 6301.0, 6352.0, 6201.0, 6190.0, 6294.0, 6202.0, 6311.0, 6331.0, 6084.0, 6367.0, 6134.0, 6236.0, 6300.0, 25779.0]
    },
    "slices": {}
  }
}