{
  "AcquisitionMatrixPE": 82,
  "AcquisitionNumber": 1,
  "AcquisitionTime": "13:45:6.290000",
  "BandwidthPerPixelPhaseEncode": 24.888,
  "BaseResolution": 82,
  "BodyPartExamined": "BRAIN",
  "ConsistencyInfo": "N4_VE11C_LATEST_20160120",
  "ConversionSoftware": "dcm2niix",
  "ConversionSoftwareVersion": "v1.0.20201102",
  "DerivedVendorReportedEchoSpacing": 0.00049,
  "DeviceSerialNumber": "66112",
  "DwellTime": 2e-06,
  "EchoTime": 0.0272,
  "EchoTrainLength": 82,
  "EffectiveEchoSpacing": 0.00049,
  "FlipAngle": 44,
  "ImageComments": "Unaliased MB8/PE3",
  "ImageOrientationPatientDICOM": [0.997108, -0.0670798, -0.0357256, 0.0580168, 0.975474, -0.21233],
  "ImageType": [
    "ORIGINAL",
    "PRIMARY",
    "M",
    "MB",
    "ND",
    "NORM",
    "MOSAIC"
],
  "ImagingFrequency": 123.252,
  "InPlanePhaseEncodingDirectionDICOM": "COL",
  "InstitutionAddress": "Maynard 3,Hanover,NH,US,03755",
  "InstitutionName": "dartmouth_brain_imaging_center",
  "InstitutionalDepartmentName": "Department",
  "MRAcquisitionType": "2D",
  "MagneticFieldStrength": 3,
  "Manufacturer": "Siemens",
  "ManufacturersModelName": "Prisma",
  "Modality": "MR",
  "MultibandAccelerationFactor": 8,
  "PartialFourier": 1,
  "PatientPosition": "HFS",
  "PercentPhaseFOV": 100,
  "PercentSampling": 100,
  "PhaseEncodingDirection": "j-",
  "PhaseEncodingSteps": 82,
  "PhaseResolution": 1,
  "PixelBandwidth": 3050,
  "ProcedureStepDescription": "Wager_Wager^1076_spacetop",
  "ProtocolName": "func_run-03_task-alignvideo_acq-ap-mb8",
  "PulseSequenceDetails": "%CustomerSeq%\\cmrr_mbep2d_bold",
  "ReceiveCoilActiveElements": "HEA;HEP",
  "ReceiveCoilName": "Head_32",
  "ReconMatrixPE": 82,
  "RepetitionTime": 0.46,
  "SAR": 0.0981682,
  "ScanOptions": "FS",
  "ScanningSequence": "EP",
  "SequenceName": "epfid2d1_82",
  "SequenceVariant": "SK\\SS",
  "SeriesDescription": "func_run-03_task-alignvideo_acq-ap-mb8",
  "SeriesNumber": 38,
  "ShimSetting": [4169, -7717, -7245, 539, 30, -203, -23, 90],
  "SliceThickness": 2.7,
  "SliceTiming": [0, 0.2525, 0.065, 0.315, 0.1275, 0.3775, 0.19, 0, 0.2525, 0.065, 0.315, 0.1275, 0.3775, 0.19, 0, 0.2525, 0.065, 0.315, 0.1275, 0.3775, 0.19, 0, 0.2525, 0.065, 0.315, 0.1275, 0.3775, 0.19, 0, 0.2525, 0.065, 0.315, 0.1275, 0.3775, 0.19, 0, 0.2525, 0.065, 0.315, 0.1275, 0.3775, 0.19, 0, 0.2525, 0.065, 0.315, 0.1275, 0.3775, 0.19, 0, 0.2525, 0.065, 0.315, 0.1275, 0.3775, 0.19],
  "SoftwareVersions": "syngo MR E11",
  "SpacingBetweenSlices": 2.7,
  "StationName": "AWP66112",
  "TaskName": "alignvideo",
  "TotalReadoutTime": 0.03969,
  "TxRefAmp": 260.928,
  "WipMemBlock": "85555602-a222-41a8-95a3-65f4e5ad81dc||Sequence: R016 ve11c/master r/e634e98; Dec 19 2017 11:00:25 by eja",
  "dcmmeta_affine": [
    [-2.6751673221588135, 0.15565472841262817, -0.13254956901073456, 104.95314025878906],
    [0.1799701303243637, 2.617125988006592, -0.5660377740859985, -66.57283782958984],
    [-0.09584905952215195, 0.5696669816970825, 2.6366705894470215, -95.46153259277344],
    [0.0, 0.0, 0.0, 1.0]
],
  "dcmmeta_reorient_transform": [
    [0.0, -1.0, 0.0, 81.0],
    [1.0, 0.0, 0.0, 0.0],
    [0.0, 0.0, 1.0, 0.0],
    [0.0, 0.0, 0.0, 1.0]
],
  "dcmmeta_shape": [82, 82, 56, 1016],
  "dcmmeta_slice_dim": 2,
  "dcmmeta_version": 0.6,
  "global": {
    "const": {
      "AccessionNumber": "A003498",
      "AcquisitionMatrix": [82, 0, 0, 82],
      "AngioFlag": "N",
      "BitsAllocated": 16,
      "BitsStored": 16,
      "BodyPartExamined": "BRAIN",
      "Columns": 656,
      "EchoNumbers": 1,
      "EchoTime": 27.2,
      "EchoTrainLength": 82,
      "FlipAngle": 44.0,
      "HighBit": 15,
      "ImageOrientationPatient": [0.9971078116911, -0.0670797766536, -0.0357255570803, 0.05801676275961, 0.97547416886839, -0.2123304055227],
      "ImagePositionPatient": [-930.0071117148, -844.87805863418, 141.68458463146],
      "ImageType": [
        "ORIGINAL",
        "PRIMARY",
        "M",
        "MB",
        "ND",
        "NORM",
        "MOSAIC"
],
      "ImagedNucleus": "1H",
      "ImagingFrequency": 123.252181,
      "InPlanePhaseEncodingDirection": "COL",
      "MRAcquisitionType": "2D",
      "MagneticFieldStrength": 3.0,
      "Manufacturer": "SIEMENS",
      "ManufacturerModelName": "Prisma",
      "Modality": "MR",
      "NumberOfAverages": 1.0,
      "NumberOfPhaseEncodingSteps": 82,
      "PercentPhaseFieldOfView": 100.0,
      "PercentSampling": 100.0,
      "PerformedProcedureStepStartTime": "121214.183000",
      "PhotometricInterpretation": "MONOCHROME2",
      "PixelBandwidth": 3050.0,
      "PixelRepresentation": 0,
      "PixelSpacing": [2.6829268932343, 2.6829268932343],
      "ProtocolName": "func_run-03_task-alignvideo_acq-ap-mb8",
      "RepetitionTime": 460.0,
      "Rows": 656,
      "SAR": 0.09816816758492,
      "SamplesPerPixel": 1,
      "ScanOptions": "FS",
      "ScanningSequence": "EP",
      "SequenceName": "epfid2d1_82",
      "SequenceVariant": [
        "SK",
        "SS"
],
      "SeriesDescription": "func_run-03_task-alignvideo_acq-ap-mb8",
      "SeriesNumber": 38,
      "SeriesTime": "134523.031000",
      "SliceLocation": -84.41828648134,
      "SliceThickness": 2.7000000476837,
      "SmallestImagePixelValue": 0,
      "SoftwareVersions": "syngo MR E11",
      "SpacingBetweenSlices": 2.7000000175062,
      "SpecificCharacterSet": "ISO_IR 100",
      "StudyID": "1",
      "StudyTime": "121214.003000",
      "TransmitCoilName": "Body",
      "VariableFlipAngleFlag": "N",
      "WindowCenterWidthExplanation": "Algo1",
      "dBdt": 0.0},
    "slices": {}
  },
  "time": {
    "samples": {
      "AcquisitionNumber": [1, 2, 3, 4, 5, 6, 7, 8, 9, 10, 11, 12, 13, 14, 15, 16, 17, 18, 19, 20, 21, 22, 23, 24, 25, 26, 27, 28, 29, 30, 31, 32, 33, 34, 35, 36, 37, 38, 39, 40, 41, 42, 43, 44, 45, 46, 47, 48, 49, 50, 51, 52, 53, 54, 55, 56, 57, 58, 59, 60, 61, 62, 63, 64, 65, 66, 67, 68, 69, 70, 71, 72, 73, 74, 75, 76, 77, 78, 79, 80, 81, 82, 83, 84, 85, 86, 87, 88, 89, 90, 91, 92, 93, 94, 95, 96, 97, 98, 99, 100, 101, 102, 103, 104, 105, 106, 107, 108, 109, 110, 111, 112, 113, 114, 115, 116, 117, 118, 119, 120, 121, 122, 123, 124, 125, 126, 127, 128, 129, 130, 131, 132, 133, 134, 135, 136, 137, 138, 139, 140, 141, 142, 143, 144, 145, 146, 147, 148, 149, 150, 151, 152, 153, 154, 155, 156, 157, 158, 159, 160, 161, 162, 163, 164, 165, 166, 167, 168, 169, 170, 171, 172, 173, 174, 175, 176, 177, 178, 179, 180, 181, 182, 183, 184, 185, 186, 187, 188, 189, 190, 191, 192, 193, 194, 195, 196, 197, 198, 199, 200, 201, 202, 203, 204, 205, 206, 207, 208, 209, 210, 211, 212, 213, 214, 215, 216, 217, 218, 219, 220, 221, 222, 223, 224, 225, 226, 227, 228, 229, 230, 231, 232, 233, 234, 235, 236, 237, 238, 239, 240, 241, 242, 243, 244, 245, 246, 247, 248, 249, 250, 251, 252, 253, 254, 255, 256, 257, 258, 259, 260, 261, 262, 263, 264, 265, 266, 267, 268, 269, 270, 271, 272, 273, 274, 275, 276, 277, 278, 279, 280, 281, 282, 283, 284, 285, 286, 287, 288, 289, 290, 291, 292, 293, 294, 295, 296, 297, 298, 299, 300, 301, 302, 303, 304, 305, 306, 307, 308, 309, 310, 311, 312, 313, 314, 315, 316, 317, 318, 319, 320, 321, 322, 323, 324, 325, 326, 327, 328, 329, 330, 331, 332, 333, 334, 335, 336, 337, 338, 339, 340, 341, 342, 343, 344, 345, 346, 347, 348, 349, 350, 351, 352, 353, 354, 355, 356, 357, 358, 359, 360, 361, 362, 363, 364, 365, 366, 367, 368, 369, 370, 371, 372, 373, 374, 375, 376, 377, 378, 379, 380, 381, 382, 383, 384, 385, 386, 387, 388, 389, 390, 391, 392, 393, 394, 395, 396, 397, 398, 399, 400, 401, 402, 403, 404, 405, 406, 407, 408, 409, 410, 411, 412, 413, 414, 415, 416, 417, 418, 419, 420, 421, 422, 423, 424, 425, 426, 427, 428, 429, 430, 431, 432, 433, 434, 435, 436, 437, 438, 439, 440, 441, 442, 443, 444, 445, 446, 447, 448, 449, 450, 451, 452, 453, 454, 455, 456, 457, 458, 459, 460, 461, 462, 463, 464, 465, 466, 467, 468, 469, 470, 471, 472, 473, 474, 475, 476, 477, 478, 479, 480, 481, 482, 483, 484, 485, 486, 487, 488, 489, 490, 491, 492, 493, 494, 495, 496, 497, 498, 499, 500, 501, 502, 503, 504, 505, 506, 507, 508, 509, 510, 511, 512, 513, 514, 515, 516, 517, 518, 519, 520, 521, 522, 523, 524, 525, 526, 527, 528, 529, 530, 531, 532, 533, 534, 535, 536, 537, 538, 539, 540, 541, 542, 543, 544, 545, 546, 547, 548, 549, 550, 551, 552, 553, 554, 555, 556, 557, 558, 559, 560, 561, 562, 563, 564, 565, 566, 567, 568, 569, 570, 571, 572, 573, 574, 575, 576, 577, 578, 579, 580, 581, 582, 583, 584, 585, 586, 587, 588, 589, 590, 591, 592, 593, 594, 595, 596, 597, 598, 599, 600, 601, 602, 603, 604, 605, 606, 607, 608, 609, 610, 611, 612, 613, 614, 615, 616, 617, 618, 619, 620, 621, 622, 623, 624, 625, 626, 627, 628, 629, 630, 631, 632, 633, 634, 635, 636, 637, 638, 639, 640, 641, 642, 643, 644, 645, 646, 647, 648, 649, 650, 651, 652, 653, 654, 655, 656, 657, 658, 659, 660, 661, 662, 663, 664, 665, 666, 667, 668, 669, 670, 671, 672, 673, 674, 675, 676, 677, 678, 679, 680, 681, 682, 683, 684, 685, 686, 687, 688, 689, 690, 691, 692, 693, 694, 695, 696, 697, 698, 699, 700, 701, 702, 703, 704, 705, 706, 707, 708, 709, 710, 711, 712, 713, 714, 715, 716, 717, 718, 719, 720, 721, 722, 723, 724, 725, 726, 727, 728, 729, 730, 731, 732, 733, 734, 735, 736, 737, 738, 739, 740, 741, 742, 743, 744, 745, 746, 747, 748, 749, 750, 751, 752, 753, 754, 755, 756, 757, 758, 759, 760, 761, 762, 763, 764, 765, 766, 767, 768, 769, 770, 771, 772, 773, 774, 775, 776, 777, 778, 779, 780, 781, 782, 783, 784, 785, 786, 787, 788, 789, 790, 791, 792, 793, 794, 795, 796, 797, 798, 799, 800, 801, 802, 803, 804, 805, 806, 807, 808, 809, 810, 811, 812, 813, 814, 815, 816, 817, 818, 819, 820, 821, 822, 823, 824, 825, 826, 827, 828, 829, 830, 831, 832, 833, 834, 835, 836, 837, 838, 839, 840, 841, 842, 843, 844, 845, 846, 847, 848, 849, 850, 851, 852, 853, 854, 855, 856, 857, 858, 859, 860, 861, 862, 863, 864, 865, 866, 867, 868, 869, 870, 871, 872, 873, 874, 875, 876, 877, 878, 879, 880, 881, 882, 883, 884, 885, 886, 887, 888, 889, 890, 891, 892, 893, 894, 895, 896, 897, 898, 899, 900, 901, 902, 903, 904, 905, 906, 907, 908, 909, 910, 911, 912, 913, 914, 915, 916, 917, 918, 919, 920, 921, 922, 923, 924, 925, 926, 927, 928, 929, 930, 931, 932, 933, 934, 935, 936, 937, 938, 939, 940, 941, 942, 943, 944, 945, 946, 947, 948, 949, 950, 951, 952, 953, 954, 955, 956, 957, 958, 959, 960, 961, 962, 963, 964, 965, 966, 967, 968, 969, 970, 971, 972, 973, 974, 975, 976, 977, 978, 979, 980, 981, 982, 983, 984, 985, 986, 987, 988, 989, 990, 991, 992, 993, 994, 995, 996, 997, 998, 999, 1000, 1001, 1002, 1003, 1004, 1005, 1006, 1007, 1008, 1009, 1010, 1011, 1012, 1013, 1014, 1015, 1016],
      "AcquisitionTime": ["134506.290000", "134506.750000", "134507.210000", "134507.670000", "134508.130000", "134508.590000", "134509.050000", "134509.510000", "134509.970000", "134510.430000", "134510.890000", "134511.350000", "134511.810000", "134512.270000", "134512.730000", "134513.190000", "134513.650000", "134514.110000", "134514.570000", "134515.030000", "134515.490000", "134515.950000", "134516.410000", "134516.870000", "134517.330000", "134517.790000", "134518.250000", "134518.710000", "134519.170000", "134519.630000", "134520.090000", "134520.550000", "134521.010000", "134521.470000", "134521.930000", "134522.390000", "134522.850000", "134523.310000", "134523.770000", "134524.230000", "134524.690000", "134525.150000", "134525.610000", "134526.070000", "134526.530000", "134526.990000", "134527.450000", "134527.910000", "134528.370000", "134528.830000", "134529.290000", "134529.750000", "134530.210000", "134530.670000", "134531.130000", "134531.590000", "134532.050000", "134532.510000", "134532.970000", "134533.430000", "134533.890000", "134534.350000", "134534.810000", "134535.270000", "134535.730000", "134536.190000", "134536.650000", "134537.110000", "134537.570000", "134538.030000", "134538.490000", "134538.950000", "134539.410000", "134539.870000", "134540.330000", "134540.790000", "134541.250000", "134541.710000", "134542.170000", "134542.630000", "134543.090000", "134543.550000", "134544.010000", "134544.470000", "134544.930000", "134545.390000", "134545.850000", "134546.310000", "134546.770000", "134547.230000", "134547.690000", "134548.150000", "134548.610000", "134549.070000", "134549.530000", "134549.990000", "134550.450000", "134550.910000", "134551.370000", "134551.830000", "134552.290000", "134552.750000", "134553.210000", "134553.670000", "134554.130000", "134554.590000", "134555.050000", "134555.510000", "134555.970000", "134556.430000", "134556.890000", "134557.350000", "134557.810000", "134558.270000", "134558.730000", "134559.190000", "134559.650000", "134600.110000", "134600.570000", "134601.030000", "134601.490000", "134601.950000", "134602.410000", "134602.870000", "134603.330000", "134603.790000", "134604.250000", "134604.710000", "134605.170000", "134605.630000", "134606.090000", "134606.550000", "134607.010000", "134607.470000", "134607.930000", "134608.390000", "134608.850000", "134609.310000", "134609.770000", "134610.230000", "134610.690000", "134611.150000", "134611.610000", "134612.070000", "134612.530000", "134612.990000", "134613.450000", "134613.910000", "134614.370000", "134614.830000", "134615.290000", "134615.750000", "134616.210000", "134616.670000", "134617.130000", "134617.590000", "134618.050000", "134618.510000", "134618.970000", "134619.430000", "134619.890000", "134620.350000", "134620.810000", "134621.270000", "134621.730000", "134622.190000", "134622.650000", "134623.110000", "134623.570000", "134624.030000", "134624.490000", "134624.950000", "134625.410000", "134625.870000", "134626.330000", "134626.790000", "134627.250000", "134627.710000", "134628.170000", "134628.630000", "134629.090000", "134629.550000", "134630.010000", "134630.470000", "134630.930000", "134631.390000", "134631.850000", "134632.310000", "134632.770000", "134633.230000", "134633.690000", "134634.150000", "134634.610000", "134635.070000", "134635.530000", "134635.990000", "134636.450000", "134636.910000", "134637.370000", "134637.830000", "134638.290000", "134638.750000", "134639.210000", "134639.670000", "134640.130000", "134640.590000", "134641.050000", "134641.510000", "134641.970000", "134642.430000", "134642.890000", "134643.350000", "134643.810000", "134644.270000", "134644.730000", "134645.190000", "134645.650000", "134646.110000", "134646.570000", "134647.030000", "134647.490000", "134647.950000", "134648.410000", "134648.870000", "134649.330000", "134649.790000", "134650.250000", "134650.710000", "134651.170000", "134651.630000", "134652.090000", "134652.550000", "134653.010000", "134653.470000", "134653.930000", "134654.390000", "134654.850000", "134655.310000", "134655.770000", "134656.230000", "134656.690000", "134657.150000", "134657.610000", "134658.070000", "134658.530000", "134658.990000", "134659.450000", "134659.910000", "134700.370000", "134700.830000", "134701.290000", "134701.750000", "134702.210000", "134702.670000", "134703.130000", "134703.590000", "134704.050000", "134704.510000", "134704.970000", "134705.430000", "134705.890000", "134706.350000", "134706.810000", "134707.270000", "134707.730000", "134708.190000", "134708.650000", "134709.110000", "134709.570000", "134710.030000", "134710.490000", "134710.950000", "134711.410000", "134711.870000", "134712.330000", "134712.790000", "134713.250000", "134713.710000", "134714.170000", "134714.630000", "134715.090000", "134715.550000", "134716.010000", "134716.470000", "134716.930000", "134717.390000", "134717.850000", "134718.310000", "134718.770000", "134719.230000", "134719.690000", "134720.150000", "134720.610000", "134721.070000", "134721.530000", "134721.990000", "134722.450000", "134722.910000", "134723.370000", "134723.830000", "134724.290000", "134724.750000", "134725.210000", "134725.670000", "134726.130000", "134726.590000", "134727.050000", "134727.510000", "134727.970000", "134728.430000", "134728.890000", "134729.350000", "134729.810000", "134730.270000", "134730.730000", "134731.190000", "134731.650000", "134732.110000", "134732.570000", "134733.030000", "134733.490000", "134733.950000", "134734.410000", "134734.870000", "134735.330000", "134735.790000", "134736.250000", "134736.710000", "134737.170000", "134737.630000", "134738.090000", "134738.550000", "134739.010000", "134739.470000", "134739.930000", "134740.390000", "134740.850000", "134741.310000", "134741.770000", "134742.230000", "134742.690000", "134743.150000", "134743.610000", "134744.070000", "134744.530000", "134744.990000", "134745.450000", "134745.910000", "134746.370000", "134746.830000", "134747.290000", "134747.750000", "134748.210000", "134748.670000", "134749.130000", "134749.590000", "134750.050000", "134750.510000", "134750.970000", "134751.430000", "134751.890000", "134752.350000", "134752.810000", "134753.270000", "134753.730000", "134754.190000", "134754.650000", "134755.110000", "134755.570000", "134756.030000", "134756.490000", "134756.950000", "134757.410000", "134757.870000", "134758.330000", "134758.790000", "134759.250000", "134759.710000", "134800.170000", "134800.630000", "134801.090000", "134801.550000", "134802.010000", "134802.470000", "134802.930000", "134803.390000", "134803.850000", "134804.310000", "134804.770000", "134805.230000", "134805.690000", "134806.150000", "134806.610000", "134807.070000", "134807.530000", "134807.990000", "134808.450000", "134808.910000", "134809.370000", "134809.830000", "134810.290000", "134810.750000", "134811.210000", "134811.670000", "134812.130000", "134812.590000", "134813.050000", "134813.510000", "134813.970000", "134814.430000", "134814.890000", "134815.350000", "134815.810000", "134816.270000", "134816.730000", "134817.190000", "134817.650000", "134818.110000", "134818.570000", "134819.030000", "134819.490000", "134819.950000", "134820.410000", "134820.870000", "134821.330000", "134821.790000", "134822.250000", "134822.710000", "134823.170000", "134823.630000", "134824.090000", "134824.550000", "134825.010000", "134825.470000", "134825.930000", "134826.390000", "134826.850000", "134827.310000", "134827.770000", "134828.230000", "134828.690000", "134829.150000", "134829.610000", "134830.070000", "134830.530000", "134830.990000", "134831.450000", "134831.910000", "134832.370000", "134832.830000", "134833.290000", "134833.750000", "134834.210000", "134834.670000", "134835.130000", "134835.590000", "134836.050000", "134836.510000", "134836.970000", "134837.430000", "134837.890000", "134838.350000", "134838.810000", "134839.270000", "134839.730000", "134840.190000", "134840.650000", "134841.110000", "134841.570000", "134842.030000", "134842.490000", "134842.950000", "134843.410000", "134843.870000", "134844.330000", "134844.790000", "134845.250000", "134845.710000", "134846.170000", "134846.630000", "134847.090000", "134847.550000", "134848.010000", "134848.470000", "134848.930000", "134849.390000", "134849.850000", "134850.310000", "134850.770000", "134851.230000", "134851.690000", "134852.150000", "134852.610000", "134853.070000", "134853.530000", "134853.990000", "134854.450000", "134854.910000", "134855.370000", "134855.830000", "134856.290000", "134856.750000", "134857.210000", "134857.670000", "134858.130000", "134858.590000", "134859.050000", "134859.510000", "134859.970000", "134900.430000", "134900.890000", "134901.350000", "134901.810000", "134902.270000", "134902.730000", "134903.190000", "134903.650000", "134904.110000", "134904.570000", "134905.030000", "134905.490000", "134905.950000", "134906.410000", "134906.870000", "134907.330000", "134907.790000", "134908.250000", "134908.710000", "134909.170000", "134909.630000", "134910.090000", "134910.550000", "134911.010000", "134911.470000", "134911.930000", "134912.390000", "134912.850000", "134913.310000", "134913.770000", "134914.230000", "134914.690000", "134915.150000", "134915.610000", "134916.070000", "134916.530000", "134916.990000", "134917.450000", "134917.910000", "134918.370000", "134918.830000", "134919.290000", "134919.750000", "134920.210000", "134920.670000", "134921.130000", "134921.590000", "134922.050000", "134922.510000", "134922.970000", "134923.430000", "134923.890000", "134924.350000", "134924.810000", "134925.270000", "134925.730000", "134926.190000", "134926.650000", "134927.110000", "134927.570000", "134928.030000", "134928.490000", "134928.950000", "134929.410000", "134929.870000", "134930.330000", "134930.790000", "134931.250000", "134931.710000", "134932.170000", "134932.630000", "134933.090000", "134933.550000", "134934.010000", "134934.470000", "134934.930000", "134935.390000", "134935.850000", "134936.310000", "134936.770000", "134937.230000", "134937.690000", "134938.150000", "134938.610000", "134939.070000", "134939.530000", "134939.990000", "134940.450000", "134940.910000", "134941.370000", "134941.830000", "134942.290000", "134942.750000", "134943.210000", "134943.670000", "134944.130000", "134944.590000", "134945.050000", "134945.510000", "134945.970000", "134946.430000", "134946.890000", "134947.350000", "134947.810000", "134948.270000", "134948.730000", "134949.190000", "134949.650000", "134950.110000", "134950.570000", "134951.030000", "134951.490000", "134951.950000", "134952.410000", "134952.870000", "134953.330000", "134953.790000", "134954.250000", "134954.710000", "134955.170000", "134955.630000", "134956.090000", "134956.550000", "134957.010000", "134957.470000", "134957.930000", "134958.390000", "134958.850000", "134959.310000", "134959.770000", "135000.230000", "135000.690000", "135001.150000", "135001.610000", "135002.070000", "135002.530000", "135002.990000", "135003.450000", "135003.910000", "135004.370000", "135004.830000", "135005.290000", "135005.750000", "135006.210000", "135006.670000", "135007.130000", "135007.590000", "135008.050000", "135008.510000", "135008.970000", "135009.430000", "135009.890000", "135010.350000", "135010.810000", "135011.270000", "135011.730000", "135012.190000", "135012.650000", "135013.110000", "135013.570000", "135014.030000", "135014.490000", "135014.950000", "135015.410000", "135015.870000", "135016.330000", "135016.790000", "135017.250000", "135017.710000", "135018.170000", "135018.630000", "135019.090000", "135019.550000", "135020.010000", "135020.470000", "135020.930000", "135021.390000", "135021.850000", "135022.310000", "135022.770000", "135023.230000", "135023.690000", "135024.150000", "135024.610000", "135025.070000", "135025.530000", "135025.990000", "135026.450000", "135026.910000", "135027.370000", "135027.830000", "135028.290000", "135028.750000", "135029.210000", "135029.670000", "135030.130000", "135030.590000", "135031.050000", "135031.510000", "135031.970000", "135032.430000", "135032.890000", "135033.350000", "135033.810000", "135034.270000", "135034.730000", "135035.190000", "135035.650000", "135036.110000", "135036.570000", "135037.030000", "135037.490000", "135037.950000", "135038.410000", "135038.870000", "135039.330000", "135039.790000", "135040.250000", "135040.710000", "135041.170000", "135041.630000", "135042.090000", "135042.550000", "135043.010000", "135043.470000", "135043.930000", "135044.390000", "135044.850000", "135045.310000", "135045.770000", "135046.230000", "135046.690000", "135047.150000", "135047.610000", "135048.070000", "135048.530000", "135048.990000", "135049.450000", "135049.910000", "135050.370000", "135050.830000", "135051.290000", "135051.750000", "135052.210000", "135052.670000", "135053.130000", "135053.590000", "135054.050000", "135054.510000", "135054.970000", "135055.430000", "135055.890000", "135056.350000", "135056.810000", "135057.270000", "135057.730000", "135058.190000", "135058.650000", "135059.110000", "135059.570000", "135100.030000", "135100.490000", "135100.950000", "135101.410000", "135101.870000", "135102.330000", "135102.790000", "135103.250000", "135103.710000", "135104.170000", "135104.630000", "135105.090000", "135105.550000", "135106.010000", "135106.470000", "135106.930000", "135107.390000", "135107.850000", "135108.310000", "135108.770000", "135109.230000", "135109.690000", "135110.150000", "135110.610000", "135111.070000", "135111.530000", "135111.990000", "135112.450000", "135112.910000", "135113.370000", "135113.830000", "135114.290000", "135114.750000", "135115.210000", "135115.670000", "135116.130000", "135116.590000", "135117.050000", "135117.510000", "135117.970000", "135118.430000", "135118.890000", "135119.350000", "135119.810000", "135120.270000", "135120.730000", "135121.190000", "135121.650000", "135122.110000", "135122.570000", "135123.030000", "135123.490000", "135123.950000", "135124.410000", "135124.870000", "135125.330000", "135125.790000", "135126.250000", "135126.710000", "135127.170000", "135127.630000", "135128.090000", "135128.550000", "135129.010000", "135129.470000", "135129.930000", "135130.390000", "135130.850000", "135131.310000", "135131.770000", "135132.230000", "135132.690000", "135133.150000", "135133.610000", "135134.070000", "135134.530000", "135134.990000", "135135.450000", "135135.910000", "135136.370000", "135136.830000", "135137.290000", "135137.750000", "135138.210000", "135138.670000", "135139.130000", "135139.590000", "135140.050000", "135140.510000", "135140.970000", "135141.430000", "135141.890000", "135142.350000", "135142.810000", "135143.270000", "135143.730000", "135144.190000", "135144.650000", "135145.110000", "135145.570000", "135146.030000", "135146.490000", "135146.950000", "135147.410000", "135147.870000", "135148.330000", "135148.790000", "135149.250000", "135149.710000", "135150.170000", "135150.630000", "135151.090000", "135151.550000", "135152.010000", "135152.470000", "135152.930000", "135153.390000", "135153.850000", "135154.310000", "135154.770000", "135155.230000", "135155.690000", "135156.150000", "135156.610000", "135157.070000", "135157.530000", "135157.990000", "135158.450000", "135158.910000", "135159.370000", "135159.830000", "135200.290000", "135200.750000", "135201.210000", "135201.670000", "135202.130000", "135202.590000", "135203.050000", "135203.510000", "135203.970000", "135204.430000", "135204.890000", "135205.350000", "135205.810000", "135206.270000", "135206.730000", "135207.190000", "135207.650000", "135208.110000", "135208.570000", "135209.030000", "135209.490000", "135209.950000", "135210.410000", "135210.870000", "135211.330000", "135211.790000", "135212.250000", "135212.710000", "135213.170000", "135213.630000", "135214.090000", "135214.550000", "135215.010000", "135215.470000", "135215.930000", "135216.390000", "135216.850000", "135217.310000", "135217.770000", "135218.230000", "135218.690000", "135219.150000", "135219.610000", "135220.070000", "135220.530000", "135220.990000", "135221.450000", "135221.910000", "135222.370000", "135222.830000", "135223.290000", "135223.750000", "135224.210000", "135224.670000", "135225.130000", "135225.590000", "135226.050000", "135226.510000", "135226.970000", "135227.430000", "135227.890000", "135228.350000", "135228.810000", "135229.270000", "135229.730000", "135230.190000", "135230.650000", "135231.110000", "135231.570000", "135232.030000", "135232.490000", "135232.950000", "135233.410000", "135233.870000", "135234.330000", "135234.790000", "135235.250000", "135235.710000", "135236.170000", "135236.630000", "135237.090000", "135237.550000", "135238.010000", "135238.470000", "135238.930000", "135239.390000", "135239.850000", "135240.310000", "135240.770000", "135241.230000", "135241.690000", "135242.150000", "135242.610000", "135243.070000", "135243.530000", "135243.990000", "135244.450000", "135244.910000", "135245.370000", "135245.830000", "135246.290000", "135246.750000", "135247.210000", "135247.670000", "135248.130000", "135248.590000", "135249.050000", "135249.510000", "135249.970000", "135250.430000", "135250.890000", "135251.350000", "135251.810000", "135252.270000", "135252.730000", "135253.190000"],
