{
  "AcquisitionMatrixPE": 82,
  "AcquisitionNumber": 1,
  "AcquisitionTime": "19:14:31.950000",
  "BandwidthPerPixelPhaseEncode": 24.888,
  "BaseResolution": 82,
  "BodyPartExamined": "BRAIN",
  "ConsistencyInfo": "N4_VE11E_LATEST_20181129",
  "ConversionSoftware": "dcm2niix",
  "ConversionSoftwareVersion": "v1.0.20201102",
  "DerivedVendorReportedEchoSpacing": 0.00049,
  "DeviceSerialNumber": "66112",
  "DwellTime": 2e-06,
  "EchoTime": 0.0272,
  "EchoTrainLength": 82,
  "EffectiveEchoSpacing": 0.00049,
  "FlipAngle": 44,
  "ImageComments": "Unaliased MB8/PE3",
  "ImageOrientationPatientDICOM": [0.999197, 0.0398528, 0.0040751, -0.0397825, 0.999079, -0.0160753],
  "ImageType": [
    "ORIGINAL",
    "PRIMARY",
    "M",
    "MB",
    "ND",
    "NORM",
    "MOSAIC"
],
  "ImagingFrequency": 123.252,
  "InPlanePhaseEncodingDirectionDICOM": "COL",
  "InstitutionAddress": "Maynard 3,Hanover,NH,US,03755",
  "InstitutionName": "Dartmouth College - PBS",
  "InstitutionalDepartmentName": "Department",
  "MRAcquisitionType": "2D",
  "MagneticFieldStrength": 3,
  "Manufacturer": "Siemens",
  "ManufacturersModelName": "Prisma",
  "Modality": "MR",
  "MultibandAccelerationFactor": 8,
  "PartialFourier": 1,
  "PatientPosition": "HFS",
  "PercentPhaseFOV": 100,
  "PercentSampling": 100,
  "PhaseEncodingDirection": "j-",
  "PhaseEncodingSteps": 82,
  "PhaseResolution": 1,
  "PixelBandwidth": 3050,
  "ProcedureStepDescription": "Wager_Wager^1076_spacetop",
  "ProtocolName": "func_run-02_task-social_acq-ap-mb8",
  "PulseSequenceDetails": "%CustomerSeq%\\cmrr_mbep2d_bold",
  "ReceiveCoilActiveElements": "HEA;HEP",
  "ReceiveCoilName": "Head_32",
  "ReconMatrixPE": 82,
  "RepetitionTime": 0.46,
  "SAR": 0.0857187,
  "ScanOptions": "FS",
  "ScanningSequence": "EP",
  "SequenceName": "epfid2d1_82",
  "SequenceVariant": "SK\\SS",
  "SeriesDescription": "func_run-02_task-social_acq-ap-mb8",
  "SeriesNumber": 14,
  "ShimSetting": [4153, -7784, -7238, 719, -31, -403, 336, 61],
  "SliceThickness": 2.7,
  "SliceTiming": [0, 0.2525, 0.065, 0.315, 0.1275, 0.3775, 0.19, 0, 0.2525, 0.065, 0.315, 0.1275, 0.3775, 0.19, 0, 0.2525, 0.065, 0.315, 0.1275, 0.3775, 0.19, 0, 0.2525, 0.065, 0.315, 0.1275, 0.3775, 0.19, 0, 0.2525, 0.065, 0.315, 0.1275, 0.3775, 0.19, 0, 0.2525, 0.065, 0.315, 0.1275, 0.3775, 0.19, 0, 0.2525, 0.065, 0.315, 0.1275, 0.3775, 0.19, 0, 0.2525, 0.065, 0.315, 0.1275, 0.3775, 0.19],
  "SoftwareVersions": "syngo MR E11",
  "SpacingBetweenSlices": 2.7,
  "StationName": "AWP66112",
  "TaskName": "social",
  "TotalReadoutTime": 0.03969,
  "TxRefAmp": 238.17,
  "WipMemBlock": "aa438125-e7fe-435e-859c-6e993712fed0||Sequence: R016 ve11e/master r/434b28f1; Aug  7 2019 18:53:46 by eja",
  "dcmmeta_affine": [
    [-2.6807732582092285, -0.10673356801271439, 0.012722376734018326, 116.92801666259766],
    [-0.10692211985588074, 2.6804559230804443, -0.042930860072374344, -85.19605255126953],
    [0.010933187790215015, 0.04312896355986595, 2.6996288299560547, -65.9483871459961],
    [0.0, 0.0, 0.0, 1.0]
],
  "dcmmeta_reorient_transform": [
    [0.0, -1.0, 0.0, 81.0],
    [1.0, 0.0, 0.0, 0.0],
    [0.0, 0.0, 1.0, 0.0],
    [0.0, 0.0, 0.0, 1.0]
],
  "dcmmeta_shape": [82, 82, 56, 872],
  "dcmmeta_slice_dim": 2,
  "dcmmeta_version": 0.6,
  "global": {
    "const": {
      "AccessionNumber": "A004000",
      "AcquisitionMatrix": [82, 0, 0, 82],
      "AngioFlag": "N",
      "BitsAllocated": 16,
      "BitsStored": 16,
      "BodyPartExamined": "BRAIN",
      "Columns": 656,
      "EchoNumbers": 1,
      "EchoTime": 27.2,
      "EchoTrainLength": 82,
      "FlipAngle": 44.0,
      "HighBit": 15,
      "ImageOrientationPatient": [0.99919725223672, 0.03985278791575, 0.00407509729159, -0.0397825119796, 0.99907904350983, -0.0160753401233],
      "ImagePositionPatient": [-847.03196244756, -931.89841541017, -53.214753249947],
      "ImageType": [
        "ORIGINAL",
        "PRIMARY",
        "M",
        "MB",
        "ND",
        "NORM",
        "MOSAIC"
],
      "ImagedNucleus": "1H",
      "ImagingFrequency": 123.252184,
      "InPlanePhaseEncodingDirection": "COL",
      "MRAcquisitionType": "2D",
      "MagneticFieldStrength": 3.0,
      "Manufacturer": "SIEMENS",
      "ManufacturerModelName": "Prisma",
      "Modality": "MR",
      "NumberOfAverages": 1.0,
      "NumberOfPhaseEncodingSteps": 82,
      "PercentPhaseFieldOfView": 100.0,
      "PercentSampling": 100.0,
      "PerformedProcedureStepStartTime": "182752.265000",
      "PhotometricInterpretation": "MONOCHROME2",
      "PixelBandwidth": 3050.0,
      "PixelRepresentation": 0,
      "PixelSpacing": [2.6829268932343, 2.6829268932343],
      "ProtocolName": "func_run-02_task-social_acq-ap-mb8",
      "RepetitionTime": 460.0,
      "Rows": 656,
      "SAR": 0.08571874145746,
      "SamplesPerPixel": 1,
      "ScanOptions": "FS",
      "ScanningSequence": "EP",
      "SequenceName": "epfid2d1_82",
      "SequenceVariant": [
        "SK",
        "SS"
],
      "SeriesDescription": "func_run-02_task-social_acq-ap-mb8",
      "SeriesNumber": 14,
      "SeriesTime": "191442.710000",
      "SliceLocation": -64.033708979987,
      "SliceThickness": 2.7000000476837,
      "SmallestImagePixelValue": 0,
      "SoftwareVersions": "syngo MR E11",
      "SpacingBetweenSlices": 2.7000000322715,
      "SpecificCharacterSet": "ISO_IR 100",
      "StudyID": "4",
      "StudyTime": "182752.116000",
      "TransmitCoilName": "Body",
      "VariableFlipAngleFlag": "N",
      "WindowCenterWidthExplanation": "Algo1"
    },
    "slices": {}
  },
  "time": {
    "samples": {
      "AcquisitionNumber": [1, 2, 3, 4, 5, 6, 7, 8, 9, 10, 11, 12, 13, 14, 15, 16, 17, 18, 19, 20, 21, 22, 23, 24, 25, 26, 27, 28, 29, 30, 31, 32, 33, 34, 35, 36, 37, 38, 39, 40, 41, 42, 43, 44, 45, 46, 47, 48, 49, 50, 51, 52, 53, 54, 55, 56, 57, 58, 59, 60, 61, 62, 63, 64, 65, 66, 67, 68, 69, 70, 71, 72, 73, 74, 75, 76, 77, 78, 79, 80, 81, 82, 83, 84, 85, 86, 87, 88, 89, 90, 91, 92, 93, 94, 95, 96, 97, 98, 99, 100, 101, 102, 103, 104, 105, 106, 107, 108, 109, 110, 111, 112, 113, 114, 115, 116, 117, 118, 119, 120, 121, 122, 123, 124, 125, 126, 127, 128, 129, 130, 131, 132, 133, 134, 135, 136, 137, 138, 139, 140, 141, 142, 143, 144, 145, 146, 147, 148, 149, 150, 151, 152, 153, 154, 155, 156, 157, 158, 159, 160, 161, 162, 163, 164, 165, 166, 167, 168, 169, 170, 171, 172, 173, 174, 175, 176, 177, 178, 179, 180, 181, 182, 183, 184, 185, 186, 187, 188, 189, 190, 191, 192, 193, 194, 195, 196, 197, 198, 199, 200, 201, 202, 203, 204, 205, 206, 207, 208, 209, 210, 211, 212, 213, 214, 215, 216, 217, 218, 219, 220, 221, 222, 223, 224, 225, 226, 227, 228, 229, 230, 231, 232, 233, 234, 235, 236, 237, 238, 239, 240, 241, 242, 243, 244, 245, 246, 247, 248, 249, 250, 251, 252, 253, 254, 255, 256, 257, 258, 259, 260, 261, 262, 263, 264, 265, 266, 267, 268, 269, 270, 271, 272, 273, 274, 275, 276, 277, 278, 279, 280, 281, 282, 283, 284, 285, 286, 287, 288, 289, 290, 291, 292, 293, 294, 295, 296, 297, 298, 299, 300, 301, 302, 303, 304, 305, 306, 307, 308, 309, 310, 311, 312, 313, 314, 315, 316, 317, 318, 319, 320, 321, 322, 323, 324, 325, 326, 327, 328, 329, 330, 331, 332, 333, 334, 335, 336, 337, 338, 339, 340, 341, 342, 343, 344, 345, 346, 347, 348, 349, 350, 351, 352, 353, 354, 355, 356, 357, 358, 359, 360, 361, 362, 363, 364, 365, 366, 367, 368, 369, 370, 371, 372, 373, 374, 375, 376, 377, 378, 379, 380, 381, 382, 383, 384, 385, 386, 387, 388, 389, 390, 391, 392, 393, 394, 395, 396, 397, 398, 399, 400, 401, 402, 403, 404, 405, 406, 407, 408, 409, 410, 411, 412, 413, 414, 415, 416, 417, 418, 419, 420, 421, 422, 423, 424, 425, 426, 427, 428, 429, 430, 431, 432, 433, 434, 435, 436, 437, 438, 439, 440, 441, 442, 443, 444, 445, 446, 447, 448, 449, 450, 451, 452, 453, 454, 455, 456, 457, 458, 459, 460, 461, 462, 463, 464, 465, 466, 467, 468, 469, 470, 471, 472, 473, 474, 475, 476, 477, 478, 479, 480, 481, 482, 483, 484, 485, 486, 487, 488, 489, 490, 491, 492, 493, 494, 495, 496, 497, 498, 499, 500, 501, 502, 503, 504, 505, 506, 507, 508, 509, 510, 511, 512, 513, 514, 515, 516, 517, 518, 519, 520, 521, 522, 523, 524, 525, 526, 527, 528, 529, 530, 531, 532, 533, 534, 535, 536, 537, 538, 539, 540, 541, 542, 543, 544, 545, 546, 547, 548, 549, 550, 551, 552, 553, 554, 555, 556, 557, 558, 559, 560, 561, 562, 563, 564, 565, 566, 567, 568, 569, 570, 571, 572, 573, 574, 575, 576, 577, 578, 579, 580, 581, 582, 583, 584, 585, 586, 587, 588, 589, 590, 591, 592, 593, 594, 595, 596, 597, 598, 599, 600, 601, 602, 603, 604, 605, 606, 607, 608, 609, 610, 611, 612, 613, 614, 615, 616, 617, 618, 619, 620, 621, 622, 623, 624, 625, 626, 627, 628, 629, 630, 631, 632, 633, 634, 635, 636, 637, 638, 639, 640, 641, 642, 643, 644, 645, 646, 647, 648, 649, 650, 651, 652, 653, 654, 655, 656, 657, 658, 659, 660, 661, 662, 663, 664, 665, 666, 667, 668, 669, 670, 671, 672, 673, 674, 675, 676, 677, 678, 679, 680, 681, 682, 683, 684, 685, 686, 687, 688, 689, 690, 691, 692, 693, 694, 695, 696, 697, 698, 699, 700, 701, 702, 703, 704, 705, 706, 707, 708, 709, 710, 711, 712, 713, 714, 715, 716, 717, 718, 719, 720, 721, 722, 723, 724, 725, 726, 727, 728, 729, 730, 731, 732, 733, 734, 735, 736, 737, 738, 739, 740, 741, 742, 743, 744, 745, 746, 747, 748, 749, 750, 751, 752, 753, 754, 755, 756, 757, 758, 759, 760, 761, 762, 763, 764, 765, 766, 767, 768, 769, 770, 771, 772, 773, 774, 775, 776, 777, 778, 779, 780, 781, 782, 783, 784, 785, 786, 787, 788, 789, 790, 791, 792, 793, 794, 795, 796, 797, 798, 799, 800, 801, 802, 803, 804, 805, 806, 807, 808, 809, 810, 811, 812, 813, 814, 815, 816, 817, 818, 819, 820, 821, 822, 823, 824, 825, 826, 827, 828, 829, 830, 831, 832, 833, 834, 835, 836, 837, 838, 839, 840, 841, 842, 843, 844, 845, 846, 847, 848, 849, 850, 851, 852, 853, 854, 855, 856, 857, 858, 859, 860, 861, 862, 863, 864, 865, 866, 867, 868, 869, 870, 871, 872],
      "AcquisitionTime": ["191431.950000", "191432.410000", "191432.870000", "191433.330000", "191433.790000", "191434.250000", "191434.710000", "191435.170000", "191435.630000", "191436.090000", "191436.550000", "191437.010000", "191437.470000", "191437.930000", "191438.390000", "191438.850000", "191439.310000", "191439.770000", "191440.230000", "191440.690000", "191441.150000", "191441.610000", "191442.070000", "191442.530000", "191442.990000", "191443.450000", "191443.910000", "191444.370000", "191444.830000", "191445.290000", "191445.750000", "191446.210000", "191446.670000", "191447.130000", "191447.590000", "191448.050000", "191448.510000", "191448.970000", "191449.430000", "191449.890000", "191450.350000", "191450.810000", "191451.270000", "191451.730000", "191452.190000", "191452.650000", "191453.110000", "191453.570000", "191454.030000", "191454.490000", "191454.950000", "191455.410000", "191455.870000", "191456.330000", "191456.790000", "191457.250000", "191457.710000", "191458.170000", "191458.630000", "191459.090000", "191459.550000", "191500.010000", "191500.470000", "191500.930000", "191501.390000", "191501.850000", "191502.310000", "191502.770000", "191503.230000", "191503.690000", "191504.150000", "191504.610000", "191505.070000", "191505.530000", "191505.990000", "191506.450000", "191506.910000", "191507.370000", "191507.830000", "191508.290000", "191508.750000", "191509.210000", "191509.670000", "191510.130000", "191510.590000", "191511.050000", "191511.510000", "191511.970000", "191512.430000", "191512.890000", "191513.350000", "191513.810000", "191514.270000", "191514.730000", "191515.190000", "191515.650000", "191516.110000", "191516.570000", "191517.030000", "191517.490000", "191517.950000", "191518.410000", "191518.870000", "191519.330000", "191519.790000", "191520.250000", "191520.710000", "191521.170000", "191521.630000", "191522.090000", "191522.550000", "191523.010000", "191523.470000", "191523.930000", "191524.390000", "191524.850000", "191525.310000", "191525.770000", "191526.230000", "191526.690000", "191527.150000", "191527.610000", "191528.070000", "191528.530000", "191528.990000", "191529.450000", "191529.910000", "191530.370000", "191530.830000", "191531.290000", "191531.750000", "191532.210000", "191532.670000", "191533.130000", "191533.590000", "191534.050000", "191534.510000", "191534.970000", "191535.430000", "191535.890000", "191536.350000", "191536.810000", "191537.270000", "191537.730000", "191538.190000", "191538.650000", "191539.110000", "191539.570000", "191540.030000", "191540.490000", "191540.950000", "191541.410000", "191541.870000", "191542.330000", "191542.790000", "191543.250000", "191543.710000", "191544.170000", "191544.630000", "191545.090000", "191545.550000", "191546.010000", "191546.470000", "191546.930000", "191547.390000", "191547.850000", "191548.310000", "191548.770000", "191549.230000", "191549.690000", "191550.150000", "191550.610000", "191551.070000", "191551.530000", "191551.990000", "191552.450000", "191552.910000", "191553.370000", "191553.830000", "191554.290000", "191554.750000", "191555.210000", "191555.670000", "191556.130000", "191556.590000", "191557.050000", "191557.510000", "191557.970000", "191558.430000", "191558.890000", "191559.350000", "191559.810000", "191600.270000", "191600.730000", "191601.190000", "191601.650000", "191602.110000", "191602.570000", "191603.030000", "191603.490000", "191603.950000", "191604.410000", "191604.870000", "191605.330000", "191605.790000", "191606.250000", "191606.710000", "191607.170000", "191607.630000", "191608.090000", "191608.550000", "191609.010000", "191609.470000", "191609.930000", "191610.390000", "191610.850000", "191611.310000", "191611.770000", "191612.230000", "191612.690000", "191613.150000", "191613.610000", "191614.070000", "191614.530000", "191614.990000", "191615.450000", "191615.910000", "191616.370000", "191616.830000", "191617.290000", "191617.750000", "191618.210000", "191618.670000", "191619.130000", "191619.590000", "191620.050000", "191620.510000", "191620.970000", "191621.430000", "191621.890000", "191622.350000", "191622.810000", "191623.270000", "191623.730000", "191624.190000", "191624.650000", "191625.110000", "191625.570000", "191626.030000", "191626.490000", "191626.950000", "191627.410000", "191627.870000", "191628.330000", "191628.790000", "191629.250000", "191629.710000", "191630.170000", "191630.630000", "191631.090000", "191631.550000", "191632.010000", "191632.470000", "191632.930000", "191633.390000", "191633.850000", "191634.310000", "191634.770000", "191635.230000", "191635.690000", "191636.150000", "191636.610000", "191637.070000", "191637.530000", "191637.990000", "191638.450000", "191638.910000", "191639.370000", "191639.830000", "191640.290000", "191640.750000", "191641.210000", "191641.670000", "191642.130000", "191642.590000", "191643.050000", "191643.510000", "191643.970000", "191644.430000", "191644.890000", "191645.350000", "191645.810000", "191646.270000", "191646.730000", "191647.190000", "191647.650000", "191648.110000", "191648.570000", "191649.030000", "191649.490000", "191649.950000", "191650.410000", "191650.870000", "191651.330000", "191651.790000", "191652.250000", "191652.710000", "191653.170000", "191653.630000", "191654.090000", "191654.550000", "191655.010000", "191655.470000", "191655.930000", "191656.390000", "191656.850000", "191657.310000", "191657.770000", "191658.230000", "191658.690000", "191659.150000", "191659.610000", "191700.070000", "191700.530000", "191700.990000", "191701.450000", "191701.910000", "191702.370000", "191702.830000", "191703.290000", "191703.750000", "191704.210000", "191704.670000", "191705.130000", "191705.590000", "191706.050000", "191706.510000", "191706.970000", "191707.430000", "191707.890000", "191708.350000", "191708.810000", "191709.270000", "191709.730000", "191710.190000", "191710.650000", "191711.110000", "191711.570000", "191712.030000", "191712.490000", "191712.950000", "191713.410000", "191713.870000", "191714.330000", "191714.790000", "191715.250000", "191715.710000", "191716.170000", "191716.630000", "191717.090000", "191717.550000", "191718.010000", "191718.470000", "191718.930000", "191719.390000", "191719.850000", "191720.310000", "191720.770000", "191721.230000", "191721.690000", "191722.150000", "191722.610000", "191723.070000", "191723.530000", "191723.990000", "191724.450000", "191724.910000", "191725.370000", "191725.830000", "191726.290000", "191726.750000", "191727.210000", "191727.670000", "191728.130000", "191728.590000", "191729.050000", "191729.510000", "191729.970000", "191730.430000", "191730.890000", "191731.350000", "191731.810000", "191732.270000", "191732.730000", "191733.190000", "191733.650000", "191734.110000", "191734.570000", "191735.030000", "191735.490000", "191735.950000", "191736.410000", "191736.870000", "191737.330000", "191737.790000", "191738.250000", "191738.710000", "191739.170000", "191739.630000", "191740.090000", "191740.550000", "191741.010000", "191741.470000", "191741.930000", "191742.390000", "191742.850000", "191743.310000", "191743.770000", "191744.230000", "191744.690000", "191745.150000", "191745.610000", "191746.070000", "191746.530000", "191746.990000", "191747.450000", "191747.910000", "191748.370000", "191748.830000", "191749.290000", "191749.750000", "191750.210000", "191750.670000", "191751.130000", "191751.590000", "191752.050000", "191752.510000", "191752.970000", "191753.430000", "191753.890000", "191754.350000", "191754.810000", "191755.270000", "191755.730000", "191756.190000", "191756.650000", "191757.110000", "191757.570000", "191758.030000", "191758.490000", "191758.950000", "191759.410000", "191759.870000", "191800.330000", "191800.790000", "191801.250000", "191801.710000", "191802.170000", "191802.630000", "191803.090000", "191803.550000", "191804.010000", "191804.470000", "191804.930000", "191805.390000", "191805.850000", "191806.310000", "191806.770000", "191807.230000", "191807.690000", "191808.150000", "191808.610000", "191809.070000", "191809.530000", "191809.990000", "191810.450000", "191810.910000", "191811.370000", "191811.830000", "191812.290000", "191812.750000", "191813.210000", "191813.670000", "191814.130000", "191814.590000", "191815.050000", "191815.510000", "191815.970000", "191816.430000", "191816.890000", "191817.350000", "191817.810000", "191818.270000", "191818.730000", "191819.190000", "191819.650000", "191820.110000", "191820.570000", "191821.030000", "191821.490000", "191821.950000", "191822.410000", "191822.870000", "191823.330000", "191823.790000", "191824.250000", "191824.710000", "191825.170000", "191825.630000", "191826.090000", "191826.550000", "191827.010000", "191827.470000", "191827.930000", "191828.390000", "191828.850000", "191829.310000", "191829.770000", "191830.230000", "191830.690000", "191831.150000", "191831.610000", "191832.070000", "191832.530000", "191832.990000", "191833.450000", "191833.910000", "191834.370000", "191834.830000", "191835.290000", "191835.750000", "191836.210000", "191836.670000", "191837.130000", "191837.590000", "191838.050000", "191838.510000", "191838.970000", "191839.430000", "191839.890000", "191840.350000", "191840.810000", "191841.270000", "191841.730000", "191842.190000", "191842.650000", "191843.110000", "191843.570000", "191844.030000", "191844.490000", "191844.950000", "191845.410000", "191845.870000", "191846.330000", "191846.790000", "191847.250000", "191847.710000", "191848.170000", "191848.630000", "191849.090000", "191849.550000", "191850.010000", "191850.470000", "191850.930000", "191851.390000", "191851.850000", "191852.310000", "191852.770000", "191853.230000", "191853.690000", "191854.150000", "191854.610000", "191855.070000", "191855.530000", "191855.990000", "191856.450000", "191856.910000", "191857.370000", "191857.830000", "191858.290000", "191858.750000", "191859.210000", "191859.670000", "191900.130000", "191900.590000", "191901.050000", "191901.510000", "191901.970000", "191902.430000", "191902.890000", "191903.350000", "191903.810000", "191904.270000", "191904.730000", "191905.190000", "191905.650000", "191906.110000", "191906.570000", "191907.030000", "191907.490000", "191907.950000", "191908.410000", "191908.870000", "191909.330000", "191909.790000", "191910.250000", "191910.710000", "191911.170000", "191911.630000", "191912.090000", "191912.550000", "191913.010000", "191913.470000", "191913.930000", "191914.390000", "191914.850000", "191915.310000", "191915.770000", "191916.230000", "191916.690000", "191917.150000", "191917.610000", "191918.070000", "191918.530000", "191918.990000", "191919.450000", "191919.910000", "191920.370000", "191920.830000", "191921.290000", "191921.750000", "191922.210000", "191922.670000", "191923.130000", "191923.590000", "191924.050000", "191924.510000", "191924.970000", "191925.430000", "191925.890000", "191926.350000", "191926.810000", "191927.270000", "191927.730000", "191928.190000", "191928.650000", "191929.110000", "191929.570000", "191930.030000", "191930.490000", "191930.950000", "191931.410000", "191931.870000", "191932.330000", "191932.790000", "191933.250000", "191933.710000", "191934.170000", "191934.630000", "191935.090000", "191935.550000", "191936.010000", "191936.470000", "191936.930000", "191937.390000", "191937.850000", "191938.310000", "191938.770000", "191939.230000", "191939.690000", "191940.150000", "191940.610000", "191941.070000", "191941.530000", "191941.990000", "191942.450000", "191942.910000", "191943.370000", "191943.830000", "191944.290000", "191944.750000", "191945.210000", "191945.670000", "191946.130000", "191946.590000", "191947.050000", "191947.510000", "191947.970000", "191948.430000", "191948.890000", "191949.350000", "191949.810000", "191950.270000", "191950.730000", "191951.190000", "191951.650000", "191952.110000", "191952.570000", "191953.030000", "191953.490000", "191953.950000", "191954.410000", "191954.870000", "191955.330000", "191955.790000", "191956.250000", "191956.710000", "191957.170000", "191957.630000", "191958.090000", "191958.550000", "191959.010000", "191959.470000", "191959.930000", "192000.390000", "192000.850000", "192001.310000", "192001.770000", "192002.230000", "192002.690000", "192003.150000", "192003.610000", "192004.070000", "192004.530000", "192004.990000", "192005.450000", "192005.910000", "192006.370000", "192006.830000", "192007.290000", "192007.750000", "192008.210000", "192008.670000", "192009.130000", "192009.590000", "192010.050000", "192010.510000", "192010.970000", "192011.430000", "192011.890000", "192012.350000", "192012.810000", "192013.270000", "192013.730000", "192014.190000", "192014.650000", "192015.110000", "192015.570000", "192016.030000", "192016.490000", "192016.950000", "192017.410000", "192017.870000", "192018.330000", "192018.790000", "192019.250000", "192019.710000", "192020.170000", "192020.630000", "192021.090000", "192021.550000", "192022.010000", "192022.470000", "192022.930000", "192023.390000", "192023.850000", "192024.310000", "192024.770000", "192025.230000", "192025.690000", "192026.150000", "192026.610000", "192027.070000", "192027.530000", "192027.990000", "192028.450000", "192028.910000", "192029.370000", "192029.830000", "192030.290000", "192030.750000", "192031.210000", "192031.670000", "192032.130000", "192032.590000", "192033.050000", "192033.510000", "192033.970000", "192034.430000", "192034.890000", "192035.350000", "192035.810000", "192036.270000", "192036.730000", "192037.190000", "192037.650000", "192038.110000", "192038.570000", "192039.030000", "192039.490000", "192039.950000", "192040.410000", "192040.870000", "192041.330000", "192041.790000", "192042.250000", "192042.710000", "192043.170000", "192043.630000", "192044.090000", "192044.550000", "192045.010000", "192045.470000", "192045.930000", "192046.390000", "192046.850000", "192047.310000", "192047.770000", "192048.230000", "192048.690000", "192049.150000", "192049.610000", "192050.070000", "192050.530000", "192050.990000", "192051.450000", "192051.910000", "192052.370000", "192052.830000", "192053.290000", "192053.750000", "192054.210000", "192054.670000", "192055.130000", "192055.590000", "192056.050000", "192056.510000", "192056.970000", "192057.430000", "192057.890000", "192058.350000", "192058.810000", "192059.270000", "192059.730000", "192100.190000", "192100.650000", "192101.110000", "192101.570000", "192102.030000", "192102.490000", "192102.950000", "192103.410000", "192103.870000", "192104.330000", "192104.790000", "192105.250000", "192105.710000", "192106.170000", "192106.630000", "192107.090000", "192107.550000", "192108.010000", "192108.470000", "192108.930000", "192109.390000", "192109.850000", "192110.310000", "192110.770000", "192111.230000", "192111.690000", "192112.150000", "192112.610000"],
