{
  "AcquisitionMatrixPE": 82,
  "AcquisitionNumber": 1,
  "AcquisitionTime": "20:04:0.830000",
  "BandwidthPerPixelPhaseEncode": 24.888,
  "BaseResolution": 82,
  "BodyPartExamined": "BRAIN",
  "ConsistencyInfo": "N4_VE11E_LATEST_20181129",
  "ConversionSoftware": "dcm2niix",
  "ConversionSoftwareVersion": "v1.0.20201102",
  "DerivedVendorReportedEchoSpacing": 0.00049,
  "DeviceSerialNumber": "66112",
  "DwellTime": 2e-06,
  "EchoTime": 0.0272,
  "EchoTrainLength": 82,
  "EffectiveEchoSpacing": 0.00049,
  "FlipAngle": 44,
  "ImageComments": "Unaliased MB8/PE3",
  "ImageOrientationPatientDICOM": [0.9995, 0.0315168, 0.00235178, -0.0314106, 0.998845, -0.036369],
  "ImageType": [
    "ORIGINAL",
    "PRIMARY",
    "M",
    "MB",
    "ND",
    "NORM",
    "MOSAIC"
],
  "ImagingFrequency": 123.252,
  "InPlanePhaseEncodingDirectionDICOM": "COL",
  "InstitutionAddress": "Maynard 3,Hanover,NH,US,03755",
  "InstitutionName": "Dartmouth College - PBS",
  "InstitutionalDepartmentName": "Department",
  "MRAcquisitionType": "2D",
  "MagneticFieldStrength": 3,
  "Manufacturer": "Siemens",
  "ManufacturersModelName": "Prisma",
  "Modality": "MR",
  "MultibandAccelerationFactor": 8,
  "PartialFourier": 1,
  "PatientPosition": "HFS",
  "PercentPhaseFOV": 100,
  "PercentSampling": 100,
  "PhaseEncodingDirection": "j-",
  "PhaseEncodingSteps": 82,
  "PhaseResolution": 1,
  "PixelBandwidth": 3050,
  "ProcedureStepDescription": "Wager_Wager^1076_spacetop",
  "ProtocolName": "func_run-02_task-alignvideo_acq-ap-mb8",
  "PulseSequenceDetails": "%CustomerSeq%\\cmrr_mbep2d_bold",
  "ReceiveCoilActiveElements": "HEA;HEP",
  "ReceiveCoilName": "Head_32",
  "ReconMatrixPE": 82,
  "RepetitionTime": 0.46,
  "SAR": 0.0857498,
  "ScanOptions": "FS",
  "ScanningSequence": "EP",
  "SequenceName": "epfid2d1_82",
  "SequenceVariant": "SK\\SS",
  "SeriesDescription": "func_run-02_task-alignvideo_acq-ap-mb8",
  "SeriesNumber": 32,
  "ShimSetting": [4153, -7784, -7242, 707, -32, -400, 337, 60],
  "SliceThickness": 2.7,
  "SliceTiming": [0, 0.25, 0.0625, 0.3125, 0.125, 0.375, 0.1875, 0, 0.25, 0.0625, 0.3125, 0.125, 0.375, 0.1875, 0, 0.25, 0.0625, 0.3125, 0.125, 0.375, 0.1875, 0, 0.25, 0.0625, 0.3125, 0.125, 0.375, 0.1875, 0, 0.25, 0.0625, 0.3125, 0.125, 0.375, 0.1875, 0, 0.25, 0.0625, 0.3125, 0.125, 0.375, 0.1875, 0, 0.25, 0.0625, 0.3125, 0.125, 0.375, 0.1875, 0, 0.25, 0.0625, 0.3125, 0.125, 0.375, 0.1875],
  "SoftwareVersions": "syngo MR E11",
  "SpacingBetweenSlices": 2.7,
  "StationName": "AWP66112",
  "TaskName": "alignvideo",
  "TotalReadoutTime": 0.03969,
  "TxRefAmp": 238.17,
  "WipMemBlock": "2c078d58-99a5-43dc-aae7-aa7f8c5993af||Sequence: R016 ve11e/master r/434b28f1; Aug  7 2019 18:53:46 by eja",
  "dcmmeta_affine": [
    [-2.681586742401123, -0.08427226543426514, 0.009437305852770805, 115.9912338256836],
    [-0.08455733209848404, 2.6798272132873535, -0.09794790297746658, -85.36434173583984],
    [0.006309651304036379, 0.09757547080516815, 2.6982064247131348, -65.26898956298828],
    [0.0, 0.0, 0.0, 1.0]
],
  "dcmmeta_reorient_transform": [
    [0.0, -1.0, 0.0, 81.0],
    [1.0, 0.0, 0.0, 0.0],
    [0.0, 0.0, 1.0, 0.0],
    [0.0, 0.0, 0.0, 1.0]
],
  "dcmmeta_shape": [82, 82, 56, 926],
  "dcmmeta_slice_dim": 2,
  "dcmmeta_version": 0.6,
  "global": {
    "const": {
      "AccessionNumber": "A004000",
      "AcquisitionMatrix": [82, 0, 0, 82],
      "AngioFlag": "N",
      "BitsAllocated": 16,
      "BitsStored": 16,
      "BodyPartExamined": "BRAIN",
      "Columns": 656,
      "EchoNumbers": 1,
      "EchoTime": 27.2,
      "EchoTrainLength": 82,
      "FlipAngle": 44.0,
      "HighBit": 15,
      "ImageOrientationPatient": [0.99950045471928, 0.03151682330114, 0.00235177910624, -0.0314105699389, 0.99884466718359, -0.0363690381371],
      "ImagePositionPatient": [-854.59441260209, -925.0800297593, -31.172084440944],
      "ImageType": [
        "ORIGINAL",
        "PRIMARY",
        "M",
        "MB",
        "ND",
        "NORM",
        "MOSAIC"
],
      "ImagedNucleus": "1H",
      "ImagingFrequency": 123.252197,
      "InPlanePhaseEncodingDirection": "COL",
      "MRAcquisitionType": "2D",
      "MagneticFieldStrength": 3.0,
      "Manufacturer": "SIEMENS",
      "ManufacturerModelName": "Prisma",
      "Modality": "MR",
      "NumberOfAverages": 1.0,
      "NumberOfPhaseEncodingSteps": 82,
      "PercentPhaseFieldOfView": 100.0,
      "PercentSampling": 100.0,
      "PerformedProcedureStepStartTime": "182752.265000",
      "PhotometricInterpretation": "MONOCHROME2",
      "PixelBandwidth": 3050.0,
      "PixelRepresentation": 0,
      "PixelSpacing": [2.6829268932343, 2.6829268932343],
      "ProtocolName": "func_run-02_task-alignvideo_acq-ap-mb8",
      "RepetitionTime": 460.0,
      "Rows": 656,
      "SAR": 0.08574979337872,
      "SamplesPerPixel": 1,
      "ScanOptions": "FS",
      "ScanningSequence": "EP",
      "SequenceName": "epfid2d1_82",
      "SequenceVariant": [
        "SK",
        "SS"
],
      "SeriesDescription": "func_run-02_task-alignvideo_acq-ap-mb8",
      "SeriesNumber": 32,
      "SeriesTime": "200422.701000",
      "SliceLocation": -61.723440681345,
      "SliceThickness": 2.7000000476837,
      "SmallestImagePixelValue": 0,
      "SoftwareVersions": "syngo MR E11",
      "SpacingBetweenSlices": 2.7000000456213,
      "SpecificCharacterSet": "ISO_IR 100",
      "StudyID": "4",
      "StudyTime": "182752.116000",
      "TransmitCoilName": "Body",
      "VariableFlipAngleFlag": "N",
      "WindowCenterWidthExplanation": "Algo1"
    },
    "slices": {}
  },
  "time": {
    "samples": {
      "AcquisitionNumber": [1, 2, 3, 4, 5, 6, 7, 8, 9, 10, 11, 12, 13, 14, 15, 16, 17, 18, 19, 20, 21, 22, 23, 24, 25, 26, 27, 28, 29, 30, 31, 32, 33, 34, 35, 36, 37, 38, 39, 40, 41, 42, 43, 44, 45, 46, 47, 48, 49, 50, 51, 52, 53, 54, 55, 56, 57, 58, 59, 60, 61, 62, 63, 64, 65, 66, 67, 68, 69, 70, 71, 72, 73, 74, 75, 76, 77, 78, 79, 80, 81, 82, 83, 84, 85, 86, 87, 88, 89, 90, 91, 92, 93, 94, 95, 96, 97, 98, 99, 100, 101, 102, 103, 104, 105, 106, 107, 108, 109, 110, 111, 112, 113, 114, 115, 116, 117, 118, 119, 120, 121, 122, 123, 124, 125, 126, 127, 128, 129, 130, 131, 132, 133, 134, 135, 136, 137, 138, 139, 140, 141, 142, 143, 144, 145, 146, 147, 148, 149, 150, 151, 152, 153, 154, 155, 156, 157, 158, 159, 160, 161, 162, 163, 164, 165, 166, 167, 168, 169, 170, 171, 172, 173, 174, 175, 176, 177, 178, 179, 180, 181, 182, 183, 184, 185, 186, 187, 188, 189, 190, 191, 192, 193, 194, 195, 196, 197, 198, 199, 200, 201, 202, 203, 204, 205, 206, 207, 208, 209, 210, 211, 212, 213, 214, 215, 216, 217, 218, 219, 220, 221, 222, 223, 224, 225, 226, 227, 228, 229, 230, 231, 232, 233, 234, 235, 236, 237, 238, 239, 240, 241, 242, 243, 244, 245, 246, 247, 248, 249, 250, 251, 252, 253, 254, 255, 256, 257, 258, 259, 260, 261, 262, 263, 264, 265, 266, 267, 268, 269, 270, 271, 272, 273, 274, 275, 276, 277, 278, 279, 280, 281, 282, 283, 284, 285, 286, 287, 288, 289, 290, 291, 292, 293, 294, 295, 296, 297, 298, 299, 300, 301, 302, 303, 304, 305, 306, 307, 308, 309, 310, 311, 312, 313, 314, 315, 316, 317, 318, 319, 320, 321, 322, 323, 324, 325, 326, 327, 328, 329, 330, 331, 332, 333, 334, 335, 336, 337, 338, 339, 340, 341, 342, 343, 344, 345, 346, 347, 348, 349, 350, 351, 352, 353, 354, 355, 356, 357, 358, 359, 360, 361, 362, 363, 364, 365, 366, 367, 368, 369, 370, 371, 372, 373, 374, 375, 376, 377, 378, 379, 380, 381, 382, 383, 384, 385, 386, 387, 388, 389, 390, 391, 392, 393, 394, 395, 396, 397, 398, 399, 400, 401, 402, 403, 404, 405, 406, 407, 408, 409, 410, 411, 412, 413, 414, 415, 416, 417, 418, 419, 420, 421, 422, 423, 424, 425, 426, 427, 428, 429, 430, 431, 432, 433, 434, 435, 436, 437, 438, 439, 440, 441, 442, 443, 444, 445, 446, 447, 448, 449, 450, 451, 452, 453, 454, 455, 456, 457, 458, 459, 460, 461, 462, 463, 464, 465, 466, 467, 468, 469, 470, 471, 472, 473, 474, 475, 476, 477, 478, 479, 480, 481, 482, 483, 484, 485, 486, 487, 488, 489, 490, 491, 492, 493, 494, 495, 496, 497, 498, 499, 500, 501, 502, 503, 504, 505, 506, 507, 508, 509, 510, 511, 512, 513, 514, 515, 516, 517, 518, 519, 520, 521, 522, 523, 524, 525, 526, 527, 528, 529, 530, 531, 532, 533, 534, 535, 536, 537, 538, 539, 540, 541, 542, 543, 544, 545, 546, 547, 548, 549, 550, 551, 552, 553, 554, 555, 556, 557, 558, 559, 560, 561, 562, 563, 564, 565, 566, 567, 568, 569, 570, 571, 572, 573, 574, 575, 576, 577, 578, 579, 580, 581, 582, 583, 584, 585, 586, 587, 588, 589, 590, 591, 592, 593, 594, 595, 596, 597, 598, 599, 600, 601, 602, 603, 604, 605, 606, 607, 608, 609, 610, 611, 612, 613, 614, 615, 616, 617, 618, 619, 620, 621, 622, 623, 624, 625, 626, 627, 628, 629, 630, 631, 632, 633, 634, 635, 636, 637, 638, 639, 640, 641, 642, 643, 644, 645, 646, 647, 648, 649, 650, 651, 652, 653, 654, 655, 656, 657, 658, 659, 660, 661, 662, 663, 664, 665, 666, 667, 668, 669, 670, 671, 672, 673, 674, 675, 676, 677, 678, 679, 680, 681, 682, 683, 684, 685, 686, 687, 688, 689, 690, 691, 692, 693, 694, 695, 696, 697, 698, 699, 700, 701, 702, 703, 704, 705, 706, 707, 708, 709, 710, 711, 712, 713, 714, 715, 716, 717, 718, 719, 720, 721, 722, 723, 724, 725, 726, 727, 728, 729, 730, 731, 732, 733, 734, 735, 736, 737, 738, 739, 740, 741, 742, 743, 744, 745, 746, 747, 748, 749, 750, 751, 752, 753, 754, 755, 756, 757, 758, 759, 760, 761, 762, 763, 764, 765, 766, 767, 768, 769, 770, 771, 772, 773, 774, 775, 776, 777, 778, 779, 780, 781, 782, 783, 784, 785, 786, 787, 788, 789, 790, 791, 792, 793, 794, 795, 796, 797, 798, 799, 800, 801, 802, 803, 804, 805, 806, 807, 808, 809, 810, 811, 812, 813, 814, 815, 816, 817, 818, 819, 820, 821, 822, 823, 824, 825, 826, 827, 828, 829, 830, 831, 832, 833, 834, 835, 836, 837, 838, 839, 840, 841, 842, 843, 844, 845, 846, 847, 848, 849, 850, 851, 852, 853, 854, 855, 856, 857, 858, 859, 860, 861, 862, 863, 864, 865, 866, 867, 868, 869, 870, 871, 872, 873, 874, 875, 876, 877, 878, 879, 880, 881, 882, 883, 884, 885, 886, 887, 888, 889, 890, 891, 892, 893, 894, 895, 896, 897, 898, 899, 900, 901, 902, 903, 904, 905, 906, 907, 908, 909, 910, 911, 912, 913, 914, 915, 916, 917, 918, 919, 920, 921, 922, 923, 924, 925, 926],
      "AcquisitionTime": ["200400.830000", "200401.290000", "200401.750000", "200402.210000", "200402.670000", "200403.130000", "200403.590000", "200404.050000", "200404.510000", "200404.970000", "200405.430000", "200405.890000", "200406.350000", "200406.810000", "200407.270000", "200407.730000", "200408.190000", "200408.650000", "200409.110000", "200409.570000", "200410.030000", "200410.490000", "200410.950000", "200411.410000", "200411.870000", "200412.330000", "200412.790000", "200413.250000", "200413.710000", "200414.170000", "200414.630000", "200415.090000", "200415.550000", "200416.010000", "200416.470000", "200416.930000", "200417.390000", "200417.850000", "200418.310000", "200418.770000", "200419.230000", "200419.690000", "200420.150000", "200420.610000", "200421.070000", "200421.530000", "200421.990000", "200422.450000", "200422.910000", "200423.370000", "200423.830000", "200424.290000", "200424.750000", "200425.210000", "200425.670000", "200426.130000", "200426.590000", "200427.050000", "200427.510000", "200427.970000", "200428.430000", "200428.890000", "200429.350000", "200429.810000", "200430.270000", "200430.730000", "200431.190000", "200431.650000", "200432.110000", "200432.570000", "200433.030000", "200433.490000", "200433.950000", "200434.410000", "200434.870000", "200435.330000", "200435.790000", "200436.250000", "200436.710000", "200437.170000", "200437.630000", "200438.090000", "200438.550000", "200439.010000", "200439.470000", "200439.930000", "200440.390000", "200440.850000", "200441.310000", "200441.770000", "200442.230000", "200442.690000", "200443.150000", "200443.610000", "200444.070000", "200444.530000", "200444.990000", "200445.450000", "200445.910000", "200446.370000", "200446.830000", "200447.290000", "200447.750000", "200448.210000", "200448.670000", "200449.130000", "200449.590000", "200450.050000", "200450.510000", "200450.970000", "200451.430000", "200451.890000", "200452.350000", "200452.810000", "200453.270000", "200453.730000", "200454.190000", "200454.650000", "200455.110000", "200455.570000", "200456.030000", "200456.490000", "200456.950000", "200457.410000", "200457.870000", "200458.330000", "200458.790000", "200459.250000", "200459.710000", "200500.170000", "200500.630000", "200501.090000", "200501.550000", "200502.010000", "200502.470000", "200502.930000", "200503.390000", "200503.850000", "200504.310000", "200504.770000", "200505.230000", "200505.690000", "200506.150000", "200506.610000", "200507.070000", "200507.530000", "200507.990000", "200508.450000", "200508.910000", "200509.370000", "200509.830000", "200510.290000", "200510.750000", "200511.210000", "200511.670000", "200512.130000", "200512.590000", "200513.050000", "200513.510000", "200513.970000", "200514.430000", "200514.890000", "200515.350000", "200515.810000", "200516.270000", "200516.730000", "200517.190000", "200517.650000", "200518.110000", "200518.570000", "200519.030000", "200519.490000", "200519.950000", "200520.410000", "200520.870000", "200521.330000", "200521.790000", "200522.250000", "200522.710000", "200523.170000", "200523.630000", "200524.090000", "200524.550000", "200525.010000", "200525.470000", "200525.930000", "200526.390000", "200526.850000", "200527.310000", "200527.770000", "200528.230000", "200528.690000", "200529.150000", "200529.610000", "200530.070000", "200530.530000", "200530.990000", "200531.450000", "200531.910000", "200532.370000", "200532.830000", "200533.290000", "200533.750000", "200534.210000", "200534.670000", "200535.130000", "200535.590000", "200536.050000", "200536.510000", "200536.970000", "200537.430000", "200537.890000", "200538.350000", "200538.810000", "200539.270000", "200539.730000", "200540.190000", "200540.650000", "200541.110000", "200541.570000", "200542.030000", "200542.490000", "200542.950000", "200543.410000", "200543.870000", "200544.330000", "200544.790000", "200545.250000", "200545.710000", "200546.170000", "200546.630000", "200547.090000", "200547.550000", "200548.010000", "200548.470000", "200548.930000", "200549.390000", "200549.850000", "200550.310000", "200550.770000", "200551.230000", "200551.690000", "200552.150000", "200552.610000", "200553.070000", "200553.530000", "200553.990000", "200554.450000", "200554.910000", "200555.370000", "200555.830000", "200556.290000", "200556.750000", "200557.210000", "200557.670000", "200558.130000", "200558.590000", "200559.050000", "200559.510000", "200559.970000", "200600.430000", "200600.890000", "200601.350000", "200601.810000", "200602.270000", "200602.730000", "200603.190000", "200603.650000", "200604.110000", "200604.570000", "200605.030000", "200605.490000", "200605.950000", "200606.410000", "200606.870000", "200607.330000", "200607.790000", "200608.250000", "200608.710000", "200609.170000", "200609.630000", "200610.090000", "200610.550000", "200611.010000", "200611.470000", "200611.930000", "200612.390000", "200612.850000", "200613.310000", "200613.770000", "200614.230000", "200614.690000", "200615.150000", "200615.610000", "200616.070000", "200616.530000", "200616.990000", "200617.450000", "200617.910000", "200618.370000", "200618.830000", "200619.290000", "200619.750000", "200620.210000", "200620.670000", "200621.130000", "200621.590000", "200622.050000", "200622.510000", "200622.970000", "200623.430000", "200623.890000", "200624.350000", "200624.810000", "200625.270000", "200625.730000", "200626.190000", "200626.650000", "200627.110000", "200627.570000", "200628.030000", "200628.490000", "200628.950000", "200629.410000", "200629.870000", "200630.330000", "200630.790000", "200631.250000", "200631.710000", "200632.170000", "200632.630000", "200633.090000", "200633.550000", "200634.010000", "200634.470000", "200634.930000", "200635.390000", "200635.850000", "200636.310000", "200636.770000", "200637.230000", "200637.690000", "200638.150000", "200638.610000", "200639.070000", "200639.530000", "200639.990000", "200640.450000", "200640.910000", "200641.370000", "200641.830000", "200642.290000", "200642.750000", "200643.210000", "200643.670000", "200644.130000", "200644.590000", "200645.050000", "200645.510000", "200645.970000", "200646.430000", "200646.890000", "200647.350000", "200647.810000", "200648.270000", "200648.730000", "200649.190000", "200649.650000", "200650.110000", "200650.570000", "200651.030000", "200651.490000", "200651.950000", "200652.410000", "200652.870000", "200653.330000", "200653.790000", "200654.250000", "200654.710000", "200655.170000", "200655.630000", "200656.090000", "200656.550000", "200657.010000", "200657.470000", "200657.930000", "200658.390000", "200658.850000", "200659.310000", "200659.770000", "200700.230000", "200700.690000", "200701.150000", "200701.610000", "200702.070000", "200702.530000", "200702.990000", "200703.450000", "200703.910000", "200704.370000", "200704.830000", "200705.290000", "200705.750000", "200706.210000", "200706.670000", "200707.130000", "200707.590000", "200708.050000", "200708.510000", "200708.970000", "200709.430000", "200709.890000", "200710.350000", "200710.810000", "200711.270000", "200711.730000", "200712.190000", "200712.650000", "200713.110000", "200713.570000", "200714.030000", "200714.490000", "200714.950000", "200715.410000", "200715.870000", "200716.330000", "200716.790000", "200717.250000", "200717.710000", "200718.170000", "200718.630000", "200719.090000", "200719.550000", "200720.010000", "200720.470000", "200720.930000", "200721.390000", "200721.850000", "200722.310000", "200722.770000", "200723.230000", "200723.690000", "200724.150000", "200724.610000", "200725.070000", "200725.530000", "200725.990000", "200726.450000", "200726.910000", "200727.370000", "200727.830000", "200728.290000", "200728.750000", "200729.210000", "200729.670000", "200730.130000", "200730.590000", "200731.050000", "200731.510000", "200731.970000", "200732.430000", "200732.890000", "200733.350000", "200733.810000", "200734.270000", "200734.730000", "200735.190000", "200735.650000", "200736.110000", "200736.570000", "200737.030000", "200737.490000", "200737.950000", "200738.410000", "200738.870000", "200739.330000", "200739.790000", "200740.250000", "200740.710000", "200741.170000", "200741.630000", "200742.090000", "200742.550000", "200743.010000", "200743.470000", "200743.930000", "200744.390000", "200744.850000", "200745.310000", "200745.770000", "200746.230000", "200746.690000", "200747.150000", "200747.610000", "200748.070000", "200748.530000", "200748.990000", "200749.450000", "200749.910000", "200750.370000", "200750.830000", "200751.290000", "200751.750000", "200752.210000", "200752.670000", "200753.130000", "200753.590000", "200754.050000", "200754.510000", "200754.970000", "200755.430000", "200755.890000", "200756.350000", "200756.810000", "200757.270000", "200757.730000", "200758.190000", "200758.650000", "200759.110000", "200759.570000", "200800.030000", "200800.490000", "200800.950000", "200801.410000", "200801.870000", "200802.330000", "200802.790000", "200803.250000", "200803.710000", "200804.170000", "200804.630000", "200805.090000", "200805.550000", "200806.010000", "200806.470000", "200806.930000", "200807.390000", "200807.850000", "200808.310000", "200808.770000", "200809.230000", "200809.690000", "200810.150000", "200810.610000", "200811.070000", "200811.530000", "200811.990000", "200812.450000", "200812.910000", "200813.370000", "200813.830000", "200814.290000", "200814.750000", "200815.210000", "200815.670000", "200816.130000", "200816.590000", "200817.050000", "200817.510000", "200817.970000", "200818.430000", "200818.890000", "200819.350000", "200819.810000", "200820.270000", "200820.730000", "200821.190000", "200821.650000", "200822.110000", "200822.570000", "200823.030000", "200823.490000", "200823.950000", "200824.410000", "200824.870000", "200825.330000", "200825.790000", "200826.250000", "200826.710000", "200827.170000", "200827.630000", "200828.090000", "200828.550000", "200829.010000", "200829.470000", "200829.930000", "200830.390000", "200830.850000", "200831.310000", "200831.770000", "200832.230000", "200832.690000", "200833.150000", "200833.610000", "200834.070000", "200834.530000", "200834.990000", "200835.450000", "200835.910000", "200836.370000", "200836.830000", "200837.290000", "200837.750000", "200838.210000", "200838.670000", "200839.130000", "200839.590000", "200840.050000", "200840.510000", "200840.970000", "200841.430000", "200841.890000", "200842.350000", "200842.810000", "200843.270000", "200843.730000", "200844.190000", "200844.650000", "200845.110000", "200845.570000", "200846.030000", "200846.490000", "200846.950000", "200847.410000", "200847.870000", "200848.330000", "200848.790000", "200849.250000", "200849.710000", "200850.170000", "200850.630000", "200851.090000", "200851.550000", "200852.010000", "200852.470000", "200852.930000", "200853.390000", "200853.850000", "200854.310000", "200854.770000", "200855.230000", "200855.690000", "200856.150000", "200856.610000", "200857.070000", "200857.530000", "200857.990000", "200858.450000", "200858.910000", "200859.370000", "200859.830000", "200900.290000", "200900.750000", "200901.210000", "200901.670000", "200902.130000", "200902.590000", "200903.050000", "200903.510000", "200903.970000", "200904.430000", "200904.890000", "200905.350000", "200905.810000", "200906.270000", "200906.730000", "200907.190000", "200907.650000", "200908.110000", "200908.570000", "200909.030000", "200909.490000", "200909.950000", "200910.410000", "200910.870000", "200911.330000", "200911.790000", "200912.250000", "200912.710000", "200913.170000", "200913.630000", "200914.090000", "200914.550000", "200915.010000", "200915.470000", "200915.930000", "200916.390000", "200916.850000", "200917.310000", "200917.770000", "200918.230000", "200918.690000", "200919.150000", "200919.610000", "200920.070000", "200920.530000", "200920.990000", "200921.450000", "200921.910000", "200922.370000", "200922.830000", "200923.290000", "200923.750000", "200924.210000", "200924.670000", "200925.130000", "200925.590000", "200926.050000", "200926.510000", "200926.970000", "200927.430000", "200927.890000", "200928.350000", "200928.810000", "200929.270000", "200929.730000", "200930.190000", "200930.650000", "200931.110000", "200931.570000", "200932.030000", "200932.490000", "200932.950000", "200933.410000", "200933.870000", "200934.330000", "200934.790000", "200935.250000", "200935.710000", "200936.170000", "200936.630000", "200937.090000", "200937.550000", "200938.010000", "200938.470000", "200938.930000", "200939.390000", "200939.850000", "200940.310000", "200940.770000", "200941.230000", "200941.690000", "200942.150000", "200942.610000", "200943.070000", "200943.530000", "200943.990000", "200944.450000", "200944.910000", "200945.370000", "200945.830000", "200946.290000", "200946.750000", "200947.210000", "200947.670000", "200948.130000", "200948.590000", "200949.050000", "200949.510000", "200949.970000", "200950.430000", "200950.890000", "200951.350000", "200951.810000", "200952.270000", "200952.730000", "200953.190000", "200953.650000", "200954.110000", "200954.570000", "200955.030000", "200955.490000", "200955.950000", "200956.410000", "200956.870000", "200957.330000", "200957.790000", "200958.250000", "200958.710000", "200959.170000", "200959.630000", "201000.090000", "201000.550000", "201001.010000", "201001.470000", "201001.930000", "201002.390000", "201002.850000", "201003.310000", "201003.770000", "201004.230000", "201004.690000", "201005.150000", "201005.610000", "201006.070000", "201006.530000", "201006.990000", "201007.450000", "201007.910000", "201008.370000", "201008.830000", "201009.290000", "201009.750000", "201010.210000", "201010.670000", "201011.130000", "201011.590000", "201012.050000", "201012.510000", "201012.970000", "201013.430000", "201013.890000", "201014.350000", "201014.810000", "201015.270000", "201015.730000", "201016.190000", "201016.650000", "201017.110000", "201017.570000", "201018.030000", "201018.490000", "201018.950000", "201019.410000", "201019.870000", "201020.330000", "201020.790000", "201021.250000", "201021.710000", "201022.170000", "201022.630000", "201023.090000", "201023.550000", "201024.010000", "201024.470000", "201024.930000", "201025.390000", "201025.850000", "201026.310000", "201026.770000", "201027.230000", "201027.690000", "201028.150000", "201028.610000", "201029.070000", "201029.530000", "201029.990000", "201030.450000", "201030.910000", "201031.370000", "201031.830000", "201032.290000", "201032.750000", "201033.210000", "201033.670000", "201034.130000", "201034.590000", "201035.050000", "201035.510000", "201035.970000", "201036.430000", "201036.890000", "201037.350000", "201037.810000", "201038.270000", "201038.730000", "201039.190000", "201039.650000", "201040.110000", "201040.570000", "201041.030000", "201041.490000", "201041.950000", "201042.410000", "201042.870000", "201043.330000", "201043.790000", "201044.250000", "201044.710000", "201045.170000", "201045.630000", "201046.090000", "201046.550000", "201047.010000", "201047.470000", "201047.930000", "201048.390000", "201048.850000", "201049.310000", "201049.770000", "201050.230000", "201050.690000", "201051.150000", "201051.610000", "201052.070000", "201052.530000", "201052.990000", "201053.450000", "201053.910000", "201054.370000", "201054.830000", "201055.290000", "201055.750000", "201056.210000", "201056.670000", "201057.130000", "201057.590000", "201058.050000", "201058.510000", "201058.970000", "201059.430000", "201059.890000", "201100.350000", "201100.810000", "201101.270000", "201101.730000", "201102.190000", "201102.650000", "201103.110000", "201103.570000", "201104.030000", "201104.490000", "201104.950000", "201105.410000", "201105.870000", "201106.330000"],
