{
  "AcquisitionMatrixPE": 82,
  "AcquisitionNumber": 1,
  "AcquisitionTime": "19:28:32.010000",
  "BandwidthPerPixelPhaseEncode": 24.888,
  "BaseResolution": 82,
  "BodyPartExamined": "BRAIN",
  "ConsistencyInfo": "N4_VE11E_LATEST_20181129",
  "ConversionSoftware": "dcm2niix",
  "ConversionSoftwareVersion": "v1.0.20201102",
  "DerivedVendorReportedEchoSpacing": 0.00049,
  "DeviceSerialNumber": "66112",
  "DwellTime": 2e-06,
  "EchoTime": 0.0272,
  "EchoTrainLength": 82,
  "EffectiveEchoSpacing": 0.00049,
  "FlipAngle": 44,
  "ImageComments": "Unaliased MB8/PE3",
  "ImageOrientationPatientDICOM": [0.999197, 0.0398528, 0.0040751, -0.0397825, 0.999079, -0.0160753],
  "ImageType": [
    "ORIGINAL",
    "PRIMARY",
    "M",
    "MB",
    "ND",
    "NORM",
    "MOSAIC"
],
  "ImagingFrequency": 123.252,
  "InPlanePhaseEncodingDirectionDICOM": "COL",
  "InstitutionAddress": "Maynard 3,Hanover,NH,US,03755",
  "InstitutionName": "Dartmouth College - PBS",
  "InstitutionalDepartmentName": "Department",
  "MRAcquisitionType": "2D",
  "MagneticFieldStrength": 3,
  "Manufacturer": "Siemens",
  "ManufacturersModelName": "Prisma",
  "Modality": "MR",
  "MultibandAccelerationFactor": 8,
  "PartialFourier": 1,
  "PatientPosition": "HFS",
  "PercentPhaseFOV": 100,
  "PercentSampling": 100,
  "PhaseEncodingDirection": "j-",
  "PhaseEncodingSteps": 82,
  "PhaseResolution": 1,
  "PixelBandwidth": 3050,
  "ProcedureStepDescription": "Wager_Wager^1076_spacetop",
  "ProtocolName": "func_run-04_task-social_acq-ap-mb8",
  "PulseSequenceDetails": "%CustomerSeq%\\cmrr_mbep2d_bold",
  "ReceiveCoilActiveElements": "HEA;HEP",
  "ReceiveCoilName": "Head_32",
  "ReconMatrixPE": 82,
  "RepetitionTime": 0.46,
  "SAR": 0.0857187,
  "ScanOptions": "FS",
  "ScanningSequence": "EP",
  "SequenceName": "epfid2d1_82",
  "SequenceVariant": "SK\\SS",
  "SeriesDescription": "func_run-04_task-social_acq-ap-mb8",
  "SeriesNumber": 18,
  "ShimSetting": [4153, -7784, -7238, 719, -31, -403, 336, 61],
  "SliceThickness": 2.7,
  "SliceTiming": [0, 0.25, 0.0625, 0.3125, 0.125, 0.375, 0.1875, 0, 0.25, 0.0625, 0.3125, 0.125, 0.375, 0.1875, 0, 0.25, 0.0625, 0.3125, 0.125, 0.375, 0.1875, 0, 0.25, 0.0625, 0.3125, 0.125, 0.375, 0.1875, 0, 0.25, 0.0625, 0.3125, 0.125, 0.375, 0.1875, 0, 0.25, 0.0625, 0.3125, 0.125, 0.375, 0.1875, 0, 0.25, 0.0625, 0.3125, 0.125, 0.375, 0.1875, 0, 0.25, 0.0625, 0.3125, 0.125, 0.375, 0.1875],
  "SoftwareVersions": "syngo MR E11",
  "SpacingBetweenSlices": 2.7,
  "StationName": "AWP66112",
  "TaskName": "social",
  "TotalReadoutTime": 0.03969,
  "TxRefAmp": 238.17,
  "WipMemBlock": "9a7ff949-a979-44f1-84c2-a89f95c2d025||Sequence: R016 ve11e/master r/434b28f1; Aug  7 2019 18:53:46 by eja",
  "dcmmeta_affine": [
    [-2.6807732582092285, -0.10673356801271439, 0.012722376734018326, 116.92801666259766],
    [-0.10692211985588074, 2.6804559230804443, -0.042930860072374344, -85.19605255126953],
    [0.010933187790215015, 0.04312896355986595, 2.6996288299560547, -65.9483871459961],
    [0.0, 0.0, 0.0, 1.0]
],
  "dcmmeta_reorient_transform": [
    [0.0, -1.0, 0.0, 81.0],
    [1.0, 0.0, 0.0, 0.0],
    [0.0, 0.0, 1.0, 0.0],
    [0.0, 0.0, 0.0, 1.0]
],
  "dcmmeta_shape": [82, 82, 56, 872],
  "dcmmeta_slice_dim": 2,
  "dcmmeta_version": 0.6,
  "global": {
    "const": {
      "AccessionNumber": "A004000",
      "AcquisitionMatrix": [82, 0, 0, 82],
      "AngioFlag": "N",
      "BitsAllocated": 16,
      "BitsStored": 16,
      "BodyPartExamined": "BRAIN",
      "Columns": 656,
      "EchoNumbers": 1,
      "EchoTime": 27.2,
      "EchoTrainLength": 82,
      "FlipAngle": 44.0,
      "HighBit": 15,
      "ImageOrientationPatient": [0.99919725223672, 0.03985278791575, 0.00407509729159, -0.0397825119796, 0.99907904350983, -0.0160753401233],
      "ImagePositionPatient": [-847.03196244756, -931.89841541017, -53.214753249947],
      "ImageType": [
        "ORIGINAL",
        "PRIMARY",
        "M",
        "MB",
        "ND",
        "NORM",
        "MOSAIC"
],
      "ImagedNucleus": "1H",
      "ImagingFrequency": 123.252192,
      "InPlanePhaseEncodingDirection": "COL",
      "MRAcquisitionType": "2D",
      "MagneticFieldStrength": 3.0,
      "Manufacturer": "SIEMENS",
      "ManufacturerModelName": "Prisma",
      "Modality": "MR",
      "NumberOfAverages": 1.0,
      "NumberOfPhaseEncodingSteps": 82,
      "PercentPhaseFieldOfView": 100.0,
      "PercentSampling": 100.0,
      "PerformedProcedureStepStartTime": "182752.265000",
      "PhotometricInterpretation": "MONOCHROME2",
      "PixelBandwidth": 3050.0,
      "PixelRepresentation": 0,
      "PixelSpacing": [2.6829268932343, 2.6829268932343],
      "ProtocolName": "func_run-04_task-social_acq-ap-mb8",
      "RepetitionTime": 460.0,
      "Rows": 656,
      "SAR": 0.08571874145746,
      "SamplesPerPixel": 1,
      "ScanOptions": "FS",
      "ScanningSequence": "EP",
      "SequenceName": "epfid2d1_82",
      "SequenceVariant": [
        "SK",
        "SS"
],
      "SeriesDescription": "func_run-04_task-social_acq-ap-mb8",
      "SeriesNumber": 18,
      "SeriesTime": "192842.612000",
      "SliceLocation": -64.033708979987,
      "SliceThickness": 2.7000000476837,
      "SmallestImagePixelValue": 0,
      "SoftwareVersions": "syngo MR E11",
      "SpacingBetweenSlices": 2.7000000322715,
      "SpecificCharacterSet": "ISO_IR 100",
      "StudyID": "4",
      "StudyTime": "182752.116000",
      "TransmitCoilName": "Body",
      "VariableFlipAngleFlag": "N",
      "WindowCenterWidthExplanation": "Algo1"
    },
    "slices": {}
  },
  "time": {
    "samples": {
      "AcquisitionNumber": [1, 2, 3, 4, 5, 6, 7, 8, 9, 10, 11, 12, 13, 14, 15, 16, 17, 18, 19, 20, 21, 22, 23, 24, 25, 26, 27, 28, 29, 30, 31, 32, 33, 34, 35, 36, 37, 38, 39, 40, 41, 42, 43, 44, 45, 46, 47, 48, 49, 50, 51, 52, 53, 54, 55, 56, 57, 58, 59, 60, 61, 62, 63, 64, 65, 66, 67, 68, 69, 70, 71, 72, 73, 74, 75, 76, 77, 78, 79, 80, 81, 82, 83, 84, 85, 86, 87, 88, 89, 90, 91, 92, 93, 94, 95, 96, 97, 98, 99, 100, 101, 102, 103, 104, 105, 106, 107, 108, 109, 110, 111, 112, 113, 114, 115, 116, 117, 118, 119, 120, 121, 122, 123, 124, 125, 126, 127, 128, 129, 130, 131, 132, 133, 134, 135, 136, 137, 138, 139, 140, 141, 142, 143, 144, 145, 146, 147, 148, 149, 150, 151, 152, 153, 154, 155, 156, 157, 158, 159, 160, 161, 162, 163, 164, 165, 166, 167, 168, 169, 170, 171, 172, 173, 174, 175, 176, 177, 178, 179, 180, 181, 182, 183, 184, 185, 186, 187, 188, 189, 190, 191, 192, 193, 194, 195, 196, 197, 198, 199, 200, 201, 202, 203, 204, 205, 206, 207, 208, 209, 210, 211, 212, 213, 214, 215, 216, 217, 218, 219, 220, 221, 222, 223, 224, 225, 226, 227, 228, 229, 230, 231, 232, 233, 234, 235, 236, 237, 238, 239, 240, 241, 242, 243, 244, 245, 246, 247, 248, 249, 250, 251, 252, 253, 254, 255, 256, 257, 258, 259, 260, 261, 262, 263, 264, 265, 266, 267, 268, 269, 270, 271, 272, 273, 274, 275, 276, 277, 278, 279, 280, 281, 282, 283, 284, 285, 286, 287, 288, 289, 290, 291, 292, 293, 294, 295, 296, 297, 298, 299, 300, 301, 302, 303, 304, 305, 306, 307, 308, 309, 310, 311, 312, 313, 314, 315, 316, 317, 318, 319, 320, 321, 322, 323, 324, 325, 326, 327, 328, 329, 330, 331, 332, 333, 334, 335, 336, 337, 338, 339, 340, 341, 342, 343, 344, 345, 346, 347, 348, 349, 350, 351, 352, 353, 354, 355, 356, 357, 358, 359, 360, 361, 362, 363, 364, 365, 366, 367, 368, 369, 370, 371, 372, 373, 374, 375, 376, 377, 378, 379, 380, 381, 382, 383, 384, 385, 386, 387, 388, 389, 390, 391, 392, 393, 394, 395, 396, 397, 398, 399, 400, 401, 402, 403, 404, 405, 406, 407, 408, 409, 410, 411, 412, 413, 414, 415, 416, 417, 418, 419, 420, 421, 422, 423, 424, 425, 426, 427, 428, 429, 430, 431, 432, 433, 434, 435, 436, 437, 438, 439, 440, 441, 442, 443, 444, 445, 446, 447, 448, 449, 450, 451, 452, 453, 454, 455, 456, 457, 458, 459, 460, 461, 462, 463, 464, 465, 466, 467, 468, 469, 470, 471, 472, 473, 474, 475, 476, 477, 478, 479, 480, 481, 482, 483, 484, 485, 486, 487, 488, 489, 490, 491, 492, 493, 494, 495, 496, 497, 498, 499, 500, 501, 502, 503, 504, 505, 506, 507, 508, 509, 510, 511, 512, 513, 514, 515, 516, 517, 518, 519, 520, 521, 522, 523, 524, 525, 526, 527, 528, 529, 530, 531, 532, 533, 534, 535, 536, 537, 538, 539, 540, 541, 542, 543, 544, 545, 546, 547, 548, 549, 550, 551, 552, 553, 554, 555, 556, 557, 558, 559, 560, 561, 562, 563, 564, 565, 566, 567, 568, 569, 570, 571, 572, 573, 574, 575, 576, 577, 578, 579, 580, 581, 582, 583, 584, 585, 586, 587, 588, 589, 590, 591, 592, 593, 594, 595, 596, 597, 598, 599, 600, 601, 602, 603, 604, 605, 606, 607, 608, 609, 610, 611, 612, 613, 614, 615, 616, 617, 618, 619, 620, 621, 622, 623, 624, 625, 626, 627, 628, 629, 630, 631, 632, 633, 634, 635, 636, 637, 638, 639, 640, 641, 642, 643, 644, 645, 646, 647, 648, 649, 650, 651, 652, 653, 654, 655, 656, 657, 658, 659, 660, 661, 662, 663, 664, 665, 666, 667, 668, 669, 670, 671, 672, 673, 674, 675, 676, 677, 678, 679, 680, 681, 682, 683, 684, 685, 686, 687, 688, 689, 690, 691, 692, 693, 694, 695, 696, 697, 698, 699, 700, 701, 702, 703, 704, 705, 706, 707, 708, 709, 710, 711, 712, 713, 714, 715, 716, 717, 718, 719, 720, 721, 722, 723, 724, 725, 726, 727, 728, 729, 730, 731, 732, 733, 734, 735, 736, 737, 738, 739, 740, 741, 742, 743, 744, 745, 746, 747, 748, 749, 750, 751, 752, 753, 754, 755, 756, 757, 758, 759, 760, 761, 762, 763, 764, 765, 766, 767, 768, 769, 770, 771, 772, 773, 774, 775, 776, 777, 778, 779, 780, 781, 782, 783, 784, 785, 786, 787, 788, 789, 790, 791, 792, 793, 794, 795, 796, 797, 798, 799, 800, 801, 802, 803, 804, 805, 806, 807, 808, 809, 810, 811, 812, 813, 814, 815, 816, 817, 818, 819, 820, 821, 822, 823, 824, 825, 826, 827, 828, 829, 830, 831, 832, 833, 834, 835, 836, 837, 838, 839, 840, 841, 842, 843, 844, 845, 846, 847, 848, 849, 850, 851, 852, 853, 854, 855, 856, 857, 858, 859, 860, 861, 862, 863, 864, 865, 866, 867, 868, 869, 870, 871, 872],
      "AcquisitionTime": ["192832.010000", "192832.470000", "192832.930000", "192833.390000", "192833.850000", "192834.310000", "192834.770000", "192835.230000", "192835.690000", "192836.150000", "192836.610000", "192837.070000", "192837.530000", "192837.990000", "192838.450000", "192838.910000", "192839.370000", "192839.830000", "192840.290000", "192840.750000", "192841.210000", "192841.670000", "192842.130000", "192842.590000", "192843.050000", "192843.510000", "192843.970000", "192844.430000", "192844.890000", "192845.350000", "192845.810000", "192846.270000", "192846.730000", "192847.190000", "192847.650000", "192848.110000", "192848.570000", "192849.030000", "192849.490000", "192849.950000", "192850.410000", "192850.870000", "192851.330000", "192851.790000", "192852.250000", "192852.710000", "192853.170000", "192853.630000", "192854.090000", "192854.550000", "192855.010000", "192855.470000", "192855.930000", "192856.390000", "192856.850000", "192857.310000", "192857.770000", "192858.230000", "192858.690000", "192859.150000", "192859.610000", "192900.070000", "192900.530000", "192900.990000", "192901.450000", "192901.910000", "192902.370000", "192902.830000", "192903.290000", "192903.750000", "192904.210000", "192904.670000", "192905.130000", "192905.590000", "192906.050000", "192906.510000", "192906.970000", "192907.430000", "192907.890000", "192908.350000", "192908.810000", "192909.270000", "192909.730000", "192910.190000", "192910.650000", "192911.110000", "192911.570000", "192912.030000", "192912.490000", "192912.950000", "192913.410000", "192913.870000", "192914.330000", "192914.790000", "192915.250000", "192915.710000", "192916.170000", "192916.630000", "192917.090000", "192917.550000", "192918.010000", "192918.470000", "192918.930000", "192919.390000", "192919.850000", "192920.310000", "192920.770000", "192921.230000", "192921.690000", "192922.150000", "192922.610000", "192923.070000", "192923.530000", "192923.990000", "192924.450000", "192924.910000", "192925.370000", "192925.830000", "192926.290000", "192926.750000", "192927.210000", "192927.670000", "192928.130000", "192928.590000", "192929.050000", "192929.510000", "192929.970000", "192930.430000", "192930.890000", "192931.350000", "192931.810000", "192932.270000", "192932.730000", "192933.190000", "192933.650000", "192934.110000", "192934.570000", "192935.030000", "192935.490000", "192935.950000", "192936.410000", "192936.870000", "192937.330000", "192937.790000", "192938.250000", "192938.710000", "192939.170000", "192939.630000", "192940.090000", "192940.550000", "192941.010000", "192941.470000", "192941.930000", "192942.390000", "192942.850000", "192943.310000", "192943.770000", "192944.230000", "192944.690000", "192945.150000", "192945.610000", "192946.070000", "192946.530000", "192946.990000", "192947.450000", "192947.910000", "192948.370000", "192948.830000", "192949.290000", "192949.750000", "192950.210000", "192950.670000", "192951.130000", "192951.590000", "192952.050000", "192952.510000", "192952.970000", "192953.430000", "192953.890000", "192954.350000", "192954.810000", "192955.270000", "192955.730000", "192956.190000", "192956.650000", "192957.110000", "192957.570000", "192958.030000", "192958.490000", "192958.950000", "192959.410000", "192959.870000", "193000.330000", "193000.790000", "193001.250000", "193001.710000", "193002.170000", "193002.630000", "193003.090000", "193003.550000", "193004.010000", "193004.470000", "193004.930000", "193005.390000", "193005.850000", "193006.310000", "193006.770000", "193007.230000", "193007.690000", "193008.150000", "193008.610000", "193009.070000", "193009.530000", "193009.990000", "193010.450000", "193010.910000", "193011.370000", "193011.830000", "193012.290000", "193012.750000", "193013.210000", "193013.670000", "193014.130000", "193014.590000", "193015.050000", "193015.510000", "193015.970000", "193016.430000", "193016.890000", "193017.350000", "193017.810000", "193018.270000", "193018.730000", "193019.190000", "193019.650000", "193020.110000", "193020.570000", "193021.030000", "193021.490000", "193021.950000", "193022.410000", "193022.870000", "193023.330000", "193023.790000", "193024.250000", "193024.710000", "193025.170000", "193025.630000", "193026.090000", "193026.550000", "193027.010000", "193027.470000", "193027.930000", "193028.390000", "193028.850000", "193029.310000", "193029.770000", "193030.230000", "193030.690000", "193031.150000", "193031.610000", "193032.070000", "193032.530000", "193032.990000", "193033.450000", "193033.910000", "193034.370000", "193034.830000", "193035.290000", "193035.750000", "193036.210000", "193036.670000", "193037.130000", "193037.590000", "193038.050000", "193038.510000", "193038.970000", "193039.430000", "193039.890000", "193040.350000", "193040.810000", "193041.270000", "193041.730000", "193042.190000", "193042.650000", "193043.110000", "193043.570000", "193044.030000", "193044.490000", "193044.950000", "193045.410000", "193045.870000", "193046.330000", "193046.790000", "193047.250000", "193047.710000", "193048.170000", "193048.630000", "193049.090000", "193049.550000", "193050.010000", "193050.470000", "193050.930000", "193051.390000", "193051.850000", "193052.310000", "193052.770000", "193053.230000", "193053.690000", "193054.150000", "193054.610000", "193055.070000", "193055.530000", "193055.990000", "193056.450000", "193056.910000", "193057.370000", "193057.830000", "193058.290000", "193058.750000", "193059.210000", "193059.670000", "193100.130000", "193100.590000", "193101.050000", "193101.510000", "193101.970000", "193102.430000", "193102.890000", "193103.350000", "193103.810000", "193104.270000", "193104.730000", "193105.190000", "193105.650000", "193106.110000", "193106.570000", "193107.030000", "193107.490000", "193107.950000", "193108.410000", "193108.870000", "193109.330000", "193109.790000", "193110.250000", "193110.710000", "193111.170000", "193111.630000", "193112.090000", "193112.550000", "193113.010000", "193113.470000", "193113.930000", "193114.390000", "193114.850000", "193115.310000", "193115.770000", "193116.230000", "193116.690000", "193117.150000", "193117.610000", "193118.070000", "193118.530000", "193118.990000", "193119.450000", "193119.910000", "193120.370000", "193120.830000", "193121.290000", "193121.750000", "193122.210000", "193122.670000", "193123.130000", "193123.590000", "193124.050000", "193124.510000", "193124.970000", "193125.430000", "193125.890000", "193126.350000", "193126.810000", "193127.270000", "193127.730000", "193128.190000", "193128.650000", "193129.110000", "193129.570000", "193130.030000", "193130.490000", "193130.950000", "193131.410000", "193131.870000", "193132.330000", "193132.790000", "193133.250000", "193133.710000", "193134.170000", "193134.630000", "193135.090000", "193135.550000", "193136.010000", "193136.470000", "193136.930000", "193137.390000", "193137.850000", "193138.310000", "193138.770000", "193139.230000", "193139.690000", "193140.150000", "193140.610000", "193141.070000", "193141.530000", "193141.990000", "193142.450000", "193142.910000", "193143.370000", "193143.830000", "193144.290000", "193144.750000", "193145.210000", "193145.670000", "193146.130000", "193146.590000", "193147.050000", "193147.510000", "193147.970000", "193148.430000", "193148.890000", "193149.350000", "193149.810000", "193150.270000", "193150.730000", "193151.190000", "193151.650000", "193152.110000", "193152.570000", "193153.030000", "193153.490000", "193153.950000", "193154.410000", "193154.870000", "193155.330000", "193155.790000", "193156.250000", "193156.710000", "193157.170000", "193157.630000", "193158.090000", "193158.550000", "193159.010000", "193159.470000", "193159.930000", "193200.390000", "193200.850000", "193201.310000", "193201.770000", "193202.230000", "193202.690000", "193203.150000", "193203.610000", "193204.070000", "193204.530000", "193204.990000", "193205.450000", "193205.910000", "193206.370000", "193206.830000", "193207.290000", "193207.750000", "193208.210000", "193208.670000", "193209.130000", "193209.590000", "193210.050000", "193210.510000", "193210.970000", "193211.430000", "193211.890000", "193212.350000", "193212.810000", "193213.270000", "193213.730000", "193214.190000", "193214.650000", "193215.110000", "193215.570000", "193216.030000", "193216.490000", "193216.950000", "193217.410000", "193217.870000", "193218.330000", "193218.790000", "193219.250000", "193219.710000", "193220.170000", "193220.630000", "193221.090000", "193221.550000", "193222.010000", "193222.470000", "193222.930000", "193223.390000", "193223.850000", "193224.310000", "193224.770000", "193225.230000", "193225.690000", "193226.150000", "193226.610000", "193227.070000", "193227.530000", "193227.990000", "193228.450000", "193228.910000", "193229.370000", "193229.830000", "193230.290000", "193230.750000", "193231.210000", "193231.670000", "193232.130000", "193232.590000", "193233.050000", "193233.510000", "193233.970000", "193234.430000", "193234.890000", "193235.350000", "193235.810000", "193236.270000", "193236.730000", "193237.190000", "193237.650000", "193238.110000", "193238.570000", "193239.030000", "193239.490000", "193239.950000", "193240.410000", "193240.870000", "193241.330000", "193241.790000", "193242.250000", "193242.710000", "193243.170000", "193243.630000", "193244.090000", "193244.550000", "193245.010000", "193245.470000", "193245.930000", "193246.390000", "193246.850000", "193247.310000", "193247.770000", "193248.230000", "193248.690000", "193249.150000", "193249.610000", "193250.070000", "193250.530000", "193250.990000", "193251.450000", "193251.910000", "193252.370000", "193252.830000", "193253.290000", "193253.750000", "193254.210000", "193254.670000", "193255.130000", "193255.590000", "193256.050000", "193256.510000", "193256.970000", "193257.430000", "193257.890000", "193258.350000", "193258.810000", "193259.270000", "193259.730000", "193300.190000", "193300.650000", "193301.110000", "193301.570000", "193302.030000", "193302.490000", "193302.950000", "193303.410000", "193303.870000", "193304.330000", "193304.790000", "193305.250000", "193305.710000", "193306.170000", "193306.630000", "193307.090000", "193307.550000", "193308.010000", "193308.470000", "193308.930000", "193309.390000", "193309.850000", "193310.310000", "193310.770000", "193311.230000", "193311.690000", "193312.150000", "193312.610000", "193313.070000", "193313.530000", "193313.990000", "193314.450000", "193314.910000", "193315.370000", "193315.830000", "193316.290000", "193316.750000", "193317.210000", "193317.670000", "193318.130000", "193318.590000", "193319.050000", "193319.510000", "193319.970000", "193320.430000", "193320.890000", "193321.350000", "193321.810000", "193322.270000", "193322.730000", "193323.190000", "193323.650000", "193324.110000", "193324.570000", "193325.030000", "193325.490000", "193325.950000", "193326.410000", "193326.870000", "193327.330000", "193327.790000", "193328.250000", "193328.710000", "193329.170000", "193329.630000", "193330.090000", "193330.550000", "193331.010000", "193331.470000", "193331.930000", "193332.390000", "193332.850000", "193333.310000", "193333.770000", "193334.230000", "193334.690000", "193335.150000", "193335.610000", "193336.070000", "193336.530000", "193336.990000", "193337.450000", "193337.910000", "193338.370000", "193338.830000", "193339.290000", "193339.750000", "193340.210000", "193340.670000", "193341.130000", "193341.590000", "193342.050000", "193342.510000", "193342.970000", "193343.430000", "193343.890000", "193344.350000", "193344.810000", "193345.270000", "193345.730000", "193346.190000", "193346.650000", "193347.110000", "193347.570000", "193348.030000", "193348.490000", "193348.950000", "193349.410000", "193349.870000", "193350.330000", "193350.790000", "193351.250000", "193351.710000", "193352.170000", "193352.630000", "193353.090000", "193353.550000", "193354.010000", "193354.470000", "193354.930000", "193355.390000", "193355.850000", "193356.310000", "193356.770000", "193357.230000", "193357.690000", "193358.150000", "193358.610000", "193359.070000", "193359.530000", "193359.990000", "193400.450000", "193400.910000", "193401.370000", "193401.830000", "193402.290000", "193402.750000", "193403.210000", "193403.670000", "193404.130000", "193404.590000", "193405.050000", "193405.510000", "193405.970000", "193406.430000", "193406.890000", "193407.350000", "193407.810000", "193408.270000", "193408.730000", "193409.190000", "193409.650000", "193410.110000", "193410.570000", "193411.030000", "193411.490000", "193411.950000", "193412.410000", "193412.870000", "193413.330000", "193413.790000", "193414.250000", "193414.710000", "193415.170000", "193415.630000", "193416.090000", "193416.550000", "193417.010000", "193417.470000", "193417.930000", "193418.390000", "193418.850000", "193419.310000", "193419.770000", "193420.230000", "193420.690000", "193421.150000", "193421.610000", "193422.070000", "193422.530000", "193422.990000", "193423.450000", "193423.910000", "193424.370000", "193424.830000", "193425.290000", "193425.750000", "193426.210000", "193426.670000", "193427.130000", "193427.590000", "193428.050000", "193428.510000", "193428.970000", "193429.430000", "193429.890000", "193430.350000", "193430.810000", "193431.270000", "193431.730000", "193432.190000", "193432.650000", "193433.110000", "193433.570000", "193434.030000", "193434.490000", "193434.950000", "193435.410000", "193435.870000", "193436.330000", "193436.790000", "193437.250000", "193437.710000", "193438.170000", "193438.630000", "193439.090000", "193439.550000", "193440.010000", "193440.470000", "193440.930000", "193441.390000", "193441.850000", "193442.310000", "193442.770000", "193443.230000", "193443.690000", "193444.150000", "193444.610000", "193445.070000", "193445.530000", "193445.990000", "193446.450000", "193446.910000", "193447.370000", "193447.830000", "193448.290000", "193448.750000", "193449.210000", "193449.670000", "193450.130000", "193450.590000", "193451.050000", "193451.510000", "193451.970000", "193452.430000", "193452.890000", "193453.350000", "193453.810000", "193454.270000", "193454.730000", "193455.190000", "193455.650000", "193456.110000", "193456.570000", "193457.030000", "193457.490000", "193457.950000", "193458.410000", "193458.870000", "193459.330000", "193459.790000", "193500.250000", "193500.710000", "193501.170000", "193501.630000", "193502.090000", "193502.550000", "193503.010000", "193503.470000", "193503.930000", "193504.390000", "193504.850000", "193505.310000", "193505.770000", "193506.230000", "193506.690000", "193507.150000", "193507.610000", "193508.070000", "193508.530000", "193508.990000", "193509.450000", "193509.910000", "193510.370000", "193510.830000", "193511.290000", "193511.750000", "193512.210000", "193512.670000"],
