{
  "AcquisitionMatrixPE": 82,
  "AcquisitionNumber": 1,
  "AcquisitionTime": "19:44:28.572500",
  "BandwidthPerPixelPhaseEncode": 24.888,
  "BaseResolution": 82,
  "BodyPartExamined": "BRAIN",
  "ConsistencyInfo": "N4_VE11E_LATEST_20181129",
  "ConversionSoftware": "dcm2niix",
  "ConversionSoftwareVersion": "v1.0.20201102",
  "DerivedVendorReportedEchoSpacing": 0.00049,
  "DeviceSerialNumber": "66112",
  "DwellTime": 2e-06,
  "EchoTime": 0.0272,
  "EchoTrainLength": 82,
  "EffectiveEchoSpacing": 0.00049,
  "FlipAngle": 44,
  "ImageComments": "Unaliased MB8/PE3",
  "ImageOrientationPatientDICOM": [0.999197, 0.0398528, 0.0040751, -0.0397825, 0.999079, -0.0160753],
  "ImageType": [
    "ORIGINAL",
    "PRIMARY",
    "M",
    "MB",
    "ND",
    "NORM",
    "MOSAIC"
],
  "ImagingFrequency": 123.252,
  "InPlanePhaseEncodingDirectionDICOM": "COL",
  "InstitutionAddress": "Maynard 3,Hanover,NH,US,03755",
  "InstitutionName": "Dartmouth College - PBS",
  "InstitutionalDepartmentName": "Department",
  "MRAcquisitionType": "2D",
  "MagneticFieldStrength": 3,
  "Manufacturer": "Siemens",
  "ManufacturersModelName": "Prisma",
  "Modality": "MR",
  "MultibandAccelerationFactor": 8,
  "PartialFourier": 1,
  "PatientPosition": "HFS",
  "PercentPhaseFOV": 100,
  "PercentSampling": 100,
  "PhaseEncodingDirection": "j-",
  "PhaseEncodingSteps": 82,
  "PhaseResolution": 1,
  "PixelBandwidth": 3050,
  "ProcedureStepDescription": "Wager_Wager^1076_spacetop",
  "ProtocolName": "func_run-06_task-social_acq-ap-mb8",
  "PulseSequenceDetails": "%CustomerSeq%\\cmrr_mbep2d_bold",
  "ReceiveCoilActiveElements": "HEA;HEP",
  "ReceiveCoilName": "Head_32",
  "ReconMatrixPE": 82,
  "RepetitionTime": 0.46,
  "SAR": 0.0857187,
  "ScanOptions": "FS",
  "ScanningSequence": "EP",
  "SequenceName": "epfid2d1_82",
  "SequenceVariant": "SK\\SS",
  "SeriesDescription": "func_run-06_task-social_acq-ap-mb8",
  "SeriesNumber": 22,
  "ShimSetting": [4153, -7784, -7238, 719, -31, -403, 336, 61],
  "SliceThickness": 2.7,
  "SliceTiming": [0, 0.2525, 0.0625, 0.315, 0.125, 0.3775, 0.1875, 0, 0.2525, 0.0625, 0.315, 0.125, 0.3775, 0.1875, 0, 0.2525, 0.0625, 0.315, 0.125, 0.3775, 0.1875, 0, 0.2525, 0.0625, 0.315, 0.125, 0.3775, 0.1875, 0, 0.2525, 0.0625, 0.315, 0.125, 0.3775, 0.1875, 0, 0.2525, 0.0625, 0.315, 0.125, 0.3775, 0.1875, 0, 0.2525, 0.0625, 0.315, 0.125, 0.3775, 0.1875, 0, 0.2525, 0.0625, 0.315, 0.125, 0.3775, 0.1875],
  "SoftwareVersions": "syngo MR E11",
  "SpacingBetweenSlices": 2.7,
  "StationName": "AWP66112",
  "TaskName": "social",
  "TotalReadoutTime": 0.03969,
  "TxRefAmp": 238.17,
  "WipMemBlock": "6bdd7684-9fac-4f20-9195-42be7c04441a||Sequence: R016 ve11e/master r/434b28f1; Aug  7 2019 18:53:46 by eja",
  "dcmmeta_affine": [
    [-2.6807732582092285, -0.10673356801271439, 0.012722376734018326, 116.92801666259766],
    [-0.10692211985588074, 2.6804559230804443, -0.042930860072374344, -85.19605255126953],
    [0.010933187790215015, 0.04312896355986595, 2.6996288299560547, -65.9483871459961],
    [0.0, 0.0, 0.0, 1.0]
],
  "dcmmeta_reorient_transform": [
    [0.0, -1.0, 0.0, 81.0],
    [1.0, 0.0, 0.0, 0.0],
    [0.0, 0.0, 1.0, 0.0],
    [0.0, 0.0, 0.0, 1.0]
],
  "dcmmeta_shape": [82, 82, 56, 872],
  "dcmmeta_slice_dim": 2,
  "dcmmeta_version": 0.6,
  "global": {
    "const": {
      "AccessionNumber": "A004000",
      "AcquisitionMatrix": [82, 0, 0, 82],
      "AngioFlag": "N",
      "BitsAllocated": 16,
      "BitsStored": 16,
      "BodyPartExamined": "BRAIN",
      "Columns": 656,
      "EchoNumbers": 1,
      "EchoTime": 27.2,
      "EchoTrainLength": 82,
      "FlipAngle": 44.0,
      "HighBit": 15,
      "ImageOrientationPatient": [0.99919725223672, 0.03985278791575, 0.00407509729159, -0.0397825119796, 0.99907904350983, -0.0160753401233],
      "ImagePositionPatient": [-847.03196244756, -931.89841541017, -53.214753249947],
      "ImageType": [
        "ORIGINAL",
        "PRIMARY",
        "M",
        "MB",
        "ND",
        "NORM",
        "MOSAIC"
],
      "ImagedNucleus": "1H",
      "ImagingFrequency": 123.252196,
      "InPlanePhaseEncodingDirection": "COL",
      "MRAcquisitionType": "2D",
      "MagneticFieldStrength": 3.0,
      "Manufacturer": "SIEMENS",
      "ManufacturerModelName": "Prisma",
      "Modality": "MR",
      "NumberOfAverages": 1.0,
      "NumberOfPhaseEncodingSteps": 82,
      "PercentPhaseFieldOfView": 100.0,
      "PercentSampling": 100.0,
      "PerformedProcedureStepStartTime": "182752.265000",
      "PhotometricInterpretation": "MONOCHROME2",
      "PixelBandwidth": 3050.0,
      "PixelRepresentation": 0,
      "PixelSpacing": [2.6829268932343, 2.6829268932343],
      "ProtocolName": "func_run-06_task-social_acq-ap-mb8",
      "RepetitionTime": 460.0,
      "Rows": 656,
      "SAR": 0.08571874145746,
      "SamplesPerPixel": 1,
      "ScanOptions": "FS",
      "ScanningSequence": "EP",
      "SequenceName": "epfid2d1_82",
      "SequenceVariant": [
        "SK",
        "SS"
],
      "SeriesDescription": "func_run-06_task-social_acq-ap-mb8",
      "SeriesNumber": 22,
      "SeriesTime": "194442.534000",
      "SliceLocation": -64.033708979987,
      "SliceThickness": 2.7000000476837,
      "SmallestImagePixelValue": 0,
      "SoftwareVersions": "syngo MR E11",
      "SpacingBetweenSlices": 2.7000000322715,
      "SpecificCharacterSet": "ISO_IR 100",
      "StudyID": "4",
      "StudyTime": "182752.116000",
      "TransmitCoilName": "Body",
      "VariableFlipAngleFlag": "N",
      "WindowCenterWidthExplanation": "Algo1"
    },
    "slices": {}
  },
  "time": {
    "samples": {
      "AcquisitionNumber": [1, 2, 3, 4, 5, 6, 7, 8, 9, 10, 11, 12, 13, 14, 15, 16, 17, 18, 19, 20, 21, 22, 23, 24, 25, 26, 27, 28, 29, 30, 31, 32, 33, 34, 35, 36, 37, 38, 39, 40, 41, 42, 43, 44, 45, 46, 47, 48, 49, 50, 51, 52, 53, 54, 55, 56, 57, 58, 59, 60, 61, 62, 63, 64, 65, 66, 67, 68, 69, 70, 71, 72, 73, 74, 75, 76, 77, 78, 79, 80, 81, 82, 83, 84, 85, 86, 87, 88, 89, 90, 91, 92, 93, 94, 95, 96, 97, 98, 99, 100, 101, 102, 103, 104, 105, 106, 107, 108, 109, 110, 111, 112, 113, 114, 115, 116, 117, 118, 119, 120, 121, 122, 123, 124, 125, 126, 127, 128, 129, 130, 131, 132, 133, 134, 135, 136, 137, 138, 139, 140, 141, 142, 143, 144, 145, 146, 147, 148, 149, 150, 151, 152, 153, 154, 155, 156, 157, 158, 159, 160, 161, 162, 163, 164, 165, 166, 167, 168, 169, 170, 171, 172, 173, 174, 175, 176, 177, 178, 179, 180, 181, 182, 183, 184, 185, 186, 187, 188, 189, 190, 191, 192, 193, 194, 195, 196, 197, 198, 199, 200, 201, 202, 203, 204, 205, 206, 207, 208, 209, 210, 211, 212, 213, 214, 215, 216, 217, 218, 219, 220, 221, 222, 223, 224, 225, 226, 227, 228, 229, 230, 231, 232, 233, 234, 235, 236, 237, 238, 239, 240, 241, 242, 243, 244, 245, 246, 247, 248, 249, 250, 251, 252, 253, 254, 255, 256, 257, 258, 259, 260, 261, 262, 263, 264, 265, 266, 267, 268, 269, 270, 271, 272, 273, 274, 275, 276, 277, 278, 279, 280, 281, 282, 283, 284, 285, 286, 287, 288, 289, 290, 291, 292, 293, 294, 295, 296, 297, 298, 299, 300, 301, 302, 303, 304, 305, 306, 307, 308, 309, 310, 311, 312, 313, 314, 315, 316, 317, 318, 319, 320, 321, 322, 323, 324, 325, 326, 327, 328, 329, 330, 331, 332, 333, 334, 335, 336, 337, 338, 339, 340, 341, 342, 343, 344, 345, 346, 347, 348, 349, 350, 351, 352, 353, 354, 355, 356, 357, 358, 359, 360, 361, 362, 363, 364, 365, 366, 367, 368, 369, 370, 371, 372, 373, 374, 375, 376, 377, 378, 379, 380, 381, 382, 383, 384, 385, 386, 387, 388, 389, 390, 391, 392, 393, 394, 395, 396, 397, 398, 399, 400, 401, 402, 403, 404, 405, 406, 407, 408, 409, 410, 411, 412, 413, 414, 415, 416, 417, 418, 419, 420, 421, 422, 423, 424, 425, 426, 427, 428, 429, 430, 431, 432, 433, 434, 435, 436, 437, 438, 439, 440, 441, 442, 443, 444, 445, 446, 447, 448, 449, 450, 451, 452, 453, 454, 455, 456, 457, 458, 459, 460, 461, 462, 463, 464, 465, 466, 467, 468, 469, 470, 471, 472, 473, 474, 475, 476, 477, 478, 479, 480, 481, 482, 483, 484, 485, 486, 487, 488, 489, 490, 491, 492, 493, 494, 495, 496, 497, 498, 499, 500, 501, 502, 503, 504, 505, 506, 507, 508, 509, 510, 511, 512, 513, 514, 515, 516, 517, 518, 519, 520, 521, 522, 523, 524, 525, 526, 527, 528, 529, 530, 531, 532, 533, 534, 535, 536, 537, 538, 539, 540, 541, 542, 543, 544, 545, 546, 547, 548, 549, 550, 551, 552, 553, 554, 555, 556, 557, 558, 559, 560, 561, 562, 563, 564, 565, 566, 567, 568, 569, 570, 571, 572, 573, 574, 575, 576, 577, 578, 579, 580, 581, 582, 583, 584, 585, 586, 587, 588, 589, 590, 591, 592, 593, 594, 595, 596, 597, 598, 599, 600, 601, 602, 603, 604, 605, 606, 607, 608, 609, 610, 611, 612, 613, 614, 615, 616, 617, 618, 619, 620, 621, 622, 623, 624, 625, 626, 627, 628, 629, 630, 631, 632, 633, 634, 635, 636, 637, 638, 639, 640, 641, 642, 643, 644, 645, 646, 647, 648, 649, 650, 651, 652, 653, 654, 655, 656, 657, 658, 659, 660, 661, 662, 663, 664, 665, 666, 667, 668, 669, 670, 671, 672, 673, 674, 675, 676, 677, 678, 679, 680, 681, 682, 683, 684, 685, 686, 687, 688, 689, 690, 691, 692, 693, 694, 695, 696, 697, 698, 699, 700, 701, 702, 703, 704, 705, 706, 707, 708, 709, 710, 711, 712, 713, 714, 715, 716, 717, 718, 719, 720, 721, 722, 723, 724, 725, 726, 727, 728, 729, 730, 731, 732, 733, 734, 735, 736, 737, 738, 739, 740, 741, 742, 743, 744, 745, 746, 747, 748, 749, 750, 751, 752, 753, 754, 755, 756, 757, 758, 759, 760, 761, 762, 763, 764, 765, 766, 767, 768, 769, 770, 771, 772, 773, 774, 775, 776, 777, 778, 779, 780, 781, 782, 783, 784, 785, 786, 787, 788, 789, 790, 791, 792, 793, 794, 795, 796, 797, 798, 799, 800, 801, 802, 803, 804, 805, 806, 807, 808, 809, 810, 811, 812, 813, 814, 815, 816, 817, 818, 819, 820, 821, 822, 823, 824, 825, 826, 827, 828, 829, 830, 831, 832, 833, 834, 835, 836, 837, 838, 839, 840, 841, 842, 843, 844, 845, 846, 847, 848, 849, 850, 851, 852, 853, 854, 855, 856, 857, 858, 859, 860, 861, 862, 863, 864, 865, 866, 867, 868, 869, 870, 871, 872],
      "AcquisitionTime": ["194428.572500", "194429.032500", "194429.492500", "194429.952500", "194430.412500", "194430.872500", "194431.332500", "194431.792500", "194432.252500", "194432.712500", "194433.172500", "194433.632500", "194434.092500", "194434.552500", "194435.012500", "194435.472500", "194435.932500", "194436.392500", "194436.852500", "194437.312500", "194437.772500", "194438.232500", "194438.692500", "194439.152500", "194439.612500", "194440.072500", "194440.532500", "194440.992500", "194441.452500", "194441.912500", "194442.372500", "194442.832500", "194443.292500", "194443.752500", "194444.212500", "194444.672500", "194445.132500", "194445.592500", "194446.052500", "194446.512500", "194446.972500", "194447.432500", "194447.892500", "194448.352500", "194448.812500", "194449.272500", "194449.732500", "194450.192500", "194450.652500", "194451.112500", "194451.572500", "194452.032500", "194452.492500", "194452.952500", "194453.412500", "194453.872500", "194454.332500", "194454.792500", "194455.252500", "194455.712500", "194456.172500", "194456.632500", "194457.092500", "194457.552500", "194458.012500", "194458.472500", "194458.932500", "194459.392500", "194459.852500", "194500.312500", "194500.772500", "194501.232500", "194501.692500", "194502.152500", "194502.612500", "194503.072500", "194503.532500", "194503.992500", "194504.452500", "194504.912500", "194505.372500", "194505.832500", "194506.292500", "194506.752500", "194507.212500", "194507.672500", "194508.132500", "194508.592500", "194509.052500", "194509.512500", "194509.972500", "194510.432500", "194510.892500", "194511.352500", "194511.812500", "194512.272500", "194512.732500", "194513.192500", "194513.652500", "194514.112500", "194514.572500", "194515.032500", "194515.492500", "194515.952500", "194516.412500", "194516.872500", "194517.332500", "194517.792500", "194518.252500", "194518.712500", "194519.172500", "194519.632500", "194520.092500", "194520.552500", "194521.012500", "194521.472500", "194521.932500", "194522.392500", "194522.852500", "194523.312500", "194523.772500", "194524.232500", "194524.692500", "194525.152500", "194525.612500", "194526.072500", "194526.532500", "194526.992500", "194527.452500", "194527.912500", "194528.372500", "194528.832500", "194529.292500", "194529.752500", "194530.212500", "194530.672500", "194531.132500", "194531.592500", "194532.052500", "194532.512500", "194532.972500", "194533.432500", "194533.892500", "194534.352500", "194534.812500", "194535.272500", "194535.732500", "194536.192500", "194536.652500", "194537.112500", "194537.572500", "194538.032500", "194538.492500", "194538.952500", "194539.412500", "194539.872500", "194540.332500", "194540.792500", "194541.252500", "194541.712500", "194542.172500", "194542.632500", "194543.092500", "194543.552500", "194544.012500", "194544.472500", "194544.932500", "194545.392500", "194545.852500", "194546.312500", "194546.772500", "194547.232500", "194547.692500", "194548.152500", "194548.612500", "194549.072500", "194549.532500", "194549.992500", "194550.452500", "194550.912500", "194551.372500", "194551.832500", "194552.292500", "194552.752500", "194553.212500", "194553.672500", "194554.132500", "194554.592500", "194555.052500", "194555.512500", "194555.972500", "194556.432500", "194556.892500", "194557.352500", "194557.812500", "194558.272500", "194558.732500", "194559.192500", "194559.652500", "194600.112500", "194600.572500", "194601.032500", "194601.492500", "194601.952500", "194602.412500", "194602.872500", "194603.332500", "194603.792500", "194604.252500", "194604.712500", "194605.172500", "194605.632500", "194606.092500", "194606.552500", "194607.012500", "194607.472500", "194607.932500", "194608.392500", "194608.852500", "194609.312500", "194609.772500", "194610.232500", "194610.692500", "194611.152500", "194611.612500", "194612.072500", "194612.532500", "194612.992500", "194613.452500", "194613.912500", "194614.372500", "194614.832500", "194615.292500", "194615.752500", "194616.212500", "194616.672500", "194617.132500", "194617.592500", "194618.052500", "194618.512500", "194618.972500", "194619.432500", "194619.892500", "194620.352500", "194620.812500", "194621.272500", "194621.732500", "194622.192500", "194622.652500", "194623.112500", "194623.572500", "194624.032500", "194624.492500", "194624.952500", "194625.412500", "194625.872500", "194626.332500", "194626.792500", "194627.252500", "194627.712500", "194628.172500", "194628.632500", "194629.092500", "194629.552500", "194630.012500", "194630.472500", "194630.932500", "194631.392500", "194631.852500", "194632.312500", "194632.772500", "194633.232500", "194633.692500", "194634.152500", "194634.612500", "194635.072500", "194635.532500", "194635.992500", "194636.452500", "194636.912500", "194637.372500", "194637.832500", "194638.292500", "194638.752500", "194639.212500", "194639.672500", "194640.132500", "194640.592500", "194641.052500", "194641.512500", "194641.972500", "194642.432500", "194642.892500", "194643.352500", "194643.812500", "194644.272500", "194644.732500", "194645.192500", "194645.652500", "194646.112500", "194646.572500", "194647.032500", "194647.492500", "194647.952500", "194648.412500", "194648.872500", "194649.332500", "194649.792500", "194650.252500", "194650.712500", "194651.172500", "194651.632500", "194652.092500", "194652.552500", "194653.012500", "194653.472500", "194653.932500", "194654.392500", "194654.852500", "194655.312500", "194655.772500", "194656.232500", "194656.692500", "194657.152500", "194657.612500", "194658.072500", "194658.532500", "194658.992500", "194659.452500", "194659.912500", "194700.372500", "194700.832500", "194701.292500", "194701.752500", "194702.212500", "194702.672500", "194703.132500", "194703.592500", "194704.052500", "194704.512500", "194704.972500", "194705.432500", "194705.892500", "194706.352500", "194706.812500", "194707.272500", "194707.732500", "194708.192500", "194708.652500", "194709.112500", "194709.572500", "194710.032500", "194710.492500", "194710.952500", "194711.412500", "194711.872500", "194712.332500", "194712.792500", "194713.252500", "194713.712500", "194714.172500", "194714.632500", "194715.092500", "194715.552500", "194716.012500", "194716.472500", "194716.932500", "194717.392500", "194717.852500", "194718.312500", "194718.772500", "194719.232500", "194719.692500", "194720.152500", "194720.612500", "194721.072500", "194721.532500", "194721.992500", "194722.452500", "194722.912500", "194723.372500", "194723.832500", "194724.292500", "194724.752500", "194725.212500", "194725.672500", "194726.132500", "194726.592500", "194727.052500", "194727.512500", "194727.972500", "194728.432500", "194728.892500", "194729.352500", "194729.812500", "194730.272500", "194730.732500", "194731.192500", "194731.652500", "194732.112500", "194732.572500", "194733.032500", "194733.492500", "194733.952500", "194734.412500", "194734.872500", "194735.332500", "194735.792500", "194736.252500", "194736.712500", "194737.172500", "194737.632500", "194738.092500", "194738.552500", "194739.012500", "194739.472500", "194739.932500", "194740.392500", "194740.852500", "194741.312500", "194741.772500", "194742.232500", "194742.692500", "194743.152500", "194743.612500", "194744.072500", "194744.532500", "194744.992500", "194745.452500", "194745.912500", "194746.372500", "194746.832500", "194747.292500", "194747.752500", "194748.212500", "194748.672500", "194749.132500", "194749.592500", "194750.052500", "194750.512500", "194750.972500", "194751.432500", "194751.892500", "194752.352500", "194752.812500", "194753.272500", "194753.732500", "194754.192500", "194754.652500", "194755.112500", "194755.572500", "194756.032500", "194756.492500", "194756.952500", "194757.412500", "194757.872500", "194758.332500", "194758.792500", "194759.252500", "194759.712500", "194800.172500", "194800.632500", "194801.092500", "194801.552500", "194802.012500", "194802.472500", "194802.932500", "194803.392500", "194803.852500", "194804.312500", "194804.772500", "194805.232500", "194805.692500", "194806.152500", "194806.612500", "194807.072500", "194807.532500", "194807.992500", "194808.452500", "194808.912500", "194809.372500", "194809.832500", "194810.292500", "194810.752500", "194811.212500", "194811.672500", "194812.132500", "194812.592500", "194813.052500", "194813.512500", "194813.972500", "194814.432500", "194814.892500", "194815.352500", "194815.812500", "194816.272500", "194816.732500", "194817.192500", "194817.652500", "194818.112500", "194818.572500", "194819.032500", "194819.492500", "194819.952500", "194820.412500", "194820.872500", "194821.332500", "194821.792500", "194822.252500", "194822.712500", "194823.172500", "194823.632500", "194824.092500", "194824.552500", "194825.012500", "194825.472500", "194825.932500", "194826.392500", "194826.852500", "194827.312500", "194827.772500", "194828.232500", "194828.692500", "194829.152500", "194829.612500", "194830.072500", "194830.532500", "194830.992500", "194831.452500", "194831.912500", "194832.372500", "194832.832500", "194833.292500", "194833.752500", "194834.212500", "194834.672500", "194835.132500", "194835.592500", "194836.052500", "194836.512500", "194836.972500", "194837.432500", "194837.892500", "194838.352500", "194838.812500", "194839.272500", "194839.732500", "194840.192500", "194840.652500", "194841.112500", "194841.572500", "194842.032500", "194842.492500", "194842.952500", "194843.412500", "194843.872500", "194844.332500", "194844.792500", "194845.252500", "194845.712500", "194846.172500", "194846.632500", "194847.092500", "194847.552500", "194848.012500", "194848.472500", "194848.932500", "194849.392500", "194849.852500", "194850.312500", "194850.772500", "194851.232500", "194851.692500", "194852.152500", "194852.612500", "194853.072500", "194853.532500", "194853.992500", "194854.452500", "194854.912500", "194855.372500", "194855.832500", "194856.292500", "194856.752500", "194857.212500", "194857.672500", "194858.132500", "194858.592500", "194859.052500", "194859.512500", "194859.972500", "194900.432500", "194900.892500", "194901.352500", "194901.812500", "194902.272500", "194902.732500", "194903.192500", "194903.652500", "194904.112500", "194904.572500", "194905.032500", "194905.492500", "194905.952500", "194906.412500", "194906.872500", "194907.332500", "194907.792500", "194908.252500", "194908.712500", "194909.172500", "194909.632500", "194910.092500", "194910.552500", "194911.012500", "194911.472500", "194911.932500", "194912.392500", "194912.852500", "194913.312500", "194913.772500", "194914.232500", "194914.692500", "194915.152500", "194915.612500", "194916.072500", "194916.532500", "194916.992500", "194917.452500", "194917.912500", "194918.372500", "194918.832500", "194919.292500", "194919.752500", "194920.212500", "194920.672500", "194921.132500", "194921.592500", "194922.052500", "194922.512500", "194922.972500", "194923.432500", "194923.892500", "194924.352500", "194924.812500", "194925.272500", "194925.732500", "194926.192500", "194926.652500", "194927.112500", "194927.572500", "194928.032500", "194928.492500", "194928.952500", "194929.412500", "194929.872500", "194930.332500", "194930.792500", "194931.252500", "194931.712500", "194932.172500", "194932.632500", "194933.092500", "194933.552500", "194934.012500", "194934.472500", "194934.932500", "194935.392500", "194935.852500", "194936.312500", "194936.772500", "194937.232500", "194937.692500", "194938.152500", "194938.612500", "194939.072500", "194939.532500", "194939.992500", "194940.452500", "194940.912500", "194941.372500", "194941.832500", "194942.292500", "194942.752500", "194943.212500", "194943.672500", "194944.132500", "194944.592500", "194945.052500", "194945.512500", "194945.972500", "194946.432500", "194946.892500", "194947.352500", "194947.812500", "194948.272500", "194948.732500", "194949.192500", "194949.652500", "194950.112500", "194950.572500", "194951.032500", "194951.492500", "194951.952500", "194952.412500", "194952.872500", "194953.332500", "194953.792500", "194954.252500", "194954.712500", "194955.172500", "194955.632500", "194956.092500", "194956.552500", "194957.012500", "194957.472500", "194957.932500", "194958.392500", "194958.852500", "194959.312500", "194959.772500", "195000.232500", "195000.692500", "195001.152500", "195001.612500", "195002.072500", "195002.532500", "195002.992500", "195003.452500", "195003.912500", "195004.372500", "195004.832500", "195005.292500", "195005.752500", "195006.212500", "195006.672500", "195007.132500", "195007.592500", "195008.052500", "195008.512500", "195008.972500", "195009.432500", "195009.892500", "195010.352500", "195010.812500", "195011.272500", "195011.732500", "195012.192500", "195012.652500", "195013.112500", "195013.572500", "195014.032500", "195014.492500", "195014.952500", "195015.412500", "195015.872500", "195016.332500", "195016.792500", "195017.252500", "195017.712500", "195018.172500", "195018.632500", "195019.092500", "195019.552500", "195020.012500", "195020.472500", "195020.932500", "195021.392500", "195021.852500", "195022.312500", "195022.772500", "195023.232500", "195023.692500", "195024.152500", "195024.612500", "195025.072500", "195025.532500", "195025.992500", "195026.452500", "195026.912500", "195027.372500", "195027.832500", "195028.292500", "195028.752500", "195029.212500", "195029.672500", "195030.132500", "195030.592500", "195031.052500", "195031.512500", "195031.972500", "195032.432500", "195032.892500", "195033.352500", "195033.812500", "195034.272500", "195034.732500", "195035.192500", "195035.652500", "195036.112500", "195036.572500", "195037.032500", "195037.492500", "195037.952500", "195038.412500", "195038.872500", "195039.332500", "195039.792500", "195040.252500", "195040.712500", "195041.172500", "195041.632500", "195042.092500", "195042.552500", "195043.012500", "195043.472500", "195043.932500", "195044.392500", "195044.852500", "195045.312500", "195045.772500", "195046.232500", "195046.692500", "195047.152500", "195047.612500", "195048.072500", "195048.532500", "195048.992500", "195049.452500", "195049.912500", "195050.372500", "195050.832500", "195051.292500", "195051.752500", "195052.212500", "195052.672500", "195053.132500", "195053.592500", "195054.052500", "195054.512500", "195054.972500", "195055.432500", "195055.892500", "195056.352500", "195056.812500", "195057.272500", "195057.732500", "195058.192500", "195058.652500", "195059.112500", "195059.572500", "195100.032500", "195100.492500", "195100.952500", "195101.412500", "195101.872500", "195102.332500", "195102.792500", "195103.252500", "195103.712500", "195104.172500", "195104.632500", "195105.092500", "195105.552500", "195106.012500", "195106.472500", "195106.932500", "195107.392500", "195107.852500", "195108.312500", "195108.772500", "195109.232500"],
