{
  "AcquisitionMatrixPE": 82,
  "AcquisitionNumber": 1,
  "AcquisitionTime": "12:11:45.675000",
  "BandwidthPerPixelPhaseEncode": 24.888,
  "BaseResolution": 82,
  "BodyPartExamined": "BRAIN",
  "ConsistencyInfo": "N4_VE11C_LATEST_20160120",
  "ConversionSoftware": "dcm2niix",
  "ConversionSoftwareVersion": "v1.0.20201102",
  "DerivedVendorReportedEchoSpacing": 0.00049,
  "DeviceSerialNumber": "66112",
  "DwellTime": 2e-06,
  "EchoTime": 0.0272,
  "EchoTrainLength": 82,
  "EffectiveEchoSpacing": 0.00049,
  "FlipAngle": 44,
  "ImageComments": "Unaliased MB8/PE3",
  "ImageOrientationPatientDICOM": [0.999768, -0.0212369, -0.00355872, 0.0212913, 0.999645, 0.0160159],
  "ImageType": [
    "ORIGINAL",
    "PRIMARY",
    "M",
    "MB",
    "ND",
    "NORM",
    "MOSAIC"
],
  "ImagingFrequency": 123.252,
  "InPlanePhaseEncodingDirectionDICOM": "COL",
  "InstitutionAddress": "Maynard 3,Hanover,NH,US,03755",
  "InstitutionName": "Dartmouth College - PBS",
  "InstitutionalDepartmentName": "Department",
  "MRAcquisitionType": "2D",
  "MagneticFieldStrength": 3,
  "Manufacturer": "Siemens",
  "ManufacturersModelName": "Prisma",
  "Modality": "MR",
  "MultibandAccelerationFactor": 8,
  "PartialFourier": 1,
  "PatientPosition": "HFS",
  "PercentPhaseFOV": 100,
  "PercentSampling": 100,
  "PhaseEncodingDirection": "j-",
  "PhaseEncodingSteps": 82,
  "PhaseResolution": 1,
  "PixelBandwidth": 3050,
  "ProcedureStepDescription": "Wager_Wager^1076_spacetop",
  "ProtocolName": "func_run-02_task-faces_acq-ap-mb8",
  "PulseSequenceDetails": "%CustomerSeq%\\cmrr_mbep2d_bold",
  "ReceiveCoilActiveElements": "HEA;HEP",
  "ReceiveCoilName": "Head_32",
  "ReconMatrixPE": 82,
  "RepetitionTime": 0.46,
  "SAR": 0.134129,
  "ScanOptions": "FS",
  "ScanningSequence": "EP",
  "SequenceName": "epfid2d1_82",
  "SequenceVariant": "SK\\SS",
  "SeriesDescription": "func_run-02_task-faces_acq-ap-mb8",
  "SeriesNumber": 18,
  "ShimSetting": [4152, -7748, -7190, 499, -43, -163, 127, 41],
  "SliceThickness": 2.7,
  "SliceTiming": [0, 0.2525, 0.0625, 0.315, 0.1275, 0.3775, 0.19, 0, 0.2525, 0.0625, 0.315, 0.1275, 0.3775, 0.19, 0, 0.2525, 0.0625, 0.315, 0.1275, 0.3775, 0.19, 0, 0.2525, 0.0625, 0.315, 0.1275, 0.3775, 0.19, 0, 0.2525, 0.0625, 0.315, 0.1275, 0.3775, 0.19, 0, 0.2525, 0.0625, 0.315, 0.1275, 0.3775, 0.19, 0, 0.2525, 0.0625, 0.315, 0.1275, 0.3775, 0.19, 0, 0.2525, 0.0625, 0.315, 0.1275, 0.3775, 0.19],
  "SoftwareVersions": "syngo MR E11",
  "SpacingBetweenSlices": 2.7,
  "StationName": "AWP66112",
  "TaskName": "faces",
  "TotalReadoutTime": 0.03969,
  "TxRefAmp": 302.406,
  "WipMemBlock": "ac94ae39-5769-4a1f-a15d-5a97eba2072c||Sequence: R016 ve11c/master r/e634e98; Dec 19 2017 11:00:25 by eja",
  "dcmmeta_affine": [
    [-2.682304859161377, 0.05712303891777992, -0.008686798624694347, 111.3343505859375],
    [0.056977104395627975, 2.681974411010742, 0.043437402695417404, -90.51675415039062],
    [-0.009547796100378036, -0.04296940937638283, 2.699636697769165, -36.8962516784668],
    [0.0, 0.0, 0.0, 1.0]
],
  "dcmmeta_reorient_transform": [
    [0.0, -1.0, 0.0, 81.0],
    [1.0, 0.0, 0.0, 0.0],
    [0.0, 0.0, 1.0, 0.0],
    [0.0, 0.0, 0.0, 1.0]
],
  "dcmmeta_shape": [82, 82, 56, 914],
  "dcmmeta_slice_dim": 2,
  "dcmmeta_version": 0.6,
  "global": {
    "const": {
      "AccessionNumber": "A003816",
      "AcquisitionMatrix": [82, 0, 0, 82],
      "AngioFlag": "N",
      "BitsAllocated": 16,
      "BitsStored": 16,
      "BodyPartExamined": "BRAIN",
      "Columns": 656,
      "EchoNumbers": 1,
      "EchoTime": 27.2,
      "EchoTrainLength": 82,
      "FlipAngle": 44.0,
      "HighBit": 15,
      "ImageOrientationPatient": [0.99976813747318, -0.0212369201585, -0.0035587238706, 0.02129131425492, 0.99964502292047, 0.01601586986832],
      "ImagePositionPatient": [-902.17710980408, -880.09743663342, -49.96877753939],
      "ImageType": [
        "ORIGINAL",
        "PRIMARY",
        "M",
        "MB",
        "ND",
        "NORM",
        "MOSAIC"
],
      "ImagedNucleus": "1H",
      "ImagingFrequency": 123.252123,
      "InPlanePhaseEncodingDirection": "COL",
      "MRAcquisitionType": "2D",
      "MagneticFieldStrength": 3.0,
      "Manufacturer": "SIEMENS",
      "ManufacturerModelName": "Prisma",
      "Modality": "MR",
      "NumberOfAverages": 1.0,
      "NumberOfPhaseEncodingSteps": 82,
      "PercentPhaseFieldOfView": 100.0,
      "PercentSampling": 100.0,
      "PerformedProcedureStepStartTime": "110947.307000",
      "PhotometricInterpretation": "MONOCHROME2",
      "PixelBandwidth": 3050.0,
      "PixelRepresentation": 0,
      "PixelSpacing": [2.6829268932343, 2.6829268932343],
      "ProtocolName": "func_run-02_task-faces_acq-ap-mb8",
      "RepetitionTime": 460.0,
      "Rows": 656,
      "SAR": 0.13412868958228,
      "SamplesPerPixel": 1,
      "ScanOptions": "FS",
      "ScanningSequence": "EP",
      "SequenceName": "epfid2d1_82",
      "SequenceVariant": [
        "SK",
        "SS"
],
      "SeriesDescription": "func_run-02_task-faces_acq-ap-mb8",
      "SeriesNumber": 18,
      "SeriesTime": "121158.309000",
      "SliceLocation": -38.705713336374,
      "SliceThickness": 2.7000000476837,
      "SmallestImagePixelValue": 0,
      "SoftwareVersions": "syngo MR E11",
      "SpacingBetweenSlices": 2.7000000402544,
      "SpecificCharacterSet": "ISO_IR 100",
      "StudyID": "2",
      "StudyTime": "110947.255000",
      "TransmitCoilName": "Body",
      "VariableFlipAngleFlag": "N",
      "WindowCenterWidthExplanation": "Algo1",
      "dBdt": 0.0},
    "slices": {}
  },
  "time": {
    "samples": {
      "AcquisitionNumber": [1, 2, 3, 4, 5, 6, 7, 8, 9, 10, 11, 12, 13, 14, 15, 16, 17, 18, 19, 20, 21, 22, 23, 24, 25, 26, 27, 28, 29, 30, 31, 32, 33, 34, 35, 36, 37, 38, 39, 40, 41, 42, 43, 44, 45, 46, 47, 48, 49, 50, 51, 52, 53, 54, 55, 56, 57, 58, 59, 60, 61, 62, 63, 64, 65, 66, 67, 68, 69, 70, 71, 72, 73, 74, 75, 76, 77, 78, 79, 80, 81, 82, 83, 84, 85, 86, 87, 88, 89, 90, 91, 92, 93, 94, 95, 96, 97, 98, 99, 100, 101, 102, 103, 104, 105, 106, 107, 108, 109, 110, 111, 112, 113, 114, 115, 116, 117, 118, 119, 120, 121, 122, 123, 124, 125, 126, 127, 128, 129, 130, 131, 132, 133, 134, 135, 136, 137, 138, 139, 140, 141, 142, 143, 144, 145, 146, 147, 148, 149, 150, 151, 152, 153, 154, 155, 156, 157, 158, 159, 160, 161, 162, 163, 164, 165, 166, 167, 168, 169, 170, 171, 172, 173, 174, 175, 176, 177, 178, 179, 180, 181, 182, 183, 184, 185, 186, 187, 188, 189, 190, 191, 192, 193, 194, 195, 196, 197, 198, 199, 200, 201, 202, 203, 204, 205, 206, 207, 208, 209, 210, 211, 212, 213, 214, 215, 216, 217, 218, 219, 220, 221, 222, 223, 224, 225, 226, 227, 228, 229, 230, 231, 232, 233, 234, 235, 236, 237, 238, 239, 240, 241, 242, 243, 244, 245, 246, 247, 248, 249, 250, 251, 252, 253, 254, 255, 256, 257, 258, 259, 260, 261, 262, 263, 264, 265, 266, 267, 268, 269, 270, 271, 272, 273, 274, 275, 276, 277, 278, 279, 280, 281, 282, 283, 284, 285, 286, 287, 288, 289, 290, 291, 292, 293, 294, 295, 296, 297, 298, 299, 300, 301, 302, 303, 304, 305, 306, 307, 308, 309, 310, 311, 312, 313, 314, 315, 316, 317, 318, 319, 320, 321, 322, 323, 324, 325, 326, 327, 328, 329, 330, 331, 332, 333, 334, 335, 336, 337, 338, 339, 340, 341, 342, 343, 344, 345, 346, 347, 348, 349, 350, 351, 352, 353, 354, 355, 356, 357, 358, 359, 360, 361, 362, 363, 364, 365, 366, 367, 368, 369, 370, 371, 372, 373, 374, 375, 376, 377, 378, 379, 380, 381, 382, 383, 384, 385, 386, 387, 388, 389, 390, 391, 392, 393, 394, 395, 396, 397, 398, 399, 400, 401, 402, 403, 404, 405, 406, 407, 408, 409, 410, 411, 412, 413, 414, 415, 416, 417, 418, 419, 420, 421, 422, 423, 424, 425, 426, 427, 428, 429, 430, 431, 432, 433, 434, 435, 436, 437, 438, 439, 440, 441, 442, 443, 444, 445, 446, 447, 448, 449, 450, 451, 452, 453, 454, 455, 456, 457, 458, 459, 460, 461, 462, 463, 464, 465, 466, 467, 468, 469, 470, 471, 472, 473, 474, 475, 476, 477, 478, 479, 480, 481, 482, 483, 484, 485, 486, 487, 488, 489, 490, 491, 492, 493, 494, 495, 496, 497, 498, 499, 500, 501, 502, 503, 504, 505, 506, 507, 508, 509, 510, 511, 512, 513, 514, 515, 516, 517, 518, 519, 520, 521, 522, 523, 524, 525, 526, 527, 528, 529, 530, 531, 532, 533, 534, 535, 536, 537, 538, 539, 540, 541, 542, 543, 544, 545, 546, 547, 548, 549, 550, 551, 552, 553, 554, 555, 556, 557, 558, 559, 560, 561, 562, 563, 564, 565, 566, 567, 568, 569, 570, 571, 572, 573, 574, 575, 576, 577, 578, 579, 580, 581, 582, 583, 584, 585, 586, 587, 588, 589, 590, 591, 592, 593, 594, 595, 596, 597, 598, 599, 600, 601, 602, 603, 604, 605, 606, 607, 608, 609, 610, 611, 612, 613, 614, 615, 616, 617, 618, 619, 620, 621, 622, 623, 624, 625, 626, 627, 628, 629, 630, 631, 632, 633, 634, 635, 636, 637, 638, 639, 640, 641, 642, 643, 644, 645, 646, 647, 648, 649, 650, 651, 652, 653, 654, 655, 656, 657, 658, 659, 660, 661, 662, 663, 664, 665, 666, 667, 668, 669, 670, 671, 672, 673, 674, 675, 676, 677, 678, 679, 680, 681, 682, 683, 684, 685, 686, 687, 688, 689, 690, 691, 692, 693, 694, 695, 696, 697, 698, 699, 700, 701, 702, 703, 704, 705, 706, 707, 708, 709, 710, 711, 712, 713, 714, 715, 716, 717, 718, 719, 720, 721, 722, 723, 724, 725, 726, 727, 728, 729, 730, 731, 732, 733, 734, 735, 736, 737, 738, 739, 740, 741, 742, 743, 744, 745, 746, 747, 748, 749, 750, 751, 752, 753, 754, 755, 756, 757, 758, 759, 760, 761, 762, 763, 764, 765, 766, 767, 768, 769, 770, 771, 772, 773, 774, 775, 776, 777, 778, 779, 780, 781, 782, 783, 784, 785, 786, 787, 788, 789, 790, 791, 792, 793, 794, 795, 796, 797, 798, 799, 800, 801, 802, 803, 804, 805, 806, 807, 808, 809, 810, 811, 812, 813, 814, 815, 816, 817, 818, 819, 820, 821, 822, 823, 824, 825, 826, 827, 828, 829, 830, 831, 832, 833, 834, 835, 836, 837, 838, 839, 840, 841, 842, 843, 844, 845, 846, 847, 848, 849, 850, 851, 852, 853, 854, 855, 856, 857, 858, 859, 860, 861, 862, 863, 864, 865, 866, 867, 868, 869, 870, 871, 872, 873, 874, 875, 876, 877, 878, 879, 880, 881, 882, 883, 884, 885, 886, 887, 888, 889, 890, 891, 892, 893, 894, 895, 896, 897, 898, 899, 900, 901, 902, 903, 904, 905, 906, 907, 908, 909, 910, 911, 912, 913, 914],
      "AcquisitionTime": ["121145.675000", "121146.135000", "121146.595000", "121147.055000", "121147.515000", "121147.975000", "121148.435000", "121148.895000", "121149.355000", "121149.815000", "121150.275000", "121150.735000", "121151.195000", "121151.655000", "121152.115000", "121152.575000", "121153.035000", "121153.495000", "121153.955000", "121154.415000", "121154.875000", "121155.335000", "121155.795000", "121156.255000", "121156.715000", "121157.175000", "121157.635000", "121158.095000", "121158.555000", "121159.015000", "121159.475000", "121159.935000", "121200.395000", "121200.855000", "121201.315000", "121201.775000", "121202.235000", "121202.695000", "121203.155000", "121203.615000", "121204.075000", "121204.535000", "121204.995000", "121205.455000", "121205.915000", "121206.375000", "121206.835000", "121207.295000", "121207.755000", "121208.215000", "121208.675000", "121209.135000", "121209.595000", "121210.055000", "121210.515000", "121210.975000", "121211.435000", "121211.895000", "121212.355000", "121212.815000", "121213.275000", "121213.735000", "121214.195000", "121214.655000", "121215.115000", "121215.575000", "121216.035000", "121216.495000", "121216.955000", "121217.415000", "121217.875000", "121218.335000", "121218.795000", "121219.255000", "121219.715000", "121220.175000", "121220.635000", "121221.095000", "121221.555000", "121222.015000", "121222.475000", "121222.935000", "121223.395000", "121223.855000", "121224.315000", "121224.775000", "121225.235000", "121225.695000", "121226.155000", "121226.615000", "121227.075000", "121227.535000", "121227.995000", "121228.455000", "121228.915000", "121229.375000", "121229.835000", "121230.295000", "121230.755000", "121231.215000", "121231.675000", "121232.135000", "121232.595000", "121233.055000", "121233.515000", "121233.975000", "121234.435000", "121234.895000", "121235.355000", "121235.815000", "121236.275000", "121236.735000", "121237.195000", "121237.655000", "121238.115000", "121238.575000", "121239.035000", "121239.495000", "121239.955000", "121240.415000", "121240.875000", "121241.335000", "121241.795000", "121242.255000", "121242.715000", "121243.175000", "121243.635000", "121244.095000", "121244.555000", "121245.015000", "121245.475000", "121245.935000", "121246.395000", "121246.855000", "121247.315000", "121247.775000", "121248.235000", "121248.695000", "121249.155000", "121249.615000", "121250.075000", "121250.535000", "121250.995000", "121251.455000", "121251.915000", "121252.375000", "121252.835000", "121253.295000", "121253.755000", "121254.215000", "121254.675000", "121255.135000", "121255.595000", "121256.055000", "121256.515000", "121256.975000", "121257.435000", "121257.895000", "121258.355000", "121258.815000", "121259.275000", "121259.735000", "121300.195000", "121300.655000", "121301.115000", "121301.575000", "121302.035000", "121302.495000", "121302.955000", "121303.415000", "121303.875000", "121304.335000", "121304.795000", "121305.255000", "121305.715000", "121306.175000", "121306.635000", "121307.095000", "121307.555000", "121308.015000", "121308.475000", "121308.935000", "121309.395000", "121309.855000", "121310.315000", "121310.775000", "121311.235000", "121311.695000", "121312.155000", "121312.615000", "121313.075000", "121313.535000", "121313.995000", "121314.455000", "121314.915000", "121315.375000", "121315.835000", "121316.295000", "121316.755000", "121317.215000", "121317.675000", "121318.135000", "121318.595000", "121319.055000", "121319.515000", "121319.975000", "121320.435000", "121320.895000", "121321.355000", "121321.815000", "121322.275000", "121322.735000", "121323.195000", "121323.655000", "121324.115000", "121324.575000", "121325.035000", "121325.495000", "121325.955000", "121326.415000", "121326.875000", "121327.335000", "121327.795000", "121328.255000", "121328.715000", "121329.175000", "121329.635000", "121330.095000", "121330.555000", "121331.015000", "121331.475000", "121331.935000", "121332.395000", "121332.855000", "121333.315000", "121333.775000", "121334.235000", "121334.695000", "121335.155000", "121335.615000", "121336.075000", "121336.535000", "121336.995000", "121337.455000", "121337.915000", "121338.375000", "121338.835000", "121339.295000", "121339.755000", "121340.215000", "121340.675000", "121341.135000", "121341.595000", "121342.055000", "121342.515000", "121342.975000", "121343.435000", "121343.895000", "121344.355000", "121344.815000", "121345.275000", "121345.735000", "121346.195000", "121346.655000", "121347.115000", "121347.575000", "121348.035000", "121348.495000", "121348.955000", "121349.415000", "121349.875000", "121350.335000", "121350.795000", "121351.255000", "121351.715000", "121352.175000", "121352.635000", "121353.095000", "121353.555000", "121354.015000", "121354.475000", "121354.935000", "121355.395000", "121355.855000", "121356.315000", "121356.775000", "121357.235000", "121357.695000", "121358.155000", "121358.615000", "121359.075000", "121359.535000", "121359.995000", "121400.455000", "121400.915000", "121401.375000", "121401.835000", "121402.295000", "121402.755000", "121403.215000", "121403.675000", "121404.135000", "121404.595000", "121405.055000", "121405.515000", "121405.975000", "121406.435000", "121406.895000", "121407.355000", "121407.815000", "121408.275000", "121408.735000", "121409.195000", "121409.655000", "121410.115000", "121410.575000", "121411.035000", "121411.495000", "121411.955000", "121412.415000", "121412.875000", "121413.335000", "121413.795000", "121414.255000", "121414.715000", "121415.175000", "121415.635000", "121416.095000", "121416.555000", "121417.015000", "121417.475000", "121417.935000", "121418.395000", "121418.855000", "121419.315000", "121419.775000", "121420.235000", "121420.695000", "121421.155000", "121421.615000", "121422.075000", "121422.535000", "121422.995000", "121423.455000", "121423.915000", "121424.375000", "121424.835000", "121425.295000", "121425.755000", "121426.215000", "121426.675000", "121427.135000", "121427.595000", "121428.055000", "121428.515000", "121428.975000", "121429.435000", "121429.895000", "121430.355000", "121430.815000", "121431.275000", "121431.735000", "121432.195000", "121432.655000", "121433.115000", "121433.575000", "121434.035000", "121434.495000", "121434.955000", "121435.415000", "121435.875000", "121436.335000", "121436.795000", "121437.255000", "121437.715000", "121438.175000", "121438.635000", "121439.095000", "121439.555000", "121440.015000", "121440.475000", "121440.935000", "121441.395000", "121441.855000", "121442.315000", "121442.775000", "121443.235000", "121443.695000", "121444.155000", "121444.615000", "121445.075000", "121445.535000", "121445.995000", "121446.455000", "121446.915000", "121447.375000", "121447.835000", "121448.295000", "121448.755000", "121449.215000", "121449.675000", "121450.135000", "121450.595000", "121451.055000", "121451.515000", "121451.975000", "121452.435000", "121452.895000", "121453.355000", "121453.815000", "121454.275000", "121454.735000", "121455.195000", "121455.655000", "121456.115000", "121456.575000", "121457.035000", "121457.495000", "121457.955000", "121458.415000", "121458.875000", "121459.335000", "121459.795000", "121500.255000", "121500.715000", "121501.175000", "121501.635000", "121502.095000", "121502.555000", "121503.015000", "121503.475000", "121503.935000", "121504.395000", "121504.855000", "121505.315000", "121505.775000", "121506.235000", "121506.695000", "121507.155000", "121507.615000", "121508.075000", "121508.535000", "121508.995000", "121509.455000", "121509.915000", "121510.375000", "121510.835000", "121511.295000", "121511.755000", "121512.215000", "121512.675000", "121513.135000", "121513.595000", "121514.055000", "121514.515000", "121514.975000", "121515.435000", "121515.895000", "121516.355000", "121516.815000", "121517.275000", "121517.735000", "121518.195000", "121518.655000", "121519.115000", "121519.575000", "121520.035000", "121520.495000", "121520.955000", "121521.415000", "121521.875000", "121522.335000", "121522.795000", "121523.255000", "121523.715000", "121524.175000", "121524.635000", "121525.095000", "121525.555000", "121526.015000", "121526.475000", "121526.935000", "121527.395000", "121527.855000", "121528.315000", "121528.775000", "121529.235000", "121529.695000", "121530.155000", "121530.615000", "121531.075000", "121531.535000", "121531.995000", "121532.455000", "121532.915000", "121533.375000", "121533.835000", "121534.295000", "121534.755000", "121535.215000", "121535.675000", "121536.135000", "121536.595000", "121537.055000", "121537.515000", "121537.975000", "121538.435000", "121538.895000", "121539.355000", "121539.815000", "121540.275000", "121540.735000", "121541.195000", "121541.655000", "121542.115000", "121542.575000", "121543.035000", "121543.495000", "121543.955000", "121544.415000", "121544.875000", "121545.335000", "121545.795000", "121546.255000", "121546.715000", "121547.175000", "121547.635000", "121548.095000", "121548.555000", "121549.015000", "121549.475000", "121549.935000", "121550.395000", "121550.855000", "121551.315000", "121551.775000", "121552.235000", "121552.695000", "121553.155000", "121553.615000", "121554.075000", "121554.535000", "121554.995000", "121555.455000", "121555.915000", "121556.375000", "121556.835000", "121557.295000", "121557.755000", "121558.215000", "121558.675000", "121559.135000", "121559.595000", "121600.055000", "121600.515000", "121600.975000", "121601.435000", "121601.895000", "121602.355000", "121602.815000", "121603.275000", "121603.735000", "121604.195000", "121604.655000", "121605.115000", "121605.575000", "121606.035000", "121606.495000", "121606.955000", "121607.415000", "121607.875000", "121608.335000", "121608.795000", "121609.255000", "121609.715000", "121610.175000", "121610.635000", "121611.095000", "121611.555000", "121612.015000", "121612.475000", "121612.935000", "121613.395000", "121613.855000", "121614.315000", "121614.775000", "121615.235000", "121615.695000", "121616.155000", "121616.615000", "121617.075000", "121617.535000", "121617.995000", "121618.455000", "121618.915000", "121619.375000", "121619.835000", "121620.295000", "121620.755000", "121621.215000", "121621.675000", "121622.135000", "121622.595000", "121623.055000", "121623.515000", "121623.975000", "121624.435000", "121624.895000", "121625.355000", "121625.815000", "121626.275000", "121626.735000", "121627.195000", "121627.655000", "121628.115000", "121628.575000", "121629.035000", "121629.495000", "121629.955000", "121630.415000", "121630.875000", "121631.335000", "121631.795000", "121632.255000", "121632.715000", "121633.175000", "121633.635000", "121634.095000", "121634.555000", "121635.015000", "121635.475000", "121635.935000", "121636.395000", "121636.855000", "121637.315000", "121637.775000", "121638.235000", "121638.695000", "121639.155000", "121639.615000", "121640.075000", "121640.535000", "121640.995000", "121641.455000", "121641.915000", "121642.375000", "121642.835000", "121643.295000", "121643.755000", "121644.215000", "121644.675000", "121645.135000", "121645.595000", "121646.055000", "121646.515000", "121646.975000", "121647.435000", "121647.895000", "121648.355000", "121648.815000", "121649.275000", "121649.735000", "121650.195000", "121650.655000", "121651.115000", "121651.575000", "121652.035000", "121652.495000", "121652.955000", "121653.415000", "121653.875000", "121654.335000", "121654.795000", "121655.255000", "121655.715000", "121656.175000", "121656.635000", "121657.095000", "121657.555000", "121658.015000", "121658.475000", "121658.935000", "121659.395000", "121659.855000", "121700.315000", "121700.775000", "121701.235000", "121701.695000", "121702.155000", "121702.615000", "121703.075000", "121703.535000", "121703.995000", "121704.455000", "121704.915000", "121705.375000", "121705.835000", "121706.295000", "121706.755000", "121707.215000", "121707.675000", "121708.135000", "121708.595000", "121709.055000", "121709.515000", "121709.975000", "121710.435000", "121710.895000", "121711.355000", "121711.815000", "121712.275000", "121712.735000", "121713.195000", "121713.655000", "121714.115000", "121714.575000", "121715.035000", "121715.495000", "121715.955000", "121716.415000", "121716.875000", "121717.335000", "121717.795000", "121718.255000", "121718.715000", "121719.175000", "121719.635000", "121720.095000", "121720.555000", "121721.015000", "121721.475000", "121721.935000", "121722.395000", "121722.855000", "121723.315000", "121723.775000", "121724.235000", "121724.695000", "121725.155000", "121725.615000", "121726.075000", "121726.535000", "121726.995000", "121727.455000", "121727.915000", "121728.375000", "121728.835000", "121729.295000", "121729.755000", "121730.215000", "121730.675000", "121731.135000", "121731.595000", "121732.055000", "121732.515000", "121732.975000", "121733.435000", "121733.895000", "121734.355000", "121734.815000", "121735.275000", "121735.735000", "121736.195000", "121736.655000", "121737.115000", "121737.575000", "121738.035000", "121738.495000", "121738.955000", "121739.415000", "121739.875000", "121740.335000", "121740.795000", "121741.255000", "121741.715000", "121742.175000", "121742.635000", "121743.095000", "121743.555000", "121744.015000", "121744.475000", "121744.935000", "121745.395000", "121745.855000", "121746.315000", "121746.775000", "121747.235000", "121747.695000", "121748.155000", "121748.615000", "121749.075000", "121749.535000", "121749.995000", "121750.455000", "121750.915000", "121751.375000", "121751.835000", "121752.295000", "121752.755000", "121753.215000", "121753.675000", "121754.135000", "121754.595000", "121755.055000", "121755.515000", "121755.975000", "121756.435000", "121756.895000", "121757.355000", "121757.815000", "121758.275000", "121758.735000", "121759.195000", "121759.655000", "121800.115000", "121800.575000", "121801.035000", "121801.495000", "121801.955000", "121802.415000", "121802.875000", "121803.335000", "121803.795000", "121804.255000", "121804.715000", "121805.175000", "121805.635000", "121806.095000", "121806.555000", "121807.015000", "121807.475000", "121807.935000", "121808.395000", "121808.855000", "121809.315000", "121809.775000", "121810.235000", "121810.695000", "121811.155000", "121811.615000", "121812.075000", "121812.535000", "121812.995000", "121813.455000", "121813.915000", "121814.375000", "121814.835000", "121815.295000", "121815.755000", "121816.215000", "121816.675000", "121817.135000", "121817.595000", "121818.055000", "121818.515000", "121818.975000", "121819.435000", "121819.895000", "121820.355000", "121820.815000", "121821.275000", "121821.735000", "121822.195000", "121822.655000", "121823.115000", "121823.575000", "121824.035000", "121824.495000", "121824.955000", "121825.415000", "121825.875000", "121826.335000", "121826.795000", "121827.255000", "121827.715000", "121828.175000", "121828.635000", "121829.095000", "121829.555000", "121830.015000", "121830.475000", "121830.935000", "121831.395000", "121831.855000", "121832.315000", "121832.775000", "121833.235000", "121833.695000", "121834.155000", "121834.615000", "121835.075000", "121835.535000", "121835.995000", "121836.455000", "121836.915000", "121837.375000", "121837.835000", "121838.295000", "121838.755000", "121839.215000", "121839.675000", "121840.135000", "121840.595000", "121841.055000", "121841.515000", "121841.975000", "121842.435000", "121842.895000", "121843.355000", "121843.815000", "121844.275000", "121844.735000", "121845.195000", "121845.655000"],
