{
  "AcquisitionMatrixPE": 82,
  "AcquisitionNumber": 1,
  "AcquisitionTime": "11:27:8.767500",
  "BandwidthPerPixelPhaseEncode": 24.888,
  "BaseResolution": 82,
  "BodyPartExamined": "BRAIN",
  "ConsistencyInfo": "N4_VE11C_LATEST_20160120",
  "ConversionSoftware": "dcm2niix",
  "ConversionSoftwareVersion": "v1.0.20201102",
  "DerivedVendorReportedEchoSpacing": 0.00049,
  "DeviceSerialNumber": "66112",
  "DwellTime": 2e-06,
  "EchoTime": 0.0272,
  "EchoTrainLength": 82,
  "EffectiveEchoSpacing": 0.00049,
  "FlipAngle": 44,
  "ImageComments": "Unaliased MB8/PE3",
  "ImageOrientationPatientDICOM": [0.999768, -0.0212369, -0.00355872, 0.0212913, 0.999645, 0.0160159],
  "ImageType": [
    "ORIGINAL",
    "PRIMARY",
    "M",
    "MB",
    "ND",
    "NORM",
    "MOSAIC"
],
  "ImagingFrequency": 123.252,
  "InPlanePhaseEncodingDirectionDICOM": "COL",
  "InstitutionAddress": "Maynard 3,Hanover,NH,US,03755",
  "InstitutionName": "Dartmouth College - PBS",
  "InstitutionalDepartmentName": "Department",
  "MRAcquisitionType": "2D",
  "MagneticFieldStrength": 3,
  "Manufacturer": "Siemens",
  "ManufacturersModelName": "Prisma",
  "Modality": "MR",
  "MultibandAccelerationFactor": 8,
  "PartialFourier": 1,
  "PatientPosition": "HFS",
  "PercentPhaseFOV": 100,
  "PercentSampling": 100,
  "PhaseEncodingDirection": "j-",
  "PhaseEncodingSteps": 82,
  "PhaseResolution": 1,
  "PixelBandwidth": 3050,
  "ProcedureStepDescription": "Wager_Wager^1076_spacetop",
  "ProtocolName": "func_run-01_task-narratives_acq-ap-mb8",
  "PulseSequenceDetails": "%CustomerSeq%\\cmrr_mbep2d_bold",
  "ReceiveCoilActiveElements": "HEA;HEP",
  "ReceiveCoilName": "Head_32",
  "ReconMatrixPE": 82,
  "RepetitionTime": 0.46,
  "SAR": 0.134172,
  "ScanOptions": "FS",
  "ScanningSequence": "EP",
  "SequenceName": "epfid2d1_82",
  "SequenceVariant": "SK\\SS",
  "SeriesDescription": "func_run-01_task-narratives_acq-ap-mb8",
  "SeriesNumber": 8,
  "ShimSetting": [4152, -7748, -7190, 499, -43, -163, 127, 41],
  "SliceThickness": 2.7,
  "SliceTiming": [0, 0.25, 0.0625, 0.3125, 0.125, 0.375, 0.1875, 0, 0.25, 0.0625, 0.3125, 0.125, 0.375, 0.1875, 0, 0.25, 0.0625, 0.3125, 0.125, 0.375, 0.1875, 0, 0.25, 0.0625, 0.3125, 0.125, 0.375, 0.1875, 0, 0.25, 0.0625, 0.3125, 0.125, 0.375, 0.1875, 0, 0.25, 0.0625, 0.3125, 0.125, 0.375, 0.1875, 0, 0.25, 0.0625, 0.3125, 0.125, 0.375, 0.1875, 0, 0.25, 0.0625, 0.3125, 0.125, 0.375, 0.1875],
  "SoftwareVersions": "syngo MR E11",
  "SpacingBetweenSlices": 2.7,
  "StationName": "AWP66112",
  "TaskName": "narratives",
  "TotalReadoutTime": 0.03969,
  "TxRefAmp": 302.406,
  "WipMemBlock": "af473268-27c2-4aee-a086-fd9d0c26f152||Sequence: R016 ve11c/master r/e634e98; Dec 19 2017 11:00:25 by eja",
  "dcmmeta_affine": [
    [-2.682304859161377, 0.05712303891777992, -0.008686798624694347, 111.3343505859375],
    [0.056977104395627975, 2.681974411010742, 0.043437402695417404, -90.51675415039062],
    [-0.009547796100378036, -0.04296940937638283, 2.699636697769165, -36.8962516784668],
    [0.0, 0.0, 0.0, 1.0]
],
  "dcmmeta_reorient_transform": [
    [0.0, -1.0, 0.0, 81.0],
    [1.0, 0.0, 0.0, 0.0],
    [0.0, 0.0, 1.0, 0.0],
    [0.0, 0.0, 0.0, 1.0]
],
  "dcmmeta_shape": [82, 82, 56, 967],
  "dcmmeta_slice_dim": 2,
  "dcmmeta_version": 0.6,
  "global": {
    "const": {
      "AccessionNumber": "A003816",
      "AcquisitionMatrix": [82, 0, 0, 82],
      "AngioFlag": "N",
      "BitsAllocated": 16,
      "BitsStored": 16,
      "BodyPartExamined": "BRAIN",
      "Columns": 656,
      "EchoNumbers": 1,
      "EchoTime": 27.2,
      "EchoTrainLength": 82,
      "FlipAngle": 44.0,
      "HighBit": 15,
      "ImageOrientationPatient": [0.99976813747318, -0.0212369201585, -0.0035587238706, 0.02129131425492, 0.99964502292047, 0.01601586986832],
      "ImagePositionPatient": [-902.17710980408, -880.09743663342, -49.96877753939],
      "ImageType": [
        "ORIGINAL",
        "PRIMARY",
        "M",
        "MB",
        "ND",
        "NORM",
        "MOSAIC"
],
      "ImagedNucleus": "1H",
      "ImagingFrequency": 123.252096,
      "InPlanePhaseEncodingDirection": "COL",
      "MRAcquisitionType": "2D",
      "MagneticFieldStrength": 3.0,
      "Manufacturer": "SIEMENS",
      "ManufacturerModelName": "Prisma",
      "Modality": "MR",
      "NumberOfAverages": 1.0,
      "NumberOfPhaseEncodingSteps": 82,
      "PercentPhaseFieldOfView": 100.0,
      "PercentSampling": 100.0,
      "PerformedProcedureStepStartTime": "110947.307000",
      "PhotometricInterpretation": "MONOCHROME2",
      "PixelBandwidth": 3050.0,
      "PixelRepresentation": 0,
      "PixelSpacing": [2.6829268932343, 2.6829268932343],
      "ProtocolName": "func_run-01_task-narratives_acq-ap-mb8",
      "RepetitionTime": 460.0,
      "Rows": 656,
      "SAR": 0.13417231272708,
      "SamplesPerPixel": 1,
      "ScanOptions": "FS",
      "ScanningSequence": "EP",
      "SequenceName": "epfid2d1_82",
      "SequenceVariant": [
        "SK",
        "SS"
],
      "SeriesDescription": "func_run-01_task-narratives_acq-ap-mb8",
      "SeriesNumber": 8,
      "SeriesTime": "112738.369000",
      "SliceLocation": -38.705713336374,
      "SliceThickness": 2.7000000476837,
      "SmallestImagePixelValue": 0,
      "SoftwareVersions": "syngo MR E11",
      "SpacingBetweenSlices": 2.7000000402544,
      "SpecificCharacterSet": "ISO_IR 100",
      "StudyID": "2",
      "StudyTime": "110947.255000",
      "TransmitCoilName": "Body",
      "VariableFlipAngleFlag": "N",
      "WindowCenterWidthExplanation": "Algo1",
      "dBdt": 0.0},
    "slices": {}
  },
  "time": {
    "samples": {
      "AcquisitionNumber": [1, 2, 3, 4, 5, 6, 7, 8, 9, 10, 11, 12, 13, 14, 15, 16, 17, 18, 19, 20, 21, 22, 23, 24, 25, 26, 27, 28, 29, 30, 31, 32, 33, 34, 35, 36, 37, 38, 39, 40, 41, 42, 43, 44, 45, 46, 47, 48, 49, 50, 51, 52, 53, 54, 55, 56, 57, 58, 59, 60, 61, 62, 63, 64, 65, 66, 67, 68, 69, 70, 71, 72, 73, 74, 75, 76, 77, 78, 79, 80, 81, 82, 83, 84, 85, 86, 87, 88, 89, 90, 91, 92, 93, 94, 95, 96, 97, 98, 99, 100, 101, 102, 103, 104, 105, 106, 107, 108, 109, 110, 111, 112, 113, 114, 115, 116, 117, 118, 119, 120, 121, 122, 123, 124, 125, 126, 127, 128, 129, 130, 131, 132, 133, 134, 135, 136, 137, 138, 139, 140, 141, 142, 143, 144, 145, 146, 147, 148, 149, 150, 151, 152, 153, 154, 155, 156, 157, 158, 159, 160, 161, 162, 163, 164, 165, 166, 167, 168, 169, 170, 171, 172, 173, 174, 175, 176, 177, 178, 179, 180, 181, 182, 183, 184, 185, 186, 187, 188, 189, 190, 191, 192, 193, 194, 195, 196, 197, 198, 199, 200, 201, 202, 203, 204, 205, 206, 207, 208, 209, 210, 211, 212, 213, 214, 215, 216, 217, 218, 219, 220, 221, 222, 223, 224, 225, 226, 227, 228, 229, 230, 231, 232, 233, 234, 235, 236, 237, 238, 239, 240, 241, 242, 243, 244, 245, 246, 247, 248, 249, 250, 251, 252, 253, 254, 255, 256, 257, 258, 259, 260, 261, 262, 263, 264, 265, 266, 267, 268, 269, 270, 271, 272, 273, 274, 275, 276, 277, 278, 279, 280, 281, 282, 283, 284, 285, 286, 287, 288, 289, 290, 291, 292, 293, 294, 295, 296, 297, 298, 299, 300, 301, 302, 303, 304, 305, 306, 307, 308, 309, 310, 311, 312, 313, 314, 315, 316, 317, 318, 319, 320, 321, 322, 323, 324, 325, 326, 327, 328, 329, 330, 331, 332, 333, 334, 335, 336, 337, 338, 339, 340, 341, 342, 343, 344, 345, 346, 347, 348, 349, 350, 351, 352, 353, 354, 355, 356, 357, 358, 359, 360, 361, 362, 363, 364, 365, 366, 367, 368, 369, 370, 371, 372, 373, 374, 375, 376, 377, 378, 379, 380, 381, 382, 383, 384, 385, 386, 387, 388, 389, 390, 391, 392, 393, 394, 395, 396, 397, 398, 399, 400, 401, 402, 403, 404, 405, 406, 407, 408, 409, 410, 411, 412, 413, 414, 415, 416, 417, 418, 419, 420, 421, 422, 423, 424, 425, 426, 427, 428, 429, 430, 431, 432, 433, 434, 435, 436, 437, 438, 439, 440, 441, 442, 443, 444, 445, 446, 447, 448, 449, 450, 451, 452, 453, 454, 455, 456, 457, 458, 459, 460, 461, 462, 463, 464, 465, 466, 467, 468, 469, 470, 471, 472, 473, 474, 475, 476, 477, 478, 479, 480, 481, 482, 483, 484, 485, 486, 487, 488, 489, 490, 491, 492, 493, 494, 495, 496, 497, 498, 499, 500, 501, 502, 503, 504, 505, 506, 507, 508, 509, 510, 511, 512, 513, 514, 515, 516, 517, 518, 519, 520, 521, 522, 523, 524, 525, 526, 527, 528, 529, 530, 531, 532, 533, 534, 535, 536, 537, 538, 539, 540, 541, 542, 543, 544, 545, 546, 547, 548, 549, 550, 551, 552, 553, 554, 555, 556, 557, 558, 559, 560, 561, 562, 563, 564, 565, 566, 567, 568, 569, 570, 571, 572, 573, 574, 575, 576, 577, 578, 579, 580, 581, 582, 583, 584, 585, 586, 587, 588, 589, 590, 591, 592, 593, 594, 595, 596, 597, 598, 599, 600, 601, 602, 603, 604, 605, 606, 607, 608, 609, 610, 611, 612, 613, 614, 615, 616, 617, 618, 619, 620, 621, 622, 623, 624, 625, 626, 627, 628, 629, 630, 631, 632, 633, 634, 635, 636, 637, 638, 639, 640, 641, 642, 643, 644, 645, 646, 647, 648, 649, 650, 651, 652, 653, 654, 655, 656, 657, 658, 659, 660, 661, 662, 663, 664, 665, 666, 667, 668, 669, 670, 671, 672, 673, 674, 675, 676, 677, 678, 679, 680, 681, 682, 683, 684, 685, 686, 687, 688, 689, 690, 691, 692, 693, 694, 695, 696, 697, 698, 699, 700, 701, 702, 703, 704, 705, 706, 707, 708, 709, 710, 711, 712, 713, 714, 715, 716, 717, 718, 719, 720, 721, 722, 723, 724, 725, 726, 727, 728, 729, 730, 731, 732, 733, 734, 735, 736, 737, 738, 739, 740, 741, 742, 743, 744, 745, 746, 747, 748, 749, 750, 751, 752, 753, 754, 755, 756, 757, 758, 759, 760, 761, 762, 763, 764, 765, 766, 767, 768, 769, 770, 771, 772, 773, 774, 775, 776, 777, 778, 779, 780, 781, 782, 783, 784, 785, 786, 787, 788, 789, 790, 791, 792, 793, 794, 795, 796, 797, 798, 799, 800, 801, 802, 803, 804, 805, 806, 807, 808, 809, 810, 811, 812, 813, 814, 815, 816, 817, 818, 819, 820, 821, 822, 823, 824, 825, 826, 827, 828, 829, 830, 831, 832, 833, 834, 835, 836, 837, 838, 839, 840, 841, 842, 843, 844, 845, 846, 847, 848, 849, 850, 851, 852, 853, 854, 855, 856, 857, 858, 859, 860, 861, 862, 863, 864, 865, 866, 867, 868, 869, 870, 871, 872, 873, 874, 875, 876, 877, 878, 879, 880, 881, 882, 883, 884, 885, 886, 887, 888, 889, 890, 891, 892, 893, 894, 895, 896, 897, 898, 899, 900, 901, 902, 903, 904, 905, 906, 907, 908, 909, 910, 911, 912, 913, 914, 915, 916, 917, 918, 919, 920, 921, 922, 923, 924, 925, 926, 927, 928, 929, 930, 931, 932, 933, 934, 935, 936, 937, 938, 939, 940, 941, 942, 943, 944, 945, 946, 947, 948, 949, 950, 951, 952, 953, 954, 955, 956, 957, 958, 959, 960, 961, 962, 963, 964, 965, 966, 967],
      "AcquisitionTime": ["112708.767500", "112709.227500", "112709.687500", "112710.147500", "112710.607500", "112711.067500", "112711.527500", "112711.987500", "112712.447500", "112712.907500", "112713.367500", "112713.827500", "112714.287500", "112714.747500", "112715.207500", "112715.667500", "112716.127500", "112716.587500", "112717.047500", "112717.507500", "112717.967500", "112718.427500", "112718.887500", "112719.347500", "112719.807500", "112720.267500", "112720.727500", "112721.187500", "112721.647500", "112722.107500", "112722.567500", "112723.027500", "112723.487500", "112723.947500", "112724.407500", "112724.867500", "112725.327500", "112725.787500", "112726.247500", "112726.707500", "112727.167500", "112727.627500", "112728.087500", "112728.547500", "112729.007500", "112729.467500", "112729.927500", "112730.387500", "112730.847500", "112731.307500", "112731.767500", "112732.227500", "112732.687500", "112733.147500", "112733.607500", "112734.067500", "112734.527500", "112734.987500", "112735.447500", "112735.907500", "112736.367500", "112736.827500", "112737.287500", "112737.747500", "112738.207500", "112738.667500", "112739.127500", "112739.587500", "112740.047500", "112740.507500", "112740.967500", "112741.427500", "112741.887500", "112742.347500", "112742.807500", "112743.267500", "112743.727500", "112744.187500", "112744.647500", "112745.107500", "112745.567500", "112746.027500", "112746.487500", "112746.947500", "112747.407500", "112747.867500", "112748.327500", "112748.787500", "112749.247500", "112749.707500", "112750.167500", "112750.627500", "112751.087500", "112751.547500", "112752.007500", "112752.467500", "112752.927500", "112753.387500", "112753.847500", "112754.307500", "112754.767500", "112755.227500", "112755.687500", "112756.147500", "112756.607500", "112757.067500", "112757.527500", "112757.987500", "112758.447500", "112758.907500", "112759.367500", "112759.827500", "112800.287500", "112800.747500", "112801.207500", "112801.667500", "112802.127500", "112802.587500", "112803.047500", "112803.507500", "112803.967500", "112804.427500", "112804.887500", "112805.347500", "112805.807500", "112806.267500", "112806.727500", "112807.187500", "112807.647500", "112808.107500", "112808.567500", "112809.027500", "112809.487500", "112809.947500", "112810.407500", "112810.867500", "112811.327500", "112811.787500", "112812.247500", "112812.707500", "112813.167500", "112813.627500", "112814.087500", "112814.547500", "112815.007500", "112815.467500", "112815.927500", "112816.387500", "112816.847500", "112817.307500", "112817.767500", "112818.227500", "112818.687500", "112819.147500", "112819.607500", "112820.067500", "112820.527500", "112820.987500", "112821.447500", "112821.907500", "112822.367500", "112822.827500", "112823.287500", "112823.747500", "112824.207500", "112824.667500", "112825.127500", "112825.587500", "112826.047500", "112826.507500", "112826.967500", "112827.427500", "112827.887500", "112828.347500", "112828.807500", "112829.267500", "112829.727500", "112830.187500", "112830.647500", "112831.107500", "112831.567500", "112832.027500", "112832.487500", "112832.947500", "112833.407500", "112833.867500", "112834.327500", "112834.787500", "112835.247500", "112835.707500", "112836.167500", "112836.627500", "112837.087500", "112837.547500", "112838.007500", "112838.467500", "112838.927500", "112839.387500", "112839.847500", "112840.307500", "112840.767500", "112841.227500", "112841.687500", "112842.147500", "112842.607500", "112843.067500", "112843.527500", "112843.987500", "112844.447500", "112844.907500", "112845.367500", "112845.827500", "112846.287500", "112846.747500", "112847.207500", "112847.667500", "112848.127500", "112848.587500", "112849.047500", "112849.507500", "112849.967500", "112850.427500", "112850.887500", "112851.347500", "112851.807500", "112852.267500", "112852.727500", "112853.187500", "112853.647500", "112854.107500", "112854.567500", "112855.027500", "112855.487500", "112855.947500", "112856.407500", "112856.867500", "112857.327500", "112857.787500", "112858.247500", "112858.707500", "112859.167500", "112859.627500", "112900.087500", "112900.547500", "112901.007500", "112901.467500", "112901.927500", "112902.387500", "112902.847500", "112903.307500", "112903.767500", "112904.227500", "112904.687500", "112905.147500", "112905.607500", "112906.067500", "112906.527500", "112906.987500", "112907.447500", "112907.907500", "112908.367500", "112908.827500", "112909.287500", "112909.747500", "112910.207500", "112910.667500", "112911.127500", "112911.587500", "112912.047500", "112912.507500", "112912.967500", "112913.427500", "112913.887500", "112914.347500", "112914.807500", "112915.267500", "112915.727500", "112916.187500", "112916.647500", "112917.107500", "112917.567500", "112918.027500", "112918.487500", "112918.947500", "112919.407500", "112919.867500", "112920.327500", "112920.787500", "112921.247500", "112921.707500", "112922.167500", "112922.627500", "112923.087500", "112923.547500", "112924.007500", "112924.467500", "112924.927500", "112925.387500", "112925.847500", "112926.307500", "112926.767500", "112927.227500", "112927.687500", "112928.147500", "112928.607500", "112929.067500", "112929.527500", "112929.987500", "112930.447500", "112930.907500", "112931.367500", "112931.827500", "112932.287500", "112932.747500", "112933.207500", "112933.667500", "112934.127500", "112934.587500", "112935.047500", "112935.507500", "112935.967500", "112936.427500", "112936.887500", "112937.347500", "112937.807500", "112938.267500", "112938.727500", "112939.187500", "112939.647500", "112940.107500", "112940.567500", "112941.027500", "112941.487500", "112941.947500", "112942.407500", "112942.867500", "112943.327500", "112943.787500", "112944.247500", "112944.707500", "112945.167500", "112945.627500", "112946.087500", "112946.547500", "112947.007500", "112947.467500", "112947.927500", "112948.387500", "112948.847500", "112949.307500", "112949.767500", "112950.227500", "112950.687500", "112951.147500", "112951.607500", "112952.067500", "112952.527500", "112952.987500", "112953.447500", "112953.907500", "112954.367500", "112954.827500", "112955.287500", "112955.747500", "112956.207500", "112956.667500", "112957.127500", "112957.587500", "112958.047500", "112958.507500", "112958.967500", "112959.427500", "112959.887500", "113000.347500", "113000.807500", "113001.267500", "113001.727500", "113002.187500", "113002.647500", "113003.107500", "113003.567500", "113004.027500", "113004.487500", "113004.947500", "113005.407500", "113005.867500", "113006.327500", "113006.787500", "113007.247500", "113007.707500", "113008.167500", "113008.627500", "113009.087500", "113009.547500", "113010.007500", "113010.467500", "113010.927500", "113011.387500", "113011.847500", "113012.307500", "113012.767500", "113013.227500", "113013.687500", "113014.147500", "113014.607500", "113015.067500", "113015.527500", "113015.987500", "113016.447500", "113016.907500", "113017.367500", "113017.827500", "113018.287500", "113018.747500", "113019.207500", "113019.667500", "113020.127500", "113020.587500", "113021.047500", "113021.507500", "113021.967500", "113022.427500", "113022.887500", "113023.347500", "113023.807500", "113024.267500", "113024.727500", "113025.187500", "113025.647500", "113026.107500", "113026.567500", "113027.027500", "113027.487500", "113027.947500", "113028.407500", "113028.867500", "113029.327500", "113029.787500", "113030.247500", "113030.707500", "113031.167500", "113031.627500", "113032.087500", "113032.547500", "113033.007500", "113033.467500", "113033.927500", "113034.387500", "113034.847500", "113035.307500", "113035.767500", "113036.227500", "113036.687500", "113037.147500", "113037.607500", "113038.067500", "113038.527500", "113038.987500", "113039.447500", "113039.907500", "113040.367500", "113040.827500", "113041.287500", "113041.747500", "113042.207500", "113042.667500", "113043.127500", "113043.587500", "113044.047500", "113044.507500", "113044.967500", "113045.427500", "113045.887500", "113046.347500", "113046.807500", "113047.267500", "113047.727500", "113048.187500", "113048.647500", "113049.107500", "113049.567500", "113050.027500", "113050.487500", "113050.947500", "113051.407500", "113051.867500", "113052.327500", "113052.787500", "113053.247500", "113053.707500", "113054.167500", "113054.627500", "113055.087500", "113055.547500", "113056.007500", "113056.467500", "113056.927500", "113057.387500", "113057.847500", "113058.307500", "113058.767500", "113059.227500", "113059.687500", "113100.147500", "113100.607500", "113101.067500", "113101.527500", "113101.987500", "113102.447500", "113102.907500", "113103.367500", "113103.827500", "113104.287500", "113104.747500", "113105.207500", "113105.667500", "113106.127500", "113106.587500", "113107.047500", "113107.507500", "113107.967500", "113108.427500", "113108.887500", "113109.347500", "113109.807500", "113110.267500", "113110.727500", "113111.187500", "113111.647500", "113112.107500", "113112.567500", "113113.027500", "113113.487500", "113113.947500", "113114.407500", "113114.867500", "113115.327500", "113115.787500", "113116.247500", "113116.707500", "113117.167500", "113117.627500", "113118.087500", "113118.547500", "113119.007500", "113119.467500", "113119.927500", "113120.387500", "113120.847500", "113121.307500", "113121.767500", "113122.227500", "113122.687500", "113123.147500", "113123.607500", "113124.067500", "113124.527500", "113124.987500", "113125.447500", "113125.907500", "113126.367500", "113126.827500", "113127.287500", "113127.747500", "113128.207500", "113128.667500", "113129.127500", "113129.587500", "113130.047500", "113130.507500", "113130.967500", "113131.427500", "113131.887500", "113132.347500", "113132.807500", "113133.267500", "113133.727500", "113134.187500", "113134.647500", "113135.107500", "113135.567500", "113136.027500", "113136.487500", "113136.947500", "113137.407500", "113137.867500", "113138.327500", "113138.787500", "113139.247500", "113139.707500", "113140.167500", "113140.627500", "113141.087500", "113141.547500", "113142.007500", "113142.467500", "113142.927500", "113143.387500", "113143.847500", "113144.307500", "113144.767500", "113145.227500", "113145.687500", "113146.147500", "113146.607500", "113147.067500", "113147.527500", "113147.987500", "113148.447500", "113148.907500", "113149.367500", "113149.827500", "113150.287500", "113150.747500", "113151.207500", "113151.667500", "113152.127500", "113152.587500", "113153.047500", "113153.507500", "113153.967500", "113154.427500", "113154.887500", "113155.347500", "113155.807500", "113156.267500", "113156.727500", "113157.187500", "113157.647500", "113158.107500", "113158.567500", "113159.027500", "113159.487500", "113159.947500", "113200.407500", "113200.867500", "113201.327500", "113201.787500", "113202.247500", "113202.707500", "113203.167500", "113203.627500", "113204.087500", "113204.547500", "113205.007500", "113205.467500", "113205.927500", "113206.387500", "113206.847500", "113207.307500", "113207.767500", "113208.227500", "113208.687500", "113209.147500", "113209.607500", "113210.067500", "113210.527500", "113210.987500", "113211.447500", "113211.907500", "113212.367500", "113212.827500", "113213.287500", "113213.747500", "113214.207500", "113214.667500", "113215.127500", "113215.587500", "113216.047500", "113216.507500", "113216.967500", "113217.427500", "113217.887500", "113218.347500", "113218.807500", "113219.267500", "113219.727500", "113220.187500", "113220.647500", "113221.107500", "113221.567500", "113222.027500", "113222.487500", "113222.947500", "113223.407500", "113223.867500", "113224.327500", "113224.787500", "113225.247500", "113225.707500", "113226.167500", "113226.627500", "113227.087500", "113227.547500", "113228.007500", "113228.467500", "113228.927500", "113229.387500", "113229.847500", "113230.307500", "113230.767500", "113231.227500", "113231.687500", "113232.147500", "113232.607500", "113233.067500", "113233.527500", "113233.987500", "113234.447500", "113234.907500", "113235.367500", "113235.827500", "113236.287500", "113236.747500", "113237.207500", "113237.667500", "113238.127500", "113238.587500", "113239.047500", "113239.507500", "113239.967500", "113240.427500", "113240.887500", "113241.347500", "113241.807500", "113242.267500", "113242.727500", "113243.187500", "113243.647500", "113244.107500", "113244.567500", "113245.027500", "113245.487500", "113245.947500", "113246.407500", "113246.867500", "113247.327500", "113247.787500", "113248.247500", "113248.707500", "113249.167500", "113249.627500", "113250.087500", "113250.547500", "113251.007500", "113251.467500", "113251.927500", "113252.387500", "113252.847500", "113253.307500", "113253.767500", "113254.227500", "113254.687500", "113255.147500", "113255.607500", "113256.067500", "113256.527500", "113256.987500", "113257.447500", "113257.907500", "113258.367500", "113258.827500", "113259.287500", "113259.747500", "113300.207500", "113300.667500", "113301.127500", "113301.587500", "113302.047500", "113302.507500", "113302.967500", "113303.427500", "113303.887500", "113304.347500", "113304.807500", "113305.267500", "113305.727500", "113306.187500", "113306.647500", "113307.107500", "113307.567500", "113308.027500", "113308.487500", "113308.947500", "113309.407500", "113309.867500", "113310.327500", "113310.787500", "113311.247500", "113311.707500", "113312.167500", "113312.627500", "113313.087500", "113313.547500", "113314.007500", "113314.467500", "113314.927500", "113315.387500", "113315.847500", "113316.307500", "113316.767500", "113317.227500", "113317.687500", "113318.147500", "113318.607500", "113319.067500", "113319.527500", "113319.987500", "113320.447500", "113320.907500", "113321.367500", "113321.827500", "113322.287500", "113322.747500", "113323.207500", "113323.667500", "113324.127500", "113324.587500", "113325.047500", "113325.507500", "113325.967500", "113326.427500", "113326.887500", "113327.347500", "113327.807500", "113328.267500", "113328.727500", "113329.187500", "113329.647500", "113330.107500", "113330.567500", "113331.027500", "113331.487500", "113331.947500", "113332.407500", "113332.867500", "113333.327500", "113333.787500", "113334.247500", "113334.707500", "113335.167500", "113335.627500", "113336.087500", "113336.547500", "113337.007500", "113337.467500", "113337.927500", "113338.387500", "113338.847500", "113339.307500", "113339.767500", "113340.227500", "113340.687500", "113341.147500", "113341.607500", "113342.067500", "113342.527500", "113342.987500", "113343.447500", "113343.907500", "113344.367500", "113344.827500", "113345.287500", "113345.747500", "113346.207500", "113346.667500", "113347.127500", "113347.587500", "113348.047500", "113348.507500", "113348.967500", "113349.427500", "113349.887500", "113350.347500", "113350.807500", "113351.267500", "113351.727500", "113352.187500", "113352.647500", "113353.107500", "113353.567500", "113354.027500", "113354.487500", "113354.947500", "113355.407500", "113355.867500", "113356.327500", "113356.787500", "113357.247500", "113357.707500", "113358.167500", "113358.627500", "113359.087500", "113359.547500", "113400.007500", "113400.467500", "113400.927500", "113401.387500", "113401.847500", "113402.307500", "113402.767500", "113403.227500", "113403.687500", "113404.147500", "113404.607500", "113405.067500", "113405.527500", "113405.987500", "113406.447500", "113406.907500", "113407.367500", "113407.827500", "113408.287500", "113408.747500", "113409.207500", "113409.667500", "113410.127500", "113410.587500", "113411.047500", "113411.507500", "113411.967500", "113412.427500", "113412.887500", "113413.347500", "113413.807500", "113414.267500", "113414.727500", "113415.187500", "113415.647500", "113416.107500", "113416.567500", "113417.027500", "113417.487500", "113417.947500", "113418.407500", "113418.867500", "113419.327500", "113419.787500", "113420.247500", "113420.707500", "113421.167500", "113421.627500", "113422.087500", "113422.547500", "113423.007500", "113423.467500", "113423.927500", "113424.387500", "113424.847500", "113425.307500", "113425.767500", "113426.227500", "113426.687500", "113427.147500", "113427.607500", "113428.067500", "113428.527500", "113428.987500", "113429.447500", "113429.907500", "113430.367500", "113430.827500", "113431.287500", "113431.747500", "113432.207500", "113432.667500", "113433.127500"],
