{
  "AcquisitionMatrixPE": 82,
  "AcquisitionNumber": 1,
  "AcquisitionTime": "13:02:0.297500",
  "BandwidthPerPixelPhaseEncode": 24.888,
  "BaseResolution": 82,
  "BodyPartExamined": "BRAIN",
  "ConsistencyInfo": "N4_VE11C_LATEST_20160120",
  "ConversionSoftware": "dcm2niix",
  "ConversionSoftwareVersion": "v1.0.20201102",
  "DerivedVendorReportedEchoSpacing": 0.00049,
  "DeviceSerialNumber": "66112",
  "DwellTime": 2e-06,
  "EchoTime": 0.0272,
  "EchoTrainLength": 82,
  "EffectiveEchoSpacing": 0.00049,
  "FlipAngle": 44,
  "ImageComments": "Unaliased MB8/PE3",
  "ImageOrientationPatientDICOM": [0.999875, -0.0157324, 0.00183011, 0.0157073, 0.999792, 0.0130212],
  "ImageType": [
    "ORIGINAL",
    "PRIMARY",
    "M",
    "MB",
    "ND",
    "NORM",
    "MOSAIC"
],
  "ImagingFrequency": 123.252,
  "InPlanePhaseEncodingDirectionDICOM": "COL",
  "InstitutionAddress": "Maynard 3,Hanover,NH,US,03755",
  "InstitutionName": "Dartmouth College - PBS",
  "InstitutionalDepartmentName": "Department",
  "MRAcquisitionType": "2D",
  "MagneticFieldStrength": 3,
  "Manufacturer": "Siemens",
  "ManufacturersModelName": "Prisma",
  "Modality": "MR",
  "MultibandAccelerationFactor": 8,
  "PartialFourier": 1,
  "PatientPosition": "HFS",
  "PercentPhaseFOV": 100,
  "PercentSampling": 100,
  "PhaseEncodingDirection": "j-",
  "PhaseEncodingSteps": 82,
  "PhaseResolution": 1,
  "PixelBandwidth": 3050,
  "ProcedureStepDescription": "Wager_Wager^1076_spacetop",
  "ProtocolName": "func_run-04_task-alignvideo_acq-ap-mb8",
  "PulseSequenceDetails": "%CustomerSeq%\\cmrr_mbep2d_bold",
  "ReceiveCoilActiveElements": "HEA;HEP",
  "ReceiveCoilName": "Head_32",
  "ReconMatrixPE": 82,
  "RepetitionTime": 0.46,
  "SAR": 0.134129,
  "ScanOptions": "FS",
  "ScanningSequence": "EP",
  "SequenceName": "epfid2d1_82",
  "SequenceVariant": "SK\\SS",
  "SeriesDescription": "func_run-04_task-alignvideo_acq-ap-mb8",
  "SeriesNumber": 34,
  "ShimSetting": [4151, -7748, -7190, 499, -45, -163, 127, 41],
  "SliceThickness": 2.7,
  "SliceTiming": [0, 0.25, 0.0625, 0.3125, 0.125, 0.375, 0.1875, 0, 0.25, 0.0625, 0.3125, 0.125, 0.375, 0.1875, 0, 0.25, 0.0625, 0.3125, 0.125, 0.375, 0.1875, 0, 0.25, 0.0625, 0.3125, 0.125, 0.375, 0.1875, 0, 0.25, 0.0625, 0.3125, 0.125, 0.375, 0.1875, 0, 0.25, 0.0625, 0.3125, 0.125, 0.375, 0.1875, 0, 0.25, 0.0625, 0.3125, 0.125, 0.375, 0.1875, 0, 0.25, 0.0625, 0.3125, 0.125, 0.375, 0.1875],
  "SoftwareVersions": "syngo MR E11",
  "SpacingBetweenSlices": 2.7,
  "StationName": "AWP66112",
  "TaskName": "alignvideo",
  "TotalReadoutTime": 0.03969,
  "TxRefAmp": 302.406,
  "WipMemBlock": "45bff477-4e85-4bb5-93e0-6fbb5a3c84c1||Sequence: R016 ve11c/master r/e634e98; Dec 19 2017 11:00:25 by eja",
  "dcmmeta_affine": [
    [-2.6825902462005615, 0.04214153066277504, 0.0054933857172727585, 111.29007720947266],
    [0.0422089658677578, 2.682368516921997, 0.035075314342975616, -89.3156509399414],
    [0.004910058341920376, -0.03493502736091614, 2.6997666358947754, -37.63081741333008],
    [0.0, 0.0, 0.0, 1.0]
],
  "dcmmeta_reorient_transform": [
    [0.0, -1.0, 0.0, 81.0],
    [1.0, 0.0, 0.0, 0.0],
    [0.0, 0.0, 1.0, 0.0],
    [0.0, 0.0, 0.0, 1.0]
],
  "dcmmeta_shape": [82, 82, 56, 914],
  "dcmmeta_slice_dim": 2,
  "dcmmeta_version": 0.6,
  "global": {
    "const": {
      "AccessionNumber": "A003816",
      "AcquisitionMatrix": [82, 0, 0, 82],
      "AngioFlag": "N",
      "BitsAllocated": 16,
      "BitsStored": 16,
      "BodyPartExamined": "BRAIN",
      "Columns": 656,
      "EchoNumbers": 1,
      "EchoTime": 27.2,
      "EchoTrainLength": 82,
      "FlipAngle": 44.0,
      "HighBit": 15,
      "ImageOrientationPatient": [0.99987456276994, -0.015732431906, 0.00183011255183, 0.01570729703117, 0.99979184243385, 0.01302123737256],
      "ImagePositionPatient": [-896.70159302604, -885.68195385789, -51.896092541926],
      "ImageType": [
        "ORIGINAL",
        "PRIMARY",
        "M",
        "MB",
        "ND",
        "NORM",
        "MOSAIC"
],
      "ImagedNucleus": "1H",
      "ImagingFrequency": 123.252131,
      "InPlanePhaseEncodingDirection": "COL",
      "MRAcquisitionType": "2D",
      "MagneticFieldStrength": 3.0,
      "Manufacturer": "SIEMENS",
      "ManufacturerModelName": "Prisma",
      "Modality": "MR",
      "NumberOfAverages": 1.0,
      "NumberOfPhaseEncodingSteps": 82,
      "PercentPhaseFieldOfView": 100.0,
      "PercentSampling": 100.0,
      "PerformedProcedureStepStartTime": "110947.307000",
      "PhotometricInterpretation": "MONOCHROME2",
      "PixelBandwidth": 3050.0,
      "PixelRepresentation": 0,
      "PixelSpacing": [2.6829268932343, 2.6829268932343],
      "ProtocolName": "func_run-04_task-alignvideo_acq-ap-mb8",
      "RepetitionTime": 460.0,
      "Rows": 656,
      "SAR": 0.13412868958228,
      "SamplesPerPixel": 1,
      "ScanOptions": "FS",
      "ScanningSequence": "EP",
      "SequenceName": "epfid2d1_82",
      "SequenceVariant": [
        "SK",
        "SS"
],
      "SeriesDescription": "func_run-04_task-alignvideo_acq-ap-mb8",
      "SeriesNumber": 34,
      "SeriesTime": "130218.241000",
      "SliceLocation": -38.561419770347,
      "SliceThickness": 2.7000000476837,
      "SmallestImagePixelValue": 0,
      "SoftwareVersions": "syngo MR E11",
      "SpacingBetweenSlices": 2.6999999681365,
      "SpecificCharacterSet": "ISO_IR 100",
      "StudyID": "2",
      "StudyTime": "110947.255000",
      "TransmitCoilName": "Body",
      "VariableFlipAngleFlag": "N",
      "WindowCenterWidthExplanation": "Algo1",
      "dBdt": 0.0},
    "slices": {}
  },
  "time": {
    "samples": {
      "AcquisitionNumber": [1, 2, 3, 4, 5, 6, 7, 8, 9, 10, 11, 12, 13, 14, 15, 16, 17, 18, 19, 20, 21, 22, 23, 24, 25, 26, 27, 28, 29, 30, 31, 32, 33, 34, 35, 36, 37, 38, 39, 40, 41, 42, 43, 44, 45, 46, 47, 48, 49, 50, 51, 52, 53, 54, 55, 56, 57, 58, 59, 60, 61, 62, 63, 64, 65, 66, 67, 68, 69, 70, 71, 72, 73, 74, 75, 76, 77, 78, 79, 80, 81, 82, 83, 84, 85, 86, 87, 88, 89, 90, 91, 92, 93, 94, 95, 96, 97, 98, 99, 100, 101, 102, 103, 104, 105, 106, 107, 108, 109, 110, 111, 112, 113, 114, 115, 116, 117, 118, 119, 120, 121, 122, 123, 124, 125, 126, 127, 128, 129, 130, 131, 132, 133, 134, 135, 136, 137, 138, 139, 140, 141, 142, 143, 144, 145, 146, 147, 148, 149, 150, 151, 152, 153, 154, 155, 156, 157, 158, 159, 160, 161, 162, 163, 164, 165, 166, 167, 168, 169, 170, 171, 172, 173, 174, 175, 176, 177, 178, 179, 180, 181, 182, 183, 184, 185, 186, 187, 188, 189, 190, 191, 192, 193, 194, 195, 196, 197, 198, 199, 200, 201, 202, 203, 204, 205, 206, 207, 208, 209, 210, 211, 212, 213, 214, 215, 216, 217, 218, 219, 220, 221, 222, 223, 224, 225, 226, 227, 228, 229, 230, 231, 232, 233, 234, 235, 236, 237, 238, 239, 240, 241, 242, 243, 244, 245, 246, 247, 248, 249, 250, 251, 252, 253, 254, 255, 256, 257, 258, 259, 260, 261, 262, 263, 264, 265, 266, 267, 268, 269, 270, 271, 272, 273, 274, 275, 276, 277, 278, 279, 280, 281, 282, 283, 284, 285, 286, 287, 288, 289, 290, 291, 292, 293, 294, 295, 296, 297, 298, 299, 300, 301, 302, 303, 304, 305, 306, 307, 308, 309, 310, 311, 312, 313, 314, 315, 316, 317, 318, 319, 320, 321, 322, 323, 324, 325, 326, 327, 328, 329, 330, 331, 332, 333, 334, 335, 336, 337, 338, 339, 340, 341, 342, 343, 344, 345, 346, 347, 348, 349, 350, 351, 352, 353, 354, 355, 356, 357, 358, 359, 360, 361, 362, 363, 364, 365, 366, 367, 368, 369, 370, 371, 372, 373, 374, 375, 376, 377, 378, 379, 380, 381, 382, 383, 384, 385, 386, 387, 388, 389, 390, 391, 392, 393, 394, 395, 396, 397, 398, 399, 400, 401, 402, 403, 404, 405, 406, 407, 408, 409, 410, 411, 412, 413, 414, 415, 416, 417, 418, 419, 420, 421, 422, 423, 424, 425, 426, 427, 428, 429, 430, 431, 432, 433, 434, 435, 436, 437, 438, 439, 440, 441, 442, 443, 444, 445, 446, 447, 448, 449, 450, 451, 452, 453, 454, 455, 456, 457, 458, 459, 460, 461, 462, 463, 464, 465, 466, 467, 468, 469, 470, 471, 472, 473, 474, 475, 476, 477, 478, 479, 480, 481, 482, 483, 484, 485, 486, 487, 488, 489, 490, 491, 492, 493, 494, 495, 496, 497, 498, 499, 500, 501, 502, 503, 504, 505, 506, 507, 508, 509, 510, 511, 512, 513, 514, 515, 516, 517, 518, 519, 520, 521, 522, 523, 524, 525, 526, 527, 528, 529, 530, 531, 532, 533, 534, 535, 536, 537, 538, 539, 540, 541, 542, 543, 544, 545, 546, 547, 548, 549, 550, 551, 552, 553, 554, 555, 556, 557, 558, 559, 560, 561, 562, 563, 564, 565, 566, 567, 568, 569, 570, 571, 572, 573, 574, 575, 576, 577, 578, 579, 580, 581, 582, 583, 584, 585, 586, 587, 588, 589, 590, 591, 592, 593, 594, 595, 596, 597, 598, 599, 600, 601, 602, 603, 604, 605, 606, 607, 608, 609, 610, 611, 612, 613, 614, 615, 616, 617, 618, 619, 620, 621, 622, 623, 624, 625, 626, 627, 628, 629, 630, 631, 632, 633, 634, 635, 636, 637, 638, 639, 640, 641, 642, 643, 644, 645, 646, 647, 648, 649, 650, 651, 652, 653, 654, 655, 656, 657, 658, 659, 660, 661, 662, 663, 664, 665, 666, 667, 668, 669, 670, 671, 672, 673, 674, 675, 676, 677, 678, 679, 680, 681, 682, 683, 684, 685, 686, 687, 688, 689, 690, 691, 692, 693, 694, 695, 696, 697, 698, 699, 700, 701, 702, 703, 704, 705, 706, 707, 708, 709, 710, 711, 712, 713, 714, 715, 716, 717, 718, 719, 720, 721, 722, 723, 724, 725, 726, 727, 728, 729, 730, 731, 732, 733, 734, 735, 736, 737, 738, 739, 740, 741, 742, 743, 744, 745, 746, 747, 748, 749, 750, 751, 752, 753, 754, 755, 756, 757, 758, 759, 760, 761, 762, 763, 764, 765, 766, 767, 768, 769, 770, 771, 772, 773, 774, 775, 776, 777, 778, 779, 780, 781, 782, 783, 784, 785, 786, 787, 788, 789, 790, 791, 792, 793, 794, 795, 796, 797, 798, 799, 800, 801, 802, 803, 804, 805, 806, 807, 808, 809, 810, 811, 812, 813, 814, 815, 816, 817, 818, 819, 820, 821, 822, 823, 824, 825, 826, 827, 828, 829, 830, 831, 832, 833, 834, 835, 836, 837, 838, 839, 840, 841, 842, 843, 844, 845, 846, 847, 848, 849, 850, 851, 852, 853, 854, 855, 856, 857, 858, 859, 860, 861, 862, 863, 864, 865, 866, 867, 868, 869, 870, 871, 872, 873, 874, 875, 876, 877, 878, 879, 880, 881, 882, 883, 884, 885, 886, 887, 888, 889, 890, 891, 892, 893, 894, 895, 896, 897, 898, 899, 900, 901, 902, 903, 904, 905, 906, 907, 908, 909, 910, 911, 912, 913, 914],
      "AcquisitionTime": ["130200.297500", "130200.757500", "130201.217500", "130201.677500", "130202.137500", "130202.597500", "130203.057500", "130203.517500", "130203.977500", "130204.437500", "130204.897500", "130205.357500", "130205.817500", "130206.277500", "130206.737500", "130207.197500", "130207.657500", "130208.117500", "130208.577500", "130209.037500", "130209.497500", "130209.957500", "130210.417500", "130210.877500", "130211.337500", "130211.797500", "130212.257500", "130212.717500", "130213.177500", "130213.637500", "130214.097500", "130214.557500", "130215.017500", "130215.477500", "130215.937500", "130216.397500", "130216.857500", "130217.317500", "130217.777500", "130218.237500", "130218.697500", "130219.157500", "130219.617500", "130220.077500", "130220.537500", "130220.997500", "130221.457500", "130221.917500", "130222.377500", "130222.837500", "130223.297500", "130223.757500", "130224.217500", "130224.677500", "130225.137500", "130225.597500", "130226.057500", "130226.517500", "130226.977500", "130227.437500", "130227.897500", "130228.357500", "130228.817500", "130229.277500", "130229.737500", "130230.197500", "130230.657500", "130231.117500", "130231.577500", "130232.037500", "130232.497500", "130232.957500", "130233.417500", "130233.877500", "130234.337500", "130234.797500", "130235.257500", "130235.717500", "130236.177500", "130236.637500", "130237.097500", "130237.557500", "130238.017500", "130238.477500", "130238.937500", "130239.397500", "130239.857500", "130240.317500", "130240.777500", "130241.237500", "130241.697500", "130242.157500", "130242.617500", "130243.077500", "130243.537500", "130243.997500", "130244.457500", "130244.917500", "130245.377500", "130245.837500", "130246.297500", "130246.757500", "130247.217500", "130247.677500", "130248.137500", "130248.597500", "130249.057500", "130249.517500", "130249.977500", "130250.437500", "130250.897500", "130251.357500", "130251.817500", "130252.277500", "130252.737500", "130253.197500", "130253.657500", "130254.117500", "130254.577500", "130255.037500", "130255.497500", "130255.957500", "130256.417500", "130256.877500", "130257.337500", "130257.797500", "130258.257500", "130258.717500", "130259.177500", "130259.637500", "130300.097500", "130300.557500", "130301.017500", "130301.477500", "130301.937500", "130302.397500", "130302.857500", "130303.317500", "130303.777500", "130304.237500", "130304.697500", "130305.157500", "130305.617500", "130306.077500", "130306.537500", "130306.997500", "130307.457500", "130307.917500", "130308.377500", "130308.837500", "130309.297500", "130309.757500", "130310.217500", "130310.677500", "130311.137500", "130311.597500", "130312.057500", "130312.517500", "130312.977500", "130313.437500", "130313.897500", "130314.357500", "130314.817500", "130315.277500", "130315.737500", "130316.197500", "130316.657500", "130317.117500", "130317.577500", "130318.037500", "130318.497500", "130318.957500", "130319.417500", "130319.877500", "130320.337500", "130320.797500", "130321.257500", "130321.717500", "130322.177500", "130322.637500", "130323.097500", "130323.557500", "130324.017500", "130324.477500", "130324.937500", "130325.397500", "130325.857500", "130326.317500", "130326.777500", "130327.237500", "130327.697500", "130328.157500", "130328.617500", "130329.077500", "130329.537500", "130329.997500", "130330.457500", "130330.917500", "130331.377500", "130331.837500", "130332.297500", "130332.757500", "130333.217500", "130333.677500", "130334.137500", "130334.597500", "130335.057500", "130335.517500", "130335.977500", "130336.437500", "130336.897500", "130337.357500", "130337.817500", "130338.277500", "130338.737500", "130339.197500", "130339.657500", "130340.117500", "130340.577500", "130341.037500", "130341.497500", "130341.957500", "130342.417500", "130342.877500", "130343.337500", "130343.797500", "130344.257500", "130344.717500", "130345.177500", "130345.637500", "130346.097500", "130346.557500", "130347.017500", "130347.477500", "130347.937500", "130348.397500", "130348.857500", "130349.317500", "130349.777500", "130350.237500", "130350.697500", "130351.157500", "130351.617500", "130352.077500", "130352.537500", "130352.997500", "130353.457500", "130353.917500", "130354.377500", "130354.837500", "130355.297500", "130355.757500", "130356.217500", "130356.677500", "130357.137500", "130357.597500", "130358.057500", "130358.517500", "130358.977500", "130359.437500", "130359.897500", "130400.357500", "130400.817500", "130401.277500", "130401.737500", "130402.197500", "130402.657500", "130403.117500", "130403.577500", "130404.037500", "130404.497500", "130404.957500", "130405.417500", "130405.877500", "130406.337500", "130406.797500", "130407.257500", "130407.717500", "130408.177500", "130408.637500", "130409.097500", "130409.557500", "130410.017500", "130410.477500", "130410.937500", "130411.397500", "130411.857500", "130412.317500", "130412.777500", "130413.237500", "130413.697500", "130414.157500", "130414.617500", "130415.077500", "130415.537500", "130415.997500", "130416.457500", "130416.917500", "130417.377500", "130417.837500", "130418.297500", "130418.757500", "130419.217500", "130419.677500", "130420.137500", "130420.597500", "130421.057500", "130421.517500", "130421.977500", "130422.437500", "130422.897500", "130423.357500", "130423.817500", "130424.277500", "130424.737500", "130425.197500", "130425.657500", "130426.117500", "130426.577500", "130427.037500", "130427.497500", "130427.957500", "130428.417500", "130428.877500", "130429.337500", "130429.797500", "130430.257500", "130430.717500", "130431.177500", "130431.637500", "130432.097500", "130432.557500", "130433.017500", "130433.477500", "130433.937500", "130434.397500", "130434.857500", "130435.317500", "130435.777500", "130436.237500", "130436.697500", "130437.157500", "130437.617500", "130438.077500", "130438.537500", "130438.997500", "130439.457500", "130439.917500", "130440.377500", "130440.837500", "130441.297500", "130441.757500", "130442.217500", "130442.677500", "130443.137500", "130443.597500", "130444.057500", "130444.517500", "130444.977500", "130445.437500", "130445.897500", "130446.357500", "130446.817500", "130447.277500", "130447.737500", "130448.197500", "130448.657500", "130449.117500", "130449.577500", "130450.037500", "130450.497500", "130450.957500", "130451.417500", "130451.877500", "130452.337500", "130452.797500", "130453.257500", "130453.717500", "130454.177500", "130454.637500", "130455.097500", "130455.557500", "130456.017500", "130456.477500", "130456.937500", "130457.397500", "130457.857500", "130458.317500", "130458.777500", "130459.237500", "130459.697500", "130500.157500", "130500.617500", "130501.077500", "130501.537500", "130501.997500", "130502.457500", "130502.917500", "130503.377500", "130503.837500", "130504.297500", "130504.757500", "130505.217500", "130505.677500", "130506.137500", "130506.597500", "130507.057500", "130507.517500", "130507.977500", "130508.437500", "130508.897500", "130509.357500", "130509.817500", "130510.277500", "130510.737500", "130511.197500", "130511.657500", "130512.117500", "130512.577500", "130513.037500", "130513.497500", "130513.957500", "130514.417500", "130514.877500", "130515.337500", "130515.797500", "130516.257500", "130516.717500", "130517.177500", "130517.637500", "130518.097500", "130518.557500", "130519.017500", "130519.477500", "130519.937500", "130520.397500", "130520.857500", "130521.317500", "130521.777500", "130522.237500", "130522.697500", "130523.157500", "130523.617500", "130524.077500", "130524.537500", "130524.997500", "130525.457500", "130525.917500", "130526.377500", "130526.837500", "130527.297500", "130527.757500", "130528.217500", "130528.677500", "130529.137500", "130529.597500", "130530.057500", "130530.517500", "130530.977500", "130531.437500", "130531.897500", "130532.357500", "130532.817500", "130533.277500", "130533.737500", "130534.197500", "130534.657500", "130535.117500", "130535.577500", "130536.037500", "130536.497500", "130536.957500", "130537.417500", "130537.877500", "130538.337500", "130538.797500", "130539.257500", "130539.717500", "130540.177500", "130540.637500", "130541.097500", "130541.557500", "130542.017500", "130542.477500", "130542.937500", "130543.397500", "130543.857500", "130544.317500", "130544.777500", "130545.237500", "130545.697500", "130546.157500", "130546.617500", "130547.077500", "130547.537500", "130547.997500", "130548.457500", "130548.917500", "130549.377500", "130549.837500", "130550.297500", "130550.757500", "130551.217500", "130551.677500", "130552.137500", "130552.597500", "130553.057500", "130553.517500", "130553.977500", "130554.437500", "130554.897500", "130555.357500", "130555.817500", "130556.277500", "130556.737500", "130557.197500", "130557.657500", "130558.117500", "130558.577500", "130559.037500", "130559.497500", "130559.957500", "130600.417500", "130600.877500", "130601.337500", "130601.797500", "130602.257500", "130602.717500", "130603.177500", "130603.637500", "130604.097500", "130604.557500", "130605.017500", "130605.477500", "130605.937500", "130606.397500", "130606.857500", "130607.317500", "130607.777500", "130608.237500", "130608.697500", "130609.157500", "130609.617500", "130610.077500", "130610.537500", "130610.997500", "130611.457500", "130611.917500", "130612.377500", "130612.837500", "130613.297500", "130613.757500", "130614.217500", "130614.677500", "130615.137500", "130615.597500", "130616.057500", "130616.517500", "130616.977500", "130617.437500", "130617.897500", "130618.357500", "130618.817500", "130619.277500", "130619.737500", "130620.197500", "130620.657500", "130621.117500", "130621.577500", "130622.037500", "130622.497500", "130622.957500", "130623.417500", "130623.877500", "130624.337500", "130624.797500", "130625.257500", "130625.717500", "130626.177500", "130626.637500", "130627.097500", "130627.557500", "130628.017500", "130628.477500", "130628.937500", "130629.397500", "130629.857500", "130630.317500", "130630.777500", "130631.237500", "130631.697500", "130632.157500", "130632.617500", "130633.077500", "130633.537500", "130633.997500", "130634.457500", "130634.917500", "130635.377500", "130635.837500", "130636.297500", "130636.757500", "130637.217500", "130637.677500", "130638.137500", "130638.597500", "130639.057500", "130639.517500", "130639.977500", "130640.437500", "130640.897500", "130641.357500", "130641.817500", "130642.277500", "130642.737500", "130643.197500", "130643.657500", "130644.117500", "130644.577500", "130645.037500", "130645.497500", "130645.957500", "130646.417500", "130646.877500", "130647.337500", "130647.797500", "130648.257500", "130648.717500", "130649.177500", "130649.637500", "130650.097500", "130650.557500", "130651.017500", "130651.477500", "130651.937500", "130652.397500", "130652.857500", "130653.317500", "130653.777500", "130654.237500", "130654.697500", "130655.157500", "130655.617500", "130656.077500", "130656.537500", "130656.997500", "130657.457500", "130657.917500", "130658.377500", "130658.837500", "130659.297500", "130659.757500", "130700.217500", "130700.677500", "130701.137500", "130701.597500", "130702.057500", "130702.517500", "130702.977500", "130703.437500", "130703.897500", "130704.357500", "130704.817500", "130705.277500", "130705.737500", "130706.197500", "130706.657500", "130707.117500", "130707.577500", "130708.037500", "130708.497500", "130708.957500", "130709.417500", "130709.877500", "130710.337500", "130710.797500", "130711.257500", "130711.717500", "130712.177500", "130712.637500", "130713.097500", "130713.557500", "130714.017500", "130714.477500", "130714.937500", "130715.397500", "130715.857500", "130716.317500", "130716.777500", "130717.237500", "130717.697500", "130718.157500", "130718.617500", "130719.077500", "130719.537500", "130719.997500", "130720.457500", "130720.917500", "130721.377500", "130721.837500", "130722.297500", "130722.757500", "130723.217500", "130723.677500", "130724.137500", "130724.597500", "130725.057500", "130725.517500", "130725.977500", "130726.437500", "130726.897500", "130727.357500", "130727.817500", "130728.277500", "130728.737500", "130729.197500", "130729.657500", "130730.117500", "130730.577500", "130731.037500", "130731.497500", "130731.957500", "130732.417500", "130732.877500", "130733.337500", "130733.797500", "130734.257500", "130734.717500", "130735.177500", "130735.637500", "130736.097500", "130736.557500", "130737.017500", "130737.477500", "130737.937500", "130738.397500", "130738.857500", "130739.317500", "130739.777500", "130740.237500", "130740.697500", "130741.157500", "130741.617500", "130742.077500", "130742.537500", "130742.997500", "130743.457500", "130743.917500", "130744.377500", "130744.837500", "130745.297500", "130745.757500", "130746.217500", "130746.677500", "130747.137500", "130747.597500", "130748.057500", "130748.517500", "130748.977500", "130749.437500", "130749.897500", "130750.357500", "130750.817500", "130751.277500", "130751.737500", "130752.197500", "130752.657500", "130753.117500", "130753.577500", "130754.037500", "130754.497500", "130754.957500", "130755.417500", "130755.877500", "130756.337500", "130756.797500", "130757.257500", "130757.717500", "130758.177500", "130758.637500", "130759.097500", "130759.557500", "130800.017500", "130800.477500", "130800.937500", "130801.397500", "130801.857500", "130802.317500", "130802.777500", "130803.237500", "130803.697500", "130804.157500", "130804.617500", "130805.077500", "130805.537500", "130805.997500", "130806.457500", "130806.917500", "130807.377500", "130807.837500", "130808.297500", "130808.757500", "130809.217500", "130809.677500", "130810.137500", "130810.597500", "130811.057500", "130811.517500", "130811.977500", "130812.437500", "130812.897500", "130813.357500", "130813.817500", "130814.277500", "130814.737500", "130815.197500", "130815.657500", "130816.117500", "130816.577500", "130817.037500", "130817.497500", "130817.957500", "130818.417500", "130818.877500", "130819.337500", "130819.797500", "130820.257500", "130820.717500", "130821.177500", "130821.637500", "130822.097500", "130822.557500", "130823.017500", "130823.477500", "130823.937500", "130824.397500", "130824.857500", "130825.317500", "130825.777500", "130826.237500", "130826.697500", "130827.157500", "130827.617500", "130828.077500", "130828.537500", "130828.997500", "130829.457500", "130829.917500", "130830.377500", "130830.837500", "130831.297500", "130831.757500", "130832.217500", "130832.677500", "130833.137500", "130833.597500", "130834.057500", "130834.517500", "130834.977500", "130835.437500", "130835.897500", "130836.357500", "130836.817500", "130837.277500", "130837.737500", "130838.197500", "130838.657500", "130839.117500", "130839.577500", "130840.037500", "130840.497500", "130840.957500", "130841.417500", "130841.877500", "130842.337500", "130842.797500", "130843.257500", "130843.717500", "130844.177500", "130844.637500", "130845.097500", "130845.557500", "130846.017500", "130846.477500", "130846.937500", "130847.397500", "130847.857500", "130848.317500", "130848.777500", "130849.237500", "130849.697500", "130850.157500", "130850.617500", "130851.077500", "130851.537500", "130851.997500", "130852.457500", "130852.917500", "130853.377500", "130853.837500", "130854.297500", "130854.757500", "130855.217500", "130855.677500", "130856.137500", "130856.597500", "130857.057500", "130857.517500", "130857.977500", "130858.437500", "130858.897500", "130859.357500", "130859.817500", "130900.277500"],
