{
  "AcquisitionMatrixPE": 82,
  "AcquisitionNumber": 1,
  "AcquisitionTime": "12:31:30.292500",
  "BandwidthPerPixelPhaseEncode": 24.888,
  "BaseResolution": 82,
  "BodyPartExamined": "BRAIN",
  "ConsistencyInfo": "N4_VE11C_LATEST_20160120",
  "ConversionSoftware": "dcm2niix",
  "ConversionSoftwareVersion": "v1.0.20201102",
  "DerivedVendorReportedEchoSpacing": 0.00049,
  "DeviceSerialNumber": "66112",
  "DwellTime": 2e-06,
  "EchoTime": 0.0272,
  "EchoTrainLength": 82,
  "EffectiveEchoSpacing": 0.00049,
  "FlipAngle": 44,
  "ImageComments": "Unaliased MB8/PE3",
  "ImageOrientationPatientDICOM": [0.999875, -0.0157324, 0.00183011, 0.0157073, 0.999792, 0.0130212],
  "ImageType": [
    "ORIGINAL",
    "PRIMARY",
    "M",
    "MB",
    "ND",
    "NORM",
    "MOSAIC"
],
  "ImagingFrequency": 123.252,
  "InPlanePhaseEncodingDirectionDICOM": "COL",
  "InstitutionAddress": "Maynard 3,Hanover,NH,US,03755",
  "InstitutionName": "Dartmouth College - PBS",
  "InstitutionalDepartmentName": "Department",
  "MRAcquisitionType": "2D",
  "MagneticFieldStrength": 3,
  "Manufacturer": "Siemens",
  "ManufacturersModelName": "Prisma",
  "Modality": "MR",
  "MultibandAccelerationFactor": 8,
  "PartialFourier": 1,
  "PatientPosition": "HFS",
  "PercentPhaseFOV": 100,
  "PercentSampling": 100,
  "PhaseEncodingDirection": "j-",
  "PhaseEncodingSteps": 82,
  "PhaseResolution": 1,
  "PixelBandwidth": 3050,
  "ProcedureStepDescription": "Wager_Wager^1076_spacetop",
  "ProtocolName": "func_run-01_task-alignvideo_acq-ap-mb8",
  "PulseSequenceDetails": "%CustomerSeq%\\cmrr_mbep2d_bold",
  "ReceiveCoilActiveElements": "HEA;HEP",
  "ReceiveCoilName": "Head_32",
  "ReconMatrixPE": 82,
  "RepetitionTime": 0.46,
  "SAR": 0.134058,
  "ScanOptions": "FS",
  "ScanningSequence": "EP",
  "SequenceName": "epfid2d1_82",
  "SequenceVariant": "SK\\SS",
  "SeriesDescription": "func_run-01_task-alignvideo_acq-ap-mb8",
  "SeriesNumber": 28,
  "ShimSetting": [4151, -7748, -7190, 499, -45, -163, 127, 41],
  "SliceThickness": 2.7,
  "SliceTiming": [0, 0.2525, 0.0625, 0.315, 0.1275, 0.3775, 0.19, 0, 0.2525, 0.0625, 0.315, 0.1275, 0.3775, 0.19, 0, 0.2525, 0.0625, 0.315, 0.1275, 0.3775, 0.19, 0, 0.2525, 0.0625, 0.315, 0.1275, 0.3775, 0.19, 0, 0.2525, 0.0625, 0.315, 0.1275, 0.3775, 0.19, 0, 0.2525, 0.0625, 0.315, 0.1275, 0.3775, 0.19, 0, 0.2525, 0.0625, 0.315, 0.1275, 0.3775, 0.19, 0, 0.2525, 0.0625, 0.315, 0.1275, 0.3775, 0.19],
  "SoftwareVersions": "syngo MR E11",
  "SpacingBetweenSlices": 2.7,
  "StationName": "AWP66112",
  "TaskName": "alignvideo",
  "TotalReadoutTime": 0.03969,
  "TxRefAmp": 302.406,
  "WipMemBlock": "4e6e5c9c-b32a-4a56-94bb-cd4074847039||Sequence: R016 ve11c/master r/e634e98; Dec 19 2017 11:00:25 by eja",
  "dcmmeta_affine": [
    [-2.6825902462005615, 0.04214153066277504, 0.0054933857172727585, 111.29007720947266],
    [0.0422089658677578, 2.682368516921997, 0.035075314342975616, -89.3156509399414],
    [0.004910058341920376, -0.03493502736091614, 2.6997666358947754, -37.63081741333008],
    [0.0, 0.0, 0.0, 1.0]
],
  "dcmmeta_reorient_transform": [
    [0.0, -1.0, 0.0, 81.0],
    [1.0, 0.0, 0.0, 0.0],
    [0.0, 0.0, 1.0, 0.0],
    [0.0, 0.0, 0.0, 1.0]
],
  "dcmmeta_shape": [82, 82, 56, 839],
  "dcmmeta_slice_dim": 2,
  "dcmmeta_version": 0.6,
  "global": {
    "const": {
      "AccessionNumber": "A003816",
      "AcquisitionMatrix": [82, 0, 0, 82],
      "AngioFlag": "N",
      "BitsAllocated": 16,
      "BitsStored": 16,
      "BodyPartExamined": "BRAIN",
      "Columns": 656,
      "EchoNumbers": 1,
      "EchoTime": 27.2,
      "EchoTrainLength": 82,
      "FlipAngle": 44.0,
      "HighBit": 15,
      "ImageOrientationPatient": [0.99987456276994, -0.015732431906, 0.00183011255183, 0.01570729703117, 0.99979184243385, 0.01302123737256],
      "ImagePositionPatient": [-896.70159302604, -885.68195385789, -51.896092541926],
      "ImageType": [
        "ORIGINAL",
        "PRIMARY",
        "M",
        "MB",
        "ND",
        "NORM",
        "MOSAIC"
],
      "ImagedNucleus": "1H",
      "ImagingFrequency": 123.252123,
      "InPlanePhaseEncodingDirection": "COL",
      "MRAcquisitionType": "2D",
      "MagneticFieldStrength": 3.0,
      "Manufacturer": "SIEMENS",
      "ManufacturerModelName": "Prisma",
      "Modality": "MR",
      "NumberOfAverages": 1.0,
      "NumberOfPhaseEncodingSteps": 82,
      "PercentPhaseFieldOfView": 100.0,
      "PercentSampling": 100.0,
      "PerformedProcedureStepStartTime": "110947.307000",
      "PhotometricInterpretation": "MONOCHROME2",
      "PixelBandwidth": 3050.0,
      "PixelRepresentation": 0,
      "PixelSpacing": [2.6829268932343, 2.6829268932343],
      "ProtocolName": "func_run-01_task-alignvideo_acq-ap-mb8",
      "RepetitionTime": 460.0,
      "Rows": 656,
      "SAR": 0.13405771099119,
      "SamplesPerPixel": 1,
      "ScanOptions": "FS",
      "ScanningSequence": "EP",
      "SequenceName": "epfid2d1_82",
      "SequenceVariant": [
        "SK",
        "SS"
],
      "SeriesDescription": "func_run-01_task-alignvideo_acq-ap-mb8",
      "SeriesNumber": 28,
      "SeriesTime": "123158.229000",
      "SliceLocation": -38.561419770347,
      "SliceThickness": 2.7000000476837,
      "SmallestImagePixelValue": 0,
      "SoftwareVersions": "syngo MR E11",
      "SpacingBetweenSlices": 2.6999999681365,
      "SpecificCharacterSet": "ISO_IR 100",
      "StudyID": "2",
      "StudyTime": "110947.255000",
      "TransmitCoilName": "Body",
      "VariableFlipAngleFlag": "N",
      "WindowCenterWidthExplanation": "Algo1",
      "dBdt": 0.0},
    "slices": {}
  },
  "time": {
    "samples": {
      "AcquisitionNumber": [1, 2, 3, 4, 5, 6, 7, 8, 9, 10, 11, 12, 13, 14, 15, 16, 17, 18, 19, 20, 21, 22, 23, 24, 25, 26, 27, 28, 29, 30, 31, 32, 33, 34, 35, 36, 37, 38, 39, 40, 41, 42, 43, 44, 45, 46, 47, 48, 49, 50, 51, 52, 53, 54, 55, 56, 57, 58, 59, 60, 61, 62, 63, 64, 65, 66, 67, 68, 69, 70, 71, 72, 73, 74, 75, 76, 77, 78, 79, 80, 81, 82, 83, 84, 85, 86, 87, 88, 89, 90, 91, 92, 93, 94, 95, 96, 97, 98, 99, 100, 101, 102, 103, 104, 105, 106, 107, 108, 109, 110, 111, 112, 113, 114, 115, 116, 117, 118, 119, 120, 121, 122, 123, 124, 125, 126, 127, 128, 129, 130, 131, 132, 133, 134, 135, 136, 137, 138, 139, 140, 141, 142, 143, 144, 145, 146, 147, 148, 149, 150, 151, 152, 153, 154, 155, 156, 157, 158, 159, 160, 161, 162, 163, 164, 165, 166, 167, 168, 169, 170, 171, 172, 173, 174, 175, 176, 177, 178, 179, 180, 181, 182, 183, 184, 185, 186, 187, 188, 189, 190, 191, 192, 193, 194, 195, 196, 197, 198, 199, 200, 201, 202, 203, 204, 205, 206, 207, 208, 209, 210, 211, 212, 213, 214, 215, 216, 217, 218, 219, 220, 221, 222, 223, 224, 225, 226, 227, 228, 229, 230, 231, 232, 233, 234, 235, 236, 237, 238, 239, 240, 241, 242, 243, 244, 245, 246, 247, 248, 249, 250, 251, 252, 253, 254, 255, 256, 257, 258, 259, 260, 261, 262, 263, 264, 265, 266, 267, 268, 269, 270, 271, 272, 273, 274, 275, 276, 277, 278, 279, 280, 281, 282, 283, 284, 285, 286, 287, 288, 289, 290, 291, 292, 293, 294, 295, 296, 297, 298, 299, 300, 301, 302, 303, 304, 305, 306, 307, 308, 309, 310, 311, 312, 313, 314, 315, 316, 317, 318, 319, 320, 321, 322, 323, 324, 325, 326, 327, 328, 329, 330, 331, 332, 333, 334, 335, 336, 337, 338, 339, 340, 341, 342, 343, 344, 345, 346, 347, 348, 349, 350, 351, 352, 353, 354, 355, 356, 357, 358, 359, 360, 361, 362, 363, 364, 365, 366, 367, 368, 369, 370, 371, 372, 373, 374, 375, 376, 377, 378, 379, 380, 381, 382, 383, 384, 385, 386, 387, 388, 389, 390, 391, 392, 393, 394, 395, 396, 397, 398, 399, 400, 401, 402, 403, 404, 405, 406, 407, 408, 409, 410, 411, 412, 413, 414, 415, 416, 417, 418, 419, 420, 421, 422, 423, 424, 425, 426, 427, 428, 429, 430, 431, 432, 433, 434, 435, 436, 437, 438, 439, 440, 441, 442, 443, 444, 445, 446, 447, 448, 449, 450, 451, 452, 453, 454, 455, 456, 457, 458, 459, 460, 461, 462, 463, 464, 465, 466, 467, 468, 469, 470, 471, 472, 473, 474, 475, 476, 477, 478, 479, 480, 481, 482, 483, 484, 485, 486, 487, 488, 489, 490, 491, 492, 493, 494, 495, 496, 497, 498, 499, 500, 501, 502, 503, 504, 505, 506, 507, 508, 509, 510, 511, 512, 513, 514, 515, 516, 517, 518, 519, 520, 521, 522, 523, 524, 525, 526, 527, 528, 529, 530, 531, 532, 533, 534, 535, 536, 537, 538, 539, 540, 541, 542, 543, 544, 545, 546, 547, 548, 549, 550, 551, 552, 553, 554, 555, 556, 557, 558, 559, 560, 561, 562, 563, 564, 565, 566, 567, 568, 569, 570, 571, 572, 573, 574, 575, 576, 577, 578, 579, 580, 581, 582, 583, 584, 585, 586, 587, 588, 589, 590, 591, 592, 593, 594, 595, 596, 597, 598, 599, 600, 601, 602, 603, 604, 605, 606, 607, 608, 609, 610, 611, 612, 613, 614, 615, 616, 617, 618, 619, 620, 621, 622, 623, 624, 625, 626, 627, 628, 629, 630, 631, 632, 633, 634, 635, 636, 637, 638, 639, 640, 641, 642, 643, 644, 645, 646, 647, 648, 649, 650, 651, 652, 653, 654, 655, 656, 657, 658, 659, 660, 661, 662, 663, 664, 665, 666, 667, 668, 669, 670, 671, 672, 673, 674, 675, 676, 677, 678, 679, 680, 681, 682, 683, 684, 685, 686, 687, 688, 689, 690, 691, 692, 693, 694, 695, 696, 697, 698, 699, 700, 701, 702, 703, 704, 705, 706, 707, 708, 709, 710, 711, 712, 713, 714, 715, 716, 717, 718, 719, 720, 721, 722, 723, 724, 725, 726, 727, 728, 729, 730, 731, 732, 733, 734, 735, 736, 737, 738, 739, 740, 741, 742, 743, 744, 745, 746, 747, 748, 749, 750, 751, 752, 753, 754, 755, 756, 757, 758, 759, 760, 761, 762, 763, 764, 765, 766, 767, 768, 769, 770, 771, 772, 773, 774, 775, 776, 777, 778, 779, 780, 781, 782, 783, 784, 785, 786, 787, 788, 789, 790, 791, 792, 793, 794, 795, 796, 797, 798, 799, 800, 801, 802, 803, 804, 805, 806, 807, 808, 809, 810, 811, 812, 813, 814, 815, 816, 817, 818, 819, 820, 821, 822, 823, 824, 825, 826, 827, 828, 829, 830, 831, 832, 833, 834, 835, 836, 837, 838, 839],
      "AcquisitionTime": ["123130.292500", "123130.752500", "123131.212500", "123131.672500", "123132.132500", "123132.592500", "123133.052500", "123133.512500", "123133.972500", "123134.432500", "123134.892500", "123135.352500", "123135.812500", "123136.272500", "123136.732500", "123137.192500", "123137.652500", "123138.112500", "123138.572500", "123139.032500", "123139.492500", "123139.952500", "123140.412500", "123140.872500", "123141.332500", "123141.792500", "123142.252500", "123142.712500", "123143.172500", "123143.632500", "123144.092500", "123144.552500", "123145.012500", "123145.472500", "123145.932500", "123146.392500", "123146.852500", "123147.312500", "123147.772500", "123148.232500", "123148.692500", "123149.152500", "123149.612500", "123150.072500", "123150.532500", "123150.992500", "123151.452500", "123151.912500", "123152.372500", "123152.832500", "123153.292500", "123153.752500", "123154.212500", "123154.672500", "123155.132500", "123155.592500", "123156.052500", "123156.512500", "123156.972500", "123157.432500", "123157.892500", "123158.352500", "123158.812500", "123159.272500", "123159.732500", "123200.192500", "123200.652500", "123201.112500", "123201.572500", "123202.032500", "123202.492500", "123202.952500", "123203.412500", "123203.872500", "123204.332500", "123204.792500", "123205.252500", "123205.712500", "123206.172500", "123206.632500", "123207.092500", "123207.552500", "123208.012500", "123208.472500", "123208.932500", "123209.392500", "123209.852500", "123210.312500", "123210.772500", "123211.232500", "123211.692500", "123212.152500", "123212.612500", "123213.072500", "123213.532500", "123213.992500", "123214.452500", "123214.912500", "123215.372500", "123215.832500", "123216.292500", "123216.752500", "123217.212500", "123217.672500", "123218.132500", "123218.592500", "123219.052500", "123219.512500", "123219.972500", "123220.432500", "123220.892500", "123221.352500", "123221.812500", "123222.272500", "123222.732500", "123223.192500", "123223.652500", "123224.112500", "123224.572500", "123225.032500", "123225.492500", "123225.952500", "123226.412500", "123226.872500", "123227.332500", "123227.792500", "123228.252500", "123228.712500", "123229.172500", "123229.632500", "123230.092500", "123230.552500", "123231.012500", "123231.472500", "123231.932500", "123232.392500", "123232.852500", "123233.312500", "123233.772500", "123234.232500", "123234.692500", "123235.152500", "123235.612500", "123236.072500", "123236.532500", "123236.992500", "123237.452500", "123237.912500", "123238.372500", "123238.832500", "123239.292500", "123239.752500", "123240.212500", "123240.672500", "123241.132500", "123241.592500", "123242.052500", "123242.512500", "123242.972500", "123243.432500", "123243.892500", "123244.352500", "123244.812500", "123245.272500", "123245.732500", "123246.192500", "123246.652500", "123247.112500", "123247.572500", "123248.032500", "123248.492500", "123248.952500", "123249.412500", "123249.872500", "123250.332500", "123250.792500", "123251.252500", "123251.712500", "123252.172500", "123252.632500", "123253.092500", "123253.552500", "123254.012500", "123254.472500", "123254.932500", "123255.392500", "123255.852500", "123256.312500", "123256.772500", "123257.232500", "123257.692500", "123258.152500", "123258.612500", "123259.072500", "123259.532500", "123259.992500", "123300.452500", "123300.912500", "123301.372500", "123301.832500", "123302.292500", "123302.752500", "123303.212500", "123303.672500", "123304.132500", "123304.592500", "123305.052500", "123305.512500", "123305.972500", "123306.432500", "123306.892500", "123307.352500", "123307.812500", "123308.272500", "123308.732500", "123309.192500", "123309.652500", "123310.112500", "123310.572500", "123311.032500", "123311.492500", "123311.952500", "123312.412500", "123312.872500", "123313.332500", "123313.792500", "123314.252500", "123314.712500", "123315.172500", "123315.632500", "123316.092500", "123316.552500", "123317.012500", "123317.472500", "123317.932500", "123318.392500", "123318.852500", "123319.312500", "123319.772500", "123320.232500", "123320.692500", "123321.152500", "123321.612500", "123322.072500", "123322.532500", "123322.992500", "123323.452500", "123323.912500", "123324.372500", "123324.832500", "123325.292500", "123325.752500", "123326.212500", "123326.672500", "123327.132500", "123327.592500", "123328.052500", "123328.512500", "123328.972500", "123329.432500", "123329.892500", "123330.352500", "123330.812500", "123331.272500", "123331.732500", "123332.192500", "123332.652500", "123333.112500", "123333.572500", "123334.032500", "123334.492500", "123334.952500", "123335.412500", "123335.872500", "123336.332500", "123336.792500", "123337.252500", "123337.712500", "123338.172500", "123338.632500", "123339.092500", "123339.552500", "123340.012500", "123340.472500", "123340.932500", "123341.392500", "123341.852500", "123342.312500", "123342.772500", "123343.232500", "123343.692500", "123344.152500", "123344.612500", "123345.072500", "123345.532500", "123345.992500", "123346.452500", "123346.912500", "123347.372500", "123347.832500", "123348.292500", "123348.752500", "123349.212500", "123349.672500", "123350.132500", "123350.592500", "123351.052500", "123351.512500", "123351.972500", "123352.432500", "123352.892500", "123353.352500", "123353.812500", "123354.272500", "123354.732500", "123355.192500", "123355.652500", "123356.112500", "123356.572500", "123357.032500", "123357.492500", "123357.952500", "123358.412500", "123358.872500", "123359.332500", "123359.792500", "123400.252500", "123400.712500", "123401.172500", "123401.632500", "123402.092500", "123402.552500", "123403.012500", "123403.472500", "123403.932500", "123404.392500", "123404.852500", "123405.312500", "123405.772500", "123406.232500", "123406.692500", "123407.152500", "123407.612500", "123408.072500", "123408.532500", "123408.992500", "123409.452500", "123409.912500", "123410.372500", "123410.832500", "123411.292500", "123411.752500", "123412.212500", "123412.672500", "123413.132500", "123413.592500", "123414.052500", "123414.512500", "123414.972500", "123415.432500", "123415.892500", "123416.352500", "123416.812500", "123417.272500", "123417.732500", "123418.192500", "123418.652500", "123419.112500", "123419.572500", "123420.032500", "123420.492500", "123420.952500", "123421.412500", "123421.872500", "123422.332500", "123422.792500", "123423.252500", "123423.712500", "123424.172500", "123424.632500", "123425.092500", "123425.552500", "123426.012500", "123426.472500", "123426.932500", "123427.392500", "123427.852500", "123428.312500", "123428.772500", "123429.232500", "123429.692500", "123430.152500", "123430.612500", "123431.072500", "123431.532500", "123431.992500", "123432.452500", "123432.912500", "123433.372500", "123433.832500", "123434.292500", "123434.752500", "123435.212500", "123435.672500", "123436.132500", "123436.592500", "123437.052500", "123437.512500", "123437.972500", "123438.432500", "123438.892500", "123439.352500", "123439.812500", "123440.272500", "123440.732500", "123441.192500", "123441.652500", "123442.112500", "123442.572500", "123443.032500", "123443.492500", "123443.952500", "123444.412500", "123444.872500", "123445.332500", "123445.792500", "123446.252500", "123446.712500", "123447.172500", "123447.632500", "123448.092500", "123448.552500", "123449.012500", "123449.472500", "123449.932500", "123450.392500", "123450.852500", "123451.312500", "123451.772500", "123452.232500", "123452.692500", "123453.152500", "123453.612500", "123454.072500", "123454.532500", "123454.992500", "123455.452500", "123455.912500", "123456.372500", "123456.832500", "123457.292500", "123457.752500", "123458.212500", "123458.672500", "123459.132500", "123459.592500", "123500.052500", "123500.512500", "123500.972500", "123501.432500", "123501.892500", "123502.352500", "123502.812500", "123503.272500", "123503.732500", "123504.192500", "123504.652500", "123505.112500", "123505.572500", "123506.032500", "123506.492500", "123506.952500", "123507.412500", "123507.872500", "123508.332500", "123508.792500", "123509.252500", "123509.712500", "123510.172500", "123510.632500", "123511.092500", "123511.552500", "123512.012500", "123512.472500", "123512.932500", "123513.392500", "123513.852500", "123514.312500", "123514.772500", "123515.232500", "123515.692500", "123516.152500", "123516.612500", "123517.072500", "123517.532500", "123517.992500", "123518.452500", "123518.912500", "123519.372500", "123519.832500", "123520.292500", "123520.752500", "123521.212500", "123521.672500", "123522.132500", "123522.592500", "123523.052500", "123523.512500", "123523.972500", "123524.432500", "123524.892500", "123525.352500", "123525.812500", "123526.272500", "123526.732500", "123527.192500", "123527.652500", "123528.112500", "123528.572500", "123529.032500", "123529.492500", "123529.952500", "123530.412500", "123530.872500", "123531.332500", "123531.792500", "123532.252500", "123532.712500", "123533.172500", "123533.632500", "123534.092500", "123534.552500", "123535.012500", "123535.472500", "123535.932500", "123536.392500", "123536.852500", "123537.312500", "123537.772500", "123538.232500", "123538.692500", "123539.152500", "123539.612500", "123540.072500", "123540.532500", "123540.992500", "123541.452500", "123541.912500", "123542.372500", "123542.832500", "123543.292500", "123543.752500", "123544.212500", "123544.672500", "123545.132500", "123545.592500", "123546.052500", "123546.512500", "123546.972500", "123547.432500", "123547.892500", "123548.352500", "123548.812500", "123549.272500", "123549.732500", "123550.192500", "123550.652500", "123551.112500", "123551.572500", "123552.032500", "123552.492500", "123552.952500", "123553.412500", "123553.872500", "123554.332500", "123554.792500", "123555.252500", "123555.712500", "123556.172500", "123556.632500", "123557.092500", "123557.552500", "123558.012500", "123558.472500", "123558.932500", "123559.392500", "123559.852500", "123600.312500", "123600.772500", "123601.232500", "123601.692500", "123602.152500", "123602.612500", "123603.072500", "123603.532500", "123603.992500", "123604.452500", "123604.912500", "123605.372500", "123605.832500", "123606.292500", "123606.752500", "123607.212500", "123607.672500", "123608.132500", "123608.592500", "123609.052500", "123609.512500", "123609.972500", "123610.432500", "123610.892500", "123611.352500", "123611.812500", "123612.272500", "123612.732500", "123613.192500", "123613.652500", "123614.112500", "123614.572500", "123615.032500", "123615.492500", "123615.952500", "123616.412500", "123616.872500", "123617.332500", "123617.792500", "123618.252500", "123618.712500", "123619.172500", "123619.632500", "123620.092500", "123620.552500", "123621.012500", "123621.472500", "123621.932500", "123622.392500", "123622.852500", "123623.312500", "123623.772500", "123624.232500", "123624.692500", "123625.152500", "123625.612500", "123626.072500", "123626.532500", "123626.992500", "123627.452500", "123627.912500", "123628.372500", "123628.832500", "123629.292500", "123629.752500", "123630.212500", "123630.672500", "123631.132500", "123631.592500", "123632.052500", "123632.512500", "123632.972500", "123633.432500", "123633.892500", "123634.352500", "123634.812500", "123635.272500", "123635.732500", "123636.192500", "123636.652500", "123637.112500", "123637.572500", "123638.032500", "123638.492500", "123638.952500", "123639.412500", "123639.872500", "123640.332500", "123640.792500", "123641.252500", "123641.712500", "123642.172500", "123642.632500", "123643.092500", "123643.552500", "123644.012500", "123644.472500", "123644.932500", "123645.392500", "123645.852500", "123646.312500", "123646.772500", "123647.232500", "123647.692500", "123648.152500", "123648.612500", "123649.072500", "123649.532500", "123649.992500", "123650.452500", "123650.912500", "123651.372500", "123651.832500", "123652.292500", "123652.752500", "123653.212500", "123653.672500", "123654.132500", "123654.592500", "123655.052500", "123655.512500", "123655.972500", "123656.432500", "123656.892500", "123657.352500", "123657.812500", "123658.272500", "123658.732500", "123659.192500", "123659.652500", "123700.112500", "123700.572500", "123701.032500", "123701.492500", "123701.952500", "123702.412500", "123702.872500", "123703.332500", "123703.792500", "123704.252500", "123704.712500", "123705.172500", "123705.632500", "123706.092500", "123706.552500", "123707.012500", "123707.472500", "123707.932500", "123708.392500", "123708.852500", "123709.312500", "123709.772500", "123710.232500", "123710.692500", "123711.152500", "123711.612500", "123712.072500", "123712.532500", "123712.992500", "123713.452500", "123713.912500", "123714.372500", "123714.832500", "123715.292500", "123715.752500", "123716.212500", "123716.672500", "123717.132500", "123717.592500", "123718.052500", "123718.512500", "123718.972500", "123719.432500", "123719.892500", "123720.352500", "123720.812500", "123721.272500", "123721.732500", "123722.192500", "123722.652500", "123723.112500", "123723.572500", "123724.032500", "123724.492500", "123724.952500", "123725.412500", "123725.872500", "123726.332500", "123726.792500", "123727.252500", "123727.712500", "123728.172500", "123728.632500", "123729.092500", "123729.552500", "123730.012500", "123730.472500", "123730.932500", "123731.392500", "123731.852500", "123732.312500", "123732.772500", "123733.232500", "123733.692500", "123734.152500", "123734.612500", "123735.072500", "123735.532500", "123735.992500", "123736.452500", "123736.912500", "123737.372500", "123737.832500", "123738.292500", "123738.752500", "123739.212500", "123739.672500", "123740.132500", "123740.592500", "123741.052500", "123741.512500", "123741.972500", "123742.432500", "123742.892500", "123743.352500", "123743.812500", "123744.272500", "123744.732500", "123745.192500", "123745.652500", "123746.112500", "123746.572500", "123747.032500", "123747.492500", "123747.952500", "123748.412500", "123748.872500", "123749.332500", "123749.792500", "123750.252500", "123750.712500", "123751.172500", "123751.632500", "123752.092500", "123752.552500", "123753.012500", "123753.472500", "123753.932500", "123754.392500", "123754.852500", "123755.312500", "123755.772500"],
