{
  "AcquisitionMatrixPE": 82,
  "AcquisitionNumber": 1,
  "AcquisitionTime": "12:00:46.357500",
  "BandwidthPerPixelPhaseEncode": 24.888,
  "BaseResolution": 82,
  "BodyPartExamined": "BRAIN",
  "ConsistencyInfo": "N4_VE11C_LATEST_20160120",
  "ConversionSoftware": "dcm2niix",
  "ConversionSoftwareVersion": "v1.0.20201102",
  "DerivedVendorReportedEchoSpacing": 0.00049,
  "DeviceSerialNumber": "66112",
  "DwellTime": 2e-06,
  "EchoTime": 0.0272,
  "EchoTrainLength": 82,
  "EffectiveEchoSpacing": 0.00049,
  "FlipAngle": 44,
  "ImageComments": "Unaliased MB8/PE3",
  "ImageOrientationPatientDICOM": [0.9998, -0.0146444, 0.0136305, 0.017277, 0.975533, -0.219172],
  "ImageType": [
    "ORIGINAL",
    "PRIMARY",
    "M",
    "MB",
    "ND",
    "NORM",
    "MOSAIC"
],
  "ImagingFrequency": 123.252,
  "InPlanePhaseEncodingDirectionDICOM": "COL",
  "InstitutionAddress": "Maynard 3,Hanover,NH,US,03755",
  "InstitutionName": "dartmouth_brain_imaging_center",
  "InstitutionalDepartmentName": "Department",
  "MRAcquisitionType": "2D",
  "MagneticFieldStrength": 3,
  "Manufacturer": "Siemens",
  "ManufacturersModelName": "Prisma",
  "Modality": "MR",
  "MultibandAccelerationFactor": 8,
  "PartialFourier": 1,
  "PatientPosition": "HFS",
  "PercentPhaseFOV": 100,
  "PercentSampling": 100,
  "PhaseEncodingDirection": "j-",
  "PhaseEncodingSteps": 82,
  "PhaseResolution": 1,
  "PixelBandwidth": 3050,
  "ProcedureStepDescription": "Wager_Wager^1076_spacetop",
  "ProtocolName": "func_run-01_task-narratives_acq-ap-mb8",
  "PulseSequenceDetails": "%CustomerSeq%\\cmrr_mbep2d_bold",
  "ReceiveCoilActiveElements": "HEA;HEP",
  "ReceiveCoilName": "Head_32",
  "ReconMatrixPE": 82,
  "RepetitionTime": 0.46,
  "SAR": 0.111448,
  "ScanOptions": "FS",
  "ScanningSequence": "EP",
  "SequenceName": "epfid2d1_82",
  "SequenceVariant": "SK\\SS",
  "SeriesDescription": "func_run-01_task-narratives_acq-ap-mb8",
  "SeriesNumber": 8,
  "ShimSetting": [4149, -7736, -7230, 546, -14, -166, -56, 66],
  "SliceThickness": 2.7,
  "SliceTiming": [0, 0.2525, 0.0625, 0.315, 0.125, 0.3775, 0.19, 0, 0.2525, 0.0625, 0.315, 0.125, 0.3775, 0.19, 0, 0.2525, 0.0625, 0.315, 0.125, 0.3775, 0.19, 0, 0.2525, 0.0625, 0.315, 0.125, 0.3775, 0.19, 0, 0.2525, 0.0625, 0.315, 0.125, 0.3775, 0.19, 0, 0.2525, 0.0625, 0.315, 0.125, 0.3775, 0.19, 0, 0.2525, 0.0625, 0.315, 0.125, 0.3775, 0.19, 0, 0.2525, 0.0625, 0.315, 0.125, 0.3775, 0.19],
  "SoftwareVersions": "syngo MR E11",
  "SpacingBetweenSlices": 2.7,
  "StationName": "AWP66112",
  "TaskName": "narratives",
  "TotalReadoutTime": 0.03969,
  "TxRefAmp": 278.614,
  "WipMemBlock": "f2af0e4d-3e2e-4e78-9f12-74918f48b045||Sequence: R016 ve11c/master r/e634e98; Dec 19 2017 11:00:25 by eja",
  "dcmmeta_affine": [
    [-2.682389974594116, 0.046352993696928024, 0.027235975489020348, 107.84442138671875],
    [0.03928995132446289, 2.6172845363616943, -0.5922814011573792, -77.01199340820312],
    [0.036569744348526, 0.5880220532417297, 2.6340959072113037, -79.4821548461914],
    [0.0, 0.0, 0.0, 1.0]
],
  "dcmmeta_reorient_transform": [
    [0.0, -1.0, 0.0, 81.0],
    [1.0, 0.0, 0.0, 0.0],
    [0.0, 0.0, 1.0, 0.0],
    [0.0, 0.0, 0.0, 1.0]
],
  "dcmmeta_shape": [82, 82, 56, 967],
  "dcmmeta_slice_dim": 2,
  "dcmmeta_version": 0.6,
  "global": {
    "const": {
      "AccessionNumber": "A003606",
      "AcquisitionMatrix": [82, 0, 0, 82],
      "AngioFlag": "N",
      "BitsAllocated": 16,
      "BitsStored": 16,
      "BodyPartExamined": "BRAIN",
      "Columns": 656,
      "EchoNumbers": 1,
      "EchoTime": 27.2,
      "EchoTrainLength": 82,
      "FlipAngle": 44.0,
      "HighBit": 15,
      "ImageOrientationPatient": [0.9997998543907, -0.0146444362441, 0.0136305409807, 0.01727702385594, 0.97553329356009, -0.2191718449128],
      "ImagePositionPatient": [-894.7482289056, -874.87249207937, 126.41443771019],
      "ImageType": [
        "ORIGINAL",
        "PRIMARY",
        "M",
        "MB",
        "ND",
        "NORM",
        "MOSAIC"
],
      "ImagedNucleus": "1H",
      "ImagingFrequency": 123.252103,
      "InPlanePhaseEncodingDirection": "COL",
      "MRAcquisitionType": "2D",
      "MagneticFieldStrength": 3.0,
      "Manufacturer": "SIEMENS",
      "ManufacturerModelName": "Prisma",
      "Modality": "MR",
      "NumberOfAverages": 1.0,
      "NumberOfPhaseEncodingSteps": 82,
      "PercentPhaseFieldOfView": 100.0,
      "PercentSampling": 100.0,
      "PerformedProcedureStepStartTime": "113139.285000",
      "PhotometricInterpretation": "MONOCHROME2",
      "PixelBandwidth": 3050.0,
      "PixelRepresentation": 0,
      "PixelSpacing": [2.6829268932343, 2.6829268932343],
      "ProtocolName": "func_run-01_task-narratives_acq-ap-mb8",
      "RepetitionTime": 460.0,
      "Rows": 656,
      "SAR": 0.11144801872935,
      "SamplesPerPixel": 1,
      "ScanOptions": "FS",
      "ScanningSequence": "EP",
      "SequenceName": "epfid2d1_82",
      "SequenceVariant": [
        "SK",
        "SS"
],
      "SeriesDescription": "func_run-01_task-narratives_acq-ap-mb8",
      "SeriesNumber": 8,
      "SeriesTime": "120104.032000",
      "SliceLocation": -59.560592206656,
      "SliceThickness": 2.7000000476837,
      "SmallestImagePixelValue": 0,
      "SoftwareVersions": "syngo MR E11",
      "SpacingBetweenSlices": 2.7000000419971,
      "SpecificCharacterSet": "ISO_IR 100",
      "StudyID": "1",
      "StudyTime": "113139.156000",
      "TransmitCoilName": "Body",
      "VariableFlipAngleFlag": "N",
      "WindowCenterWidthExplanation": "Algo1",
      "dBdt": 0.0},
    "slices": {}
  },
  "time": {
    "samples": {
      "AcquisitionNumber": [1, 2, 3, 4, 5, 6, 7, 8, 9, 10, 11, 12, 13, 14, 15, 16, 17, 18, 19, 20, 21, 22, 23, 24, 25, 26, 27, 28, 29, 30, 31, 32, 33, 34, 35, 36, 37, 38, 39, 40, 41, 42, 43, 44, 45, 46, 47, 48, 49, 50, 51, 52, 53, 54, 55, 56, 57, 58, 59, 60, 61, 62, 63, 64, 65, 66, 67, 68, 69, 70, 71, 72, 73, 74, 75, 76, 77, 78, 79, 80, 81, 82, 83, 84, 85, 86, 87, 88, 89, 90, 91, 92, 93, 94, 95, 96, 97, 98, 99, 100, 101, 102, 103, 104, 105, 106, 107, 108, 109, 110, 111, 112, 113, 114, 115, 116, 117, 118, 119, 120, 121, 122, 123, 124, 125, 126, 127, 128, 129, 130, 131, 132, 133, 134, 135, 136, 137, 138, 139, 140, 141, 142, 143, 144, 145, 146, 147, 148, 149, 150, 151, 152, 153, 154, 155, 156, 157, 158, 159, 160, 161, 162, 163, 164, 165, 166, 167, 168, 169, 170, 171, 172, 173, 174, 175, 176, 177, 178, 179, 180, 181, 182, 183, 184, 185, 186, 187, 188, 189, 190, 191, 192, 193, 194, 195, 196, 197, 198, 199, 200, 201, 202, 203, 204, 205, 206, 207, 208, 209, 210, 211, 212, 213, 214, 215, 216, 217, 218, 219, 220, 221, 222, 223, 224, 225, 226, 227, 228, 229, 230, 231, 232, 233, 234, 235, 236, 237, 238, 239, 240, 241, 242, 243, 244, 245, 246, 247, 248, 249, 250, 251, 252, 253, 254, 255, 256, 257, 258, 259, 260, 261, 262, 263, 264, 265, 266, 267, 268, 269, 270, 271, 272, 273, 274, 275, 276, 277, 278, 279, 280, 281, 282, 283, 284, 285, 286, 287, 288, 289, 290, 291, 292, 293, 294, 295, 296, 297, 298, 299, 300, 301, 302, 303, 304, 305, 306, 307, 308, 309, 310, 311, 312, 313, 314, 315, 316, 317, 318, 319, 320, 321, 322, 323, 324, 325, 326, 327, 328, 329, 330, 331, 332, 333, 334, 335, 336, 337, 338, 339, 340, 341, 342, 343, 344, 345, 346, 347, 348, 349, 350, 351, 352, 353, 354, 355, 356, 357, 358, 359, 360, 361, 362, 363, 364, 365, 366, 367, 368, 369, 370, 371, 372, 373, 374, 375, 376, 377, 378, 379, 380, 381, 382, 383, 384, 385, 386, 387, 388, 389, 390, 391, 392, 393, 394, 395, 396, 397, 398, 399, 400, 401, 402, 403, 404, 405, 406, 407, 408, 409, 410, 411, 412, 413, 414, 415, 416, 417, 418, 419, 420, 421, 422, 423, 424, 425, 426, 427, 428, 429, 430, 431, 432, 433, 434, 435, 436, 437, 438, 439, 440, 441, 442, 443, 444, 445, 446, 447, 448, 449, 450, 451, 452, 453, 454, 455, 456, 457, 458, 459, 460, 461, 462, 463, 464, 465, 466, 467, 468, 469, 470, 471, 472, 473, 474, 475, 476, 477, 478, 479, 480, 481, 482, 483, 484, 485, 486, 487, 488, 489, 490, 491, 492, 493, 494, 495, 496, 497, 498, 499, 500, 501, 502, 503, 504, 505, 506, 507, 508, 509, 510, 511, 512, 513, 514, 515, 516, 517, 518, 519, 520, 521, 522, 523, 524, 525, 526, 527, 528, 529, 530, 531, 532, 533, 534, 535, 536, 537, 538, 539, 540, 541, 542, 543, 544, 545, 546, 547, 548, 549, 550, 551, 552, 553, 554, 555, 556, 557, 558, 559, 560, 561, 562, 563, 564, 565, 566, 567, 568, 569, 570, 571, 572, 573, 574, 575, 576, 577, 578, 579, 580, 581, 582, 583, 584, 585, 586, 587, 588, 589, 590, 591, 592, 593, 594, 595, 596, 597, 598, 599, 600, 601, 602, 603, 604, 605, 606, 607, 608, 609, 610, 611, 612, 613, 614, 615, 616, 617, 618, 619, 620, 621, 622, 623, 624, 625, 626, 627, 628, 629, 630, 631, 632, 633, 634, 635, 636, 637, 638, 639, 640, 641, 642, 643, 644, 645, 646, 647, 648, 649, 650, 651, 652, 653, 654, 655, 656, 657, 658, 659, 660, 661, 662, 663, 664, 665, 666, 667, 668, 669, 670, 671, 672, 673, 674, 675, 676, 677, 678, 679, 680, 681, 682, 683, 684, 685, 686, 687, 688, 689, 690, 691, 692, 693, 694, 695, 696, 697, 698, 699, 700, 701, 702, 703, 704, 705, 706, 707, 708, 709, 710, 711, 712, 713, 714, 715, 716, 717, 718, 719, 720, 721, 722, 723, 724, 725, 726, 727, 728, 729, 730, 731, 732, 733, 734, 735, 736, 737, 738, 739, 740, 741, 742, 743, 744, 745, 746, 747, 748, 749, 750, 751, 752, 753, 754, 755, 756, 757, 758, 759, 760, 761, 762, 763, 764, 765, 766, 767, 768, 769, 770, 771, 772, 773, 774, 775, 776, 777, 778, 779, 780, 781, 782, 783, 784, 785, 786, 787, 788, 789, 790, 791, 792, 793, 794, 795, 796, 797, 798, 799, 800, 801, 802, 803, 804, 805, 806, 807, 808, 809, 810, 811, 812, 813, 814, 815, 816, 817, 818, 819, 820, 821, 822, 823, 824, 825, 826, 827, 828, 829, 830, 831, 832, 833, 834, 835, 836, 837, 838, 839, 840, 841, 842, 843, 844, 845, 846, 847, 848, 849, 850, 851, 852, 853, 854, 855, 856, 857, 858, 859, 860, 861, 862, 863, 864, 865, 866, 867, 868, 869, 870, 871, 872, 873, 874, 875, 876, 877, 878, 879, 880, 881, 882, 883, 884, 885, 886, 887, 888, 889, 890, 891, 892, 893, 894, 895, 896, 897, 898, 899, 900, 901, 902, 903, 904, 905, 906, 907, 908, 909, 910, 911, 912, 913, 914, 915, 916, 917, 918, 919, 920, 921, 922, 923, 924, 925, 926, 927, 928, 929, 930, 931, 932, 933, 934, 935, 936, 937, 938, 939, 940, 941, 942, 943, 944, 945, 946, 947, 948, 949, 950, 951, 952, 953, 954, 955, 956, 957, 958, 959, 960, 961, 962, 963, 964, 965, 966, 967],
      "AcquisitionTime": ["120046.357500", "120046.817500", "120047.277500", "120047.737500", "120048.197500", "120048.657500", "120049.117500", "120049.577500", "120050.037500", "120050.497500", "120050.957500", "120051.417500", "120051.877500", "120052.337500", "120052.797500", "120053.257500", "120053.717500", "120054.177500", "120054.637500", "120055.097500", "120055.557500", "120056.017500", "120056.477500", "120056.937500", "120057.397500", "120057.857500", "120058.317500", "120058.777500", "120059.237500", "120059.697500", "120100.157500", "120100.617500", "120101.077500", "120101.537500", "120101.997500", "120102.457500", "120102.917500", "120103.377500", "120103.837500", "120104.297500", "120104.757500", "120105.217500", "120105.677500", "120106.137500", "120106.597500", "120107.057500", "120107.517500", "120107.977500", "120108.437500", "120108.897500", "120109.357500", "120109.817500", "120110.277500", "120110.737500", "120111.197500", "120111.657500", "120112.117500", "120112.577500", "120113.037500", "120113.497500", "120113.957500", "120114.417500", "120114.877500", "120115.337500", "120115.797500", "120116.257500", "120116.717500", "120117.177500", "120117.637500", "120118.097500", "120118.557500", "120119.017500", "120119.477500", "120119.937500", "120120.397500", "120120.857500", "120121.317500", "120121.777500", "120122.237500", "120122.697500", "120123.157500", "120123.617500", "120124.077500", "120124.537500", "120124.997500", "120125.457500", "120125.917500", "120126.377500", "120126.837500", "120127.297500", "120127.757500", "120128.217500", "120128.677500", "120129.137500", "120129.597500", "120130.057500", "120130.517500", "120130.977500", "120131.437500", "120131.897500", "120132.357500", "120132.817500", "120133.277500", "120133.737500", "120134.197500", "120134.657500", "120135.117500", "120135.577500", "120136.037500", "120136.497500", "120136.957500", "120137.417500", "120137.877500", "120138.337500", "120138.797500", "120139.257500", "120139.717500", "120140.177500", "120140.637500", "120141.097500", "120141.557500", "120142.017500", "120142.477500", "120142.937500", "120143.397500", "120143.857500", "120144.317500", "120144.777500", "120145.237500", "120145.697500", "120146.157500", "120146.617500", "120147.077500", "120147.537500", "120147.997500", "120148.457500", "120148.917500", "120149.377500", "120149.837500", "120150.297500", "120150.757500", "120151.217500", "120151.677500", "120152.137500", "120152.597500", "120153.057500", "120153.517500", "120153.977500", "120154.437500", "120154.897500", "120155.357500", "120155.817500", "120156.277500", "120156.737500", "120157.197500", "120157.657500", "120158.117500", "120158.577500", "120159.037500", "120159.497500", "120159.957500", "120200.417500", "120200.877500", "120201.337500", "120201.797500", "120202.257500", "120202.717500", "120203.177500", "120203.637500", "120204.097500", "120204.557500", "120205.017500", "120205.477500", "120205.937500", "120206.397500", "120206.857500", "120207.317500", "120207.777500", "120208.237500", "120208.697500", "120209.157500", "120209.617500", "120210.077500", "120210.537500", "120210.997500", "120211.457500", "120211.917500", "120212.377500", "120212.837500", "120213.297500", "120213.757500", "120214.217500", "120214.677500", "120215.137500", "120215.597500", "120216.057500", "120216.517500", "120216.977500", "120217.437500", "120217.897500", "120218.357500", "120218.817500", "120219.277500", "120219.737500", "120220.197500", "120220.657500", "120221.117500", "120221.577500", "120222.037500", "120222.497500", "120222.957500", "120223.417500", "120223.877500", "120224.337500", "120224.797500", "120225.257500", "120225.717500", "120226.177500", "120226.637500", "120227.097500", "120227.557500", "120228.017500", "120228.477500", "120228.937500", "120229.397500", "120229.857500", "120230.317500", "120230.777500", "120231.237500", "120231.697500", "120232.157500", "120232.617500", "120233.077500", "120233.537500", "120233.997500", "120234.457500", "120234.917500", "120235.377500", "120235.837500", "120236.297500", "120236.757500", "120237.217500", "120237.677500", "120238.137500", "120238.597500", "120239.057500", "120239.517500", "120239.977500", "120240.437500", "120240.897500", "120241.357500", "120241.817500", "120242.277500", "120242.737500", "120243.197500", "120243.657500", "120244.117500", "120244.577500", "120245.037500", "120245.497500", "120245.957500", "120246.417500", "120246.877500", "120247.337500", "120247.797500", "120248.257500", "120248.717500", "120249.177500", "120249.637500", "120250.097500", "120250.557500", "120251.017500", "120251.477500", "120251.937500", "120252.397500", "120252.857500", "120253.317500", "120253.777500", "120254.237500", "120254.697500", "120255.157500", "120255.617500", "120256.077500", "120256.537500", "120256.997500", "120257.457500", "120257.917500", "120258.377500", "120258.837500", "120259.297500", "120259.757500", "120300.217500", "120300.677500", "120301.137500", "120301.597500", "120302.057500", "120302.517500", "120302.977500", "120303.437500", "120303.897500", "120304.357500", "120304.817500", "120305.277500", "120305.737500", "120306.197500", "120306.657500", "120307.117500", "120307.577500", "120308.037500", "120308.497500", "120308.957500", "120309.417500", "120309.877500", "120310.337500", "120310.797500", "120311.257500", "120311.717500", "120312.177500", "120312.637500", "120313.097500", "120313.557500", "120314.017500", "120314.477500", "120314.937500", "120315.397500", "120315.857500", "120316.317500", "120316.777500", "120317.237500", "120317.697500", "120318.157500", "120318.617500", "120319.077500", "120319.537500", "120319.997500", "120320.457500", "120320.917500", "120321.377500", "120321.837500", "120322.297500", "120322.757500", "120323.217500", "120323.677500", "120324.137500", "120324.597500", "120325.057500", "120325.517500", "120325.977500", "120326.437500", "120326.897500", "120327.357500", "120327.817500", "120328.277500", "120328.737500", "120329.197500", "120329.657500", "120330.117500", "120330.577500", "120331.037500", "120331.497500", "120331.957500", "120332.417500", "120332.877500", "120333.337500", "120333.797500", "120334.257500", "120334.717500", "120335.177500", "120335.637500", "120336.097500", "120336.557500", "120337.017500", "120337.477500", "120337.937500", "120338.397500", "120338.857500", "120339.317500", "120339.777500", "120340.237500", "120340.697500", "120341.157500", "120341.617500", "120342.077500", "120342.537500", "120342.997500", "120343.457500", "120343.917500", "120344.377500", "120344.837500", "120345.297500", "120345.757500", "120346.217500", "120346.677500", "120347.137500", "120347.597500", "120348.057500", "120348.517500", "120348.977500", "120349.437500", "120349.897500", "120350.357500", "120350.817500", "120351.277500", "120351.737500", "120352.197500", "120352.657500", "120353.117500", "120353.577500", "120354.037500", "120354.497500", "120354.957500", "120355.417500", "120355.877500", "120356.337500", "120356.797500", "120357.257500", "120357.717500", "120358.177500", "120358.637500", "120359.097500", "120359.557500", "120400.017500", "120400.477500", "120400.937500", "120401.397500", "120401.857500", "120402.317500", "120402.777500", "120403.237500", "120403.697500", "120404.157500", "120404.617500", "120405.077500", "120405.537500", "120405.997500", "120406.457500", "120406.917500", "120407.377500", "120407.837500", "120408.297500", "120408.757500", "120409.217500", "120409.677500", "120410.137500", "120410.597500", "120411.057500", "120411.517500", "120411.977500", "120412.437500", "120412.897500", "120413.357500", "120413.817500", "120414.277500", "120414.737500", "120415.197500", "120415.657500", "120416.117500", "120416.577500", "120417.037500", "120417.497500", "120417.957500", "120418.417500", "120418.877500", "120419.337500", "120419.797500", "120420.257500", "120420.717500", "120421.177500", "120421.637500", "120422.097500", "120422.557500", "120423.017500", "120423.477500", "120423.937500", "120424.397500", "120424.857500", "120425.317500", "120425.777500", "120426.237500", "120426.697500", "120427.157500", "120427.617500", "120428.077500", "120428.537500", "120428.997500", "120429.457500", "120429.917500", "120430.377500", "120430.837500", "120431.297500", "120431.757500", "120432.217500", "120432.677500", "120433.137500", "120433.597500", "120434.057500", "120434.517500", "120434.977500", "120435.437500", "120435.897500", "120436.357500", "120436.817500", "120437.277500", "120437.737500", "120438.197500", "120438.657500", "120439.117500", "120439.577500", "120440.037500", "120440.497500", "120440.957500", "120441.417500", "120441.877500", "120442.337500", "120442.797500", "120443.257500", "120443.717500", "120444.177500", "120444.637500", "120445.097500", "120445.557500", "120446.017500", "120446.477500", "120446.937500", "120447.397500", "120447.857500", "120448.317500", "120448.777500", "120449.237500", "120449.697500", "120450.157500", "120450.617500", "120451.077500", "120451.537500", "120451.997500", "120452.457500", "120452.917500", "120453.377500", "120453.837500", "120454.297500", "120454.757500", "120455.217500", "120455.677500", "120456.137500", "120456.597500", "120457.057500", "120457.517500", "120457.977500", "120458.437500", "120458.897500", "120459.357500", "120459.817500", "120500.277500", "120500.737500", "120501.197500", "120501.657500", "120502.117500", "120502.577500", "120503.037500", "120503.497500", "120503.957500", "120504.417500", "120504.877500", "120505.337500", "120505.797500", "120506.257500", "120506.717500", "120507.177500", "120507.637500", "120508.097500", "120508.557500", "120509.017500", "120509.477500", "120509.937500", "120510.397500", "120510.857500", "120511.317500", "120511.777500", "120512.237500", "120512.697500", "120513.157500", "120513.617500", "120514.077500", "120514.537500", "120514.997500", "120515.457500", "120515.917500", "120516.377500", "120516.837500", "120517.297500", "120517.757500", "120518.217500", "120518.677500", "120519.137500", "120519.597500", "120520.057500", "120520.517500", "120520.977500", "120521.437500", "120521.897500", "120522.357500", "120522.817500", "120523.277500", "120523.737500", "120524.197500", "120524.657500", "120525.117500", "120525.577500", "120526.037500", "120526.497500", "120526.957500", "120527.417500", "120527.877500", "120528.337500", "120528.797500", "120529.257500", "120529.717500", "120530.177500", "120530.637500", "120531.097500", "120531.557500", "120532.017500", "120532.477500", "120532.937500", "120533.397500", "120533.857500", "120534.317500", "120534.777500", "120535.237500", "120535.697500", "120536.157500", "120536.617500", "120537.077500", "120537.537500", "120537.997500", "120538.457500", "120538.917500", "120539.377500", "120539.837500", "120540.297500", "120540.757500", "120541.217500", "120541.677500", "120542.137500", "120542.597500", "120543.057500", "120543.517500", "120543.977500", "120544.437500", "120544.897500", "120545.357500", "120545.817500", "120546.277500", "120546.737500", "120547.197500", "120547.657500", "120548.117500", "120548.577500", "120549.037500", "120549.497500", "120549.957500", "120550.417500", "120550.877500", "120551.337500", "120551.797500", "120552.257500", "120552.717500", "120553.177500", "120553.637500", "120554.097500", "120554.557500", "120555.017500", "120555.477500", "120555.937500", "120556.397500", "120556.857500", "120557.317500", "120557.777500", "120558.237500", "120558.697500", "120559.157500", "120559.617500", "120600.077500", "120600.537500", "120600.997500", "120601.457500", "120601.917500", "120602.377500", "120602.837500", "120603.297500", "120603.757500", "120604.217500", "120604.677500", "120605.137500", "120605.597500", "120606.057500", "120606.517500", "120606.977500", "120607.437500", "120607.897500", "120608.357500", "120608.817500", "120609.277500", "120609.737500", "120610.197500", "120610.657500", "120611.117500", "120611.577500", "120612.037500", "120612.497500", "120612.957500", "120613.417500", "120613.877500", "120614.337500", "120614.797500", "120615.257500", "120615.717500", "120616.177500", "120616.637500", "120617.097500", "120617.557500", "120618.017500", "120618.477500", "120618.937500", "120619.397500", "120619.857500", "120620.317500", "120620.777500", "120621.237500", "120621.697500", "120622.157500", "120622.617500", "120623.077500", "120623.537500", "120623.997500", "120624.457500", "120624.917500", "120625.377500", "120625.837500", "120626.297500", "120626.757500", "120627.217500", "120627.677500", "120628.137500", "120628.597500", "120629.057500", "120629.517500", "120629.977500", "120630.437500", "120630.897500", "120631.357500", "120631.817500", "120632.277500", "120632.737500", "120633.197500", "120633.657500", "120634.117500", "120634.577500", "120635.037500", "120635.497500", "120635.957500", "120636.417500", "120636.877500", "120637.337500", "120637.797500", "120638.257500", "120638.717500", "120639.177500", "120639.637500", "120640.097500", "120640.557500", "120641.017500", "120641.477500", "120641.937500", "120642.397500", "120642.857500", "120643.317500", "120643.777500", "120644.237500", "120644.697500", "120645.157500", "120645.617500", "120646.077500", "120646.537500", "120646.997500", "120647.457500", "120647.917500", "120648.377500", "120648.837500", "120649.297500", "120649.757500", "120650.217500", "120650.677500", "120651.137500", "120651.597500", "120652.057500", "120652.517500", "120652.977500", "120653.437500", "120653.897500", "120654.357500", "120654.817500", "120655.277500", "120655.737500", "120656.197500", "120656.657500", "120657.117500", "120657.577500", "120658.037500", "120658.497500", "120658.957500", "120659.417500", "120659.877500", "120700.337500", "120700.797500", "120701.257500", "120701.717500", "120702.177500", "120702.637500", "120703.097500", "120703.557500", "120704.017500", "120704.477500", "120704.937500", "120705.397500", "120705.857500", "120706.317500", "120706.777500", "120707.237500", "120707.697500", "120708.157500", "120708.617500", "120709.077500", "120709.537500", "120709.997500", "120710.457500", "120710.917500", "120711.377500", "120711.837500", "120712.297500", "120712.757500", "120713.217500", "120713.677500", "120714.137500", "120714.597500", "120715.057500", "120715.517500", "120715.977500", "120716.437500", "120716.897500", "120717.357500", "120717.817500", "120718.277500", "120718.737500", "120719.197500", "120719.657500", "120720.117500", "120720.577500", "120721.037500", "120721.497500", "120721.957500", "120722.417500", "120722.877500", "120723.337500", "120723.797500", "120724.257500", "120724.717500", "120725.177500", "120725.637500", "120726.097500", "120726.557500", "120727.017500", "120727.477500", "120727.937500", "120728.397500", "120728.857500", "120729.317500", "120729.777500", "120730.237500", "120730.697500", "120731.157500", "120731.617500", "120732.077500", "120732.537500", "120732.997500", "120733.457500", "120733.917500", "120734.377500", "120734.837500", "120735.297500", "120735.757500", "120736.217500", "120736.677500", "120737.137500", "120737.597500", "120738.057500", "120738.517500", "120738.977500", "120739.437500", "120739.897500", "120740.357500", "120740.817500", "120741.277500", "120741.737500", "120742.197500", "120742.657500", "120743.117500", "120743.577500", "120744.037500", "120744.497500", "120744.957500", "120745.417500", "120745.877500", "120746.337500", "120746.797500", "120747.257500", "120747.717500", "120748.177500", "120748.637500", "120749.097500", "120749.557500", "120750.017500", "120750.477500", "120750.937500", "120751.397500", "120751.857500", "120752.317500", "120752.777500", "120753.237500", "120753.697500", "120754.157500", "120754.617500", "120755.077500", "120755.537500", "120755.997500", "120756.457500", "120756.917500", "120757.377500", "120757.837500", "120758.297500", "120758.757500", "120759.217500", "120759.677500", "120800.137500", "120800.597500", "120801.057500", "120801.517500", "120801.977500", "120802.437500", "120802.897500", "120803.357500", "120803.817500", "120804.277500", "120804.737500", "120805.197500", "120805.657500", "120806.117500", "120806.577500", "120807.037500", "120807.497500", "120807.957500", "120808.417500", "120808.877500", "120809.337500", "120809.797500", "120810.257500", "120810.717500"],
