{
  "AcquisitionMatrixPE": 82,
  "AcquisitionNumber": 1,
  "AcquisitionTime": "13:13:47.617500",
  "BandwidthPerPixelPhaseEncode": 24.888,
  "BaseResolution": 82,
  "BodyPartExamined": "BRAIN",
  "ConsistencyInfo": "N4_VE11C_LATEST_20160120",
  "ConversionSoftware": "dcm2niix",
  "ConversionSoftwareVersion": "v1.0.20201102",
  "DerivedVendorReportedEchoSpacing": 0.00049,
  "DeviceSerialNumber": "66112",
  "DwellTime": 2e-06,
  "EchoTime": 0.0272,
  "EchoTrainLength": 82,
  "EffectiveEchoSpacing": 0.00049,
  "FlipAngle": 44,
  "ImageComments": "Unaliased MB8/PE3",
  "ImageOrientationPatientDICOM": [0.999012, -0.00138764, 0.0444238, 0.00854386, 0.986867, -0.16131],
  "ImageType": [
    "ORIGINAL",
    "PRIMARY",
    "M",
    "MB",
    "ND",
    "NORM",
    "MOSAIC"
],
  "ImagingFrequency": 123.252,
  "InPlanePhaseEncodingDirectionDICOM": "COL",
  "InstitutionAddress": "Maynard 3,Hanover,NH,US,03755",
  "InstitutionName": "dartmouth_brain_imaging_center",
  "InstitutionalDepartmentName": "Department",
  "MRAcquisitionType": "2D",
  "MagneticFieldStrength": 3,
  "Manufacturer": "Siemens",
  "ManufacturersModelName": "Prisma",
  "Modality": "MR",
  "MultibandAccelerationFactor": 8,
  "PartialFourier": 1,
  "PatientPosition": "HFS",
  "PercentPhaseFOV": 100,
  "PercentSampling": 100,
  "PhaseEncodingDirection": "j-",
  "PhaseEncodingSteps": 82,
  "PhaseResolution": 1,
  "PixelBandwidth": 3050,
  "ProcedureStepDescription": "Wager_Wager^1076_spacetop",
  "ProtocolName": "func_run-03_task-faces_acq-ap-mb8",
  "PulseSequenceDetails": "%CustomerSeq%\\cmrr_mbep2d_bold",
  "ReceiveCoilActiveElements": "HEA;HEP",
  "ReceiveCoilName": "Head_32",
  "ReconMatrixPE": 82,
  "RepetitionTime": 0.46,
  "SAR": 0.10971,
  "ScanOptions": "FS",
  "ScanningSequence": "EP",
  "SequenceName": "epfid2d1_82",
  "SequenceVariant": "SK\\SS",
  "SeriesDescription": "func_run-03_task-faces_acq-ap-mb8",
  "SeriesNumber": 26,
  "ShimSetting": [4156, -7739, -7228, 561, -33, -105, -102, 44],
  "SliceThickness": 2.7,
  "SliceTiming": [0, 0.2525, 0.0625, 0.315, 0.1275, 0.3775, 0.19, 0, 0.2525, 0.0625, 0.315, 0.1275, 0.3775, 0.19, 0, 0.2525, 0.0625, 0.315, 0.1275, 0.3775, 0.19, 0, 0.2525, 0.0625, 0.315, 0.1275, 0.3775, 0.19, 0, 0.2525, 0.0625, 0.315, 0.1275, 0.3775, 0.19, 0, 0.2525, 0.0625, 0.315, 0.1275, 0.3775, 0.19, 0, 0.2525, 0.0625, 0.315, 0.1275, 0.3775, 0.19, 0, 0.2525, 0.0625, 0.315, 0.1275, 0.3775, 0.19],
  "SoftwareVersions": "syngo MR E11",
  "SpacingBetweenSlices": 2.7,
  "StationName": "AWP66112",
  "TaskName": "faces",
  "TotalReadoutTime": 0.03969,
  "TxRefAmp": 277.896,
  "WipMemBlock": "d87a1fc9-e41f-4939-9e1c-46bf1a754d78||Sequence: R016 ve11c/master r/e634e98; Dec 19 2017 11:00:25 by eja",
  "dcmmeta_affine": [
    [-2.6802756786346436, 0.02292255498468876, 0.11776459217071533, 108.13614654541016],
    [0.003722935914993286, 2.647691488265991, -0.4361315369606018, -83.52799987792969],
    [0.11918576061725616, 0.4327830672264099, 2.6619391441345215, -81.12798309326172],
    [0.0, 0.0, 0.0, 1.0]
],
  "dcmmeta_reorient_transform": [
    [0.0, -1.0, 0.0, 81.0],
    [1.0, 0.0, 0.0, 0.0],
    [0.0, 0.0, 1.0, 0.0],
    [0.0, 0.0, 0.0, 1.0]
],
  "dcmmeta_shape": [82, 82, 56, 914],
  "dcmmeta_slice_dim": 2,
  "dcmmeta_version": 0.6,
  "global": {
    "const": {
      "AccessionNumber": "A003606",
      "AcquisitionMatrix": [82, 0, 0, 82],
      "AngioFlag": "N",
      "BitsAllocated": 16,
      "BitsStored": 16,
      "BodyPartExamined": "BRAIN",
      "Columns": 656,
      "EchoNumbers": 1,
      "EchoTime": 27.2,
      "EchoTrainLength": 82,
      "FlipAngle": 44.0,
      "HighBit": 15,
      "ImageOrientationPatient": [0.99901181273671, -0.0013876396896, 0.04442378269126, 0.00854386114897, 0.98686679428446, -0.1613100516874],
      "ImagePositionPatient": [-885.81076381973, -889.75397385402, 43.929876902107],
      "ImageType": [
        "ORIGINAL",
        "PRIMARY",
        "M",
        "MB",
        "ND",
        "NORM",
        "MOSAIC"
],
      "ImagedNucleus": "1H",
      "ImagingFrequency": 123.252148,
      "InPlanePhaseEncodingDirection": "COL",
      "MRAcquisitionType": "2D",
      "MagneticFieldStrength": 3.0,
      "Manufacturer": "SIEMENS",
      "ManufacturerModelName": "Prisma",
      "Modality": "MR",
      "NumberOfAverages": 1.0,
      "NumberOfPhaseEncodingSteps": 82,
      "PercentPhaseFieldOfView": 100.0,
      "PercentSampling": 100.0,
      "PerformedProcedureStepStartTime": "113139.285000",
      "PhotometricInterpretation": "MONOCHROME2",
      "PixelBandwidth": 3050.0,
      "PixelRepresentation": 0,
      "PixelSpacing": [2.6829268932343, 2.6829268932343],
      "ProtocolName": "func_run-03_task-faces_acq-ap-mb8",
      "RepetitionTime": 460.0,
      "Rows": 656,
      "SAR": 0.10970949927829,
      "SamplesPerPixel": 1,
      "ScanOptions": "FS",
      "ScanningSequence": "EP",
      "SequenceName": "epfid2d1_82",
      "SequenceVariant": [
        "SK",
        "SS"
],
      "SeriesDescription": "func_run-03_task-faces_acq-ap-mb8",
      "SeriesNumber": 26,
      "SeriesTime": "131404.324000",
      "SliceLocation": -61.775539414293,
      "SliceThickness": 2.7000000476837,
      "SmallestImagePixelValue": 0,
      "SoftwareVersions": "syngo MR E11",
      "SpacingBetweenSlices": 2.6999999538403,
      "SpecificCharacterSet": "ISO_IR 100",
      "StudyID": "1",
      "StudyTime": "113139.156000",
      "TransmitCoilName": "Body",
      "VariableFlipAngleFlag": "N",
      "WindowCenterWidthExplanation": "Algo1",
      "dBdt": 0.0},
    "slices": {}
  },
  "time": {
    "samples": {
      "AcquisitionNumber": [1, 2, 3, 4, 5, 6, 7, 8, 9, 10, 11, 12, 13, 14, 15, 16, 17, 18, 19, 20, 21, 22, 23, 24, 25, 26, 27, 28, 29, 30, 31, 32, 33, 34, 35, 36, 37, 38, 39, 40, 41, 42, 43, 44, 45, 46, 47, 48, 49, 50, 51, 52, 53, 54, 55, 56, 57, 58, 59, 60, 61, 62, 63, 64, 65, 66, 67, 68, 69, 70, 71, 72, 73, 74, 75, 76, 77, 78, 79, 80, 81, 82, 83, 84, 85, 86, 87, 88, 89, 90, 91, 92, 93, 94, 95, 96, 97, 98, 99, 100, 101, 102, 103, 104, 105, 106, 107, 108, 109, 110, 111, 112, 113, 114, 115, 116, 117, 118, 119, 120, 121, 122, 123, 124, 125, 126, 127, 128, 129, 130, 131, 132, 133, 134, 135, 136, 137, 138, 139, 140, 141, 142, 143, 144, 145, 146, 147, 148, 149, 150, 151, 152, 153, 154, 155, 156, 157, 158, 159, 160, 161, 162, 163, 164, 165, 166, 167, 168, 169, 170, 171, 172, 173, 174, 175, 176, 177, 178, 179, 180, 181, 182, 183, 184, 185, 186, 187, 188, 189, 190, 191, 192, 193, 194, 195, 196, 197, 198, 199, 200, 201, 202, 203, 204, 205, 206, 207, 208, 209, 210, 211, 212, 213, 214, 215, 216, 217, 218, 219, 220, 221, 222, 223, 224, 225, 226, 227, 228, 229, 230, 231, 232, 233, 234, 235, 236, 237, 238, 239, 240, 241, 242, 243, 244, 245, 246, 247, 248, 249, 250, 251, 252, 253, 254, 255, 256, 257, 258, 259, 260, 261, 262, 263, 264, 265, 266, 267, 268, 269, 270, 271, 272, 273, 274, 275, 276, 277, 278, 279, 280, 281, 282, 283, 284, 285, 286, 287, 288, 289, 290, 291, 292, 293, 294, 295, 296, 297, 298, 299, 300, 301, 302, 303, 304, 305, 306, 307, 308, 309, 310, 311, 312, 313, 314, 315, 316, 317, 318, 319, 320, 321, 322, 323, 324, 325, 326, 327, 328, 329, 330, 331, 332, 333, 334, 335, 336, 337, 338, 339, 340, 341, 342, 343, 344, 345, 346, 347, 348, 349, 350, 351, 352, 353, 354, 355, 356, 357, 358, 359, 360, 361, 362, 363, 364, 365, 366, 367, 368, 369, 370, 371, 372, 373, 374, 375, 376, 377, 378, 379, 380, 381, 382, 383, 384, 385, 386, 387, 388, 389, 390, 391, 392, 393, 394, 395, 396, 397, 398, 399, 400, 401, 402, 403, 404, 405, 406, 407, 408, 409, 410, 411, 412, 413, 414, 415, 416, 417, 418, 419, 420, 421, 422, 423, 424, 425, 426, 427, 428, 429, 430, 431, 432, 433, 434, 435, 436, 437, 438, 439, 440, 441, 442, 443, 444, 445, 446, 447, 448, 449, 450, 451, 452, 453, 454, 455, 456, 457, 458, 459, 460, 461, 462, 463, 464, 465, 466, 467, 468, 469, 470, 471, 472, 473, 474, 475, 476, 477, 478, 479, 480, 481, 482, 483, 484, 485, 486, 487, 488, 489, 490, 491, 492, 493, 494, 495, 496, 497, 498, 499, 500, 501, 502, 503, 504, 505, 506, 507, 508, 509, 510, 511, 512, 513, 514, 515, 516, 517, 518, 519, 520, 521, 522, 523, 524, 525, 526, 527, 528, 529, 530, 531, 532, 533, 534, 535, 536, 537, 538, 539, 540, 541, 542, 543, 544, 545, 546, 547, 548, 549, 550, 551, 552, 553, 554, 555, 556, 557, 558, 559, 560, 561, 562, 563, 564, 565, 566, 567, 568, 569, 570, 571, 572, 573, 574, 575, 576, 577, 578, 579, 580, 581, 582, 583, 584, 585, 586, 587, 588, 589, 590, 591, 592, 593, 594, 595, 596, 597, 598, 599, 600, 601, 602, 603, 604, 605, 606, 607, 608, 609, 610, 611, 612, 613, 614, 615, 616, 617, 618, 619, 620, 621, 622, 623, 624, 625, 626, 627, 628, 629, 630, 631, 632, 633, 634, 635, 636, 637, 638, 639, 640, 641, 642, 643, 644, 645, 646, 647, 648, 649, 650, 651, 652, 653, 654, 655, 656, 657, 658, 659, 660, 661, 662, 663, 664, 665, 666, 667, 668, 669, 670, 671, 672, 673, 674, 675, 676, 677, 678, 679, 680, 681, 682, 683, 684, 685, 686, 687, 688, 689, 690, 691, 692, 693, 694, 695, 696, 697, 698, 699, 700, 701, 702, 703, 704, 705, 706, 707, 708, 709, 710, 711, 712, 713, 714, 715, 716, 717, 718, 719, 720, 721, 722, 723, 724, 725, 726, 727, 728, 729, 730, 731, 732, 733, 734, 735, 736, 737, 738, 739, 740, 741, 742, 743, 744, 745, 746, 747, 748, 749, 750, 751, 752, 753, 754, 755, 756, 757, 758, 759, 760, 761, 762, 763, 764, 765, 766, 767, 768, 769, 770, 771, 772, 773, 774, 775, 776, 777, 778, 779, 780, 781, 782, 783, 784, 785, 786, 787, 788, 789, 790, 791, 792, 793, 794, 795, 796, 797, 798, 799, 800, 801, 802, 803, 804, 805, 806, 807, 808, 809, 810, 811, 812, 813, 814, 815, 816, 817, 818, 819, 820, 821, 822, 823, 824, 825, 826, 827, 828, 829, 830, 831, 832, 833, 834, 835, 836, 837, 838, 839, 840, 841, 842, 843, 844, 845, 846, 847, 848, 849, 850, 851, 852, 853, 854, 855, 856, 857, 858, 859, 860, 861, 862, 863, 864, 865, 866, 867, 868, 869, 870, 871, 872, 873, 874, 875, 876, 877, 878, 879, 880, 881, 882, 883, 884, 885, 886, 887, 888, 889, 890, 891, 892, 893, 894, 895, 896, 897, 898, 899, 900, 901, 902, 903, 904, 905, 906, 907, 908, 909, 910, 911, 912, 913, 914],
      "AcquisitionTime": ["131347.617500", "131348.077500", "131348.537500", "131348.997500", "131349.457500", "131349.917500", "131350.377500", "131350.837500", "131351.297500", "131351.757500", "131352.217500", "131352.677500", "131353.137500", "131353.597500", "131354.057500", "131354.517500", "131354.977500", "131355.437500", "131355.897500", "131356.357500", "131356.817500", "131357.277500", "131357.737500", "131358.197500", "131358.657500", "131359.117500", "131359.577500", "131400.037500", "131400.497500", "131400.957500", "131401.417500", "131401.877500", "131402.337500", "131402.797500", "131403.257500", "131403.717500", "131404.177500", "131404.637500", "131405.097500", "131405.557500", "131406.017500", "131406.477500", "131406.937500", "131407.397500", "131407.857500", "131408.317500", "131408.777500", "131409.237500", "131409.697500", "131410.157500", "131410.617500", "131411.077500", "131411.537500", "131411.997500", "131412.457500", "131412.917500", "131413.377500", "131413.837500", "131414.297500", "131414.757500", "131415.217500", "131415.677500", "131416.137500", "131416.597500", "131417.057500", "131417.517500", "131417.977500", "131418.437500", "131418.897500", "131419.357500", "131419.817500", "131420.277500", "131420.737500", "131421.197500", "131421.657500", "131422.117500", "131422.577500", "131423.037500", "131423.497500", "131423.957500", "131424.417500", "131424.877500", "131425.337500", "131425.797500", "131426.257500", "131426.717500", "131427.177500", "131427.637500", "131428.097500", "131428.557500", "131429.017500", "131429.477500", "131429.937500", "131430.397500", "131430.857500", "131431.317500", "131431.777500", "131432.237500", "131432.697500", "131433.157500", "131433.617500", "131434.077500", "131434.537500", "131434.997500", "131435.457500", "131435.917500", "131436.377500", "131436.837500", "131437.297500", "131437.757500", "131438.217500", "131438.677500", "131439.137500", "131439.597500", "131440.057500", "131440.517500", "131440.977500", "131441.437500", "131441.897500", "131442.357500", "131442.817500", "131443.277500", "131443.737500", "131444.197500", "131444.657500", "131445.117500", "131445.577500", "131446.037500", "131446.497500", "131446.957500", "131447.417500", "131447.877500", "131448.337500", "131448.797500", "131449.257500", "131449.717500", "131450.177500", "131450.637500", "131451.097500", "131451.557500", "131452.017500", "131452.477500", "131452.937500", "131453.397500", "131453.857500", "131454.317500", "131454.777500", "131455.237500", "131455.697500", "131456.157500", "131456.617500", "131457.077500", "131457.537500", "131457.997500", "131458.457500", "131458.917500", "131459.377500", "131459.837500", "131500.297500", "131500.757500", "131501.217500", "131501.677500", "131502.137500", "131502.597500", "131503.057500", "131503.517500", "131503.977500", "131504.437500", "131504.897500", "131505.357500", "131505.817500", "131506.277500", "131506.737500", "131507.197500", "131507.657500", "131508.117500", "131508.577500", "131509.037500", "131509.497500", "131509.957500", "131510.417500", "131510.877500", "131511.337500", "131511.797500", "131512.257500", "131512.717500", "131513.177500", "131513.637500", "131514.097500", "131514.557500", "131515.017500", "131515.477500", "131515.937500", "131516.397500", "131516.857500", "131517.317500", "131517.777500", "131518.237500", "131518.697500", "131519.157500", "131519.617500", "131520.077500", "131520.537500", "131520.997500", "131521.457500", "131521.917500", "131522.377500", "131522.837500", "131523.297500", "131523.757500", "131524.217500", "131524.677500", "131525.137500", "131525.597500", "131526.057500", "131526.517500", "131526.977500", "131527.437500", "131527.897500", "131528.357500", "131528.817500", "131529.277500", "131529.737500", "131530.197500", "131530.657500", "131531.117500", "131531.577500", "131532.037500", "131532.497500", "131532.957500", "131533.417500", "131533.877500", "131534.337500", "131534.797500", "131535.257500", "131535.717500", "131536.177500", "131536.637500", "131537.097500", "131537.557500", "131538.017500", "131538.477500", "131538.937500", "131539.397500", "131539.857500", "131540.317500", "131540.777500", "131541.237500", "131541.697500", "131542.157500", "131542.617500", "131543.077500", "131543.537500", "131543.997500", "131544.457500", "131544.917500", "131545.377500", "131545.837500", "131546.297500", "131546.757500", "131547.217500", "131547.677500", "131548.137500", "131548.597500", "131549.057500", "131549.517500", "131549.977500", "131550.437500", "131550.897500", "131551.357500", "131551.817500", "131552.277500", "131552.737500", "131553.197500", "131553.657500", "131554.117500", "131554.577500", "131555.037500", "131555.497500", "131555.957500", "131556.417500", "131556.877500", "131557.337500", "131557.797500", "131558.257500", "131558.717500", "131559.177500", "131559.637500", "131600.097500", "131600.557500", "131601.017500", "131601.477500", "131601.937500", "131602.397500", "131602.857500", "131603.317500", "131603.777500", "131604.237500", "131604.697500", "131605.157500", "131605.617500", "131606.077500", "131606.537500", "131606.997500", "131607.457500", "131607.917500", "131608.377500", "131608.837500", "131609.297500", "131609.757500", "131610.217500", "131610.677500", "131611.137500", "131611.597500", "131612.057500", "131612.517500", "131612.977500", "131613.437500", "131613.897500", "131614.357500", "131614.817500", "131615.277500", "131615.737500", "131616.197500", "131616.657500", "131617.117500", "131617.577500", "131618.037500", "131618.497500", "131618.957500", "131619.417500", "131619.877500", "131620.337500", "131620.797500", "131621.257500", "131621.717500", "131622.177500", "131622.637500", "131623.097500", "131623.557500", "131624.017500", "131624.477500", "131624.937500", "131625.397500", "131625.857500", "131626.317500", "131626.777500", "131627.237500", "131627.697500", "131628.157500", "131628.617500", "131629.077500", "131629.537500", "131629.997500", "131630.457500", "131630.917500", "131631.377500", "131631.837500", "131632.297500", "131632.757500", "131633.217500", "131633.677500", "131634.137500", "131634.597500", "131635.057500", "131635.517500", "131635.977500", "131636.437500", "131636.897500", "131637.357500", "131637.817500", "131638.277500", "131638.737500", "131639.197500", "131639.657500", "131640.117500", "131640.577500", "131641.037500", "131641.497500", "131641.957500", "131642.417500", "131642.877500", "131643.337500", "131643.797500", "131644.257500", "131644.717500", "131645.177500", "131645.637500", "131646.097500", "131646.557500", "131647.017500", "131647.477500", "131647.937500", "131648.397500", "131648.857500", "131649.317500", "131649.777500", "131650.237500", "131650.697500", "131651.157500", "131651.617500", "131652.077500", "131652.537500", "131652.997500", "131653.457500", "131653.917500", "131654.377500", "131654.837500", "131655.297500", "131655.757500", "131656.217500", "131656.677500", "131657.137500", "131657.597500", "131658.057500", "131658.517500", "131658.977500", "131659.437500", "131659.897500", "131700.357500", "131700.817500", "131701.277500", "131701.737500", "131702.197500", "131702.657500", "131703.117500", "131703.577500", "131704.037500", "131704.497500", "131704.957500", "131705.417500", "131705.877500", "131706.337500", "131706.797500", "131707.257500", "131707.717500", "131708.177500", "131708.637500", "131709.097500", "131709.557500", "131710.017500", "131710.477500", "131710.937500", "131711.397500", "131711.857500", "131712.317500", "131712.777500", "131713.237500", "131713.697500", "131714.157500", "131714.617500", "131715.077500", "131715.537500", "131715.997500", "131716.457500", "131716.917500", "131717.377500", "131717.837500", "131718.297500", "131718.757500", "131719.217500", "131719.677500", "131720.137500", "131720.597500", "131721.057500", "131721.517500", "131721.977500", "131722.437500", "131722.897500", "131723.357500", "131723.817500", "131724.277500", "131724.737500", "131725.197500", "131725.657500", "131726.117500", "131726.577500", "131727.037500", "131727.497500", "131727.957500", "131728.417500", "131728.877500", "131729.337500", "131729.797500", "131730.257500", "131730.717500", "131731.177500", "131731.637500", "131732.097500", "131732.557500", "131733.017500", "131733.477500", "131733.937500", "131734.397500", "131734.857500", "131735.317500", "131735.777500", "131736.237500", "131736.697500", "131737.157500", "131737.617500", "131738.077500", "131738.537500", "131738.997500", "131739.457500", "131739.917500", "131740.377500", "131740.837500", "131741.297500", "131741.757500", "131742.217500", "131742.677500", "131743.137500", "131743.597500", "131744.057500", "131744.517500", "131744.977500", "131745.437500", "131745.897500", "131746.357500", "131746.817500", "131747.277500", "131747.737500", "131748.197500", "131748.657500", "131749.117500", "131749.577500", "131750.037500", "131750.497500", "131750.957500", "131751.417500", "131751.877500", "131752.337500", "131752.797500", "131753.257500", "131753.717500", "131754.177500", "131754.637500", "131755.097500", "131755.557500", "131756.017500", "131756.477500", "131756.937500", "131757.397500", "131757.857500", "131758.317500", "131758.777500", "131759.237500", "131759.697500", "131800.157500", "131800.617500", "131801.077500", "131801.537500", "131801.997500", "131802.457500", "131802.917500", "131803.377500", "131803.837500", "131804.297500", "131804.757500", "131805.217500", "131805.677500", "131806.137500", "131806.597500", "131807.057500", "131807.517500", "131807.977500", "131808.437500", "131808.897500", "131809.357500", "131809.817500", "131810.277500", "131810.737500", "131811.197500", "131811.657500", "131812.117500", "131812.577500", "131813.037500", "131813.497500", "131813.957500", "131814.417500", "131814.877500", "131815.337500", "131815.797500", "131816.257500", "131816.717500", "131817.177500", "131817.637500", "131818.097500", "131818.557500", "131819.017500", "131819.477500", "131819.937500", "131820.397500", "131820.857500", "131821.317500", "131821.777500", "131822.237500", "131822.697500", "131823.157500", "131823.617500", "131824.077500", "131824.537500", "131824.997500", "131825.457500", "131825.917500", "131826.377500", "131826.837500", "131827.297500", "131827.757500", "131828.217500", "131828.677500", "131829.137500", "131829.597500", "131830.057500", "131830.517500", "131830.977500", "131831.437500", "131831.897500", "131832.357500", "131832.817500", "131833.277500", "131833.737500", "131834.197500", "131834.657500", "131835.117500", "131835.577500", "131836.037500", "131836.497500", "131836.957500", "131837.417500", "131837.877500", "131838.337500", "131838.797500", "131839.257500", "131839.717500", "131840.177500", "131840.637500", "131841.097500", "131841.557500", "131842.017500", "131842.477500", "131842.937500", "131843.397500", "131843.857500", "131844.317500", "131844.777500", "131845.237500", "131845.697500", "131846.157500", "131846.617500", "131847.077500", "131847.537500", "131847.997500", "131848.457500", "131848.917500", "131849.377500", "131849.837500", "131850.297500", "131850.757500", "131851.217500", "131851.677500", "131852.137500", "131852.597500", "131853.057500", "131853.517500", "131853.977500", "131854.437500", "131854.897500", "131855.357500", "131855.817500", "131856.277500", "131856.737500", "131857.197500", "131857.657500", "131858.117500", "131858.577500", "131859.037500", "131859.497500", "131859.957500", "131900.417500", "131900.877500", "131901.337500", "131901.797500", "131902.257500", "131902.717500", "131903.177500", "131903.637500", "131904.097500", "131904.557500", "131905.017500", "131905.477500", "131905.937500", "131906.397500", "131906.857500", "131907.317500", "131907.777500", "131908.237500", "131908.697500", "131909.157500", "131909.617500", "131910.077500", "131910.537500", "131910.997500", "131911.457500", "131911.917500", "131912.377500", "131912.837500", "131913.297500", "131913.757500", "131914.217500", "131914.677500", "131915.137500", "131915.597500", "131916.057500", "131916.517500", "131916.977500", "131917.437500", "131917.897500", "131918.357500", "131918.817500", "131919.277500", "131919.737500", "131920.197500", "131920.657500", "131921.117500", "131921.577500", "131922.037500", "131922.497500", "131922.957500", "131923.417500", "131923.877500", "131924.337500", "131924.797500", "131925.257500", "131925.717500", "131926.177500", "131926.637500", "131927.097500", "131927.557500", "131928.017500", "131928.477500", "131928.937500", "131929.397500", "131929.857500", "131930.317500", "131930.777500", "131931.237500", "131931.697500", "131932.157500", "131932.617500", "131933.077500", "131933.537500", "131933.997500", "131934.457500", "131934.917500", "131935.377500", "131935.837500", "131936.297500", "131936.757500", "131937.217500", "131937.677500", "131938.137500", "131938.597500", "131939.057500", "131939.517500", "131939.977500", "131940.437500", "131940.897500", "131941.357500", "131941.817500", "131942.277500", "131942.737500", "131943.197500", "131943.657500", "131944.117500", "131944.577500", "131945.037500", "131945.497500", "131945.957500", "131946.417500", "131946.877500", "131947.337500", "131947.797500", "131948.257500", "131948.717500", "131949.177500", "131949.637500", "131950.097500", "131950.557500", "131951.017500", "131951.477500", "131951.937500", "131952.397500", "131952.857500", "131953.317500", "131953.777500", "131954.237500", "131954.697500", "131955.157500", "131955.617500", "131956.077500", "131956.537500", "131956.997500", "131957.457500", "131957.917500", "131958.377500", "131958.837500", "131959.297500", "131959.757500", "132000.217500", "132000.677500", "132001.137500", "132001.597500", "132002.057500", "132002.517500", "132002.977500", "132003.437500", "132003.897500", "132004.357500", "132004.817500", "132005.277500", "132005.737500", "132006.197500", "132006.657500", "132007.117500", "132007.577500", "132008.037500", "132008.497500", "132008.957500", "132009.417500", "132009.877500", "132010.337500", "132010.797500", "132011.257500", "132011.717500", "132012.177500", "132012.637500", "132013.097500", "132013.557500", "132014.017500", "132014.477500", "132014.937500", "132015.397500", "132015.857500", "132016.317500", "132016.777500", "132017.237500", "132017.697500", "132018.157500", "132018.617500", "132019.077500", "132019.537500", "132019.997500", "132020.457500", "132020.917500", "132021.377500", "132021.837500", "132022.297500", "132022.757500", "132023.217500", "132023.677500", "132024.137500", "132024.597500", "132025.057500", "132025.517500", "132025.977500", "132026.437500", "132026.897500", "132027.357500", "132027.817500", "132028.277500", "132028.737500", "132029.197500", "132029.657500", "132030.117500", "132030.577500", "132031.037500", "132031.497500", "132031.957500", "132032.417500", "132032.877500", "132033.337500", "132033.797500", "132034.257500", "132034.717500", "132035.177500", "132035.637500", "132036.097500", "132036.557500", "132037.017500", "132037.477500", "132037.937500", "132038.397500", "132038.857500", "132039.317500", "132039.777500", "132040.237500", "132040.697500", "132041.157500", "132041.617500", "132042.077500", "132042.537500", "132042.997500", "132043.457500", "132043.917500", "132044.377500", "132044.837500", "132045.297500", "132045.757500", "132046.217500", "132046.677500", "132047.137500", "132047.597500"],
