{
  "AcquisitionMatrixPE": 82,
  "AcquisitionNumber": 1,
  "AcquisitionTime": "13:54:13.685000",
  "BandwidthPerPixelPhaseEncode": 24.888,
  "BaseResolution": 82,
  "BodyPartExamined": "BRAIN",
  "ConsistencyInfo": "N4_VE11C_LATEST_20160120",
  "ConversionSoftware": "dcm2niix",
  "ConversionSoftwareVersion": "v1.0.20201102",
  "DerivedVendorReportedEchoSpacing": 0.00049,
  "DeviceSerialNumber": "66112",
  "DwellTime": 2e-06,
  "EchoTime": 0.0272,
  "EchoTrainLength": 82,
  "EffectiveEchoSpacing": 0.00049,
  "FlipAngle": 44,
  "ImageComments": "Unaliased MB8/PE3",
  "ImageOrientationPatientDICOM": [0.998692, -0.0148348, 0.0489352, 0.019699, 0.994745, -0.100467],
  "ImageType": [
    "ORIGINAL",
    "PRIMARY",
    "M",
    "MB",
    "ND",
    "NORM",
    "MOSAIC"
],
  "ImagingFrequency": 123.252,
  "InPlanePhaseEncodingDirectionDICOM": "COL",
  "InstitutionAddress": "Maynard 3,Hanover,NH,US,03755",
  "InstitutionName": "dartmouth_brain_imaging_center",
  "InstitutionalDepartmentName": "Department",
  "MRAcquisitionType": "2D",
  "MagneticFieldStrength": 3,
  "Manufacturer": "Siemens",
  "ManufacturersModelName": "Prisma",
  "Modality": "MR",
  "MultibandAccelerationFactor": 8,
  "PartialFourier": 1,
  "PatientPosition": "HFS",
  "PercentPhaseFOV": 100,
  "PercentSampling": 100,
  "PhaseEncodingDirection": "j-",
  "PhaseEncodingSteps": 82,
  "PhaseResolution": 1,
  "PixelBandwidth": 3050,
  "ProcedureStepDescription": "Wager_Wager^1076_spacetop",
  "ProtocolName": "func_run-04_task-alignvideo_acq-ap-mb8",
  "PulseSequenceDetails": "%CustomerSeq%\\cmrr_mbep2d_bold",
  "ReceiveCoilActiveElements": "HEA;HEP",
  "ReceiveCoilName": "Head_32",
  "ReconMatrixPE": 82,
  "RepetitionTime": 0.46,
  "SAR": 0.10971,
  "ScanOptions": "FS",
  "ScanningSequence": "EP",
  "SequenceName": "epfid2d1_82",
  "SequenceVariant": "SK\\SS",
  "SeriesDescription": "func_run-04_task-alignvideo_acq-ap-mb8",
  "SeriesNumber": 40,
  "ShimSetting": [4155, -7743, -7233, 552, -40, -130, -91, 41],
  "SliceThickness": 2.7,
  "SliceTiming": [0, 0.2525, 0.065, 0.315, 0.1275, 0.3775, 0.19, 0, 0.2525, 0.065, 0.315, 0.1275, 0.3775, 0.19, 0, 0.2525, 0.065, 0.315, 0.1275, 0.3775, 0.19, 0, 0.2525, 0.065, 0.315, 0.1275, 0.3775, 0.19, 0, 0.2525, 0.065, 0.315, 0.1275, 0.3775, 0.19, 0, 0.2525, 0.065, 0.315, 0.1275, 0.3775, 0.19, 0, 0.2525, 0.065, 0.315, 0.1275, 0.3775, 0.19, 0, 0.2525, 0.065, 0.315, 0.1275, 0.3775, 0.19],
  "SoftwareVersions": "syngo MR E11",
  "SpacingBetweenSlices": 2.7,
  "StationName": "AWP66112",
  "TaskName": "alignvideo",
  "TotalReadoutTime": 0.03969,
  "TxRefAmp": 277.896,
  "WipMemBlock": "7b66b3bd-4904-4694-980e-c8c9aef20b00||Sequence: R016 ve11c/master r/e634e98; Dec 19 2017 11:00:25 by eja",
  "dcmmeta_affine": [
    [-2.679417133331299, 0.05285090580582619, 0.1274065375328064, 105.95840454101562],
    [0.03980059549212456, 2.6688289642333984, -0.27350983023643494, -90.60865020751953],
    [0.13128945231437683, 0.2695466876029968, 2.6830878257751465, -83.98602294921875],
    [0.0, 0.0, 0.0, 1.0]
],
  "dcmmeta_reorient_transform": [
    [0.0, -1.0, 0.0, 81.0],
    [1.0, 0.0, 0.0, 0.0],
    [0.0, 0.0, 1.0, 0.0],
    [0.0, 0.0, 0.0, 1.0]
],
  "dcmmeta_shape": [82, 82, 56, 914],
  "dcmmeta_slice_dim": 2,
  "dcmmeta_version": 0.6,
  "global": {
    "const": {
      "AccessionNumber": "A003606",
      "AcquisitionMatrix": [82, 0, 0, 82],
      "AngioFlag": "N",
      "BitsAllocated": 16,
      "BitsStored": 16,
      "BodyPartExamined": "BRAIN",
      "Columns": 656,
      "EchoNumbers": 1,
      "EchoTime": 27.2,
      "EchoTrainLength": 82,
      "FlipAngle": 44.0,
      "HighBit": 15,
      "ImageOrientationPatient": [0.99869178431502, -0.0148347669661, 0.04893515741001, 0.01969897339672, 0.99474532049866, -0.1004673966675],
      "ImagePositionPatient": [-894.40023358244, -880.09763861584, -22.472917434736],
      "ImageType": [
        "ORIGINAL",
        "PRIMARY",
        "M",
        "MB",
        "ND",
        "NORM",
        "MOSAIC"
],
      "ImagedNucleus": "1H",
      "ImagingFrequency": 123.25217,
      "InPlanePhaseEncodingDirection": "COL",
      "MRAcquisitionType": "2D",
      "MagneticFieldStrength": 3.0,
      "Manufacturer": "SIEMENS",
      "ManufacturerModelName": "Prisma",
      "Modality": "MR",
      "NumberOfAverages": 1.0,
      "NumberOfPhaseEncodingSteps": 82,
      "PercentPhaseFieldOfView": 100.0,
      "PercentSampling": 100.0,
      "PerformedProcedureStepStartTime": "113139.285000",
      "PhotometricInterpretation": "MONOCHROME2",
      "PixelBandwidth": 3050.0,
      "PixelRepresentation": 0,
      "PixelSpacing": [2.6829268932343, 2.6829268932343],
      "ProtocolName": "func_run-04_task-alignvideo_acq-ap-mb8",
      "RepetitionTime": 460.0,
      "Rows": 656,
      "SAR": 0.10970949927829,
      "SamplesPerPixel": 1,
      "ScanOptions": "FS",
      "ScanningSequence": "EP",
      "SequenceName": "epfid2d1_82",
      "SequenceVariant": [
        "SK",
        "SS"
],
      "SeriesDescription": "func_run-04_task-alignvideo_acq-ap-mb8",
      "SeriesNumber": 40,
      "SeriesTime": "135424.103000",
      "SliceLocation": -69.281378246251,
      "SliceThickness": 2.7000000476837,
      "SmallestImagePixelValue": 0,
      "SoftwareVersions": "syngo MR E11",
      "SpacingBetweenSlices": 2.6999999502462,
      "SpecificCharacterSet": "ISO_IR 100",
      "StudyID": "1",
      "StudyTime": "113139.156000",
      "TransmitCoilName": "Body",
      "VariableFlipAngleFlag": "N",
      "WindowCenterWidthExplanation": "Algo1",
      "dBdt": 0.0},
    "slices": {}
  },
  "time": {
    "samples": {
      "AcquisitionNumber": [1, 2, 3, 4, 5, 6, 7, 8, 9, 10, 11, 12, 13, 14, 15, 16, 17, 18, 19, 20, 21, 22, 23, 24, 25, 26, 27, 28, 29, 30, 31, 32, 33, 34, 35, 36, 37, 38, 39, 40, 41, 42, 43, 44, 45, 46, 47, 48, 49, 50, 51, 52, 53, 54, 55, 56, 57, 58, 59, 60, 61, 62, 63, 64, 65, 66, 67, 68, 69, 70, 71, 72, 73, 74, 75, 76, 77, 78, 79, 80, 81, 82, 83, 84, 85, 86, 87, 88, 89, 90, 91, 92, 93, 94, 95, 96, 97, 98, 99, 100, 101, 102, 103, 104, 105, 106, 107, 108, 109, 110, 111, 112, 113, 114, 115, 116, 117, 118, 119, 120, 121, 122, 123, 124, 125, 126, 127, 128, 129, 130, 131, 132, 133, 134, 135, 136, 137, 138, 139, 140, 141, 142, 143, 144, 145, 146, 147, 148, 149, 150, 151, 152, 153, 154, 155, 156, 157, 158, 159, 160, 161, 162, 163, 164, 165, 166, 167, 168, 169, 170, 171, 172, 173, 174, 175, 176, 177, 178, 179, 180, 181, 182, 183, 184, 185, 186, 187, 188, 189, 190, 191, 192, 193, 194, 195, 196, 197, 198, 199, 200, 201, 202, 203, 204, 205, 206, 207, 208, 209, 210, 211, 212, 213, 214, 215, 216, 217, 218, 219, 220, 221, 222, 223, 224, 225, 226, 227, 228, 229, 230, 231, 232, 233, 234, 235, 236, 237, 238, 239, 240, 241, 242, 243, 244, 245, 246, 247, 248, 249, 250, 251, 252, 253, 254, 255, 256, 257, 258, 259, 260, 261, 262, 263, 264, 265, 266, 267, 268, 269, 270, 271, 272, 273, 274, 275, 276, 277, 278, 279, 280, 281, 282, 283, 284, 285, 286, 287, 288, 289, 290, 291, 292, 293, 294, 295, 296, 297, 298, 299, 300, 301, 302, 303, 304, 305, 306, 307, 308, 309, 310, 311, 312, 313, 314, 315, 316, 317, 318, 319, 320, 321, 322, 323, 324, 325, 326, 327, 328, 329, 330, 331, 332, 333, 334, 335, 336, 337, 338, 339, 340, 341, 342, 343, 344, 345, 346, 347, 348, 349, 350, 351, 352, 353, 354, 355, 356, 357, 358, 359, 360, 361, 362, 363, 364, 365, 366, 367, 368, 369, 370, 371, 372, 373, 374, 375, 376, 377, 378, 379, 380, 381, 382, 383, 384, 385, 386, 387, 388, 389, 390, 391, 392, 393, 394, 395, 396, 397, 398, 399, 400, 401, 402, 403, 404, 405, 406, 407, 408, 409, 410, 411, 412, 413, 414, 415, 416, 417, 418, 419, 420, 421, 422, 423, 424, 425, 426, 427, 428, 429, 430, 431, 432, 433, 434, 435, 436, 437, 438, 439, 440, 441, 442, 443, 444, 445, 446, 447, 448, 449, 450, 451, 452, 453, 454, 455, 456, 457, 458, 459, 460, 461, 462, 463, 464, 465, 466, 467, 468, 469, 470, 471, 472, 473, 474, 475, 476, 477, 478, 479, 480, 481, 482, 483, 484, 485, 486, 487, 488, 489, 490, 491, 492, 493, 494, 495, 496, 497, 498, 499, 500, 501, 502, 503, 504, 505, 506, 507, 508, 509, 510, 511, 512, 513, 514, 515, 516, 517, 518, 519, 520, 521, 522, 523, 524, 525, 526, 527, 528, 529, 530, 531, 532, 533, 534, 535, 536, 537, 538, 539, 540, 541, 542, 543, 544, 545, 546, 547, 548, 549, 550, 551, 552, 553, 554, 555, 556, 557, 558, 559, 560, 561, 562, 563, 564, 565, 566, 567, 568, 569, 570, 571, 572, 573, 574, 575, 576, 577, 578, 579, 580, 581, 582, 583, 584, 585, 586, 587, 588, 589, 590, 591, 592, 593, 594, 595, 596, 597, 598, 599, 600, 601, 602, 603, 604, 605, 606, 607, 608, 609, 610, 611, 612, 613, 614, 615, 616, 617, 618, 619, 620, 621, 622, 623, 624, 625, 626, 627, 628, 629, 630, 631, 632, 633, 634, 635, 636, 637, 638, 639, 640, 641, 642, 643, 644, 645, 646, 647, 648, 649, 650, 651, 652, 653, 654, 655, 656, 657, 658, 659, 660, 661, 662, 663, 664, 665, 666, 667, 668, 669, 670, 671, 672, 673, 674, 675, 676, 677, 678, 679, 680, 681, 682, 683, 684, 685, 686, 687, 688, 689, 690, 691, 692, 693, 694, 695, 696, 697, 698, 699, 700, 701, 702, 703, 704, 705, 706, 707, 708, 709, 710, 711, 712, 713, 714, 715, 716, 717, 718, 719, 720, 721, 722, 723, 724, 725, 726, 727, 728, 729, 730, 731, 732, 733, 734, 735, 736, 737, 738, 739, 740, 741, 742, 743, 744, 745, 746, 747, 748, 749, 750, 751, 752, 753, 754, 755, 756, 757, 758, 759, 760, 761, 762, 763, 764, 765, 766, 767, 768, 769, 770, 771, 772, 773, 774, 775, 776, 777, 778, 779, 780, 781, 782, 783, 784, 785, 786, 787, 788, 789, 790, 791, 792, 793, 794, 795, 796, 797, 798, 799, 800, 801, 802, 803, 804, 805, 806, 807, 808, 809, 810, 811, 812, 813, 814, 815, 816, 817, 818, 819, 820, 821, 822, 823, 824, 825, 826, 827, 828, 829, 830, 831, 832, 833, 834, 835, 836, 837, 838, 839, 840, 841, 842, 843, 844, 845, 846, 847, 848, 849, 850, 851, 852, 853, 854, 855, 856, 857, 858, 859, 860, 861, 862, 863, 864, 865, 866, 867, 868, 869, 870, 871, 872, 873, 874, 875, 876, 877, 878, 879, 880, 881, 882, 883, 884, 885, 886, 887, 888, 889, 890, 891, 892, 893, 894, 895, 896, 897, 898, 899, 900, 901, 902, 903, 904, 905, 906, 907, 908, 909, 910, 911, 912, 913, 914],
      "AcquisitionTime": ["135413.685000", "135414.145000", "135414.605000", "135415.065000", "135415.525000", "135415.985000", "135416.445000", "135416.905000", "135417.365000", "135417.825000", "135418.285000", "135418.745000", "135419.205000", "135419.665000", "135420.125000", "135420.585000", "135421.045000", "135421.505000", "135421.965000", "135422.425000", "135422.885000", "135423.345000", "135423.805000", "135424.265000", "135424.725000", "135425.185000", "135425.645000", "135426.105000", "135426.565000", "135427.025000", "135427.485000", "135427.945000", "135428.405000", "135428.865000", "135429.325000", "135429.785000", "135430.245000", "135430.705000", "135431.165000", "135431.625000", "135432.085000", "135432.545000", "135433.005000", "135433.465000", "135433.925000", "135434.385000", "135434.845000", "135435.305000", "135435.765000", "135436.225000", "135436.685000", "135437.145000", "135437.605000", "135438.065000", "135438.525000", "135438.985000", "135439.445000", "135439.905000", "135440.365000", "135440.825000", "135441.285000", "135441.745000", "135442.205000", "135442.665000", "135443.125000", "135443.585000", "135444.045000", "135444.505000", "135444.965000", "135445.425000", "135445.885000", "135446.345000", "135446.805000", "135447.265000", "135447.725000", "135448.185000", "135448.645000", "135449.105000", "135449.565000", "135450.025000", "135450.485000", "135450.945000", "135451.405000", "135451.865000", "135452.325000", "135452.785000", "135453.245000", "135453.705000", "135454.165000", "135454.625000", "135455.085000", "135455.545000", "135456.005000", "135456.465000", "135456.925000", "135457.385000", "135457.845000", "135458.305000", "135458.765000", "135459.225000", "135459.685000", "135500.145000", "135500.605000", "135501.065000", "135501.525000", "135501.985000", "135502.445000", "135502.905000", "135503.365000", "135503.825000", "135504.285000", "135504.745000", "135505.205000", "135505.665000", "135506.125000", "135506.585000", "135507.045000", "135507.505000", "135507.965000", "135508.425000", "135508.885000", "135509.345000", "135509.805000", "135510.265000", "135510.725000", "135511.185000", "135511.645000", "135512.105000", "135512.565000", "135513.025000", "135513.485000", "135513.945000", "135514.405000", "135514.865000", "135515.325000", "135515.785000", "135516.245000", "135516.705000", "135517.165000", "135517.625000", "135518.085000", "135518.545000", "135519.005000", "135519.465000", "135519.925000", "135520.385000", "135520.845000", "135521.305000", "135521.765000", "135522.225000", "135522.685000", "135523.145000", "135523.605000", "135524.065000", "135524.525000", "135524.985000", "135525.445000", "135525.905000", "135526.365000", "135526.825000", "135527.285000", "135527.745000", "135528.205000", "135528.665000", "135529.125000", "135529.585000", "135530.045000", "135530.505000", "135530.965000", "135531.425000", "135531.885000", "135532.345000", "135532.805000", "135533.265000", "135533.725000", "135534.185000", "135534.645000", "135535.105000", "135535.565000", "135536.025000", "135536.485000", "135536.945000", "135537.405000", "135537.865000", "135538.325000", "135538.785000", "135539.245000", "135539.705000", "135540.165000", "135540.625000", "135541.085000", "135541.545000", "135542.005000", "135542.465000", "135542.925000", "135543.385000", "135543.845000", "135544.305000", "135544.765000", "135545.225000", "135545.685000", "135546.145000", "135546.605000", "135547.065000", "135547.525000", "135547.985000", "135548.445000", "135548.905000", "135549.365000", "135549.825000", "135550.285000", "135550.745000", "135551.205000", "135551.665000", "135552.125000", "135552.585000", "135553.045000", "135553.505000", "135553.965000", "135554.425000", "135554.885000", "135555.345000", "135555.805000", "135556.265000", "135556.725000", "135557.185000", "135557.645000", "135558.105000", "135558.565000", "135559.025000", "135559.485000", "135559.945000", "135600.405000", "135600.865000", "135601.325000", "135601.785000", "135602.245000", "135602.705000", "135603.165000", "135603.625000", "135604.085000", "135604.545000", "135605.005000", "135605.465000", "135605.925000", "135606.385000", "135606.845000", "135607.305000", "135607.765000", "135608.225000", "135608.685000", "135609.145000", "135609.605000", "135610.065000", "135610.525000", "135610.985000", "135611.445000", "135611.905000", "135612.365000", "135612.825000", "135613.285000", "135613.745000", "135614.205000", "135614.665000", "135615.125000", "135615.585000", "135616.045000", "135616.505000", "135616.965000", "135617.425000", "135617.885000", "135618.345000", "135618.805000", "135619.265000", "135619.725000", "135620.185000", "135620.645000", "135621.105000", "135621.565000", "135622.025000", "135622.485000", "135622.945000", "135623.405000", "135623.865000", "135624.325000", "135624.785000", "135625.245000", "135625.705000", "135626.165000", "135626.625000", "135627.085000", "135627.545000", "135628.005000", "135628.465000", "135628.925000", "135629.385000", "135629.845000", "135630.305000", "135630.765000", "135631.225000", "135631.685000", "135632.145000", "135632.605000", "135633.065000", "135633.525000", "135633.985000", "135634.445000", "135634.905000", "135635.365000", "135635.825000", "135636.285000", "135636.745000", "135637.205000", "135637.665000", "135638.125000", "135638.585000", "135639.045000", "135639.505000", "135639.965000", "135640.425000", "135640.885000", "135641.345000", "135641.805000", "135642.265000", "135642.725000", "135643.185000", "135643.645000", "135644.105000", "135644.565000", "135645.025000", "135645.485000", "135645.945000", "135646.405000", "135646.865000", "135647.325000", "135647.785000", "135648.245000", "135648.705000", "135649.165000", "135649.625000", "135650.085000", "135650.545000", "135651.005000", "135651.465000", "135651.925000", "135652.385000", "135652.845000", "135653.305000", "135653.765000", "135654.225000", "135654.685000", "135655.145000", "135655.605000", "135656.065000", "135656.525000", "135656.985000", "135657.445000", "135657.905000", "135658.365000", "135658.825000", "135659.285000", "135659.745000", "135700.205000", "135700.665000", "135701.125000", "135701.585000", "135702.045000", "135702.505000", "135702.965000", "135703.425000", "135703.885000", "135704.345000", "135704.805000", "135705.265000", "135705.725000", "135706.185000", "135706.645000", "135707.105000", "135707.565000", "135708.025000", "135708.485000", "135708.945000", "135709.405000", "135709.865000", "135710.325000", "135710.785000", "135711.245000", "135711.705000", "135712.165000", "135712.625000", "135713.085000", "135713.545000", "135714.005000", "135714.465000", "135714.925000", "135715.385000", "135715.845000", "135716.305000", "135716.765000", "135717.225000", "135717.685000", "135718.145000", "135718.605000", "135719.065000", "135719.525000", "135719.985000", "135720.445000", "135720.905000", "135721.365000", "135721.825000", "135722.285000", "135722.745000", "135723.205000", "135723.665000", "135724.125000", "135724.585000", "135725.045000", "135725.505000", "135725.965000", "135726.425000", "135726.885000", "135727.345000", "135727.805000", "135728.265000", "135728.725000", "135729.185000", "135729.645000", "135730.105000", "135730.565000", "135731.025000", "135731.485000", "135731.945000", "135732.405000", "135732.865000", "135733.325000", "135733.785000", "135734.245000", "135734.705000", "135735.165000", "135735.625000", "135736.085000", "135736.545000", "135737.005000", "135737.465000", "135737.925000", "135738.385000", "135738.845000", "135739.305000", "135739.765000", "135740.225000", "135740.685000", "135741.145000", "135741.605000", "135742.065000", "135742.525000", "135742.985000", "135743.445000", "135743.905000", "135744.365000", "135744.825000", "135745.285000", "135745.745000", "135746.205000", "135746.665000", "135747.125000", "135747.585000", "135748.045000", "135748.505000", "135748.965000", "135749.425000", "135749.885000", "135750.345000", "135750.805000", "135751.265000", "135751.725000", "135752.185000", "135752.645000", "135753.105000", "135753.565000", "135754.025000", "135754.485000", "135754.945000", "135755.405000", "135755.865000", "135756.325000", "135756.785000", "135757.245000", "135757.705000", "135758.165000", "135758.625000", "135759.085000", "135759.545000", "135800.005000", "135800.465000", "135800.925000", "135801.385000", "135801.845000", "135802.305000", "135802.765000", "135803.225000", "135803.685000", "135804.145000", "135804.605000", "135805.065000", "135805.525000", "135805.985000", "135806.445000", "135806.905000", "135807.365000", "135807.825000", "135808.285000", "135808.745000", "135809.205000", "135809.665000", "135810.125000", "135810.585000", "135811.045000", "135811.505000", "135811.965000", "135812.425000", "135812.885000", "135813.345000", "135813.805000", "135814.265000", "135814.725000", "135815.185000", "135815.645000", "135816.105000", "135816.565000", "135817.025000", "135817.485000", "135817.945000", "135818.405000", "135818.865000", "135819.325000", "135819.785000", "135820.245000", "135820.705000", "135821.165000", "135821.625000", "135822.085000", "135822.545000", "135823.005000", "135823.465000", "135823.925000", "135824.385000", "135824.845000", "135825.305000", "135825.765000", "135826.225000", "135826.685000", "135827.145000", "135827.605000", "135828.065000", "135828.525000", "135828.985000", "135829.445000", "135829.905000", "135830.365000", "135830.825000", "135831.285000", "135831.745000", "135832.205000", "135832.665000", "135833.125000", "135833.585000", "135834.045000", "135834.505000", "135834.965000", "135835.425000", "135835.885000", "135836.345000", "135836.805000", "135837.265000", "135837.725000", "135838.185000", "135838.645000", "135839.105000", "135839.565000", "135840.025000", "135840.485000", "135840.945000", "135841.405000", "135841.865000", "135842.325000", "135842.785000", "135843.245000", "135843.705000", "135844.165000", "135844.625000", "135845.085000", "135845.545000", "135846.005000", "135846.465000", "135846.925000", "135847.385000", "135847.845000", "135848.305000", "135848.765000", "135849.225000", "135849.685000", "135850.145000", "135850.605000", "135851.065000", "135851.525000", "135851.985000", "135852.445000", "135852.905000", "135853.365000", "135853.825000", "135854.285000", "135854.745000", "135855.205000", "135855.665000", "135856.125000", "135856.585000", "135857.045000", "135857.505000", "135857.965000", "135858.425000", "135858.885000", "135859.345000", "135859.805000", "135900.265000", "135900.725000", "135901.185000", "135901.645000", "135902.105000", "135902.565000", "135903.025000", "135903.485000", "135903.945000", "135904.405000", "135904.865000", "135905.325000", "135905.785000", "135906.245000", "135906.705000", "135907.165000", "135907.625000", "135908.085000", "135908.545000", "135909.005000", "135909.465000", "135909.925000", "135910.385000", "135910.845000", "135911.305000", "135911.765000", "135912.225000", "135912.685000", "135913.145000", "135913.605000", "135914.065000", "135914.525000", "135914.985000", "135915.445000", "135915.905000", "135916.365000", "135916.825000", "135917.285000", "135917.745000", "135918.205000", "135918.665000", "135919.125000", "135919.585000", "135920.045000", "135920.505000", "135920.965000", "135921.425000", "135921.885000", "135922.345000", "135922.805000", "135923.265000", "135923.725000", "135924.185000", "135924.645000", "135925.105000", "135925.565000", "135926.025000", "135926.485000", "135926.945000", "135927.405000", "135927.865000", "135928.325000", "135928.785000", "135929.245000", "135929.705000", "135930.165000", "135930.625000", "135931.085000", "135931.545000", "135932.005000", "135932.465000", "135932.925000", "135933.385000", "135933.845000", "135934.305000", "135934.765000", "135935.225000", "135935.685000", "135936.145000", "135936.605000", "135937.065000", "135937.525000", "135937.985000", "135938.445000", "135938.905000", "135939.365000", "135939.825000", "135940.285000", "135940.745000", "135941.205000", "135941.665000", "135942.125000", "135942.585000", "135943.045000", "135943.505000", "135943.965000", "135944.425000", "135944.885000", "135945.345000", "135945.805000", "135946.265000", "135946.725000", "135947.185000", "135947.645000", "135948.105000", "135948.565000", "135949.025000", "135949.485000", "135949.945000", "135950.405000", "135950.865000", "135951.325000", "135951.785000", "135952.245000", "135952.705000", "135953.165000", "135953.625000", "135954.085000", "135954.545000", "135955.005000", "135955.465000", "135955.925000", "135956.385000", "135956.845000", "135957.305000", "135957.765000", "135958.225000", "135958.685000", "135959.145000", "135959.605000", "140000.065000", "140000.525000", "140000.985000", "140001.445000", "140001.905000", "140002.365000", "140002.825000", "140003.285000", "140003.745000", "140004.205000", "140004.665000", "140005.125000", "140005.585000", "140006.045000", "140006.505000", "140006.965000", "140007.425000", "140007.885000", "140008.345000", "140008.805000", "140009.265000", "140009.725000", "140010.185000", "140010.645000", "140011.105000", "140011.565000", "140012.025000", "140012.485000", "140012.945000", "140013.405000", "140013.865000", "140014.325000", "140014.785000", "140015.245000", "140015.705000", "140016.165000", "140016.625000", "140017.085000", "140017.545000", "140018.005000", "140018.465000", "140018.925000", "140019.385000", "140019.845000", "140020.305000", "140020.765000", "140021.225000", "140021.685000", "140022.145000", "140022.605000", "140023.065000", "140023.525000", "140023.985000", "140024.445000", "140024.905000", "140025.365000", "140025.825000", "140026.285000", "140026.745000", "140027.205000", "140027.665000", "140028.125000", "140028.585000", "140029.045000", "140029.505000", "140029.965000", "140030.425000", "140030.885000", "140031.345000", "140031.805000", "140032.265000", "140032.725000", "140033.185000", "140033.645000", "140034.105000", "140034.565000", "140035.025000", "140035.485000", "140035.945000", "140036.405000", "140036.865000", "140037.325000", "140037.785000", "140038.245000", "140038.705000", "140039.165000", "140039.625000", "140040.085000", "140040.545000", "140041.005000", "140041.465000", "140041.925000", "140042.385000", "140042.845000", "140043.305000", "140043.765000", "140044.225000", "140044.685000", "140045.145000", "140045.605000", "140046.065000", "140046.525000", "140046.985000", "140047.445000", "140047.905000", "140048.365000", "140048.825000", "140049.285000", "140049.745000", "140050.205000", "140050.665000", "140051.125000", "140051.585000", "140052.045000", "140052.505000", "140052.965000", "140053.425000", "140053.885000", "140054.345000", "140054.805000", "140055.265000", "140055.725000", "140056.185000", "140056.645000", "140057.105000", "140057.565000", "140058.025000", "140058.485000", "140058.945000", "140059.405000", "140059.865000", "140100.325000", "140100.785000", "140101.245000", "140101.705000", "140102.165000", "140102.625000", "140103.085000", "140103.545000", "140104.005000", "140104.465000", "140104.925000", "140105.385000", "140105.845000", "140106.305000", "140106.765000", "140107.225000", "140107.685000", "140108.145000", "140108.605000", "140109.065000", "140109.525000", "140109.985000", "140110.445000", "140110.905000", "140111.365000", "140111.825000", "140112.285000", "140112.745000", "140113.205000", "140113.665000"],
