{
  "AcquisitionMatrixPE": 82,
  "AcquisitionNumber": 1,
  "AcquisitionTime": "13:23:39.235000",
  "BandwidthPerPixelPhaseEncode": 24.888,
  "BaseResolution": 82,
  "BodyPartExamined": "BRAIN",
  "ConsistencyInfo": "N4_VE11C_LATEST_20160120",
  "ConversionSoftware": "dcm2niix",
  "ConversionSoftwareVersion": "v1.0.20201102",
  "DerivedVendorReportedEchoSpacing": 0.00049,
  "DeviceSerialNumber": "66112",
  "DwellTime": 2e-06,
  "EchoTime": 0.0272,
  "EchoTrainLength": 82,
  "EffectiveEchoSpacing": 0.00049,
  "FlipAngle": 44,
  "ImageComments": "Unaliased MB8/PE3",
  "ImageOrientationPatientDICOM": [0.998692, -0.0148348, 0.0489352, 0.019699, 0.994745, -0.100467],
  "ImageType": [
    "ORIGINAL",
    "PRIMARY",
    "M",
    "MB",
    "ND",
    "NORM",
    "MOSAIC"
],
  "ImagingFrequency": 123.252,
  "InPlanePhaseEncodingDirectionDICOM": "COL",
  "InstitutionAddress": "Maynard 3,Hanover,NH,US,03755",
  "InstitutionName": "dartmouth_brain_imaging_center",
  "InstitutionalDepartmentName": "Department",
  "MRAcquisitionType": "2D",
  "MagneticFieldStrength": 3,
  "Manufacturer": "Siemens",
  "ManufacturersModelName": "Prisma",
  "Modality": "MR",
  "MultibandAccelerationFactor": 8,
  "PartialFourier": 1,
  "PatientPosition": "HFS",
  "PercentPhaseFOV": 100,
  "PercentSampling": 100,
  "PhaseEncodingDirection": "j-",
  "PhaseEncodingSteps": 82,
  "PhaseResolution": 1,
  "PixelBandwidth": 3050,
  "ProcedureStepDescription": "Wager_Wager^1076_spacetop",
  "ProtocolName": "func_run-01_task-alignvideo_acq-ap-mb8",
  "PulseSequenceDetails": "%CustomerSeq%\\cmrr_mbep2d_bold",
  "ReceiveCoilActiveElements": "HEA;HEP",
  "ReceiveCoilName": "Head_32",
  "ReconMatrixPE": 82,
  "RepetitionTime": 0.46,
  "SAR": 0.109651,
  "ScanOptions": "FS",
  "ScanningSequence": "EP",
  "SequenceName": "epfid2d1_82",
  "SequenceVariant": "SK\\SS",
  "SeriesDescription": "func_run-01_task-alignvideo_acq-ap-mb8",
  "SeriesNumber": 34,
  "ShimSetting": [4155, -7743, -7233, 552, -40, -130, -91, 41],
  "SliceThickness": 2.7,
  "SliceTiming": [0, 0.25, 0.0625, 0.315, 0.125, 0.3775, 0.1875, 0, 0.25, 0.0625, 0.315, 0.125, 0.3775, 0.1875, 0, 0.25, 0.0625, 0.315, 0.125, 0.3775, 0.1875, 0, 0.25, 0.0625, 0.315, 0.125, 0.3775, 0.1875, 0, 0.25, 0.0625, 0.315, 0.125, 0.3775, 0.1875, 0, 0.25, 0.0625, 0.315, 0.125, 0.3775, 0.1875, 0, 0.25, 0.0625, 0.315, 0.125, 0.3775, 0.1875, 0, 0.25, 0.0625, 0.315, 0.125, 0.3775, 0.1875],
  "SoftwareVersions": "syngo MR E11",
  "SpacingBetweenSlices": 2.7,
  "StationName": "AWP66112",
  "TaskName": "alignvideo",
  "TotalReadoutTime": 0.03969,
  "TxRefAmp": 277.896,
  "WipMemBlock": "d6d7002e-b29d-4309-b7e1-77107983ec5c||Sequence: R016 ve11c/master r/e634e98; Dec 19 2017 11:00:25 by eja",
  "dcmmeta_affine": [
    [-2.679417133331299, 0.05285090580582619, 0.1274065375328064, 105.95840454101562],
    [0.03980059549212456, 2.6688289642333984, -0.27350983023643494, -90.60865020751953],
    [0.13128945231437683, 0.2695466876029968, 2.6830878257751465, -83.98602294921875],
    [0.0, 0.0, 0.0, 1.0]
],
  "dcmmeta_reorient_transform": [
    [0.0, -1.0, 0.0, 81.0],
    [1.0, 0.0, 0.0, 0.0],
    [0.0, 0.0, 1.0, 0.0],
    [0.0, 0.0, 0.0, 1.0]
],
  "dcmmeta_shape": [82, 82, 56, 839],
  "dcmmeta_slice_dim": 2,
  "dcmmeta_version": 0.6,
  "global": {
    "const": {
      "AccessionNumber": "A003606",
      "AcquisitionMatrix": [82, 0, 0, 82],
      "AngioFlag": "N",
      "BitsAllocated": 16,
      "BitsStored": 16,
      "BodyPartExamined": "BRAIN",
      "Columns": 656,
      "EchoNumbers": 1,
      "EchoTime": 27.2,
      "EchoTrainLength": 82,
      "FlipAngle": 44.0,
      "HighBit": 15,
      "ImageOrientationPatient": [0.99869178431502, -0.0148347669661, 0.04893515741001, 0.01969897339672, 0.99474532049866, -0.1004673966675],
      "ImagePositionPatient": [-894.40023358244, -880.09763861584, -22.472917434736],
      "ImageType": [
        "ORIGINAL",
        "PRIMARY",
        "M",
        "MB",
        "ND",
        "NORM",
        "MOSAIC"
],
      "ImagedNucleus": "1H",
      "ImagingFrequency": 123.252155,
      "InPlanePhaseEncodingDirection": "COL",
      "MRAcquisitionType": "2D",
      "MagneticFieldStrength": 3.0,
      "Manufacturer": "SIEMENS",
      "ManufacturerModelName": "Prisma",
      "Modality": "MR",
      "NumberOfAverages": 1.0,
      "NumberOfPhaseEncodingSteps": 82,
      "PercentPhaseFieldOfView": 100.0,
      "PercentSampling": 100.0,
      "PerformedProcedureStepStartTime": "113139.285000",
      "PhotometricInterpretation": "MONOCHROME2",
      "PixelBandwidth": 3050.0,
      "PixelRepresentation": 0,
      "PixelSpacing": [2.6829268932343, 2.6829268932343],
      "ProtocolName": "func_run-01_task-alignvideo_acq-ap-mb8",
      "RepetitionTime": 460.0,
      "Rows": 656,
      "SAR": 0.10965144863003,
      "SamplesPerPixel": 1,
      "ScanOptions": "FS",
      "ScanningSequence": "EP",
      "SequenceName": "epfid2d1_82",
      "SequenceVariant": [
        "SK",
        "SS"
],
      "SeriesDescription": "func_run-01_task-alignvideo_acq-ap-mb8",
      "SeriesNumber": 34,
      "SeriesTime": "132404.100000",
      "SliceLocation": -69.281378246251,
      "SliceThickness": 2.7000000476837,
      "SmallestImagePixelValue": 0,
      "SoftwareVersions": "syngo MR E11",
      "SpacingBetweenSlices": 2.6999999502462,
      "SpecificCharacterSet": "ISO_IR 100",
      "StudyID": "1",
      "StudyTime": "113139.156000",
      "TransmitCoilName": "Body",
      "VariableFlipAngleFlag": "N",
      "WindowCenterWidthExplanation": "Algo1",
      "dBdt": 0.0},
    "slices": {}
  },
  "time": {
    "samples": {
      "AcquisitionNumber": [1, 2, 3, 4, 5, 6, 7, 8, 9, 10, 11, 12, 13, 14, 15, 16, 17, 18, 19, 20, 21, 22, 23, 24, 25, 26, 27, 28, 29, 30, 31, 32, 33, 34, 35, 36, 37, 38, 39, 40, 41, 42, 43, 44, 45, 46, 47, 48, 49, 50, 51, 52, 53, 54, 55, 56, 57, 58, 59, 60, 61, 62, 63, 64, 65, 66, 67, 68, 69, 70, 71, 72, 73, 74, 75, 76, 77, 78, 79, 80, 81, 82, 83, 84, 85, 86, 87, 88, 89, 90, 91, 92, 93, 94, 95, 96, 97, 98, 99, 100, 101, 102, 103, 104, 105, 106, 107, 108, 109, 110, 111, 112, 113, 114, 115, 116, 117, 118, 119, 120, 121, 122, 123, 124, 125, 126, 127, 128, 129, 130, 131, 132, 133, 134, 135, 136, 137, 138, 139, 140, 141, 142, 143, 144, 145, 146, 147, 148, 149, 150, 151, 152, 153, 154, 155, 156, 157, 158, 159, 160, 161, 162, 163, 164, 165, 166, 167, 168, 169, 170, 171, 172, 173, 174, 175, 176, 177, 178, 179, 180, 181, 182, 183, 184, 185, 186, 187, 188, 189, 190, 191, 192, 193, 194, 195, 196, 197, 198, 199, 200, 201, 202, 203, 204, 205, 206, 207, 208, 209, 210, 211, 212, 213, 214, 215, 216, 217, 218, 219, 220, 221, 222, 223, 224, 225, 226, 227, 228, 229, 230, 231, 232, 233, 234, 235, 236, 237, 238, 239, 240, 241, 242, 243, 244, 245, 246, 247, 248, 249, 250, 251, 252, 253, 254, 255, 256, 257, 258, 259, 260, 261, 262, 263, 264, 265, 266, 267, 268, 269, 270, 271, 272, 273, 274, 275, 276, 277, 278, 279, 280, 281, 282, 283, 284, 285, 286, 287, 288, 289, 290, 291, 292, 293, 294, 295, 296, 297, 298, 299, 300, 301, 302, 303, 304, 305, 306, 307, 308, 309, 310, 311, 312, 313, 314, 315, 316, 317, 318, 319, 320, 321, 322, 323, 324, 325, 326, 327, 328, 329, 330, 331, 332, 333, 334, 335, 336, 337, 338, 339, 340, 341, 342, 343, 344, 345, 346, 347, 348, 349, 350, 351, 352, 353, 354, 355, 356, 357, 358, 359, 360, 361, 362, 363, 364, 365, 366, 367, 368, 369, 370, 371, 372, 373, 374, 375, 376, 377, 378, 379, 380, 381, 382, 383, 384, 385, 386, 387, 388, 389, 390, 391, 392, 393, 394, 395, 396, 397, 398, 399, 400, 401, 402, 403, 404, 405, 406, 407, 408, 409, 410, 411, 412, 413, 414, 415, 416, 417, 418, 419, 420, 421, 422, 423, 424, 425, 426, 427, 428, 429, 430, 431, 432, 433, 434, 435, 436, 437, 438, 439, 440, 441, 442, 443, 444, 445, 446, 447, 448, 449, 450, 451, 452, 453, 454, 455, 456, 457, 458, 459, 460, 461, 462, 463, 464, 465, 466, 467, 468, 469, 470, 471, 472, 473, 474, 475, 476, 477, 478, 479, 480, 481, 482, 483, 484, 485, 486, 487, 488, 489, 490, 491, 492, 493, 494, 495, 496, 497, 498, 499, 500, 501, 502, 503, 504, 505, 506, 507, 508, 509, 510, 511, 512, 513, 514, 515, 516, 517, 518, 519, 520, 521, 522, 523, 524, 525, 526, 527, 528, 529, 530, 531, 532, 533, 534, 535, 536, 537, 538, 539, 540, 541, 542, 543, 544, 545, 546, 547, 548, 549, 550, 551, 552, 553, 554, 555, 556, 557, 558, 559, 560, 561, 562, 563, 564, 565, 566, 567, 568, 569, 570, 571, 572, 573, 574, 575, 576, 577, 578, 579, 580, 581, 582, 583, 584, 585, 586, 587, 588, 589, 590, 591, 592, 593, 594, 595, 596, 597, 598, 599, 600, 601, 602, 603, 604, 605, 606, 607, 608, 609, 610, 611, 612, 613, 614, 615, 616, 617, 618, 619, 620, 621, 622, 623, 624, 625, 626, 627, 628, 629, 630, 631, 632, 633, 634, 635, 636, 637, 638, 639, 640, 641, 642, 643, 644, 645, 646, 647, 648, 649, 650, 651, 652, 653, 654, 655, 656, 657, 658, 659, 660, 661, 662, 663, 664, 665, 666, 667, 668, 669, 670, 671, 672, 673, 674, 675, 676, 677, 678, 679, 680, 681, 682, 683, 684, 685, 686, 687, 688, 689, 690, 691, 692, 693, 694, 695, 696, 697, 698, 699, 700, 701, 702, 703, 704, 705, 706, 707, 708, 709, 710, 711, 712, 713, 714, 715, 716, 717, 718, 719, 720, 721, 722, 723, 724, 725, 726, 727, 728, 729, 730, 731, 732, 733, 734, 735, 736, 737, 738, 739, 740, 741, 742, 743, 744, 745, 746, 747, 748, 749, 750, 751, 752, 753, 754, 755, 756, 757, 758, 759, 760, 761, 762, 763, 764, 765, 766, 767, 768, 769, 770, 771, 772, 773, 774, 775, 776, 777, 778, 779, 780, 781, 782, 783, 784, 785, 786, 787, 788, 789, 790, 791, 792, 793, 794, 795, 796, 797, 798, 799, 800, 801, 802, 803, 804, 805, 806, 807, 808, 809, 810, 811, 812, 813, 814, 815, 816, 817, 818, 819, 820, 821, 822, 823, 824, 825, 826, 827, 828, 829, 830, 831, 832, 833, 834, 835, 836, 837, 838, 839],
      "AcquisitionTime": ["132339.235000", "132339.695000", "132340.155000", "132340.615000", "132341.075000", "132341.535000", "132341.995000", "132342.455000", "132342.915000", "132343.375000", "132343.835000", "132344.295000", "132344.755000", "132345.215000", "132345.675000", "132346.135000", "132346.595000", "132347.055000", "132347.515000", "132347.975000", "132348.435000", "132348.895000", "132349.355000", "132349.815000", "132350.275000", "132350.735000", "132351.195000", "132351.655000", "132352.115000", "132352.575000", "132353.035000", "132353.495000", "132353.955000", "132354.415000", "132354.875000", "132355.335000", "132355.795000", "132356.255000", "132356.715000", "132357.175000", "132357.635000", "132358.095000", "132358.555000", "132359.015000", "132359.475000", "132359.935000", "132400.395000", "132400.855000", "132401.315000", "132401.775000", "132402.235000", "132402.695000", "132403.155000", "132403.615000", "132404.075000", "132404.535000", "132404.995000", "132405.455000", "132405.915000", "132406.375000", "132406.835000", "132407.295000", "132407.755000", "132408.215000", "132408.675000", "132409.135000", "132409.595000", "132410.055000", "132410.515000", "132410.975000", "132411.435000", "132411.895000", "132412.355000", "132412.815000", "132413.275000", "132413.735000", "132414.195000", "132414.655000", "132415.115000", "132415.575000", "132416.035000", "132416.495000", "132416.955000", "132417.415000", "132417.875000", "132418.335000", "132418.795000", "132419.255000", "132419.715000", "132420.175000", "132420.635000", "132421.095000", "132421.555000", "132422.015000", "132422.475000", "132422.935000", "132423.395000", "132423.855000", "132424.315000", "132424.775000", "132425.235000", "132425.695000", "132426.155000", "132426.615000", "132427.075000", "132427.535000", "132427.995000", "132428.455000", "132428.915000", "132429.375000", "132429.835000", "132430.295000", "132430.755000", "132431.215000", "132431.675000", "132432.135000", "132432.595000", "132433.055000", "132433.515000", "132433.975000", "132434.435000", "132434.895000", "132435.355000", "132435.815000", "132436.275000", "132436.735000", "132437.195000", "132437.655000", "132438.115000", "132438.575000", "132439.035000", "132439.495000", "132439.955000", "132440.415000", "132440.875000", "132441.335000", "132441.795000", "132442.255000", "132442.715000", "132443.175000", "132443.635000", "132444.095000", "132444.555000", "132445.015000", "132445.475000", "132445.935000", "132446.395000", "132446.855000", "132447.315000", "132447.775000", "132448.235000", "132448.695000", "132449.155000", "132449.615000", "132450.075000", "132450.535000", "132450.995000", "132451.455000", "132451.915000", "132452.375000", "132452.835000", "132453.295000", "132453.755000", "132454.215000", "132454.675000", "132455.135000", "132455.595000", "132456.055000", "132456.515000", "132456.975000", "132457.435000", "132457.895000", "132458.355000", "132458.815000", "132459.275000", "132459.735000", "132500.195000", "132500.655000", "132501.115000", "132501.575000", "132502.035000", "132502.495000", "132502.955000", "132503.415000", "132503.875000", "132504.335000", "132504.795000", "132505.255000", "132505.715000", "132506.175000", "132506.635000", "132507.095000", "132507.555000", "132508.015000", "132508.475000", "132508.935000", "132509.395000", "132509.855000", "132510.315000", "132510.775000", "132511.235000", "132511.695000", "132512.155000", "132512.615000", "132513.075000", "132513.535000", "132513.995000", "132514.455000", "132514.915000", "132515.375000", "132515.835000", "132516.295000", "132516.755000", "132517.215000", "132517.675000", "132518.135000", "132518.595000", "132519.055000", "132519.515000", "132519.975000", "132520.435000", "132520.895000", "132521.355000", "132521.815000", "132522.275000", "132522.735000", "132523.195000", "132523.655000", "132524.115000", "132524.575000", "132525.035000", "132525.495000", "132525.955000", "132526.415000", "132526.875000", "132527.335000", "132527.795000", "132528.255000", "132528.715000", "132529.175000", "132529.635000", "132530.095000", "132530.555000", "132531.015000", "132531.475000", "132531.935000", "132532.395000", "132532.855000", "132533.315000", "132533.775000", "132534.235000", "132534.695000", "132535.155000", "132535.615000", "132536.075000", "132536.535000", "132536.995000", "132537.455000", "132537.915000", "132538.375000", "132538.835000", "132539.295000", "132539.755000", "132540.215000", "132540.675000", "132541.135000", "132541.595000", "132542.055000", "132542.515000", "132542.975000", "132543.435000", "132543.895000", "132544.355000", "132544.815000", "132545.275000", "132545.735000", "132546.195000", "132546.655000", "132547.115000", "132547.575000", "132548.035000", "132548.495000", "132548.955000", "132549.415000", "132549.875000", "132550.335000", "132550.795000", "132551.255000", "132551.715000", "132552.175000", "132552.635000", "132553.095000", "132553.555000", "132554.015000", "132554.475000", "132554.935000", "132555.395000", "132555.855000", "132556.315000", "132556.775000", "132557.235000", "132557.695000", "132558.155000", "132558.615000", "132559.075000", "132559.535000", "132559.995000", "132600.455000", "132600.915000", "132601.375000", "132601.835000", "132602.295000", "132602.755000", "132603.215000", "132603.675000", "132604.135000", "132604.595000", "132605.055000", "132605.515000", "132605.975000", "132606.435000", "132606.895000", "132607.355000", "132607.815000", "132608.275000", "132608.735000", "132609.195000", "132609.655000", "132610.115000", "132610.575000", "132611.035000", "132611.495000", "132611.955000", "132612.415000", "132612.875000", "132613.335000", "132613.795000", "132614.255000", "132614.715000", "132615.175000", "132615.635000", "132616.095000", "132616.555000", "132617.015000", "132617.475000", "132617.935000", "132618.395000", "132618.855000", "132619.315000", "132619.775000", "132620.235000", "132620.695000", "132621.155000", "132621.615000", "132622.075000", "132622.535000", "132622.995000", "132623.455000", "132623.915000", "132624.375000", "132624.835000", "132625.295000", "132625.755000", "132626.215000", "132626.675000", "132627.135000", "132627.595000", "132628.055000", "132628.515000", "132628.975000", "132629.435000", "132629.895000", "132630.355000", "132630.815000", "132631.275000", "132631.735000", "132632.195000", "132632.655000", "132633.115000", "132633.575000", "132634.035000", "132634.495000", "132634.955000", "132635.415000", "132635.875000", "132636.335000", "132636.795000", "132637.255000", "132637.715000", "132638.175000", "132638.635000", "132639.095000", "132639.555000", "132640.015000", "132640.475000", "132640.935000", "132641.395000", "132641.855000", "132642.315000", "132642.775000", "132643.235000", "132643.695000", "132644.155000", "132644.615000", "132645.075000", "132645.535000", "132645.995000", "132646.455000", "132646.915000", "132647.375000", "132647.835000", "132648.295000", "132648.755000", "132649.215000", "132649.675000", "132650.135000", "132650.595000", "132651.055000", "132651.515000", "132651.975000", "132652.435000", "132652.895000", "132653.355000", "132653.815000", "132654.275000", "132654.735000", "132655.195000", "132655.655000", "132656.115000", "132656.575000", "132657.035000", "132657.495000", "132657.955000", "132658.415000", "132658.875000", "132659.335000", "132659.795000", "132700.255000", "132700.715000", "132701.175000", "132701.635000", "132702.095000", "132702.555000", "132703.015000", "132703.475000", "132703.935000", "132704.395000", "132704.855000", "132705.315000", "132705.775000", "132706.235000", "132706.695000", "132707.155000", "132707.615000", "132708.075000", "132708.535000", "132708.995000", "132709.455000", "132709.915000", "132710.375000", "132710.835000", "132711.295000", "132711.755000", "132712.215000", "132712.675000", "132713.135000", "132713.595000", "132714.055000", "132714.515000", "132714.975000", "132715.435000", "132715.895000", "132716.355000", "132716.815000", "132717.275000", "132717.735000", "132718.195000", "132718.655000", "132719.115000", "132719.575000", "132720.035000", "132720.495000", "132720.955000", "132721.415000", "132721.875000", "132722.335000", "132722.795000", "132723.255000", "132723.715000", "132724.175000", "132724.635000", "132725.095000", "132725.555000", "132726.015000", "132726.475000", "132726.935000", "132727.395000", "132727.855000", "132728.315000", "132728.775000", "132729.235000", "132729.695000", "132730.155000", "132730.615000", "132731.075000", "132731.535000", "132731.995000", "132732.455000", "132732.915000", "132733.375000", "132733.835000", "132734.295000", "132734.755000", "132735.215000", "132735.675000", "132736.135000", "132736.595000", "132737.055000", "132737.515000", "132737.975000", "132738.435000", "132738.895000", "132739.355000", "132739.815000", "132740.275000", "132740.735000", "132741.195000", "132741.655000", "132742.115000", "132742.575000", "132743.035000", "132743.495000", "132743.955000", "132744.415000", "132744.875000", "132745.335000", "132745.795000", "132746.255000", "132746.715000", "132747.175000", "132747.635000", "132748.095000", "132748.555000", "132749.015000", "132749.475000", "132749.935000", "132750.395000", "132750.855000", "132751.315000", "132751.775000", "132752.235000", "132752.695000", "132753.155000", "132753.615000", "132754.075000", "132754.535000", "132754.995000", "132755.455000", "132755.915000", "132756.375000", "132756.835000", "132757.295000", "132757.755000", "132758.215000", "132758.675000", "132759.135000", "132759.595000", "132800.055000", "132800.515000", "132800.975000", "132801.435000", "132801.895000", "132802.355000", "132802.815000", "132803.275000", "132803.735000", "132804.195000", "132804.655000", "132805.115000", "132805.575000", "132806.035000", "132806.495000", "132806.955000", "132807.415000", "132807.875000", "132808.335000", "132808.795000", "132809.255000", "132809.715000", "132810.175000", "132810.635000", "132811.095000", "132811.555000", "132812.015000", "132812.475000", "132812.935000", "132813.395000", "132813.855000", "132814.315000", "132814.775000", "132815.235000", "132815.695000", "132816.155000", "132816.615000", "132817.075000", "132817.535000", "132817.995000", "132818.455000", "132818.915000", "132819.375000", "132819.835000", "132820.295000", "132820.755000", "132821.215000", "132821.675000", "132822.135000", "132822.595000", "132823.055000", "132823.515000", "132823.975000", "132824.435000", "132824.895000", "132825.355000", "132825.815000", "132826.275000", "132826.735000", "132827.195000", "132827.655000", "132828.115000", "132828.575000", "132829.035000", "132829.495000", "132829.955000", "132830.415000", "132830.875000", "132831.335000", "132831.795000", "132832.255000", "132832.715000", "132833.175000", "132833.635000", "132834.095000", "132834.555000", "132835.015000", "132835.475000", "132835.935000", "132836.395000", "132836.855000", "132837.315000", "132837.775000", "132838.235000", "132838.695000", "132839.155000", "132839.615000", "132840.075000", "132840.535000", "132840.995000", "132841.455000", "132841.915000", "132842.375000", "132842.835000", "132843.295000", "132843.755000", "132844.215000", "132844.675000", "132845.135000", "132845.595000", "132846.055000", "132846.515000", "132846.975000", "132847.435000", "132847.895000", "132848.355000", "132848.815000", "132849.275000", "132849.735000", "132850.195000", "132850.655000", "132851.115000", "132851.575000", "132852.035000", "132852.495000", "132852.955000", "132853.415000", "132853.875000", "132854.335000", "132854.795000", "132855.255000", "132855.715000", "132856.175000", "132856.635000", "132857.095000", "132857.555000", "132858.015000", "132858.475000", "132858.935000", "132859.395000", "132859.855000", "132900.315000", "132900.775000", "132901.235000", "132901.695000", "132902.155000", "132902.615000", "132903.075000", "132903.535000", "132903.995000", "132904.455000", "132904.915000", "132905.375000", "132905.835000", "132906.295000", "132906.755000", "132907.215000", "132907.675000", "132908.135000", "132908.595000", "132909.055000", "132909.515000", "132909.975000", "132910.435000", "132910.895000", "132911.355000", "132911.815000", "132912.275000", "132912.735000", "132913.195000", "132913.655000", "132914.115000", "132914.575000", "132915.035000", "132915.495000", "132915.955000", "132916.415000", "132916.875000", "132917.335000", "132917.795000", "132918.255000", "132918.715000", "132919.175000", "132919.635000", "132920.095000", "132920.555000", "132921.015000", "132921.475000", "132921.935000", "132922.395000", "132922.855000", "132923.315000", "132923.775000", "132924.235000", "132924.695000", "132925.155000", "132925.615000", "132926.075000", "132926.535000", "132926.995000", "132927.455000", "132927.915000", "132928.375000", "132928.835000", "132929.295000", "132929.755000", "132930.215000", "132930.675000", "132931.135000", "132931.595000", "132932.055000", "132932.515000", "132932.975000", "132933.435000", "132933.895000", "132934.355000", "132934.815000", "132935.275000", "132935.735000", "132936.195000", "132936.655000", "132937.115000", "132937.575000", "132938.035000", "132938.495000", "132938.955000", "132939.415000", "132939.875000", "132940.335000", "132940.795000", "132941.255000", "132941.715000", "132942.175000", "132942.635000", "132943.095000", "132943.555000", "132944.015000", "132944.475000", "132944.935000", "132945.395000", "132945.855000", "132946.315000", "132946.775000", "132947.235000", "132947.695000", "132948.155000", "132948.615000", "132949.075000", "132949.535000", "132949.995000", "132950.455000", "132950.915000", "132951.375000", "132951.835000", "132952.295000", "132952.755000", "132953.215000", "132953.675000", "132954.135000", "132954.595000", "132955.055000", "132955.515000", "132955.975000", "132956.435000", "132956.895000", "132957.355000", "132957.815000", "132958.275000", "132958.735000", "132959.195000", "132959.655000", "133000.115000", "133000.575000", "133001.035000", "133001.495000", "133001.955000", "133002.415000", "133002.875000", "133003.335000", "133003.795000", "133004.255000", "133004.715000"],
