{
  "AcquisitionMatrixPE": 82,
  "AcquisitionNumber": 1,
  "AcquisitionTime": "12:55:39.697500",
  "BandwidthPerPixelPhaseEncode": 24.888,
  "BaseResolution": 82,
  "BodyPartExamined": "BRAIN",
  "ConsistencyInfo": "N4_VE11C_LATEST_20160120",
  "ConversionSoftware": "dcm2niix",
  "ConversionSoftwareVersion": "v1.0.20201102",
  "DerivedVendorReportedEchoSpacing": 0.00049,
  "DeviceSerialNumber": "66112",
  "DwellTime": 2e-06,
  "EchoTime": 0.0272,
  "EchoTrainLength": 82,
  "EffectiveEchoSpacing": 0.00049,
  "FlipAngle": 44,
  "ImageComments": "Unaliased MB8/PE3",
  "ImageOrientationPatientDICOM": [0.999012, -0.00138764, 0.0444238, 0.00854386, 0.986867, -0.16131],
  "ImageType": [
    "ORIGINAL",
    "PRIMARY",
    "M",
    "MB",
    "ND",
    "NORM",
    "MOSAIC"
],
  "ImagingFrequency": 123.252,
  "InPlanePhaseEncodingDirectionDICOM": "COL",
  "InstitutionAddress": "Maynard 3,Hanover,NH,US,03755",
  "InstitutionName": "dartmouth_brain_imaging_center",
  "InstitutionalDepartmentName": "Department",
  "MRAcquisitionType": "2D",
  "MagneticFieldStrength": 3,
  "Manufacturer": "Siemens",
  "ManufacturersModelName": "Prisma",
  "Modality": "MR",
  "MultibandAccelerationFactor": 8,
  "PartialFourier": 1,
  "PatientPosition": "HFS",
  "PercentPhaseFOV": 100,
  "PercentSampling": 100,
  "PhaseEncodingDirection": "j-",
  "PhaseEncodingSteps": 82,
  "PhaseResolution": 1,
  "PixelBandwidth": 3050,
  "ProcedureStepDescription": "Wager_Wager^1076_spacetop",
  "ProtocolName": "func_run-01_task-faces_acq-ap-mb8",
  "PulseSequenceDetails": "%CustomerSeq%\\cmrr_mbep2d_bold",
  "ReceiveCoilActiveElements": "HEA;HEP",
  "ReceiveCoilName": "Head_32",
  "ReconMatrixPE": 82,
  "RepetitionTime": 0.46,
  "SAR": 0.10971,
  "ScanOptions": "FS",
  "ScanningSequence": "EP",
  "SequenceName": "epfid2d1_82",
  "SequenceVariant": "SK\\SS",
  "SeriesDescription": "func_run-01_task-faces_acq-ap-mb8",
  "SeriesNumber": 22,
  "ShimSetting": [4156, -7739, -7228, 561, -33, -105, -102, 44],
  "SliceThickness": 2.7,
  "SliceTiming": [0, 0.25, 0.0625, 0.3125, 0.125, 0.375, 0.1875, 0, 0.25, 0.0625, 0.3125, 0.125, 0.375, 0.1875, 0, 0.25, 0.0625, 0.3125, 0.125, 0.375, 0.1875, 0, 0.25, 0.0625, 0.3125, 0.125, 0.375, 0.1875, 0, 0.25, 0.0625, 0.3125, 0.125, 0.375, 0.1875, 0, 0.25, 0.0625, 0.3125, 0.125, 0.375, 0.1875, 0, 0.25, 0.0625, 0.3125, 0.125, 0.375, 0.1875, 0, 0.25, 0.0625, 0.3125, 0.125, 0.375, 0.1875],
  "SoftwareVersions": "syngo MR E11",
  "SpacingBetweenSlices": 2.7,
  "StationName": "AWP66112",
  "TaskName": "faces",
  "TotalReadoutTime": 0.03969,
  "TxRefAmp": 277.896,
  "WipMemBlock": "6c4f2fa4-710a-4b22-af7f-807dbeb33407||Sequence: R016 ve11c/master r/e634e98; Dec 19 2017 11:00:25 by eja",
  "dcmmeta_affine": [
    [-2.6802756786346436, 0.02292255498468876, 0.11776459217071533, 108.13614654541016],
    [0.003722935914993286, 2.647691488265991, -0.4361315369606018, -83.52799987792969],
    [0.11918576061725616, 0.4327830672264099, 2.6619391441345215, -81.12798309326172],
    [0.0, 0.0, 0.0, 1.0]
],
  "dcmmeta_reorient_transform": [
    [0.0, -1.0, 0.0, 81.0],
    [1.0, 0.0, 0.0, 0.0],
    [0.0, 0.0, 1.0, 0.0],
    [0.0, 0.0, 0.0, 1.0]
],
  "dcmmeta_shape": [82, 82, 56, 914],
  "dcmmeta_slice_dim": 2,
  "dcmmeta_version": 0.6,
  "global": {
    "const": {
      "AccessionNumber": "A003606",
      "AcquisitionMatrix": [82, 0, 0, 82],
      "AngioFlag": "N",
      "BitsAllocated": 16,
      "BitsStored": 16,
      "BodyPartExamined": "BRAIN",
      "Columns": 656,
      "EchoNumbers": 1,
      "EchoTime": 27.2,
      "EchoTrainLength": 82,
      "FlipAngle": 44.0,
      "HighBit": 15,
      "ImageOrientationPatient": [0.99901181273671, -0.0013876396896, 0.04442378269126, 0.00854386114897, 0.98686679428446, -0.1613100516874],
      "ImagePositionPatient": [-885.81076381973, -889.75397385402, 43.929876902107],
      "ImageType": [
        "ORIGINAL",
        "PRIMARY",
        "M",
        "MB",
        "ND",
        "NORM",
        "MOSAIC"
],
      "ImagedNucleus": "1H",
      "ImagingFrequency": 123.25213,
      "InPlanePhaseEncodingDirection": "COL",
      "MRAcquisitionType": "2D",
      "MagneticFieldStrength": 3.0,
      "Manufacturer": "SIEMENS",
      "ManufacturerModelName": "Prisma",
      "Modality": "MR",
      "NumberOfAverages": 1.0,
      "NumberOfPhaseEncodingSteps": 82,
      "PercentPhaseFieldOfView": 100.0,
      "PercentSampling": 100.0,
      "PerformedProcedureStepStartTime": "113139.285000",
      "PhotometricInterpretation": "MONOCHROME2",
      "PixelBandwidth": 3050.0,
      "PixelRepresentation": 0,
      "PixelSpacing": [2.6829268932343, 2.6829268932343],
      "ProtocolName": "func_run-01_task-faces_acq-ap-mb8",
      "RepetitionTime": 460.0,
      "Rows": 656,
      "SAR": 0.10970949927829,
      "SamplesPerPixel": 1,
      "ScanOptions": "FS",
      "ScanningSequence": "EP",
      "SequenceName": "epfid2d1_82",
      "SequenceVariant": [
        "SK",
        "SS"
],
      "SeriesDescription": "func_run-01_task-faces_acq-ap-mb8",
      "SeriesNumber": 22,
      "SeriesTime": "125604.106000",
      "SliceLocation": -61.775539414293,
      "SliceThickness": 2.7000000476837,
      "SmallestImagePixelValue": 0,
      "SoftwareVersions": "syngo MR E11",
      "SpacingBetweenSlices": 2.6999999538403,
      "SpecificCharacterSet": "ISO_IR 100",
      "StudyID": "1",
      "StudyTime": "113139.156000",
      "TransmitCoilName": "Body",
      "VariableFlipAngleFlag": "N",
      "WindowCenterWidthExplanation": "Algo1",
      "dBdt": 0.0},
    "slices": {}
  },
  "time": {
    "samples": {
      "AcquisitionNumber": [1, 2, 3, 4, 5, 6, 7, 8, 9, 10, 11, 12, 13, 14, 15, 16, 17, 18, 19, 20, 21, 22, 23, 24, 25, 26, 27, 28, 29, 30, 31, 32, 33, 34, 35, 36, 37, 38, 39, 40, 41, 42, 43, 44, 45, 46, 47, 48, 49, 50, 51, 52, 53, 54, 55, 56, 57, 58, 59, 60, 61, 62, 63, 64, 65, 66, 67, 68, 69, 70, 71, 72, 73, 74, 75, 76, 77, 78, 79, 80, 81, 82, 83, 84, 85, 86, 87, 88, 89, 90, 91, 92, 93, 94, 95, 96, 97, 98, 99, 100, 101, 102, 103, 104, 105, 106, 107, 108, 109, 110, 111, 112, 113, 114, 115, 116, 117, 118, 119, 120, 121, 122, 123, 124, 125, 126, 127, 128, 129, 130, 131, 132, 133, 134, 135, 136, 137, 138, 139, 140, 141, 142, 143, 144, 145, 146, 147, 148, 149, 150, 151, 152, 153, 154, 155, 156, 157, 158, 159, 160, 161, 162, 163, 164, 165, 166, 167, 168, 169, 170, 171, 172, 173, 174, 175, 176, 177, 178, 179, 180, 181, 182, 183, 184, 185, 186, 187, 188, 189, 190, 191, 192, 193, 194, 195, 196, 197, 198, 199, 200, 201, 202, 203, 204, 205, 206, 207, 208, 209, 210, 211, 212, 213, 214, 215, 216, 217, 218, 219, 220, 221, 222, 223, 224, 225, 226, 227, 228, 229, 230, 231, 232, 233, 234, 235, 236, 237, 238, 239, 240, 241, 242, 243, 244, 245, 246, 247, 248, 249, 250, 251, 252, 253, 254, 255, 256, 257, 258, 259, 260, 261, 262, 263, 264, 265, 266, 267, 268, 269, 270, 271, 272, 273, 274, 275, 276, 277, 278, 279, 280, 281, 282, 283, 284, 285, 286, 287, 288, 289, 290, 291, 292, 293, 294, 295, 296, 297, 298, 299, 300, 301, 302, 303, 304, 305, 306, 307, 308, 309, 310, 311, 312, 313, 314, 315, 316, 317, 318, 319, 320, 321, 322, 323, 324, 325, 326, 327, 328, 329, 330, 331, 332, 333, 334, 335, 336, 337, 338, 339, 340, 341, 342, 343, 344, 345, 346, 347, 348, 349, 350, 351, 352, 353, 354, 355, 356, 357, 358, 359, 360, 361, 362, 363, 364, 365, 366, 367, 368, 369, 370, 371, 372, 373, 374, 375, 376, 377, 378, 379, 380, 381, 382, 383, 384, 385, 386, 387, 388, 389, 390, 391, 392, 393, 394, 395, 396, 397, 398, 399, 400, 401, 402, 403, 404, 405, 406, 407, 408, 409, 410, 411, 412, 413, 414, 415, 416, 417, 418, 419, 420, 421, 422, 423, 424, 425, 426, 427, 428, 429, 430, 431, 432, 433, 434, 435, 436, 437, 438, 439, 440, 441, 442, 443, 444, 445, 446, 447, 448, 449, 450, 451, 452, 453, 454, 455, 456, 457, 458, 459, 460, 461, 462, 463, 464, 465, 466, 467, 468, 469, 470, 471, 472, 473, 474, 475, 476, 477, 478, 479, 480, 481, 482, 483, 484, 485, 486, 487, 488, 489, 490, 491, 492, 493, 494, 495, 496, 497, 498, 499, 500, 501, 502, 503, 504, 505, 506, 507, 508, 509, 510, 511, 512, 513, 514, 515, 516, 517, 518, 519, 520, 521, 522, 523, 524, 525, 526, 527, 528, 529, 530, 531, 532, 533, 534, 535, 536, 537, 538, 539, 540, 541, 542, 543, 544, 545, 546, 547, 548, 549, 550, 551, 552, 553, 554, 555, 556, 557, 558, 559, 560, 561, 562, 563, 564, 565, 566, 567, 568, 569, 570, 571, 572, 573, 574, 575, 576, 577, 578, 579, 580, 581, 582, 583, 584, 585, 586, 587, 588, 589, 590, 591, 592, 593, 594, 595, 596, 597, 598, 599, 600, 601, 602, 603, 604, 605, 606, 607, 608, 609, 610, 611, 612, 613, 614, 615, 616, 617, 618, 619, 620, 621, 622, 623, 624, 625, 626, 627, 628, 629, 630, 631, 632, 633, 634, 635, 636, 637, 638, 639, 640, 641, 642, 643, 644, 645, 646, 647, 648, 649, 650, 651, 652, 653, 654, 655, 656, 657, 658, 659, 660, 661, 662, 663, 664, 665, 666, 667, 668, 669, 670, 671, 672, 673, 674, 675, 676, 677, 678, 679, 680, 681, 682, 683, 684, 685, 686, 687, 688, 689, 690, 691, 692, 693, 694, 695, 696, 697, 698, 699, 700, 701, 702, 703, 704, 705, 706, 707, 708, 709, 710, 711, 712, 713, 714, 715, 716, 717, 718, 719, 720, 721, 722, 723, 724, 725, 726, 727, 728, 729, 730, 731, 732, 733, 734, 735, 736, 737, 738, 739, 740, 741, 742, 743, 744, 745, 746, 747, 748, 749, 750, 751, 752, 753, 754, 755, 756, 757, 758, 759, 760, 761, 762, 763, 764, 765, 766, 767, 768, 769, 770, 771, 772, 773, 774, 775, 776, 777, 778, 779, 780, 781, 782, 783, 784, 785, 786, 787, 788, 789, 790, 791, 792, 793, 794, 795, 796, 797, 798, 799, 800, 801, 802, 803, 804, 805, 806, 807, 808, 809, 810, 811, 812, 813, 814, 815, 816, 817, 818, 819, 820, 821, 822, 823, 824, 825, 826, 827, 828, 829, 830, 831, 832, 833, 834, 835, 836, 837, 838, 839, 840, 841, 842, 843, 844, 845, 846, 847, 848, 849, 850, 851, 852, 853, 854, 855, 856, 857, 858, 859, 860, 861, 862, 863, 864, 865, 866, 867, 868, 869, 870, 871, 872, 873, 874, 875, 876, 877, 878, 879, 880, 881, 882, 883, 884, 885, 886, 887, 888, 889, 890, 891, 892, 893, 894, 895, 896, 897, 898, 899, 900, 901, 902, 903, 904, 905, 906, 907, 908, 909, 910, 911, 912, 913, 914],
      "AcquisitionTime": ["125539.697500", "125540.157500", "125540.617500", "125541.077500", "125541.537500", "125541.997500", "125542.457500", "125542.917500", "125543.377500", "125543.837500", "125544.297500", "125544.757500", "125545.217500", "125545.677500", "125546.137500", "125546.597500", "125547.057500", "125547.517500", "125547.977500", "125548.437500", "125548.897500", "125549.357500", "125549.817500", "125550.277500", "125550.737500", "125551.197500", "125551.657500", "125552.117500", "125552.577500", "125553.037500", "125553.497500", "125553.957500", "125554.417500", "125554.877500", "125555.337500", "125555.797500", "125556.257500", "125556.717500", "125557.177500", "125557.637500", "125558.097500", "125558.557500", "125559.017500", "125559.477500", "125559.937500", "125600.397500", "125600.857500", "125601.317500", "125601.777500", "125602.237500", "125602.697500", "125603.157500", "125603.617500", "125604.077500", "125604.537500", "125604.997500", "125605.457500", "125605.917500", "125606.377500", "125606.837500", "125607.297500", "125607.757500", "125608.217500", "125608.677500", "125609.137500", "125609.597500", "125610.057500", "125610.517500", "125610.977500", "125611.437500", "125611.897500", "125612.357500", "125612.817500", "125613.277500", "125613.737500", "125614.197500", "125614.657500", "125615.117500", "125615.577500", "125616.037500", "125616.497500", "125616.957500", "125617.417500", "125617.877500", "125618.337500", "125618.797500", "125619.257500", "125619.717500", "125620.177500", "125620.637500", "125621.097500", "125621.557500", "125622.017500", "125622.477500", "125622.937500", "125623.397500", "125623.857500", "125624.317500", "125624.777500", "125625.237500", "125625.697500", "125626.157500", "125626.617500", "125627.077500", "125627.537500", "125627.997500", "125628.457500", "125628.917500", "125629.377500", "125629.837500", "125630.297500", "125630.757500", "125631.217500", "125631.677500", "125632.137500", "125632.597500", "125633.057500", "125633.517500", "125633.977500", "125634.437500", "125634.897500", "125635.357500", "125635.817500", "125636.277500", "125636.737500", "125637.197500", "125637.657500", "125638.117500", "125638.577500", "125639.037500", "125639.497500", "125639.957500", "125640.417500", "125640.877500", "125641.337500", "125641.797500", "125642.257500", "125642.717500", "125643.177500", "125643.637500", "125644.097500", "125644.557500", "125645.017500", "125645.477500", "125645.937500", "125646.397500", "125646.857500", "125647.317500", "125647.777500", "125648.237500", "125648.697500", "125649.157500", "125649.617500", "125650.077500", "125650.537500", "125650.997500", "125651.457500", "125651.917500", "125652.377500", "125652.837500", "125653.297500", "125653.757500", "125654.217500", "125654.677500", "125655.137500", "125655.597500", "125656.057500", "125656.517500", "125656.977500", "125657.437500", "125657.897500", "125658.357500", "125658.817500", "125659.277500", "125659.737500", "125700.197500", "125700.657500", "125701.117500", "125701.577500", "125702.037500", "125702.497500", "125702.957500", "125703.417500", "125703.877500", "125704.337500", "125704.797500", "125705.257500", "125705.717500", "125706.177500", "125706.637500", "125707.097500", "125707.557500", "125708.017500", "125708.477500", "125708.937500", "125709.397500", "125709.857500", "125710.317500", "125710.777500", "125711.237500", "125711.697500", "125712.157500", "125712.617500", "125713.077500", "125713.537500", "125713.997500", "125714.457500", "125714.917500", "125715.377500", "125715.837500", "125716.297500", "125716.757500", "125717.217500", "125717.677500", "125718.137500", "125718.597500", "125719.057500", "125719.517500", "125719.977500", "125720.437500", "125720.897500", "125721.357500", "125721.817500", "125722.277500", "125722.737500", "125723.197500", "125723.657500", "125724.117500", "125724.577500", "125725.037500", "125725.497500", "125725.957500", "125726.417500", "125726.877500", "125727.337500", "125727.797500", "125728.257500", "125728.717500", "125729.177500", "125729.637500", "125730.097500", "125730.557500", "125731.017500", "125731.477500", "125731.937500", "125732.397500", "125732.857500", "125733.317500", "125733.777500", "125734.237500", "125734.697500", "125735.157500", "125735.617500", "125736.077500", "125736.537500", "125736.997500", "125737.457500", "125737.917500", "125738.377500", "125738.837500", "125739.297500", "125739.757500", "125740.217500", "125740.677500", "125741.137500", "125741.597500", "125742.057500", "125742.517500", "125742.977500", "125743.437500", "125743.897500", "125744.357500", "125744.817500", "125745.277500", "125745.737500", "125746.197500", "125746.657500", "125747.117500", "125747.577500", "125748.037500", "125748.497500", "125748.957500", "125749.417500", "125749.877500", "125750.337500", "125750.797500", "125751.257500", "125751.717500", "125752.177500", "125752.637500", "125753.097500", "125753.557500", "125754.017500", "125754.477500", "125754.937500", "125755.397500", "125755.857500", "125756.317500", "125756.777500", "125757.237500", "125757.697500", "125758.157500", "125758.617500", "125759.077500", "125759.537500", "125759.997500", "125800.457500", "125800.917500", "125801.377500", "125801.837500", "125802.297500", "125802.757500", "125803.217500", "125803.677500", "125804.137500", "125804.597500", "125805.057500", "125805.517500", "125805.977500", "125806.437500", "125806.897500", "125807.357500", "125807.817500", "125808.277500", "125808.737500", "125809.197500", "125809.657500", "125810.117500", "125810.577500", "125811.037500", "125811.497500", "125811.957500", "125812.417500", "125812.877500", "125813.337500", "125813.797500", "125814.257500", "125814.717500", "125815.177500", "125815.637500", "125816.097500", "125816.557500", "125817.017500", "125817.477500", "125817.937500", "125818.397500", "125818.857500", "125819.317500", "125819.777500", "125820.237500", "125820.697500", "125821.157500", "125821.617500", "125822.077500", "125822.537500", "125822.997500", "125823.457500", "125823.917500", "125824.377500", "125824.837500", "125825.297500", "125825.757500", "125826.217500", "125826.677500", "125827.137500", "125827.597500", "125828.057500", "125828.517500", "125828.977500", "125829.437500", "125829.897500", "125830.357500", "125830.817500", "125831.277500", "125831.737500", "125832.197500", "125832.657500", "125833.117500", "125833.577500", "125834.037500", "125834.497500", "125834.957500", "125835.417500", "125835.877500", "125836.337500", "125836.797500", "125837.257500", "125837.717500", "125838.177500", "125838.637500", "125839.097500", "125839.557500", "125840.017500", "125840.477500", "125840.937500", "125841.397500", "125841.857500", "125842.317500", "125842.777500", "125843.237500", "125843.697500", "125844.157500", "125844.617500", "125845.077500", "125845.537500", "125845.997500", "125846.457500", "125846.917500", "125847.377500", "125847.837500", "125848.297500", "125848.757500", "125849.217500", "125849.677500", "125850.137500", "125850.597500", "125851.057500", "125851.517500", "125851.977500", "125852.437500", "125852.897500", "125853.357500", "125853.817500", "125854.277500", "125854.737500", "125855.197500", "125855.657500", "125856.117500", "125856.577500", "125857.037500", "125857.497500", "125857.957500", "125858.417500", "125858.877500", "125859.337500", "125859.797500", "125900.257500", "125900.717500", "125901.177500", "125901.637500", "125902.097500", "125902.557500", "125903.017500", "125903.477500", "125903.937500", "125904.397500", "125904.857500", "125905.317500", "125905.777500", "125906.237500", "125906.697500", "125907.157500", "125907.617500", "125908.077500", "125908.537500", "125908.997500", "125909.457500", "125909.917500", "125910.377500", "125910.837500", "125911.297500", "125911.757500", "125912.217500", "125912.677500", "125913.137500", "125913.597500", "125914.057500", "125914.517500", "125914.977500", "125915.437500", "125915.897500", "125916.357500", "125916.817500", "125917.277500", "125917.737500", "125918.197500", "125918.657500", "125919.117500", "125919.577500", "125920.037500", "125920.497500", "125920.957500", "125921.417500", "125921.877500", "125922.337500", "125922.797500", "125923.257500", "125923.717500", "125924.177500", "125924.637500", "125925.097500", "125925.557500", "125926.017500", "125926.477500", "125926.937500", "125927.397500", "125927.857500", "125928.317500", "125928.777500", "125929.237500", "125929.697500", "125930.157500", "125930.617500", "125931.077500", "125931.537500", "125931.997500", "125932.457500", "125932.917500", "125933.377500", "125933.837500", "125934.297500", "125934.757500", "125935.217500", "125935.677500", "125936.137500", "125936.597500", "125937.057500", "125937.517500", "125937.977500", "125938.437500", "125938.897500", "125939.357500", "125939.817500", "125940.277500", "125940.737500", "125941.197500", "125941.657500", "125942.117500", "125942.577500", "125943.037500", "125943.497500", "125943.957500", "125944.417500", "125944.877500", "125945.337500", "125945.797500", "125946.257500", "125946.717500", "125947.177500", "125947.637500", "125948.097500", "125948.557500", "125949.017500", "125949.477500", "125949.937500", "125950.397500", "125950.857500", "125951.317500", "125951.777500", "125952.237500", "125952.697500", "125953.157500", "125953.617500", "125954.077500", "125954.537500", "125954.997500", "125955.457500", "125955.917500", "125956.377500", "125956.837500", "125957.297500", "125957.757500", "125958.217500", "125958.677500", "125959.137500", "125959.597500", "130000.057500", "130000.517500", "130000.977500", "130001.437500", "130001.897500", "130002.357500", "130002.817500", "130003.277500", "130003.737500", "130004.197500", "130004.657500", "130005.117500", "130005.577500", "130006.037500", "130006.497500", "130006.957500", "130007.417500", "130007.877500", "130008.337500", "130008.797500", "130009.257500", "130009.717500", "130010.177500", "130010.637500", "130011.097500", "130011.557500", "130012.017500", "130012.477500", "130012.937500", "130013.397500", "130013.857500", "130014.317500", "130014.777500", "130015.237500", "130015.697500", "130016.157500", "130016.617500", "130017.077500", "130017.537500", "130017.997500", "130018.457500", "130018.917500", "130019.377500", "130019.837500", "130020.297500", "130020.757500", "130021.217500", "130021.677500", "130022.137500", "130022.597500", "130023.057500", "130023.517500", "130023.977500", "130024.437500", "130024.897500", "130025.357500", "130025.817500", "130026.277500", "130026.737500", "130027.197500", "130027.657500", "130028.117500", "130028.577500", "130029.037500", "130029.497500", "130029.957500", "130030.417500", "130030.877500", "130031.337500", "130031.797500", "130032.257500", "130032.717500", "130033.177500", "130033.637500", "130034.097500", "130034.557500", "130035.017500", "130035.477500", "130035.937500", "130036.397500", "130036.857500", "130037.317500", "130037.777500", "130038.237500", "130038.697500", "130039.157500", "130039.617500", "130040.077500", "130040.537500", "130040.997500", "130041.457500", "130041.917500", "130042.377500", "130042.837500", "130043.297500", "130043.757500", "130044.217500", "130044.677500", "130045.137500", "130045.597500", "130046.057500", "130046.517500", "130046.977500", "130047.437500", "130047.897500", "130048.357500", "130048.817500", "130049.277500", "130049.737500", "130050.197500", "130050.657500", "130051.117500", "130051.577500", "130052.037500", "130052.497500", "130052.957500", "130053.417500", "130053.877500", "130054.337500", "130054.797500", "130055.257500", "130055.717500", "130056.177500", "130056.637500", "130057.097500", "130057.557500", "130058.017500", "130058.477500", "130058.937500", "130059.397500", "130059.857500", "130100.317500", "130100.777500", "130101.237500", "130101.697500", "130102.157500", "130102.617500", "130103.077500", "130103.537500", "130103.997500", "130104.457500", "130104.917500", "130105.377500", "130105.837500", "130106.297500", "130106.757500", "130107.217500", "130107.677500", "130108.137500", "130108.597500", "130109.057500", "130109.517500", "130109.977500", "130110.437500", "130110.897500", "130111.357500", "130111.817500", "130112.277500", "130112.737500", "130113.197500", "130113.657500", "130114.117500", "130114.577500", "130115.037500", "130115.497500", "130115.957500", "130116.417500", "130116.877500", "130117.337500", "130117.797500", "130118.257500", "130118.717500", "130119.177500", "130119.637500", "130120.097500", "130120.557500", "130121.017500", "130121.477500", "130121.937500", "130122.397500", "130122.857500", "130123.317500", "130123.777500", "130124.237500", "130124.697500", "130125.157500", "130125.617500", "130126.077500", "130126.537500", "130126.997500", "130127.457500", "130127.917500", "130128.377500", "130128.837500", "130129.297500", "130129.757500", "130130.217500", "130130.677500", "130131.137500", "130131.597500", "130132.057500", "130132.517500", "130132.977500", "130133.437500", "130133.897500", "130134.357500", "130134.817500", "130135.277500", "130135.737500", "130136.197500", "130136.657500", "130137.117500", "130137.577500", "130138.037500", "130138.497500", "130138.957500", "130139.417500", "130139.877500", "130140.337500", "130140.797500", "130141.257500", "130141.717500", "130142.177500", "130142.637500", "130143.097500", "130143.557500", "130144.017500", "130144.477500", "130144.937500", "130145.397500", "130145.857500", "130146.317500", "130146.777500", "130147.237500", "130147.697500", "130148.157500", "130148.617500", "130149.077500", "130149.537500", "130149.997500", "130150.457500", "130150.917500", "130151.377500", "130151.837500", "130152.297500", "130152.757500", "130153.217500", "130153.677500", "130154.137500", "130154.597500", "130155.057500", "130155.517500", "130155.977500", "130156.437500", "130156.897500", "130157.357500", "130157.817500", "130158.277500", "130158.737500", "130159.197500", "130159.657500", "130200.117500", "130200.577500", "130201.037500", "130201.497500", "130201.957500", "130202.417500", "130202.877500", "130203.337500", "130203.797500", "130204.257500", "130204.717500", "130205.177500", "130205.637500", "130206.097500", "130206.557500", "130207.017500", "130207.477500", "130207.937500", "130208.397500", "130208.857500", "130209.317500", "130209.777500", "130210.237500", "130210.697500", "130211.157500", "130211.617500", "130212.077500", "130212.537500", "130212.997500", "130213.457500", "130213.917500", "130214.377500", "130214.837500", "130215.297500", "130215.757500", "130216.217500", "130216.677500", "130217.137500", "130217.597500", "130218.057500", "130218.517500", "130218.977500", "130219.437500", "130219.897500", "130220.357500", "130220.817500", "130221.277500", "130221.737500", "130222.197500", "130222.657500", "130223.117500", "130223.577500", "130224.037500", "130224.497500", "130224.957500", "130225.417500", "130225.877500", "130226.337500", "130226.797500", "130227.257500", "130227.717500", "130228.177500", "130228.637500", "130229.097500", "130229.557500", "130230.017500", "130230.477500", "130230.937500", "130231.397500", "130231.857500", "130232.317500", "130232.777500", "130233.237500", "130233.697500", "130234.157500", "130234.617500", "130235.077500", "130235.537500", "130235.997500", "130236.457500", "130236.917500", "130237.377500", "130237.837500", "130238.297500", "130238.757500", "130239.217500", "130239.677500"],
