{
  "AcquisitionMatrixPE": 82,
  "AcquisitionNumber": 1,
  "AcquisitionTime": "13:03:8.212500",
  "BandwidthPerPixelPhaseEncode": 24.888,
  "BaseResolution": 82,
  "BodyPartExamined": "BRAIN",
  "ConsistencyInfo": "N4_VE11C_LATEST_20160120",
  "ConversionSoftware": "dcm2niix",
  "ConversionSoftwareVersion": "v1.0.20201102",
  "DerivedVendorReportedEchoSpacing": 0.00049,
  "DeviceSerialNumber": "66112",
  "DwellTime": 2e-06,
  "EchoTime": 0.0272,
  "EchoTrainLength": 82,
  "EffectiveEchoSpacing": 0.00049,
  "FlipAngle": 44,
  "ImageComments": "Unaliased MB8/PE3",
  "ImageOrientationPatientDICOM": [0.999012, -0.00138764, 0.0444238, 0.00854386, 0.986867, -0.16131],
  "ImageType": [
    "ORIGINAL",
    "PRIMARY",
    "M",
    "MB",
    "ND",
    "NORM",
    "MOSAIC"
],
  "ImagingFrequency": 123.252,
  "InPlanePhaseEncodingDirectionDICOM": "COL",
  "InstitutionAddress": "Maynard 3,Hanover,NH,US,03755",
  "InstitutionName": "dartmouth_brain_imaging_center",
  "InstitutionalDepartmentName": "Department",
  "MRAcquisitionType": "2D",
  "MagneticFieldStrength": 3,
  "Manufacturer": "Siemens",
  "ManufacturersModelName": "Prisma",
  "Modality": "MR",
  "MultibandAccelerationFactor": 8,
  "PartialFourier": 1,
  "PatientPosition": "HFS",
  "PercentPhaseFOV": 100,
  "PercentSampling": 100,
  "PhaseEncodingDirection": "j-",
  "PhaseEncodingSteps": 82,
  "PhaseResolution": 1,
  "PixelBandwidth": 3050,
  "ProcedureStepDescription": "Wager_Wager^1076_spacetop",
  "ProtocolName": "func_run-02_task-faces_acq-ap-mb8",
  "PulseSequenceDetails": "%CustomerSeq%\\cmrr_mbep2d_bold",
  "ReceiveCoilActiveElements": "HEA;HEP",
  "ReceiveCoilName": "Head_32",
  "ReconMatrixPE": 82,
  "RepetitionTime": 0.46,
  "SAR": 0.10971,
  "ScanOptions": "FS",
  "ScanningSequence": "EP",
  "SequenceName": "epfid2d1_82",
  "SequenceVariant": "SK\\SS",
  "SeriesDescription": "func_run-02_task-faces_acq-ap-mb8",
  "SeriesNumber": 24,
  "ShimSetting": [4156, -7739, -7228, 561, -33, -105, -102, 44],
  "SliceThickness": 2.7,
  "SliceTiming": [0, 0.2525, 0.0625, 0.315, 0.125, 0.3775, 0.1875, 0, 0.2525, 0.0625, 0.315, 0.125, 0.3775, 0.1875, 0, 0.2525, 0.0625, 0.315, 0.125, 0.3775, 0.1875, 0, 0.2525, 0.0625, 0.315, 0.125, 0.3775, 0.1875, 0, 0.2525, 0.0625, 0.315, 0.125, 0.3775, 0.1875, 0, 0.2525, 0.0625, 0.315, 0.125, 0.3775, 0.1875, 0, 0.2525, 0.0625, 0.315, 0.125, 0.3775, 0.1875, 0, 0.2525, 0.0625, 0.315, 0.125, 0.3775, 0.1875],
  "SoftwareVersions": "syngo MR E11",
  "SpacingBetweenSlices": 2.7,
  "StationName": "AWP66112",
  "TaskName": "faces",
  "TotalReadoutTime": 0.03969,
  "TxRefAmp": 277.896,
  "WipMemBlock": "744cdabf-cf8e-4ebe-bbc4-c312e81f3fce||Sequence: R016 ve11c/master r/e634e98; Dec 19 2017 11:00:25 by eja",
  "dcmmeta_affine": [
    [-2.6802756786346436, 0.02292255498468876, 0.11776459217071533, 108.13614654541016],
    [0.003722935914993286, 2.647691488265991, -0.4361315369606018, -83.52799987792969],
    [0.11918576061725616, 0.4327830672264099, 2.6619391441345215, -81.12798309326172],
    [0.0, 0.0, 0.0, 1.0]
],
  "dcmmeta_reorient_transform": [
    [0.0, -1.0, 0.0, 81.0],
    [1.0, 0.0, 0.0, 0.0],
    [0.0, 0.0, 1.0, 0.0],
    [0.0, 0.0, 0.0, 1.0]
],
  "dcmmeta_shape": [82, 82, 56, 914],
  "dcmmeta_slice_dim": 2,
  "dcmmeta_version": 0.6,
  "global": {
    "const": {
      "AccessionNumber": "A003606",
      "AcquisitionMatrix": [82, 0, 0, 82],
      "AngioFlag": "N",
      "BitsAllocated": 16,
      "BitsStored": 16,
      "BodyPartExamined": "BRAIN",
      "Columns": 656,
      "EchoNumbers": 1,
      "EchoTime": 27.2,
      "EchoTrainLength": 82,
      "FlipAngle": 44.0,
      "HighBit": 15,
      "ImageOrientationPatient": [0.99901181273671, -0.0013876396896, 0.04442378269126, 0.00854386114897, 0.98686679428446, -0.1613100516874],
      "ImagePositionPatient": [-885.81076381973, -889.75397385402, 43.929876902107],
      "ImageType": [
        "ORIGINAL",
        "PRIMARY",
        "M",
        "MB",
        "ND",
        "NORM",
        "MOSAIC"
],
      "ImagedNucleus": "1H",
      "ImagingFrequency": 123.252136,
      "InPlanePhaseEncodingDirection": "COL",
      "MRAcquisitionType": "2D",
      "MagneticFieldStrength": 3.0,
      "Manufacturer": "SIEMENS",
      "ManufacturerModelName": "Prisma",
      "Modality": "MR",
      "NumberOfAverages": 1.0,
      "NumberOfPhaseEncodingSteps": 82,
      "PercentPhaseFieldOfView": 100.0,
      "PercentSampling": 100.0,
      "PerformedProcedureStepStartTime": "113139.285000",
      "PhotometricInterpretation": "MONOCHROME2",
      "PixelBandwidth": 3050.0,
      "PixelRepresentation": 0,
      "PixelSpacing": [2.6829268932343, 2.6829268932343],
      "ProtocolName": "func_run-02_task-faces_acq-ap-mb8",
      "RepetitionTime": 460.0,
      "Rows": 656,
      "SAR": 0.10970949927829,
      "SamplesPerPixel": 1,
      "ScanOptions": "FS",
      "ScanningSequence": "EP",
      "SequenceName": "epfid2d1_82",
      "SequenceVariant": [
        "SK",
        "SS"
],
      "SeriesDescription": "func_run-02_task-faces_acq-ap-mb8",
      "SeriesNumber": 24,
      "SeriesTime": "130323.961000",
      "SliceLocation": -61.775539414293,
      "SliceThickness": 2.7000000476837,
      "SmallestImagePixelValue": 0,
      "SoftwareVersions": "syngo MR E11",
      "SpacingBetweenSlices": 2.6999999538403,
      "SpecificCharacterSet": "ISO_IR 100",
      "StudyID": "1",
      "StudyTime": "113139.156000",
      "TransmitCoilName": "Body",
      "VariableFlipAngleFlag": "N",
      "WindowCenterWidthExplanation": "Algo1",
      "dBdt": 0.0},
    "slices": {}
  },
  "time": {
    "samples": {
      "AcquisitionNumber": [1, 2, 3, 4, 5, 6, 7, 8, 9, 10, 11, 12, 13, 14, 15, 16, 17, 18, 19, 20, 21, 22, 23, 24, 25, 26, 27, 28, 29, 30, 31, 32, 33, 34, 35, 36, 37, 38, 39, 40, 41, 42, 43, 44, 45, 46, 47, 48, 49, 50, 51, 52, 53, 54, 55, 56, 57, 58, 59, 60, 61, 62, 63, 64, 65, 66, 67, 68, 69, 70, 71, 72, 73, 74, 75, 76, 77, 78, 79, 80, 81, 82, 83, 84, 85, 86, 87, 88, 89, 90, 91, 92, 93, 94, 95, 96, 97, 98, 99, 100, 101, 102, 103, 104, 105, 106, 107, 108, 109, 110, 111, 112, 113, 114, 115, 116, 117, 118, 119, 120, 121, 122, 123, 124, 125, 126, 127, 128, 129, 130, 131, 132, 133, 134, 135, 136, 137, 138, 139, 140, 141, 142, 143, 144, 145, 146, 147, 148, 149, 150, 151, 152, 153, 154, 155, 156, 157, 158, 159, 160, 161, 162, 163, 164, 165, 166, 167, 168, 169, 170, 171, 172, 173, 174, 175, 176, 177, 178, 179, 180, 181, 182, 183, 184, 185, 186, 187, 188, 189, 190, 191, 192, 193, 194, 195, 196, 197, 198, 199, 200, 201, 202, 203, 204, 205, 206, 207, 208, 209, 210, 211, 212, 213, 214, 215, 216, 217, 218, 219, 220, 221, 222, 223, 224, 225, 226, 227, 228, 229, 230, 231, 232, 233, 234, 235, 236, 237, 238, 239, 240, 241, 242, 243, 244, 245, 246, 247, 248, 249, 250, 251, 252, 253, 254, 255, 256, 257, 258, 259, 260, 261, 262, 263, 264, 265, 266, 267, 268, 269, 270, 271, 272, 273, 274, 275, 276, 277, 278, 279, 280, 281, 282, 283, 284, 285, 286, 287, 288, 289, 290, 291, 292, 293, 294, 295, 296, 297, 298, 299, 300, 301, 302, 303, 304, 305, 306, 307, 308, 309, 310, 311, 312, 313, 314, 315, 316, 317, 318, 319, 320, 321, 322, 323, 324, 325, 326, 327, 328, 329, 330, 331, 332, 333, 334, 335, 336, 337, 338, 339, 340, 341, 342, 343, 344, 345, 346, 347, 348, 349, 350, 351, 352, 353, 354, 355, 356, 357, 358, 359, 360, 361, 362, 363, 364, 365, 366, 367, 368, 369, 370, 371, 372, 373, 374, 375, 376, 377, 378, 379, 380, 381, 382, 383, 384, 385, 386, 387, 388, 389, 390, 391, 392, 393, 394, 395, 396, 397, 398, 399, 400, 401, 402, 403, 404, 405, 406, 407, 408, 409, 410, 411, 412, 413, 414, 415, 416, 417, 418, 419, 420, 421, 422, 423, 424, 425, 426, 427, 428, 429, 430, 431, 432, 433, 434, 435, 436, 437, 438, 439, 440, 441, 442, 443, 444, 445, 446, 447, 448, 449, 450, 451, 452, 453, 454, 455, 456, 457, 458, 459, 460, 461, 462, 463, 464, 465, 466, 467, 468, 469, 470, 471, 472, 473, 474, 475, 476, 477, 478, 479, 480, 481, 482, 483, 484, 485, 486, 487, 488, 489, 490, 491, 492, 493, 494, 495, 496, 497, 498, 499, 500, 501, 502, 503, 504, 505, 506, 507, 508, 509, 510, 511, 512, 513, 514, 515, 516, 517, 518, 519, 520, 521, 522, 523, 524, 525, 526, 527, 528, 529, 530, 531, 532, 533, 534, 535, 536, 537, 538, 539, 540, 541, 542, 543, 544, 545, 546, 547, 548, 549, 550, 551, 552, 553, 554, 555, 556, 557, 558, 559, 560, 561, 562, 563, 564, 565, 566, 567, 568, 569, 570, 571, 572, 573, 574, 575, 576, 577, 578, 579, 580, 581, 582, 583, 584, 585, 586, 587, 588, 589, 590, 591, 592, 593, 594, 595, 596, 597, 598, 599, 600, 601, 602, 603, 604, 605, 606, 607, 608, 609, 610, 611, 612, 613, 614, 615, 616, 617, 618, 619, 620, 621, 622, 623, 624, 625, 626, 627, 628, 629, 630, 631, 632, 633, 634, 635, 636, 637, 638, 639, 640, 641, 642, 643, 644, 645, 646, 647, 648, 649, 650, 651, 652, 653, 654, 655, 656, 657, 658, 659, 660, 661, 662, 663, 664, 665, 666, 667, 668, 669, 670, 671, 672, 673, 674, 675, 676, 677, 678, 679, 680, 681, 682, 683, 684, 685, 686, 687, 688, 689, 690, 691, 692, 693, 694, 695, 696, 697, 698, 699, 700, 701, 702, 703, 704, 705, 706, 707, 708, 709, 710, 711, 712, 713, 714, 715, 716, 717, 718, 719, 720, 721, 722, 723, 724, 725, 726, 727, 728, 729, 730, 731, 732, 733, 734, 735, 736, 737, 738, 739, 740, 741, 742, 743, 744, 745, 746, 747, 748, 749, 750, 751, 752, 753, 754, 755, 756, 757, 758, 759, 760, 761, 762, 763, 764, 765, 766, 767, 768, 769, 770, 771, 772, 773, 774, 775, 776, 777, 778, 779, 780, 781, 782, 783, 784, 785, 786, 787, 788, 789, 790, 791, 792, 793, 794, 795, 796, 797, 798, 799, 800, 801, 802, 803, 804, 805, 806, 807, 808, 809, 810, 811, 812, 813, 814, 815, 816, 817, 818, 819, 820, 821, 822, 823, 824, 825, 826, 827, 828, 829, 830, 831, 832, 833, 834, 835, 836, 837, 838, 839, 840, 841, 842, 843, 844, 845, 846, 847, 848, 849, 850, 851, 852, 853, 854, 855, 856, 857, 858, 859, 860, 861, 862, 863, 864, 865, 866, 867, 868, 869, 870, 871, 872, 873, 874, 875, 876, 877, 878, 879, 880, 881, 882, 883, 884, 885, 886, 887, 888, 889, 890, 891, 892, 893, 894, 895, 896, 897, 898, 899, 900, 901, 902, 903, 904, 905, 906, 907, 908, 909, 910, 911, 912, 913, 914],
      "AcquisitionTime": ["130308.212500", "130308.672500", "130309.132500", "130309.592500", "130310.052500", "130310.512500", "130310.972500", "130311.432500", "130311.892500", "130312.352500", "130312.812500", "130313.272500", "130313.732500", "130314.192500", "130314.652500", "130315.112500", "130315.572500", "130316.032500", "130316.492500", "130316.952500", "130317.412500", "130317.872500", "130318.332500", "130318.792500", "130319.252500", "130319.712500", "130320.172500", "130320.632500", "130321.092500", "130321.552500", "130322.012500", "130322.472500", "130322.932500", "130323.392500", "130323.852500", "130324.312500", "130324.772500", "130325.232500", "130325.692500", "130326.152500", "130326.612500", "130327.072500", "130327.532500", "130327.992500", "130328.452500", "130328.912500", "130329.372500", "130329.832500", "130330.292500", "130330.752500", "130331.212500", "130331.672500", "130332.132500", "130332.592500", "130333.052500", "130333.512500", "130333.972500", "130334.432500", "130334.892500", "130335.352500", "130335.812500", "130336.272500", "130336.732500", "130337.192500", "130337.652500", "130338.112500", "130338.572500", "130339.032500", "130339.492500", "130339.952500", "130340.412500", "130340.872500", "130341.332500", "130341.792500", "130342.252500", "130342.712500", "130343.172500", "130343.632500", "130344.092500", "130344.552500", "130345.012500", "130345.472500", "130345.932500", "130346.392500", "130346.852500", "130347.312500", "130347.772500", "130348.232500", "130348.692500", "130349.152500", "130349.612500", "130350.072500", "130350.532500", "130350.992500", "130351.452500", "130351.912500", "130352.372500", "130352.832500", "130353.292500", "130353.752500", "130354.212500", "130354.672500", "130355.132500", "130355.592500", "130356.052500", "130356.512500", "130356.972500", "130357.432500", "130357.892500", "130358.352500", "130358.812500", "130359.272500", "130359.732500", "130400.192500", "130400.652500", "130401.112500", "130401.572500", "130402.032500", "130402.492500", "130402.952500", "130403.412500", "130403.872500", "130404.332500", "130404.792500", "130405.252500", "130405.712500", "130406.172500", "130406.632500", "130407.092500", "130407.552500", "130408.012500", "130408.472500", "130408.932500", "130409.392500", "130409.852500", "130410.312500", "130410.772500", "130411.232500", "130411.692500", "130412.152500", "130412.612500", "130413.072500", "130413.532500", "130413.992500", "130414.452500", "130414.912500", "130415.372500", "130415.832500", "130416.292500", "130416.752500", "130417.212500", "130417.672500", "130418.132500", "130418.592500", "130419.052500", "130419.512500", "130419.972500", "130420.432500", "130420.892500", "130421.352500", "130421.812500", "130422.272500", "130422.732500", "130423.192500", "130423.652500", "130424.112500", "130424.572500", "130425.032500", "130425.492500", "130425.952500", "130426.412500", "130426.872500", "130427.332500", "130427.792500", "130428.252500", "130428.712500", "130429.172500", "130429.632500", "130430.092500", "130430.552500", "130431.012500", "130431.472500", "130431.932500", "130432.392500", "130432.852500", "130433.312500", "130433.772500", "130434.232500", "130434.692500", "130435.152500", "130435.612500", "130436.072500", "130436.532500", "130436.992500", "130437.452500", "130437.912500", "130438.372500", "130438.832500", "130439.292500", "130439.752500", "130440.212500", "130440.672500", "130441.132500", "130441.592500", "130442.052500", "130442.512500", "130442.972500", "130443.432500", "130443.892500", "130444.352500", "130444.812500", "130445.272500", "130445.732500", "130446.192500", "130446.652500", "130447.112500", "130447.572500", "130448.032500", "130448.492500", "130448.952500", "130449.412500", "130449.872500", "130450.332500", "130450.792500", "130451.252500", "130451.712500", "130452.172500", "130452.632500", "130453.092500", "130453.552500", "130454.012500", "130454.472500", "130454.932500", "130455.392500", "130455.852500", "130456.312500", "130456.772500", "130457.232500", "130457.692500", "130458.152500", "130458.612500", "130459.072500", "130459.532500", "130459.992500", "130500.452500", "130500.912500", "130501.372500", "130501.832500", "130502.292500", "130502.752500", "130503.212500", "130503.672500", "130504.132500", "130504.592500", "130505.052500", "130505.512500", "130505.972500", "130506.432500", "130506.892500", "130507.352500", "130507.812500", "130508.272500", "130508.732500", "130509.192500", "130509.652500", "130510.112500", "130510.572500", "130511.032500", "130511.492500", "130511.952500", "130512.412500", "130512.872500", "130513.332500", "130513.792500", "130514.252500", "130514.712500", "130515.172500", "130515.632500", "130516.092500", "130516.552500", "130517.012500", "130517.472500", "130517.932500", "130518.392500", "130518.852500", "130519.312500", "130519.772500", "130520.232500", "130520.692500", "130521.152500", "130521.612500", "130522.072500", "130522.532500", "130522.992500", "130523.452500", "130523.912500", "130524.372500", "130524.832500", "130525.292500", "130525.752500", "130526.212500", "130526.672500", "130527.132500", "130527.592500", "130528.052500", "130528.512500", "130528.972500", "130529.432500", "130529.892500", "130530.352500", "130530.812500", "130531.272500", "130531.732500", "130532.192500", "130532.652500", "130533.112500", "130533.572500", "130534.032500", "130534.492500", "130534.952500", "130535.412500", "130535.872500", "130536.332500", "130536.792500", "130537.252500", "130537.712500", "130538.172500", "130538.632500", "130539.092500", "130539.552500", "130540.012500", "130540.472500", "130540.932500", "130541.392500", "130541.852500", "130542.312500", "130542.772500", "130543.232500", "130543.692500", "130544.152500", "130544.612500", "130545.072500", "130545.532500", "130545.992500", "130546.452500", "130546.912500", "130547.372500", "130547.832500", "130548.292500", "130548.752500", "130549.212500", "130549.672500", "130550.132500", "130550.592500", "130551.052500", "130551.512500", "130551.972500", "130552.432500", "130552.892500", "130553.352500", "130553.812500", "130554.272500", "130554.732500", "130555.192500", "130555.652500", "130556.112500", "130556.572500", "130557.032500", "130557.492500", "130557.952500", "130558.412500", "130558.872500", "130559.332500", "130559.792500", "130600.252500", "130600.712500", "130601.172500", "130601.632500", "130602.092500", "130602.552500", "130603.012500", "130603.472500", "130603.932500", "130604.392500", "130604.852500", "130605.312500", "130605.772500", "130606.232500", "130606.692500", "130607.152500", "130607.612500", "130608.072500", "130608.532500", "130608.992500", "130609.452500", "130609.912500", "130610.372500", "130610.832500", "130611.292500", "130611.752500", "130612.212500", "130612.672500", "130613.132500", "130613.592500", "130614.052500", "130614.512500", "130614.972500", "130615.432500", "130615.892500", "130616.352500", "130616.812500", "130617.272500", "130617.732500", "130618.192500", "130618.652500", "130619.112500", "130619.572500", "130620.032500", "130620.492500", "130620.952500", "130621.412500", "130621.872500", "130622.332500", "130622.792500", "130623.252500", "130623.712500", "130624.172500", "130624.632500", "130625.092500", "130625.552500", "130626.012500", "130626.472500", "130626.932500", "130627.392500", "130627.852500", "130628.312500", "130628.772500", "130629.232500", "130629.692500", "130630.152500", "130630.612500", "130631.072500", "130631.532500", "130631.992500", "130632.452500", "130632.912500", "130633.372500", "130633.832500", "130634.292500", "130634.752500", "130635.212500", "130635.672500", "130636.132500", "130636.592500", "130637.052500", "130637.512500", "130637.972500", "130638.432500", "130638.892500", "130639.352500", "130639.812500", "130640.272500", "130640.732500", "130641.192500", "130641.652500", "130642.112500", "130642.572500", "130643.032500", "130643.492500", "130643.952500", "130644.412500", "130644.872500", "130645.332500", "130645.792500", "130646.252500", "130646.712500", "130647.172500", "130647.632500", "130648.092500", "130648.552500", "130649.012500", "130649.472500", "130649.932500", "130650.392500", "130650.852500", "130651.312500", "130651.772500", "130652.232500", "130652.692500", "130653.152500", "130653.612500", "130654.072500", "130654.532500", "130654.992500", "130655.452500", "130655.912500", "130656.372500", "130656.832500", "130657.292500", "130657.752500", "130658.212500", "130658.672500", "130659.132500", "130659.592500", "130700.052500", "130700.512500", "130700.972500", "130701.432500", "130701.892500", "130702.352500", "130702.812500", "130703.272500", "130703.732500", "130704.192500", "130704.652500", "130705.112500", "130705.572500", "130706.032500", "130706.492500", "130706.952500", "130707.412500", "130707.872500", "130708.332500", "130708.792500", "130709.252500", "130709.712500", "130710.172500", "130710.632500", "130711.092500", "130711.552500", "130712.012500", "130712.472500", "130712.932500", "130713.392500", "130713.852500", "130714.312500", "130714.772500", "130715.232500", "130715.692500", "130716.152500", "130716.612500", "130717.072500", "130717.532500", "130717.992500", "130718.452500", "130718.912500", "130719.372500", "130719.832500", "130720.292500", "130720.752500", "130721.212500", "130721.672500", "130722.132500", "130722.592500", "130723.052500", "130723.512500", "130723.972500", "130724.432500", "130724.892500", "130725.352500", "130725.812500", "130726.272500", "130726.732500", "130727.192500", "130727.652500", "130728.112500", "130728.572500", "130729.032500", "130729.492500", "130729.952500", "130730.412500", "130730.872500", "130731.332500", "130731.792500", "130732.252500", "130732.712500", "130733.172500", "130733.632500", "130734.092500", "130734.552500", "130735.012500", "130735.472500", "130735.932500", "130736.392500", "130736.852500", "130737.312500", "130737.772500", "130738.232500", "130738.692500", "130739.152500", "130739.612500", "130740.072500", "130740.532500", "130740.992500", "130741.452500", "130741.912500", "130742.372500", "130742.832500", "130743.292500", "130743.752500", "130744.212500", "130744.672500", "130745.132500", "130745.592500", "130746.052500", "130746.512500", "130746.972500", "130747.432500", "130747.892500", "130748.352500", "130748.812500", "130749.272500", "130749.732500", "130750.192500", "130750.652500", "130751.112500", "130751.572500", "130752.032500", "130752.492500", "130752.952500", "130753.412500", "130753.872500", "130754.332500", "130754.792500", "130755.252500", "130755.712500", "130756.172500", "130756.632500", "130757.092500", "130757.552500", "130758.012500", "130758.472500", "130758.932500", "130759.392500", "130759.852500", "130800.312500", "130800.772500", "130801.232500", "130801.692500", "130802.152500", "130802.612500", "130803.072500", "130803.532500", "130803.992500", "130804.452500", "130804.912500", "130805.372500", "130805.832500", "130806.292500", "130806.752500", "130807.212500", "130807.672500", "130808.132500", "130808.592500", "130809.052500", "130809.512500", "130809.972500", "130810.432500", "130810.892500", "130811.352500", "130811.812500", "130812.272500", "130812.732500", "130813.192500", "130813.652500", "130814.112500", "130814.572500", "130815.032500", "130815.492500", "130815.952500", "130816.412500", "130816.872500", "130817.332500", "130817.792500", "130818.252500", "130818.712500", "130819.172500", "130819.632500", "130820.092500", "130820.552500", "130821.012500", "130821.472500", "130821.932500", "130822.392500", "130822.852500", "130823.312500", "130823.772500", "130824.232500", "130824.692500", "130825.152500", "130825.612500", "130826.072500", "130826.532500", "130826.992500", "130827.452500", "130827.912500", "130828.372500", "130828.832500", "130829.292500", "130829.752500", "130830.212500", "130830.672500", "130831.132500", "130831.592500", "130832.052500", "130832.512500", "130832.972500", "130833.432500", "130833.892500", "130834.352500", "130834.812500", "130835.272500", "130835.732500", "130836.192500", "130836.652500", "130837.112500", "130837.572500", "130838.032500", "130838.492500", "130838.952500", "130839.412500", "130839.872500", "130840.332500", "130840.792500", "130841.252500", "130841.712500", "130842.172500", "130842.632500", "130843.092500", "130843.552500", "130844.012500", "130844.472500", "130844.932500", "130845.392500", "130845.852500", "130846.312500", "130846.772500", "130847.232500", "130847.692500", "130848.152500", "130848.612500", "130849.072500", "130849.532500", "130849.992500", "130850.452500", "130850.912500", "130851.372500", "130851.832500", "130852.292500", "130852.752500", "130853.212500", "130853.672500", "130854.132500", "130854.592500", "130855.052500", "130855.512500", "130855.972500", "130856.432500", "130856.892500", "130857.352500", "130857.812500", "130858.272500", "130858.732500", "130859.192500", "130859.652500", "130900.112500", "130900.572500", "130901.032500", "130901.492500", "130901.952500", "130902.412500", "130902.872500", "130903.332500", "130903.792500", "130904.252500", "130904.712500", "130905.172500", "130905.632500", "130906.092500", "130906.552500", "130907.012500", "130907.472500", "130907.932500", "130908.392500", "130908.852500", "130909.312500", "130909.772500", "130910.232500", "130910.692500", "130911.152500", "130911.612500", "130912.072500", "130912.532500", "130912.992500", "130913.452500", "130913.912500", "130914.372500", "130914.832500", "130915.292500", "130915.752500", "130916.212500", "130916.672500", "130917.132500", "130917.592500", "130918.052500", "130918.512500", "130918.972500", "130919.432500", "130919.892500", "130920.352500", "130920.812500", "130921.272500", "130921.732500", "130922.192500", "130922.652500", "130923.112500", "130923.572500", "130924.032500", "130924.492500", "130924.952500", "130925.412500", "130925.872500", "130926.332500", "130926.792500", "130927.252500", "130927.712500", "130928.172500", "130928.632500", "130929.092500", "130929.552500", "130930.012500", "130930.472500", "130930.932500", "130931.392500", "130931.852500", "130932.312500", "130932.772500", "130933.232500", "130933.692500", "130934.152500", "130934.612500", "130935.072500", "130935.532500", "130935.992500", "130936.452500", "130936.912500", "130937.372500", "130937.832500", "130938.292500", "130938.752500", "130939.212500", "130939.672500", "130940.132500", "130940.592500", "130941.052500", "130941.512500", "130941.972500", "130942.432500", "130942.892500", "130943.352500", "130943.812500", "130944.272500", "130944.732500", "130945.192500", "130945.652500", "130946.112500", "130946.572500", "130947.032500", "130947.492500", "130947.952500", "130948.412500", "130948.872500", "130949.332500", "130949.792500", "130950.252500", "130950.712500", "130951.172500", "130951.632500", "130952.092500", "130952.552500", "130953.012500", "130953.472500", "130953.932500", "130954.392500", "130954.852500", "130955.312500", "130955.772500", "130956.232500", "130956.692500", "130957.152500", "130957.612500", "130958.072500", "130958.532500", "130958.992500", "130959.452500", "130959.912500", "131000.372500", "131000.832500", "131001.292500", "131001.752500", "131002.212500", "131002.672500", "131003.132500", "131003.592500", "131004.052500", "131004.512500", "131004.972500", "131005.432500", "131005.892500", "131006.352500", "131006.812500", "131007.272500", "131007.732500", "131008.192500"],
