{
  "AcquisitionMatrixPE": 82,
  "AcquisitionNumber": 1,
  "AcquisitionTime": "19:02:21.052500",
  "BandwidthPerPixelPhaseEncode": 24.888,
  "BaseResolution": 82,
  "BodyPartExamined": "BRAIN",
  "ConsistencyInfo": "N4_VE11E_LATEST_20181129",
  "ConversionSoftware": "dcm2niix",
  "ConversionSoftwareVersion": "v1.0.20201102",
  "DerivedVendorReportedEchoSpacing": 0.00049,
  "DeviceSerialNumber": "66112",
  "DwellTime": 2e-06,
  "EchoTime": 0.0272,
  "EchoTrainLength": 82,
  "EffectiveEchoSpacing": 0.00049,
  "FlipAngle": 44,
  "ImageComments": "Unaliased MB8/PE3",
  "ImageOrientationPatientDICOM": [0.998717, -0.0133422, 0.0488426, 0.00435783, 0.983727, 0.179614],
  "ImageType": [
    "ORIGINAL",
    "PRIMARY",
    "M",
    "MB",
    "ND",
    "NORM",
    "MOSAIC"
],
  "ImagingFrequency": 123.259,
  "InPlanePhaseEncodingDirectionDICOM": "COL",
  "InstitutionAddress": "Maynard 3,Hanover,NH,US,03755",
  "InstitutionName": "Dartmouth College - PBS",
  "InstitutionalDepartmentName": "Department",
  "MRAcquisitionType": "2D",
  "MagneticFieldStrength": 3,
  "Manufacturer": "Siemens",
  "ManufacturersModelName": "Prisma",
  "Modality": "MR",
  "MultibandAccelerationFactor": 8,
  "PartialFourier": 1,
  "PatientPosition": "HFS",
  "PercentPhaseFOV": 100,
  "PercentSampling": 100,
  "PhaseEncodingDirection": "j-",
  "PhaseEncodingSteps": 82,
  "PhaseResolution": 1,
  "PixelBandwidth": 3050,
  "ProcedureStepDescription": "Wager_Wager^1076_spacetop",
  "ProtocolName": "func_run-03_task-social_acq-ap-mb8",
  "PulseSequenceDetails": "%CustomerSeq%\\cmrr_mbep2d_bold",
  "ReceiveCoilActiveElements": "HEA;HEP",
  "ReceiveCoilName": "Head_32",
  "ReconMatrixPE": 82,
  "RepetitionTime": 0.46,
  "SAR": 0.085361,
  "ScanOptions": "FS",
  "ScanningSequence": "EP",
  "SequenceName": "epfid2d1_82",
  "SequenceVariant": "SK\\SS",
  "SeriesDescription": "func_run-03_task-social_acq-ap-mb8",
  "SeriesNumber": 12,
  "ShimSetting": [4241, -7815, -7240, 397, -77, -90, 93, 56],
  "SliceThickness": 2.7,
  "SliceTiming": [0, 0.2525, 0.0625, 0.315, 0.1275, 0.3775, 0.19, 0, 0.2525, 0.0625, 0.315, 0.1275, 0.3775, 0.19, 0, 0.2525, 0.0625, 0.315, 0.1275, 0.3775, 0.19, 0, 0.2525, 0.0625, 0.315, 0.1275, 0.3775, 0.19, 0, 0.2525, 0.0625, 0.315, 0.1275, 0.3775, 0.19, 0, 0.2525, 0.0625, 0.315, 0.1275, 0.3775, 0.19, 0, 0.2525, 0.0625, 0.315, 0.1275, 0.3775, 0.19, 0, 0.2525, 0.0625, 0.315, 0.1275, 0.3775, 0.19],
  "SoftwareVersions": "syngo MR E11",
  "SpacingBetweenSlices": 2.7,
  "StationName": "AWP66112",
  "TaskName": "social",
  "TotalReadoutTime": 0.03969,
  "TxRefAmp": 231.217,
  "WipMemBlock": "e6898b7b-e6d4-4dba-98c9-63ff9c7be19b||Sequence: R016 ve11e/master r/434b28f1; Aug  7 2019 18:53:46 by eja",
  "dcmmeta_affine": [
    [-2.67948579788208, 0.011691738851368427, 0.13619960844516754, 109.97077178955078],
    [0.035796139389276505, 2.6392688751220703, 0.48376232385635376, -113.89017486572266],
    [0.1310412436723709, -0.481892466545105, 2.6528143882751465, -55.20155334472656],
    [0.0, 0.0, 0.0, 1.0]
],
  "dcmmeta_reorient_transform": [
    [0.0, -1.0, 0.0, 81.0],
    [1.0, 0.0, 0.0, 0.0],
    [0.0, 0.0, 1.0, 0.0],
    [0.0, 0.0, 0.0, 1.0]
],
  "dcmmeta_shape": [82, 82, 56, 872],
  "dcmmeta_slice_dim": 2,
  "dcmmeta_version": 0.6,
  "global": {
    "const": {
      "AccessionNumber": "A004510",
      "AcquisitionMatrix": [82, 0, 0, 82],
      "AngioFlag": "N",
      "BitsAllocated": 16,
      "BitsStored": 16,
      "BodyPartExamined": "BRAIN",
      "Columns": 656,
      "EchoNumbers": 1,
      "EchoTime": 27.2,
      "EchoTrainLength": 82,
      "FlipAngle": 44.0,
      "HighBit": 15,
      "ImageOrientationPatient": [0.99871736850327, -0.0133421968998, 0.0488426415316, 0.00435782972984, 0.98372742878623, 0.17961446259606],
      "ImagePositionPatient": [-883.28572477592, -847.0872435281, -270.14681727762],
      "ImageType": [
        "ORIGINAL",
        "PRIMARY",
        "M",
        "MB",
        "ND",
        "NORM",
        "MOSAIC"
],
      "ImagedNucleus": "1H",
      "ImagingFrequency": 123.259081,
      "InPlanePhaseEncodingDirection": "COL",
      "MRAcquisitionType": "2D",
      "MagneticFieldStrength": 3.0,
      "Manufacturer": "SIEMENS",
      "ManufacturerModelName": "Prisma",
      "Modality": "MR",
      "NumberOfAverages": 1.0,
      "NumberOfPhaseEncodingSteps": 82,
      "PercentPhaseFieldOfView": 100.0,
      "PercentSampling": 100.0,
      "PerformedProcedureStepStartTime": "182409.256000",
      "PhotometricInterpretation": "MONOCHROME2",
      "PixelBandwidth": 3050.0,
      "PixelRepresentation": 0,
      "PixelSpacing": [2.6829268932343, 2.6829268932343],
      "ProtocolName": "func_run-03_task-social_acq-ap-mb8",
      "RepetitionTime": 460.0,
      "Rows": 656,
      "SAR": 0.08536103499214,
      "SamplesPerPixel": 1,
      "ScanOptions": "FS",
      "ScanningSequence": "EP",
      "SequenceName": "epfid2d1_82",
      "SequenceVariant": [
        "SK",
        "SS"
],
      "SeriesDescription": "func_run-03_task-social_acq-ap-mb8",
      "SeriesNumber": 12,
      "SeriesTime": "190236.047000",
      "SliceLocation": -69.095284656602,
      "SliceThickness": 2.7000000476837,
      "SmallestImagePixelValue": 0,
      "SoftwareVersions": "syngo MR E11",
      "SpacingBetweenSlices": 2.6999999841367,
      "SpecificCharacterSet": "ISO_IR 100",
      "StudyID": "1",
      "StudyTime": "182409.166000",
      "TransmitCoilName": "Body",
      "VariableFlipAngleFlag": "N",
      "WindowCenterWidthExplanation": "Algo1"
    },
    "slices": {}
  },
  "time": {
    "samples": {
      "AcquisitionNumber": [1, 2, 3, 4, 5, 6, 7, 8, 9, 10, 11, 12, 13, 14, 15, 16, 17, 18, 19, 20, 21, 22, 23, 24, 25, 26, 27, 28, 29, 30, 31, 32, 33, 34, 35, 36, 37, 38, 39, 40, 41, 42, 43, 44, 45, 46, 47, 48, 49, 50, 51, 52, 53, 54, 55, 56, 57, 58, 59, 60, 61, 62, 63, 64, 65, 66, 67, 68, 69, 70, 71, 72, 73, 74, 75, 76, 77, 78, 79, 80, 81, 82, 83, 84, 85, 86, 87, 88, 89, 90, 91, 92, 93, 94, 95, 96, 97, 98, 99, 100, 101, 102, 103, 104, 105, 106, 107, 108, 109, 110, 111, 112, 113, 114, 115, 116, 117, 118, 119, 120, 121, 122, 123, 124, 125, 126, 127, 128, 129, 130, 131, 132, 133, 134, 135, 136, 137, 138, 139, 140, 141, 142, 143, 144, 145, 146, 147, 148, 149, 150, 151, 152, 153, 154, 155, 156, 157, 158, 159, 160, 161, 162, 163, 164, 165, 166, 167, 168, 169, 170, 171, 172, 173, 174, 175, 176, 177, 178, 179, 180, 181, 182, 183, 184, 185, 186, 187, 188, 189, 190, 191, 192, 193, 194, 195, 196, 197, 198, 199, 200, 201, 202, 203, 204, 205, 206, 207, 208, 209, 210, 211, 212, 213, 214, 215, 216, 217, 218, 219, 220, 221, 222, 223, 224, 225, 226, 227, 228, 229, 230, 231, 232, 233, 234, 235, 236, 237, 238, 239, 240, 241, 242, 243, 244, 245, 246, 247, 248, 249, 250, 251, 252, 253, 254, 255, 256, 257, 258, 259, 260, 261, 262, 263, 264, 265, 266, 267, 268, 269, 270, 271, 272, 273, 274, 275, 276, 277, 278, 279, 280, 281, 282, 283, 284, 285, 286, 287, 288, 289, 290, 291, 292, 293, 294, 295, 296, 297, 298, 299, 300, 301, 302, 303, 304, 305, 306, 307, 308, 309, 310, 311, 312, 313, 314, 315, 316, 317, 318, 319, 320, 321, 322, 323, 324, 325, 326, 327, 328, 329, 330, 331, 332, 333, 334, 335, 336, 337, 338, 339, 340, 341, 342, 343, 344, 345, 346, 347, 348, 349, 350, 351, 352, 353, 354, 355, 356, 357, 358, 359, 360, 361, 362, 363, 364, 365, 366, 367, 368, 369, 370, 371, 372, 373, 374, 375, 376, 377, 378, 379, 380, 381, 382, 383, 384, 385, 386, 387, 388, 389, 390, 391, 392, 393, 394, 395, 396, 397, 398, 399, 400, 401, 402, 403, 404, 405, 406, 407, 408, 409, 410, 411, 412, 413, 414, 415, 416, 417, 418, 419, 420, 421, 422, 423, 424, 425, 426, 427, 428, 429, 430, 431, 432, 433, 434, 435, 436, 437, 438, 439, 440, 441, 442, 443, 444, 445, 446, 447, 448, 449, 450, 451, 452, 453, 454, 455, 456, 457, 458, 459, 460, 461, 462, 463, 464, 465, 466, 467, 468, 469, 470, 471, 472, 473, 474, 475, 476, 477, 478, 479, 480, 481, 482, 483, 484, 485, 486, 487, 488, 489, 490, 491, 492, 493, 494, 495, 496, 497, 498, 499, 500, 501, 502, 503, 504, 505, 506, 507, 508, 509, 510, 511, 512, 513, 514, 515, 516, 517, 518, 519, 520, 521, 522, 523, 524, 525, 526, 527, 528, 529, 530, 531, 532, 533, 534, 535, 536, 537, 538, 539, 540, 541, 542, 543, 544, 545, 546, 547, 548, 549, 550, 551, 552, 553, 554, 555, 556, 557, 558, 559, 560, 561, 562, 563, 564, 565, 566, 567, 568, 569, 570, 571, 572, 573, 574, 575, 576, 577, 578, 579, 580, 581, 582, 583, 584, 585, 586, 587, 588, 589, 590, 591, 592, 593, 594, 595, 596, 597, 598, 599, 600, 601, 602, 603, 604, 605, 606, 607, 608, 609, 610, 611, 612, 613, 614, 615, 616, 617, 618, 619, 620, 621, 622, 623, 624, 625, 626, 627, 628, 629, 630, 631, 632, 633, 634, 635, 636, 637, 638, 639, 640, 641, 642, 643, 644, 645, 646, 647, 648, 649, 650, 651, 652, 653, 654, 655, 656, 657, 658, 659, 660, 661, 662, 663, 664, 665, 666, 667, 668, 669, 670, 671, 672, 673, 674, 675, 676, 677, 678, 679, 680, 681, 682, 683, 684, 685, 686, 687, 688, 689, 690, 691, 692, 693, 694, 695, 696, 697, 698, 699, 700, 701, 702, 703, 704, 705, 706, 707, 708, 709, 710, 711, 712, 713, 714, 715, 716, 717, 718, 719, 720, 721, 722, 723, 724, 725, 726, 727, 728, 729, 730, 731, 732, 733, 734, 735, 736, 737, 738, 739, 740, 741, 742, 743, 744, 745, 746, 747, 748, 749, 750, 751, 752, 753, 754, 755, 756, 757, 758, 759, 760, 761, 762, 763, 764, 765, 766, 767, 768, 769, 770, 771, 772, 773, 774, 775, 776, 777, 778, 779, 780, 781, 782, 783, 784, 785, 786, 787, 788, 789, 790, 791, 792, 793, 794, 795, 796, 797, 798, 799, 800, 801, 802, 803, 804, 805, 806, 807, 808, 809, 810, 811, 812, 813, 814, 815, 816, 817, 818, 819, 820, 821, 822, 823, 824, 825, 826, 827, 828, 829, 830, 831, 832, 833, 834, 835, 836, 837, 838, 839, 840, 841, 842, 843, 844, 845, 846, 847, 848, 849, 850, 851, 852, 853, 854, 855, 856, 857, 858, 859, 860, 861, 862, 863, 864, 865, 866, 867, 868, 869, 870, 871, 872],
      "AcquisitionTime": ["190221.052500", "190221.512500", "190221.972500", "190222.432500", "190222.892500", "190223.352500", "190223.812500", "190224.272500", "190224.732500", "190225.192500", "190225.652500", "190226.112500", "190226.572500", "190227.032500", "190227.492500", "190227.952500", "190228.412500", "190228.872500", "190229.332500", "190229.792500", "190230.252500", "190230.712500", "190231.172500", "190231.632500", "190232.092500", "190232.552500", "190233.012500", "190233.472500", "190233.932500", "190234.392500", "190234.852500", "190235.312500", "190235.772500", "190236.232500", "190236.692500", "190237.152500", "190237.612500", "190238.072500", "190238.532500", "190238.992500", "190239.452500", "190239.912500", "190240.372500", "190240.832500", "190241.292500", "190241.752500", "190242.212500", "190242.672500", "190243.132500", "190243.592500", "190244.052500", "190244.512500", "190244.972500", "190245.432500", "190245.892500", "190246.352500", "190246.812500", "190247.272500", "190247.732500", "190248.192500", "190248.652500", "190249.112500", "190249.572500", "190250.032500", "190250.492500", "190250.952500", "190251.412500", "190251.872500", "190252.332500", "190252.792500", "190253.252500", "190253.712500", "190254.172500", "190254.632500", "190255.092500", "190255.552500", "190256.012500", "190256.472500", "190256.932500", "190257.392500", "190257.852500", "190258.312500", "190258.772500", "190259.232500", "190259.692500", "190300.152500", "190300.612500", "190301.072500", "190301.532500", "190301.992500", "190302.452500", "190302.912500", "190303.372500", "190303.832500", "190304.292500", "190304.752500", "190305.212500", "190305.672500", "190306.132500", "190306.592500", "190307.052500", "190307.512500", "190307.972500", "190308.432500", "190308.892500", "190309.352500", "190309.812500", "190310.272500", "190310.732500", "190311.192500", "190311.652500", "190312.112500", "190312.572500", "190313.032500", "190313.492500", "190313.952500", "190314.412500", "190314.872500", "190315.332500", "190315.792500", "190316.252500", "190316.712500", "190317.172500", "190317.632500", "190318.092500", "190318.552500", "190319.012500", "190319.472500", "190319.932500", "190320.392500", "190320.852500", "190321.312500", "190321.772500", "190322.232500", "190322.692500", "190323.152500", "190323.612500", "190324.072500", "190324.532500", "190324.992500", "190325.452500", "190325.912500", "190326.372500", "190326.832500", "190327.292500", "190327.752500", "190328.212500", "190328.672500", "190329.132500", "190329.592500", "190330.052500", "190330.512500", "190330.972500", "190331.432500", "190331.892500", "190332.352500", "190332.812500", "190333.272500", "190333.732500", "190334.192500", "190334.652500", "190335.112500", "190335.572500", "190336.032500", "190336.492500", "190336.952500", "190337.412500", "190337.872500", "190338.332500", "190338.792500", "190339.252500", "190339.712500", "190340.172500", "190340.632500", "190341.092500", "190341.552500", "190342.012500", "190342.472500", "190342.932500", "190343.392500", "190343.852500", "190344.312500", "190344.772500", "190345.232500", "190345.692500", "190346.152500", "190346.612500", "190347.072500", "190347.532500", "190347.992500", "190348.452500", "190348.912500", "190349.372500", "190349.832500", "190350.292500", "190350.752500", "190351.212500", "190351.672500", "190352.132500", "190352.592500", "190353.052500", "190353.512500", "190353.972500", "190354.432500", "190354.892500", "190355.352500", "190355.812500", "190356.272500", "190356.732500", "190357.192500", "190357.652500", "190358.112500", "190358.572500", "190359.032500", "190359.492500", "190359.952500", "190400.412500", "190400.872500", "190401.332500", "190401.792500", "190402.252500", "190402.712500", "190403.172500", "190403.632500", "190404.092500", "190404.552500", "190405.012500", "190405.472500", "190405.932500", "190406.392500", "190406.852500", "190407.312500", "190407.772500", "190408.232500", "190408.692500", "190409.152500", "190409.612500", "190410.072500", "190410.532500", "190410.992500", "190411.452500", "190411.912500", "190412.372500", "190412.832500", "190413.292500", "190413.752500", "190414.212500", "190414.672500", "190415.132500", "190415.592500", "190416.052500", "190416.512500", "190416.972500", "190417.432500", "190417.892500", "190418.352500", "190418.812500", "190419.272500", "190419.732500", "190420.192500", "190420.652500", "190421.112500", "190421.572500", "190422.032500", "190422.492500", "190422.952500", "190423.412500", "190423.872500", "190424.332500", "190424.792500", "190425.252500", "190425.712500", "190426.172500", "190426.632500", "190427.092500", "190427.552500", "190428.012500", "190428.472500", "190428.932500", "190429.392500", "190429.852500", "190430.312500", "190430.772500", "190431.232500", "190431.692500", "190432.152500", "190432.612500", "190433.072500", "190433.532500", "190433.992500", "190434.452500", "190434.912500", "190435.372500", "190435.832500", "190436.292500", "190436.752500", "190437.212500", "190437.672500", "190438.132500", "190438.592500", "190439.052500", "190439.512500", "190439.972500", "190440.432500", "190440.892500", "190441.352500", "190441.812500", "190442.272500", "190442.732500", "190443.192500", "190443.652500", "190444.112500", "190444.572500", "190445.032500", "190445.492500", "190445.952500", "190446.412500", "190446.872500", "190447.332500", "190447.792500", "190448.252500", "190448.712500", "190449.172500", "190449.632500", "190450.092500", "190450.552500", "190451.012500", "190451.472500", "190451.932500", "190452.392500", "190452.852500", "190453.312500", "190453.772500", "190454.232500", "190454.692500", "190455.152500", "190455.612500", "190456.072500", "190456.532500", "190456.992500", "190457.452500", "190457.912500", "190458.372500", "190458.832500", "190459.292500", "190459.752500", "190500.212500", "190500.672500", "190501.132500", "190501.592500", "190502.052500", "190502.512500", "190502.972500", "190503.432500", "190503.892500", "190504.352500", "190504.812500", "190505.272500", "190505.732500", "190506.192500", "190506.652500", "190507.112500", "190507.572500", "190508.032500", "190508.492500", "190508.952500", "190509.412500", "190509.872500", "190510.332500", "190510.792500", "190511.252500", "190511.712500", "190512.172500", "190512.632500", "190513.092500", "190513.552500", "190514.012500", "190514.472500", "190514.932500", "190515.392500", "190515.852500", "190516.312500", "190516.772500", "190517.232500", "190517.692500", "190518.152500", "190518.612500", "190519.072500", "190519.532500", "190519.992500", "190520.452500", "190520.912500", "190521.372500", "190521.832500", "190522.292500", "190522.752500", "190523.212500", "190523.672500", "190524.132500", "190524.592500", "190525.052500", "190525.512500", "190525.972500", "190526.432500", "190526.892500", "190527.352500", "190527.812500", "190528.272500", "190528.732500", "190529.192500", "190529.652500", "190530.112500", "190530.572500", "190531.032500", "190531.492500", "190531.952500", "190532.412500", "190532.872500", "190533.332500", "190533.792500", "190534.252500", "190534.712500", "190535.172500", "190535.632500", "190536.092500", "190536.552500", "190537.012500", "190537.472500", "190537.932500", "190538.392500", "190538.852500", "190539.312500", "190539.772500", "190540.232500", "190540.692500", "190541.152500", "190541.612500", "190542.072500", "190542.532500", "190542.992500", "190543.452500", "190543.912500", "190544.372500", "190544.832500", "190545.292500", "190545.752500", "190546.212500", "190546.672500", "190547.132500", "190547.592500", "190548.052500", "190548.512500", "190548.972500", "190549.432500", "190549.892500", "190550.352500", "190550.812500", "190551.272500", "190551.732500", "190552.192500", "190552.652500", "190553.112500", "190553.572500", "190554.032500", "190554.492500", "190554.952500", "190555.412500", "190555.872500", "190556.332500", "190556.792500", "190557.252500", "190557.712500", "190558.172500", "190558.632500", "190559.092500", "190559.552500", "190600.012500", "190600.472500", "190600.932500", "190601.392500", "190601.852500", "190602.312500", "190602.772500", "190603.232500", "190603.692500", "190604.152500", "190604.612500", "190605.072500", "190605.532500", "190605.992500", "190606.452500", "190606.912500", "190607.372500", "190607.832500", "190608.292500", "190608.752500", "190609.212500", "190609.672500", "190610.132500", "190610.592500", "190611.052500", "190611.512500", "190611.972500", "190612.432500", "190612.892500", "190613.352500", "190613.812500", "190614.272500", "190614.732500", "190615.192500", "190615.652500", "190616.112500", "190616.572500", "190617.032500", "190617.492500", "190617.952500", "190618.412500", "190618.872500", "190619.332500", "190619.792500", "190620.252500", "190620.712500", "190621.172500", "190621.632500", "190622.092500", "190622.552500", "190623.012500", "190623.472500", "190623.932500", "190624.392500", "190624.852500", "190625.312500", "190625.772500", "190626.232500", "190626.692500", "190627.152500", "190627.612500", "190628.072500", "190628.532500", "190628.992500", "190629.452500", "190629.912500", "190630.372500", "190630.832500", "190631.292500", "190631.752500", "190632.212500", "190632.672500", "190633.132500", "190633.592500", "190634.052500", "190634.512500", "190634.972500", "190635.432500", "190635.892500", "190636.352500", "190636.812500", "190637.272500", "190637.732500", "190638.192500", "190638.652500", "190639.112500", "190639.572500", "190640.032500", "190640.492500", "190640.952500", "190641.412500", "190641.872500", "190642.332500", "190642.792500", "190643.252500", "190643.712500", "190644.172500", "190644.632500", "190645.092500", "190645.552500", "190646.012500", "190646.472500", "190646.932500", "190647.392500", "190647.852500", "190648.312500", "190648.772500", "190649.232500", "190649.692500", "190650.152500", "190650.612500", "190651.072500", "190651.532500", "190651.992500", "190652.452500", "190652.912500", "190653.372500", "190653.832500", "190654.292500", "190654.752500", "190655.212500", "190655.672500", "190656.132500", "190656.592500", "190657.052500", "190657.512500", "190657.972500", "190658.432500", "190658.892500", "190659.352500", "190659.812500", "190700.272500", "190700.732500", "190701.192500", "190701.652500", "190702.112500", "190702.572500", "190703.032500", "190703.492500", "190703.952500", "190704.412500", "190704.872500", "190705.332500", "190705.792500", "190706.252500", "190706.712500", "190707.172500", "190707.632500", "190708.092500", "190708.552500", "190709.012500", "190709.472500", "190709.932500", "190710.392500", "190710.852500", "190711.312500", "190711.772500", "190712.232500", "190712.692500", "190713.152500", "190713.612500", "190714.072500", "190714.532500", "190714.992500", "190715.452500", "190715.912500", "190716.372500", "190716.832500", "190717.292500", "190717.752500", "190718.212500", "190718.672500", "190719.132500", "190719.592500", "190720.052500", "190720.512500", "190720.972500", "190721.432500", "190721.892500", "190722.352500", "190722.812500", "190723.272500", "190723.732500", "190724.192500", "190724.652500", "190725.112500", "190725.572500", "190726.032500", "190726.492500", "190726.952500", "190727.412500", "190727.872500", "190728.332500", "190728.792500", "190729.252500", "190729.712500", "190730.172500", "190730.632500", "190731.092500", "190731.552500", "190732.012500", "190732.472500", "190732.932500", "190733.392500", "190733.852500", "190734.312500", "190734.772500", "190735.232500", "190735.692500", "190736.152500", "190736.612500", "190737.072500", "190737.532500", "190737.992500", "190738.452500", "190738.912500", "190739.372500", "190739.832500", "190740.292500", "190740.752500", "190741.212500", "190741.672500", "190742.132500", "190742.592500", "190743.052500", "190743.512500", "190743.972500", "190744.432500", "190744.892500", "190745.352500", "190745.812500", "190746.272500", "190746.732500", "190747.192500", "190747.652500", "190748.112500", "190748.572500", "190749.032500", "190749.492500", "190749.952500", "190750.412500", "190750.872500", "190751.332500", "190751.792500", "190752.252500", "190752.712500", "190753.172500", "190753.632500", "190754.092500", "190754.552500", "190755.012500", "190755.472500", "190755.932500", "190756.392500", "190756.852500", "190757.312500", "190757.772500", "190758.232500", "190758.692500", "190759.152500", "190759.612500", "190800.072500", "190800.532500", "190800.992500", "190801.452500", "190801.912500", "190802.372500", "190802.832500", "190803.292500", "190803.752500", "190804.212500", "190804.672500", "190805.132500", "190805.592500", "190806.052500", "190806.512500", "190806.972500", "190807.432500", "190807.892500", "190808.352500", "190808.812500", "190809.272500", "190809.732500", "190810.192500", "190810.652500", "190811.112500", "190811.572500", "190812.032500", "190812.492500", "190812.952500", "190813.412500", "190813.872500", "190814.332500", "190814.792500", "190815.252500", "190815.712500", "190816.172500", "190816.632500", "190817.092500", "190817.552500", "190818.012500", "190818.472500", "190818.932500", "190819.392500", "190819.852500", "190820.312500", "190820.772500", "190821.232500", "190821.692500", "190822.152500", "190822.612500", "190823.072500", "190823.532500", "190823.992500", "190824.452500", "190824.912500", "190825.372500", "190825.832500", "190826.292500", "190826.752500", "190827.212500", "190827.672500", "190828.132500", "190828.592500", "190829.052500", "190829.512500", "190829.972500", "190830.432500", "190830.892500", "190831.352500", "190831.812500", "190832.272500", "190832.732500", "190833.192500", "190833.652500", "190834.112500", "190834.572500", "190835.032500", "190835.492500", "190835.952500", "190836.412500", "190836.872500", "190837.332500", "190837.792500", "190838.252500", "190838.712500", "190839.172500", "190839.632500", "190840.092500", "190840.552500", "190841.012500", "190841.472500", "190841.932500", "190842.392500", "190842.852500", "190843.312500", "190843.772500", "190844.232500", "190844.692500", "190845.152500", "190845.612500", "190846.072500", "190846.532500", "190846.992500", "190847.452500", "190847.912500", "190848.372500", "190848.832500", "190849.292500", "190849.752500", "190850.212500", "190850.672500", "190851.132500", "190851.592500", "190852.052500", "190852.512500", "190852.972500", "190853.432500", "190853.892500", "190854.352500", "190854.812500", "190855.272500", "190855.732500", "190856.192500", "190856.652500", "190857.112500", "190857.572500", "190858.032500", "190858.492500", "190858.952500", "190859.412500", "190859.872500", "190900.332500", "190900.792500", "190901.252500", "190901.712500"],
