{
  "AcquisitionMatrixPE": 140,
  "AcquisitionNumber": 1,
  "AcquisitionTime": "15:04:42.110000",
  "BandwidthPerPixelPhaseEncode": 10.352,
  "BaseResolution": 140,
  "BodyPartExamined": "BRAIN",
  "ConsistencyInfo": "N4_VE11C_LATEST_20160120",
  "ConversionSoftware": "dcm2niix",
  "ConversionSoftwareVersion": "v1.0.20201102",
  "DerivedVendorReportedEchoSpacing": 0.000689998,
  "DeviceSerialNumber": "66112",
  "DiffusionScheme": "Monopolar",
  "DwellTime": 2.1e-06,
  "EchoTime": 0.0884,
  "EchoTrainLength": 105,
  "EffectiveEchoSpacing": 0.000689998,
  "FlipAngle": 90,
  "ImageComments": "Unaliased MB3/PE3 SENSE1",
  "ImageOrientationPatientDICOM": [0.999662, 0.0113954, 0.0233849, -0.0108178, 0.999637, -0.0246819],
  "ImageType": [
    "ORIGINAL",
    "PRIMARY",
    "DIFFUSION",
    "NONE",
    "MB",
    "ND",
    "MOSAIC"
],
  "ImagingFrequency": 123.252,
  "InPlanePhaseEncodingDirectionDICOM": "COL",
  "InstitutionAddress": "Maynard 3,Hanover,NH,US,03755",
  "InstitutionName": "Dartmouth College - PBS",
  "InstitutionalDepartmentName": "Department",
  "MRAcquisitionType": "2D",
  "MagneticFieldStrength": 3,
  "Manufacturer": "Siemens",
  "ManufacturersModelName": "Prisma",
  "Modality": "MR",
  "MultibandAccelerationFactor": 3,
  "PartialFourier": 0.75,
  "PatientPosition": "HFS",
  "PercentPhaseFOV": 100,
  "PercentSampling": 100,
  "PhaseEncodingDirection": "j-",
  "PhaseEncodingSteps": 105,
  "PhaseResolution": 1,
  "PixelBandwidth": 1700,
  "ProcedureStepDescription": "Wager_Wager^1076_spacetop",
  "ProtocolName": "dwi_acq-96dir-6b0-mb",
  "PulseSequenceDetails": "%CustomerSeq%\\cmrr_mbep2d_diff",
  "ReceiveCoilActiveElements": "HEA;HEP",
  "ReceiveCoilName": "Head_32",
  "ReconMatrixPE": 140,
  "RepetitionTime": 4.11,
  "SAR": 0.200873,
  "ScanOptions": "PFP\\FS",
  "ScanningSequence": "EP",
  "SequenceName": "ep_b5#1",
  "SequenceVariant": "SK\\SS",
  "SeriesDescription": "dwi_acq-96dir-6b0-mb",
  "SeriesNumber": 8,
  "ShimSetting": [4142, -7713, -7249, 790, 0, -134, 47, 61],
  "SliceThickness": 1.7,
  "SliceTiming": [0, 2.1225, 0.1525, 2.2725, 0.3025, 2.425, 0.455, 2.575, 0.6075, 2.7275, 0.7575, 2.8775, 0.91, 3.03, 1.06, 3.1825, 1.2125, 3.3325, 1.365, 3.485, 1.515, 3.635, 1.6675, 3.7875, 1.8175, 3.94, 1.97, 0, 2.1225, 0.1525, 2.2725, 0.3025, 2.425, 0.455, 2.575, 0.6075, 2.7275, 0.7575, 2.8775, 0.91, 3.03, 1.06, 3.1825, 1.2125, 3.3325, 1.365, 3.485, 1.515, 3.635, 1.6675, 3.7875, 1.8175, 3.94, 1.97, 0, 2.1225, 0.1525, 2.2725, 0.3025, 2.425, 0.455, 2.575, 0.6075, 2.7275, 0.7575, 2.8775, 0.91, 3.03, 1.06, 3.1825, 1.2125, 3.3325, 1.365, 3.485, 1.515, 3.635, 1.6675, 3.7875, 1.8175, 3.94, 1.97],
  "SoftwareVersions": "syngo MR E11",
  "SpacingBetweenSlices": 1.7,
  "StationName": "AWP66112",
  "TotalReadoutTime": 0.0959097,
  "TxRefAmp": 226.791,
  "WipMemBlock": "02e5c9ec-27f0-4754-b6fd-de056ef17274||Sequence: R016 ve11c/master r/e634e98; Dec 19 2017 11:11:25 by eja",
  "dcmmeta_affine": [
    [-1.7137055397033691, -0.018544772639870644, 0.040218107402324677, 125.56101989746094],
    [-0.01953504979610443, 1.713663101196289, -0.04151490703225136, -94.61592864990234],
    [0.0400884710252285, 0.04231175780296326, 1.69901704788208, -67.65116882324219],
    [0.0, 0.0, 0.0, 1.0]
],
  "dcmmeta_reorient_transform": [
    [0.0, -1.0, 0.0, 139.0],
    [1.0, 0.0, 0.0, 0.0],
    [0.0, 0.0, 1.0, 0.0],
    [0.0, 0.0, 0.0, 1.0]
],
  "dcmmeta_shape": [140, 140, 81, 103],
  "dcmmeta_slice_dim": 2,
  "dcmmeta_version": 0.6,
  "global": {
    "const": {
      "AccessionNumber": "A003468",
      "AcquisitionMatrix": [140, 0, 0, 140],
      "AngioFlag": "N",
      "BitsAllocated": 16,
      "BitsStored": 16,
      "BodyPartExamined": "BRAIN",
      "Columns": 1260,
      "EchoNumbers": 1,
      "EchoTime": 88.4,
      "EchoTrainLength": 105,
      "FlipAngle": 90.0,
      "HighBit": 15,
      "ImageOrientationPatient": [0.99966158688493, 0.01139544579196, 0.02338494220465, -0.0108177842812, 0.99963682474098, -0.0246818590266],
      "ImagePositionPatient": [-1072.2733527338, -1114.174235734, -60.524790633821],
      "ImageType": [
        "ORIGINAL",
        "PRIMARY",
        "DIFFUSION",
        "NONE",
        "MB",
        "ND",
        "MOSAIC"
],
      "ImagedNucleus": "1H",
      "ImagingFrequency": 123.252152,
      "InPlanePhaseEncodingDirection": "COL",
      "MRAcquisitionType": "2D",
      "MagneticFieldStrength": 3.0,
      "Manufacturer": "SIEMENS",
      "ManufacturerModelName": "Prisma",
      "Modality": "MR",
      "NumberOfAverages": 1.0,
      "NumberOfPhaseEncodingSteps": 105,
      "PercentPhaseFieldOfView": 100.0,
      "PercentSampling": 100.0,
      "PerformedProcedureStepStartTime": "142114.224000",
      "PhotometricInterpretation": "MONOCHROME2",
      "PixelBandwidth": 1700.0,
      "PixelRepresentation": 0,
      "PixelSpacing": [1.7142857313156, 1.7142857313156],
      "ProtocolName": "dwi_acq-96dir-6b0-mb",
      "RepetitionTime": 4110.0,
      "Rows": 1260,
      "SAR": 0.2008733482365,
      "SamplesPerPixel": 1,
      "ScanOptions": [
        "PFP",
        "FS"
],
      "ScanningSequence": "EP",
      "SequenceVariant": [
        "SK",
        "SS"
],
      "SeriesDescription": "dwi_acq-96dir-6b0-mb",
      "SeriesNumber": 8,
      "SeriesTime": "150509.317000",
      "SliceLocation": -62.330992299001,
      "SliceThickness": 1.7000000476837,
      "SmallestImagePixelValue": 0,
      "SoftwareVersions": "syngo MR E11",
      "SpacingBetweenSlices": 1.6999999746936,
      "SpecificCharacterSet": "ISO_IR 100",
      "StudyID": "1",
      "StudyTime": "142114.141000",
      "TransmitCoilName": "Body",
      "VariableFlipAngleFlag": "N",
      "WindowCenterWidthExplanation": "Algo1",
      "dBdt": 0.0},
    "slices": {}
  },
  "time": {
    "samples": {
      "AcquisitionNumber": [1, 2, 3, 4, 5, 6, 7, 8, 9, 10, 11, 12, 13, 14, 15, 16, 17, 18, 19, 20, 21, 22, 23, 24, 25, 26, 27, 28, 29, 30, 31, 32, 33, 34, 35, 36, 37, 38, 39, 40, 41, 42, 43, 44, 45, 46, 47, 48, 49, 50, 51, 52, 53, 54, 55, 56, 57, 58, 59, 60, 61, 62, 63, 64, 65, 66, 67, 68, 69, 70, 71, 72, 73, 74, 75, 76, 77, 78, 79, 80, 81, 82, 83, 84, 85, 86, 87, 88, 89, 90, 91, 92, 93, 94, 95, 96, 97, 98, 99, 100, 101, 102, 103],
      "AcquisitionTime": ["150442.110000", "150446.220000", "150450.330000", "150454.440000", "150458.550000", "150502.660000", "150506.770000", "150510.880000", "150514.990000", "150519.100000", "150523.210000", "150527.320000", "150531.430000", "150535.540000", "150539.650000", "150543.760000", "150547.870000", "150551.980000", "150556.090000", "150600.200000", "150604.310000", "150608.420000", "150612.530000", "150616.640000", "150620.750000", "150624.860000", "150628.970000", "150633.080000", "150637.190000", "150641.300000", "150645.410000", "150649.520000", "150653.630000", "150657.740000", "150701.850000", "150705.960000", "150710.070000", "150714.180000", "150718.290000", "150722.400000", "150726.510000", "150730.620000", "150734.730000", "150738.840000", "150742.950000", "150747.060000", "150751.170000", "150755.280000", "150759.390000", "150803.500000", "150807.610000", "150811.720000", "150815.830000", "150819.940000", "150824.050000", "150828.160000", "150832.270000", "150836.380000", "150840.490000", "150844.600000", "150848.710000", "150852.820000", "150856.930000", "150901.040000", "150905.150000", "150909.260000", "150913.370000", "150917.480000", "150921.590000", "150925.700000", "150929.810000", "150933.920000", "150938.030000", "150942.140000", "150946.250000", "150950.360000", "150954.470000", "150958.580000", "151002.690000", "151006.800000", "151010.910000", "151015.020000", "151019.130000", "151023.240000", "151027.350000", "151031.460000", "151035.570000", "151039.680000", "151043.790000", "151047.900000", "151052.010000", "151056.120000", "151100.230000", "151104.340000", "151108.450000", "151112.560000", "151116.670000", "151120.780000", "151124.890000", "151129.000000", "151133.110000", "151137.220000", "151141.330000"],
      "ContentTime": ["150509.321000", "150509.329000", "150509.333000", "150509.336000", "150509.339000", "150509.342000", "150629.317000", "150629.321000", "150629.324000", "150629.327000", "150629.331000", "150629.334000", "150629.337000", "150629.341000", "150629.344000", "150629.347000", "150629.350000", "150629.354000", "150629.358000", "150629.361000", "150629.364000", "150629.368000", "150629.371000", "150629.375000", "150629.378000", "150629.393000", "150809.317000", "150809.321000", "150809.324000", "150809.327000", "150809.331000", "150809.334000", "150809.337000", "150809.341000", "150809.344000", "150809.347000", "150809.350000", "150809.354000", "150809.357000", "150809.360000", "150809.364000", "150809.367000", "150809.370000", "150809.374000", "150809.377000", "150809.380000", "150809.383000", "150809.387000", "150809.390000", "150809.393000", "150949.316000", "150949.320000", "150949.323000", "150949.326000", "150949.330000", "150949.333000", "150949.336000", "150949.340000", "150949.343000", "150949.346000", "150949.349000", "150949.353000", "150949.356000", "150949.359000", "150949.363000", "150949.366000", "150949.376000", "150949.380000", "150949.383000", "150949.386000", "150949.389000", "150949.393000", "150949.396000", "150949.399000", "151109.317000", "151109.321000", "151109.324000", "151109.328000", "151109.331000", "151109.334000", "151109.337000", "151109.341000", "151109.344000", "151109.347000", "151109.351000", "151109.357000", "151109.360000", "151109.363000", "151109.366000", "151109.370000", "151109.373000", "151109.376000", "151109.380000", "151109.383000", "151145.619000", "151145.623000", "151145.627000", "151145.630000", "151145.634000", "151145.637000", "151145.641000", "151145.644000", "151145.647000"],
      "InstanceCreationTime": ["150509.321000", "150509.329000", "150509.333000", "150509.336000", "150509.339000", "150509.342000", "150629.317000", "150629.321000", "150629.324000", "150629.327000", "150629.331000", "150629.334000", "150629.337000", "150629.341000", "150629.344000", "150629.347000", "150629.350000", "150629.354000", "150629.358000", "150629.361000", "150629.364000", "150629.368000", "150629.371000", "150629.375000", "150629.378000", "150629.393000", "150809.317000", "150809.321000", "150809.324000", "150809.327000", "150809.331000", "150809.334000", "150809.337000", "150809.341000", "150809.344000", "150809.347000", "150809.350000", "150809.354000", "150809.357000", "150809.360000", "150809.364000", "150809.367000", "150809.370000", "150809.374000", "150809.377000", "150809.380000", "150809.383000", "150809.387000", "150809.390000", "150809.393000", "150949.316000", "150949.320000", "150949.323000", "150949.326000", "150949.330000", "150949.333000", "150949.336000", "150949.340000", "150949.343000", "150949.346000", "150949.349000", "150949.353000", "150949.356000", "150949.359000", "150949.363000", "150949.366000", "150949.376000", "150949.380000", "150949.383000", "150949.386000", "150949.389000", "150949.393000", "150949.396000", "150949.399000", "151109.317000", "151109.321000", "151109.324000", "151109.328000", "151109.331000", "151109.334000", "151109.337000", "151109.341000", "151109.344000", "151109.347000", "151109.351000", "151109.357000", "151109.360000", "151109.363000", "151109.366000", "151109.370000", "151109.373000", "151109.376000", "151109.380000", "151109.383000", "151145.619000", "151145.623000", "151145.627000", "151145.630000", "151145.634000", "151145.637000", "151145.641000", "151145.644000", "151145.647000"],
      "InstanceNumber": [1, 2, 3, 4, 5, 6, 7, 8, 9, 10, 11, 12, 13, 14, 15, 16, 17, 18, 19, 20, 21, 22, 23, 24, 25, 26, 27, 28, 29, 30, 31, 32, 33, 34, 35, 36, 37, 38, 39, 40, 41, 42, 43, 44, 45, 46, 47, 48, 49, 50, 51, 52, 53, 54, 55, 56, 57, 58, 59, 60, 61, 62, 63, 64, 65, 66, 67, 68, 69, 70, 71, 72, 73, 74, 75, 76, 77, 78, 79, 80, 81, 82, 83, 84, 85, 86, 87, 88, 89, 90, 91, 92, 93, 94, 95, 96, 97, 98, 99, 100, 101, 102, 103],
      "LargestImagePixelValue": [65535, 65535, 38481, 40851, 39298, 40178, 38315, 40460, 65535, 26663, 28779, 28464, 27726, 30187, 26245, 26670, 28412, 26529, 27325, 26574, 28215, 27053, 27493, 28713, 65535, 14773, 15792, 15791, 16006, 15632, 16547, 15368, 15042, 14546, 15989, 16386, 15037, 13360, 14298, 13655, 65535, 10677, 8720, 9776, 11330, 9476, 9976, 10390, 9486, 9297, 12005, 10531, 9605, 9540, 9779, 8815, 10178, 8542, 10470, 11040, 8373, 10329, 9932, 9958, 9254, 9463, 8884, 8840, 10607, 9293, 9197, 9440, 9536, 65535, 11160, 9248, 11680, 8955, 11113, 8865, 9333, 9925, 9812, 9889, 9837, 9073, 9953, 13155, 12169, 13748, 9714, 9760, 8666, 9780, 9150, 10475, 9103, 8189, 11711, 8571, 9640, 9092, 65535],
      "SequenceName": [
 "ep_b5#1",
 "ep_b5#1",
 "ep_b500#2",
 "ep_b495#3",
 "ep_b500#4",
 "ep_b505#5",
 "ep_b495#6",
 "ep_b500#7",
 "ep_b5#8",
 "ep_b1000#9",
 "ep_b1005#10",
 "ep_b995#11",
 "ep_b1005#12",
 "ep_b995#13",
 "ep_b995#14",
 "ep_b1005#15",
 "ep_b1000#16",
 "ep_b1005#17",
 "ep_b1000#18",
 "ep_b1000#19",
 "ep_b995#20",
 "ep_b1000#21",
 "ep_b1005#22",
 "ep_b1005#23",
 "ep_b5#24",
 "ep_b2000#25",
 "ep_b1995#26",
 "ep_b1990#27",
 "ep_b2000#28",
 "ep_b2005#29",
 "ep_b2010#30",
 "ep_b2000#31",
 "ep_b2010#32",
 "ep_b2000#33",
 "ep_b1995#34",
 "ep_b1995#35",
 "ep_b2005#36",
 "ep_b1995#37",
 "ep_b2005#38",
 "ep_b1995#39",
 "ep_b5#40",
 "ep_b3000#41",
 "ep_b3005#42",
 "ep_b3010#43",
 "ep_b3010#44",
 "ep_b3000#45",
 "ep_b3000#46",
 "ep_b2990#47",
 "ep_b3005#48",
 "ep_b3005#49",
 "ep_b2990#50",
 "ep_b2990#51",
 "ep_b2995#52",
 "ep_b2995#53",
 "ep_b3005#54",
 "ep_b3000#55",
 "ep_b2995#56",
 "ep_b2995#57",
 "ep_b2990#58",
 "ep_b2990#59",
 "ep_b3000#60",
 "ep_b2990#61",
 "ep_b2990#62",
 "ep_b3000#63",
 "ep_b3000#64",
 "ep_b3010#65",
 "ep_b3000#66",
 "ep_b3005#67",
 "ep_b3010#68",
 "ep_b3005#69",
 "ep_b3005#70",
 "ep_b3005#71",
 "ep_b2990#72",
 "ep_b5#73",
 "ep_b3010#74",
 "ep_b3005#75",
 "ep_b3005#76",
 "ep_b3000#77",
 "ep_b2990#78",
 "ep_b3005#79",
 "ep_b2995#80",
 "ep_b3010#81",
 "ep_b3005#82",
 "ep_b3005#83",
 "ep_b3000#84",
 "ep_b3000#85",
 "ep_b3010#86",
 "ep_b3010#87",
 "ep_b2990#88",
 "ep_b3010#89",
 "ep_b2995#90",
 "ep_b2995#91",
 "ep_b2990#92",
 "ep_b2995#93",
 "ep_b3005#94",
 "ep_b3005#95",
 "ep_b2995#96",
 "ep_b3000#97",
 "ep_b2990#98",
 "ep_b2995#99",
 "ep_b2995#100",
 "ep_b2995#101",
 "ep_b5#102"
],
      "WindowCenter": [10460.0, 10459.0, 7318.0, 7330.0, 7309.0, 7279.0, 7373.0, 7353.0, 10467.0, 5572.0, 5575.0, 5566.0, 5532.0, 5572.0, 5578.0, 5552.0, 5599.0, 5524.0, 5612.0, 5531.0, 5632.0, 5540.0, 5572.0, 5570.0, 10492.0, 3605.0, 3586.0, 3586.0, 3654.0, 3614.0, 3627.0, 3611.0, 3562.0, 3610.0, 3680.0, 3668.0, 3562.0, 3520.0, 3605.0, 3523.0, 10511.0, 2601.0, 2449.0, 2593.0, 2619.0, 2534.0, 2550.0, 2625.0, 2483.0, 2528.0, 2581.0, 2590.0, 2583.0, 2600.0, 2595.0, 2511.0, 2593.0, 2458.0, 2640.0, 2619.0, 2458.0, 2585.0, 2616.0, 2574.0, 2518.0, 2592.0, 2496.0, 2494.0, 2600.0, 2557.0, 2544.0, 2575.0, 2618.0, 10491.0, 2618.0, 2500.0, 2543.0, 2509.0, 2543.0, 2476.0, 2506.0, 2539.0, 2572.0, 2546.0, 2577.0, 2544.0, 2508.0, 2590.0, 2629.0, 2635.0, 2595.0, 2506.0, 2483.0, 2590.0, 2522.0, 2603.0, 2552.0, 2441.0, 2645.0, 2467.0, 2554.0, 2574.0, 10498.0],
      "WindowWidth": [23573.0, 23580.0, 15490.0, 15506.0, 15465.0, 15424.0, 15620.0, 15564.0, 23602.0, 11953.0, 11973.0, 11937.0, 11883.0, 11960.0, 11981.0, 11929.0, 12001.0, 11867.0, 12027.0, 11865.0, 12074.0, 11883.0, 11963.0, 11935.0, 23688.0, 8156.0, 8107.0, 8099.0, 8229.0, 8163.0, 8183.0, 8155.0, 8066.0, 8158.0, 8299.0, 8266.0, 8068.0, 7983.0, 8155.0, 7994.0, 23735.0, 6217.0, 5913.0, 6207.0, 6217.0, 6093.0, 6102.0, 6246.0, 5968.0, 6094.0, 6115.0, 6155.0, 6211.0, 6249.0, 6220.0, 6059.0, 6215.0, 5923.0, 6279.0, 6213.0, 5954.0, 6168.0, 6246.0, 6171.0, 6056.0, 6210.0, 6020.0, 6017.0, 6209.0, 6159.0, 6136.0, 6172.0, 6246.0, 23669.0, 6214.0, 6011.0, 6062.0, 6049.0, 6053.0, 5971.0, 6029.0, 6067.0, 6151.0, 6112.0, 6181.0, 6137.0, 6000.0, 6131.0, 6233.0, 6222.0, 6221.0, 5992.0, 5987.0, 6202.0, 6069.0, 6226.0, 6139.0, 5912.0, 6270.0, 5960.0, 6141.0, 6202.0, 23678.0]
    },
    "slices": {}
  }
}