{
  "AcquisitionMatrixPE": 140,
  "AcquisitionNumber": 1,
  "AcquisitionTime": "12:32:46.027500",
  "BandwidthPerPixelPhaseEncode": 10.352,
  "BaseResolution": 140,
  "BodyPartExamined": "BRAIN",
  "ConsistencyInfo": "N4_VE11C_LATEST_20160120",
  "ConversionSoftware": "dcm2niix",
  "ConversionSoftwareVersion": "v1.0.20201102",
  "DerivedVendorReportedEchoSpacing": 0.000689998,
  "DeviceSerialNumber": "66112",
  "DiffusionScheme": "Monopolar",
  "DwellTime": 2.1e-06,
  "EchoTime": 0.088,
  "EchoTrainLength": 105,
  "EffectiveEchoSpacing": 0.000689998,
  "FlipAngle": 90,
  "ImageComments": "Unaliased MB3/PE3",
  "ImageOrientationPatientDICOM": [0.997179, -0.0750632, -0.000338497, 0.0735783, 0.978326, -0.19356],
  "ImageType": [
    "ORIGINAL",
    "PRIMARY",
    "DIFFUSION",
    "NONE",
    "MB",
    "ND"
],
  "ImagingFrequency": 123.252,
  "InPlanePhaseEncodingDirectionDICOM": "COL",
  "InstitutionAddress": "Maynard 3,Hanover,NH,US,03755",
  "InstitutionName": "dartmouth_brain_imaging_center",
  "InstitutionalDepartmentName": "Department",
  "IntendedFor": [
    "ses-01/dwi/sub-0017_ses-01_acq-96dirX6b0Xmb_dwi.nii.gz"
],
  "MRAcquisitionType": "2D",
  "MagneticFieldStrength": 3,
  "Manufacturer": "Siemens",
  "ManufacturersModelName": "Prisma",
  "Modality": "MR",
  "MultibandAccelerationFactor": 3,
  "PartialFourier": 0.75,
  "PatientPosition": "HFS",
  "PercentPhaseFOV": 100,
  "PercentSampling": 100,
  "PhaseEncodingDirection": "j-",
  "PhaseEncodingSteps": 105,
  "PhaseResolution": 1,
  "PixelBandwidth": 1700,
  "ProcedureStepDescription": "Wager_Wager^1076_spacetop",
  "ProtocolName": "dwi_acq-discorr-AP",
  "PulseSequenceDetails": "%CustomerSeq%\\cmrr_mbep2d_diff",
  "ReceiveCoilActiveElements": "HEA;HEP",
  "ReceiveCoilName": "Head_32",
  "ReconMatrixPE": 140,
  "RepetitionTime": 4.1,
  "SAR": 0.159575,
  "ScanOptions": "PFP\\FS",
  "ScanningSequence": "EP",
  "SequenceName": "ep_b0",
  "SequenceVariant": "SK\\SS",
  "SeriesDescription": "dwi_acq-discorr-AP",
  "SeriesNumber": 7,
  "ShimSetting": [4170, -7709, -7242, 572, 27, -139, -32, 91],
  "SliceThickness": 1.7,
  "SliceTiming": [0, 2.11719, 0.14844, 2.26562, 0.29688, 2.41406, 0.45312, 2.5625, 0.60156, 2.71875, 0.75, 2.86719, 0.90625, 3.01562, 1.05469, 3.17188, 1.20312, 3.32031, 1.35938, 3.47656, 1.50781, 3.625, 1.65625, 3.77344, 1.8125, 3.92969, 1.96094, 0, 2.11719, 0.14844, 2.26562, 0.29688, 2.41406, 0.45312, 2.5625, 0.60156, 2.71875, 0.75, 2.86719, 0.90625, 3.01562, 1.05469, 3.17188, 1.20312, 3.32031, 1.35938, 3.47656, 1.50781, 3.625, 1.65625, 3.77344, 1.8125, 3.92969, 1.96094, 0, 2.11719, 0.14844, 2.26562, 0.29688, 2.41406, 0.45312, 2.5625, 0.60156, 2.71875, 0.75, 2.86719, 0.90625, 3.01562, 1.05469, 3.17188, 1.20312, 3.32031, 1.35938, 3.47656, 1.50781, 3.625, 1.65625, 3.77344, 1.8125, 3.92969, 1.96094],
  "SoftwareVersions": "syngo MR E11",
  "SpacingBetweenSlices": 1.7,
  "StationName": "AWP66112",
  "TotalReadoutTime": 0.0959097,
  "TxRefAmp": 260.928,
  "WipMemBlock": "3340f0c7-7fe3-42bb-b8aa-48f49ece459e||Sequence: R016 ve11c/master r/e634e98; Dec 19 2017 11:11:25 by eja",
  "dcmmeta_affine": [
    [-1.709449291229248, 0.12613418698310852, -0.025262653827667236, 112.3782730102539],
    [0.12867970764636993, 1.6771295070648193, -0.3280811309814453, -79.21761322021484],
    [-0.0005802800878882408, 0.3318166136741638, 1.6678543090820312, -85.57510375976562],
    [0.0, 0.0, 0.0, 1.0]
],
  "dcmmeta_reorient_transform": [
    [0.0, -1.0, 0.0, 139.0],
    [1.0, 0.0, 0.0, 0.0],
    [0.0, 0.0, -1.0, 80.0],
    [0.0, 0.0, 0.0, 1.0]
],
  "dcmmeta_shape": [140, 140, 81],
  "dcmmeta_slice_dim": 2,
  "dcmmeta_version": 0.6,
  "global": {
    "const": {
      "AccessionNumber": "A003498",
      "AcquisitionMatrix": [140, 0, 0, 140],
      "AcquisitionNumber": 1,
      "AngioFlag": "N",
      "BitsAllocated": 16,
      "BitsStored": 16,
      "BodyPartExamined": "BRAIN",
      "Columns": 140,
      "EchoNumbers": 1,
      "EchoTime": 88.0,
      "EchoTrainLength": 105,
      "FlipAngle": 90.0,
      "HighBit": 15,
      "ImageOrientationPatient": [0.99717872363084, -0.0750631637885, -0.0003384967139, 0.07357827633315, 0.97832555004364, -0.1935596946259],
      "ImageType": [
        "ORIGINAL",
        "PRIMARY",
        "DIFFUSION",
        "NONE",
        "MB",
        "ND"
],
      "ImagedNucleus": "1H",
      "ImagingFrequency": 123.252137,
      "InPlanePhaseEncodingDirection": "COL",
      "MRAcquisitionType": "2D",
      "MagneticFieldStrength": 3.0,
      "Manufacturer": "SIEMENS",
      "ManufacturerModelName": "Prisma",
      "Modality": "MR",
      "NumberOfAverages": 1.0,
      "NumberOfPhaseEncodingSteps": 105,
      "PercentPhaseFieldOfView": 100.0,
      "PercentSampling": 100.0,
      "PerformedProcedureStepStartTime": "121214.183000",
      "PhotometricInterpretation": "MONOCHROME2",
      "PixelBandwidth": 1700.0,
      "PixelRepresentation": 0,
      "PixelSpacing": [1.7142857313156, 1.7142857313156],
      "ProtocolName": "dwi_acq-discorr-AP",
      "RepetitionTime": 4100.0,
      "Rows": 140,
      "SAR": 0.15957517849109,
      "SamplesPerPixel": 1,
      "ScanOptions": [
        "PFP",
        "FS"
],
      "ScanningSequence": "EP",
      "SequenceName": "ep_b0",
      "SequenceVariant": [
        "SK",
        "SS"
],
      "SeriesDescription": "dwi_acq-discorr-AP",
      "SeriesNumber": 7,
      "SeriesTime": "123250.211000",
      "SliceThickness": 1.7000000476837,
      "SmallestImagePixelValue": 0,
      "SoftwareVersions": "syngo MR E11",
      "SpacingBetweenSlices": 1.7,
      "SpecificCharacterSet": "ISO_IR 100",
      "StudyID": "1",
      "StudyTime": "121214.003000",
      "TransmitCoilName": "Body",
      "VariableFlipAngleFlag": "N",
      "WindowCenterWidthExplanation": "Algo1",
      "dBdt": 0.0},
    "slices": {
      "AcquisitionTime": ["123246.027500", "123248.145000", "123246.180000", "123248.295000", "123246.330000", "123248.447500", "123246.482500", "123248.597500", "123246.632500", "123248.747500", "123246.785000", "123248.900000", "123246.935000", "123249.050000", "123247.087500", "123249.202500", "123247.237500", "123249.352500", "123247.387500", "123249.505000", "123247.540000", "123249.655000", "123247.690000", "123249.807500", "123247.842500", "123249.957500", "123247.992500", "123246.027500", "123248.145000", "123246.180000", "123248.295000", "123246.330000", "123248.447500", "123246.482500", "123248.597500", "123246.632500", "123248.747500", "123246.785000", "123248.900000", "123246.935000", "123249.050000", "123247.087500", "123249.202500", "123247.237500", "123249.352500", "123247.387500", "123249.505000", "123247.540000", "123249.655000", "123247.690000", "123249.807500", "123247.842500", "123249.957500", "123247.992500", "123246.027500", "123248.145000", "123246.180000", "123248.295000", "123246.330000", "123248.447500", "123246.482500", "123248.597500", "123246.632500", "123248.747500", "123246.785000", "123248.900000", "123246.935000", "123249.050000", "123247.087500", "123249.202500", "123247.237500", "123249.352500", "123247.387500", "123249.505000", "123247.540000", "123249.655000", "123247.690000", "123249.807500", "123247.842500", "123249.957500", "123247.992500"],
      "ContentTime": ["123250.214000", "123250.316000", "123250.223000", "123250.323000", "123250.230000", "123250.329000", "123250.237000", "123250.336000", "123250.243000", "123250.342000", "123250.250000", "123250.349000", "123250.257000", "123250.355000", "123250.263000", "123250.361000", "123250.275000", "123250.368000", "123250.282000", "123250.374000", "123250.288000", "123250.382000", "123250.297000", "123250.388000", "123250.303000", "123250.395000", "123250.310000", "123250.218000", "123250.318000", "123250.226000", "123250.325000", "123250.233000", "123250.331000", "123250.239000", "123250.338000", "123250.246000", "123250.344000", "123250.252000", "123250.351000", "123250.259000", "123250.357000", "123250.271000", "123250.364000", "123250.277000", "123250.370000", "123250.284000", "123250.377000", "123250.290000", "123250.384000", "123250.299000", "123250.391000", "123250.306000", "123250.398000", "123250.312000", "123250.220000", "123250.321000", "123250.228000", "123250.327000", "123250.235000", "123250.333000", "123250.241000", "123250.340000", "123250.248000", "123250.346000", "123250.254000", "123250.353000", "123250.261000", "123250.359000", "123250.273000", "123250.366000", "123250.279000", "123250.372000", "123250.286000", "123250.379000", "123250.295000", "123250.386000", "123250.301000", "123250.393000", "123250.308000", "123250.400000", "123250.314000"],
      "CsaImage.ICE_Dims": [
        "X_1_1_1_1_1_1_1_1_1_1_1_25",
        "X_1_1_1_1_1_1_42_1_1_2_1_25",
        "X_1_1_1_1_1_1_2_1_1_3_1_25",
        "X_1_1_1_1_1_1_43_1_1_4_1_25",
        "X_1_1_1_1_1_1_3_1_1_5_1_25",
        "X_1_1_1_1_1_1_44_1_1_6_1_25",
        "X_1_1_1_1_1_1_4_1_1_7_1_25",
        "X_1_1_1_1_1_1_45_1_1_8_1_25",
        "X_1_1_1_1_1_1_5_1_1_9_1_25",
        "X_1_1_1_1_1_1_46_1_1_10_1_25",
        "X_1_1_1_1_1_1_6_1_1_11_1_25",
        "X_1_1_1_1_1_1_47_1_1_12_1_25",
        "X_1_1_1_1_1_1_7_1_1_13_1_25",
        "X_1_1_1_1_1_1_48_1_1_14_1_25",
        "X_1_1_1_1_1_1_8_1_1_15_1_25",
        "X_1_1_1_1_1_1_49_1_1_16_1_25",
        "X_1_1_1_1_1_1_9_1_1_17_1_25",
        "X_1_1_1_1_1_1_50_1_1_18_1_25",
        "X_1_1_1_1_1_1_10_1_1_19_1_25",
        "X_1_1_1_1_1_1_51_1_1_20_1_25",
        "X_1_1_1_1_1_1_11_1_1_21_1_25",
        "X_1_1_1_1_1_1_52_1_1_22_1_25",
        "X_1_1_1_1_1_1_12_1_1_23_1_25",
        "X_1_1_1_1_1_1_53_1_1_24_1_25",
        "X_1_1_1_1_1_1_13_1_1_25_1_25",
        "X_1_1_1_1_1_1_54_1_1_26_1_25",
        "X_1_1_1_1_1_1_14_1_1_27_1_25",
        "X_1_1_1_1_1_1_55_1_1_28_1_25",
        "X_1_1_1_1_1_1_15_1_1_29_1_25",
        "X_1_1_1_1_1_1_56_1_1_30_1_25",
        "X_1_1_1_1_1_1_16_1_1_31_1_25",
        "X_1_1_1_1_1_1_57_1_1_32_1_25",
        "X_1_1_1_1_1_1_17_1_1_33_1_25",
        "X_1_1_1_1_1_1_58_1_1_34_1_25",
        "X_1_1_1_1_1_1_18_1_1_35_1_25",
        "X_1_1_1_1_1_1_59_1_1_36_1_25",
        "X_1_1_1_1_1_1_19_1_1_37_1_25",
        "X_1_1_1_1_1_1_60_1_1_38_1_25",
        "X_1_1_1_1_1_1_20_1_1_39_1_25",
        "X_1_1_1_1_1_1_61_1_1_40_1_25",
        "X_1_1_1_1_1_1_21_1_1_41_1_25",
        "X_1_1_1_1_1_1_62_1_1_42_1_25",
        "X_1_1_1_1_1_1_22_1_1_43_1_25",
        "X_1_1_1_1_1_1_63_1_1_44_1_25",
        "X_1_1_1_1_1_1_23_1_1_45_1_25",
        "X_1_1_1_1_1_1_64_1_1_46_1_25",
        "X_1_1_1_1_1_1_24_1_1_47_1_25",
        "X_1_1_1_1_1_1_65_1_1_48_1_25",
        "X_1_1_1_1_1_1_25_1_1_49_1_25",
        "X_1_1_1_1_1_1_66_1_1_50_1_25",
        "X_1_1_1_1_1_1_26_1_1_51_1_25",
        "X_1_1_1_1_1_1_67_1_1_52_1_25",
        "X_1_1_1_1_1_1_27_1_1_53_1_25",
        "X_1_1_1_1_1_1_68_1_1_54_1_25",
        "X_1_1_1_1_1_1_28_1_1_55_1_25",
        "X_1_1_1_1_1_1_69_1_1_56_1_25",
        "X_1_1_1_1_1_1_29_1_1_57_1_25",
        "X_1_1_1_1_1_1_70_1_1_58_1_25",
        "X_1_1_1_1_1_1_30_1_1_59_1_25",
        "X_1_1_1_1_1_1_71_1_1_60_1_25",
        "X_1_1_1_1_1_1_31_1_1_61_1_25",
        "X_1_1_1_1_1_1_72_1_1_62_1_25",
        "X_1_1_1_1_1_1_32_1_1_63_1_25",
        "X_1_1_1_1_1_1_73_1_1_64_1_25",
        "X_1_1_1_1_1_1_33_1_1_65_1_25",
        "X_1_1_1_1_1_1_74_1_1_66_1_25",
        "X_1_1_1_1_1_1_34_1_1_67_1_25",
        "X_1_1_1_1_1_1_75_1_1_68_1_25",
        "X_1_1_1_1_1_1_35_1_1_69_1_25",
        "X_1_1_1_1_1_1_76_1_1_70_1_25",
        "X_1_1_1_1_1_1_36_1_1_71_1_25",
        "X_1_1_1_1_1_1_77_1_1_72_1_25",
        "X_1_1_1_1_1_1_37_1_1_73_1_25",
        "X_1_1_1_1_1_1_78_1_1_74_1_25",
        "X_1_1_1_1_1_1_38_1_1_75_1_25",
        "X_1_1_1_1_1_1_79_1_1_76_1_25",
        "X_1_1_1_1_1_1_39_1_1_77_1_25",
        "X_1_1_1_1_1_1_80_1_1_78_1_25",
        "X_1_1_1_1_1_1_40_1_1_79_1_25",
        "X_1_1_1_1_1_1_81_1_1_80_1_25",
        "X_1_1_1_1_1_1_41_1_1_81_1_25"
],
      "CsaImage.ProtocolSliceNumber": [0, 1, 2, 3, 4, 5, 6, 7, 8, 9, 10, 11, 12, 13, 14, 15, 16, 17, 18, 19, 20, 21, 22, 23, 24, 25, 26, 27, 28, 29, 30, 31, 32, 33, 34, 35, 36, 37, 38, 39, 40, 41, 42, 43, 44, 45, 46, 47, 48, 49, 50, 51, 52, 53, 54, 55, 56, 57, 58, 59, 60, 61, 62, 63, 64, 65, 66, 67, 68, 69, 70, 71, 72, 73, 74, 75, 76, 77, 78, 79, 80],
      "CsaImage.RFSWDDataType": [
        "predicted",
        "predicted",
        "predicted",
        "predicted",
        "predicted",
        "predicted",
        "predicted",
        "predicted",
        "predicted",
        "predicted",
        "predicted",
        "predicted",
        "predicted",
        "predicted",
        "predicted",
        "predicted",
        "predicted",
        "predicted",
        "predicted",
        "predicted",
        "predicted",
        "predicted",
        "predicted",
        "predicted",
        "predicted",
        "measured",
        "predicted",
        "predicted",
        "predicted",
        "predicted",
        "predicted",
        "predicted",
        "predicted",
        "predicted",
        "predicted",
        "predicted",
        "predicted",
        "predicted",
        "predicted",
        "predicted",
        "predicted",
        "predicted",
        "predicted",
        "predicted",
        "predicted",
        "predicted",
        "predicted",
        "predicted",
        "predicted",
        "predicted",
        "predicted",
        "predicted",
        "measured",
        "predicted",
        "predicted",
        "predicted",
        "predicted",
        "predicted",
        "predicted",
        "predicted",
        "predicted",
        "predicted",
        "predicted",
        "predicted",
        "predicted",
        "predicted",
        "predicted",
        "predicted",
        "predicted",
        "predicted",
        "predicted",
        "predicted",
        "predicted",
        "predicted",
        "predicted",
        "predicted",
        "predicted",
        "predicted",
        "predicted",
        "measured",
        "predicted"
],
      "CsaImage.SlicePosition_PCS": [
        [-129.91092015, -153.90336258, -39.45227525],
        [-129.88565755, -153.57528336, -37.78442475],
        [-129.86039496, -153.24720032, -36.11657808],
        [-129.83513236, -152.91912109, -34.44872758],
        [-129.80986977, -152.59104187, -32.78087709],
        [-129.78460706, -152.26295883, -31.11302659],
        [-129.75934446, -151.93487961, -29.4451761],
        [-129.73408187, -151.60679657, -27.7773256],
        [-129.70881927, -151.27871735, -26.10947511],
        [-129.68355668, -150.95063812, -24.44162461],
        [-129.65829397, -150.62255508, -22.77377412],
        [-129.63303137, -150.29447586, -21.10592363],
        [-129.60776878, -149.96639282, -19.43807313],
        [-129.58250618, -149.6383136, -17.77022264],
        [-129.55724359, -149.31023056, -16.10237214],
        [-129.53198087, -148.98215134, -14.43452165],
        [-129.50671828, -148.65407211, -12.76667115],
        [-129.48145569, -148.32598908, -11.09882066],
        [-129.45619303, -147.99790985, -9.43097017],
        [-129.43093044, -147.66982681, -7.76311967],
        [-129.40566784, -147.34174759, -6.09526918],
        [-129.38040519, -147.01366837, -4.42741868],
        [-129.3551426, -146.68558533, -2.75957009],
        [-129.32987994, -146.3575061, -1.0917196],
        [-129.30461735, -146.02942307, 0.57613089],
        [-129.27935475, -145.70134384, 2.24398139],
        [-129.2540921, -145.3732608, 3.91183188],
        [-129.22882951, -145.04518158, 5.57968238],
        [-129.20356685, -144.71710236, 7.24753287],
        [-129.17830426, -144.38901932, 8.91538337],
        [-129.15304166, -144.06094009, 10.58323386],
        [-129.12777901, -143.73285706, 12.25108435],
        [-129.10251642, -143.40477783, 13.9189339],
        [-129.07725376, -143.07669861, 15.58678439],
        [-129.05199117, -142.74861557, 17.25463488],
        [-129.02672857, -142.42053635, 18.92248538],
        [-129.00146592, -142.09245331, 20.59033563],
        [-128.97620333, -141.76437409, 22.25818601],
        [-128.9509407, -141.43629486, 23.92603633],
        [-128.92567808, -141.10821182, 25.59388664],
        [-128.90041545, -140.7801326, 27.26173714],
        [-128.87515283, -140.45204956, 28.92958739],
        [-128.84989023, -140.12397034, 30.59743789],
        [-128.82462761, -139.79588921, 32.26528838],
        [-128.79936499, -139.46780808, 33.93313887],
        [-128.77410236, -139.13972694, 35.60098842],
        [-128.74883974, -138.81164772, 37.26883891],
        [-128.72357713, -138.48356659, 38.9366894],
        [-128.69831451, -138.15548546, 40.60453894],
        [-128.6730519, -137.82740433, 42.27238944],
        [-128.64778927, -137.4993232, 43.94023993],
        [-128.62252666, -137.17124207, 45.60809043],
        [-128.59726404, -136.84316284, 47.27594092],
        [-128.57200142, -136.51508171, 48.94379142],
        [-128.5467388, -136.18700058, 50.61164191],
        [-128.52147618, -135.85891945, 52.27949241],
        [-128.49621357, -135.53083832, 53.9473429],
        [-128.47095095, -135.20275719, 55.61519149],
        [-128.44568833, -134.87467796, 57.28304198],
        [-128.42042571, -134.54659683, 58.95089248],
        [-128.39516309, -134.2185157, 60.61874297],
        [-128.36990048, -133.89043457, 62.28659346],
        [-128.34463786, -133.56235344, 63.95444396],
        [-128.31937523, -133.23427231, 65.62229445],
        [-128.29411263, -132.90619309, 67.29014495],
        [-128.26885, -132.57811195, 68.95799544],
        [-128.24358738, -132.25003082, 70.62584594],
        [-128.21832475, -131.92194969, 72.29369643],
        [-128.19306216, -131.59386856, 73.96154692],
        [-128.16779954, -131.26578934, 75.62939742],
        [-128.14253691, -130.93770821, 77.29724791],
        [-128.11727429, -130.60962708, 78.96509841],
        [-128.09201166, -130.28154594, 80.6329489],
        [-128.06674907, -129.95346481, 82.3007994],
        [-128.04148644, -129.62538368, 83.96864989],
        [-128.01622382, -129.29730446, 85.63650039],
        [-127.9909612, -128.96922333, 87.30435088],
        [-127.9656986, -128.6411422, 88.97219756],
        [-127.94043595, -128.31306107, 90.64005187],
        [-127.91517335, -127.98497994, 92.30789855],
        [-127.8899107, -127.6568988, 93.97575286]
],
      "CsaImage.TimeAfterStart": [16.4, 18.515, 16.5525, 18.6675, 16.7025, 18.8175, 16.855, 18.97, 17.005, 19.12, 17.155, 19.2725, 17.3075, 19.4225, 17.4575, 19.575, 17.61, 19.725, 17.76, 19.875, 17.9125, 20.0275, 18.0625, 20.1775, 18.215, 20.33, 18.365, 16.4, 18.515, 16.5525, 18.6675, 16.7025, 18.8175, 16.855, 18.97, 17.005, 19.12, 17.155, 19.2725, 17.3075, 19.4225, 17.4575, 19.575, 17.61, 19.725, 17.76, 19.875, 17.9125, 20.0275, 18.0625, 20.1775, 18.215, 20.33, 18.365, 16.4, 18.515, 16.5525, 18.6675, 16.7025, 18.8175, 16.855, 18.97, 17.005, 19.12, 17.155, 19.2725, 17.3075, 19.4225, 17.4575, 19.575, 17.61, 19.725, 17.76, 19.875, 17.9125, 20.0275, 18.0625, 20.1775, 18.215, 20.33, 18.365],
      "ImagePositionPatient": [
        [-129.91092014575, -153.90336257997, -39.45227524924],
        [-129.88565755153, -153.57528335634, -37.784424754856],
        [-129.86039495731, -153.24720031801, -36.116578075168],
        [-129.83513236309, -152.91912109438, -34.448727580783],
        [-129.80986976886, -152.59104187075, -32.780877086399],
        [-129.78460705543, -152.26295883242, -31.113026592014],
        [-129.75934446121, -151.93487960878, -29.445176097629],
        [-129.73408186698, -151.60679657045, -27.777325603244],
        [-129.70881927276, -151.27871734682, -26.10947510886],
        [-129.68355667854, -150.95063812319, -24.441624614475],
        [-129.65829396511, -150.62255508486, -22.77377412009],
        [-129.63303137088, -150.29447586122, -21.105923625705],
        [-129.60776877666, -149.96639282289, -19.438073131321],
        [-129.58250618244, -149.63831359926, -17.770222636936],
        [-129.55724358821, -149.31023056093, -16.102372142551],
        [-129.53198087478, -148.9821513373, -14.434521648166],
        [-129.50671828056, -148.65407211367, -12.766671153782],
        [-129.48145568634, -148.32598907534, -11.098820659397],
        [-129.45619303251, -147.9979098517, -9.430970165012],
        [-129.43093043828, -147.66982681337, -7.7631196706272],
        [-129.40566784406, -147.34174758974, -6.0952691762424],
        [-129.38040519023, -147.01366836611, -4.4274186818577],
        [-129.35514259601, -146.68558532778, -2.7595700948215],
        [-129.32987994218, -146.35750610414, -1.0917196004368],
        [-129.30461734796, -146.02942306581, 0.57613089394798],
        [-129.27935475374, -145.70134384218, 2.2439813883327],
        [-129.25409209991, -145.37326080385, 3.9118318827175],
        [-129.22882950569, -145.04518158022, 5.5796823771023],
        [-129.20356685186, -144.71710235659, 7.247532871487],
        [-129.17830425764, -144.38901931826, 8.9153833658718],
        [-129.15304166341, -144.06094009462, 10.583233860257],
        [-129.12777900959, -143.73285705629, 12.251084354641],
        [-129.10251641536, -143.40477783266, 13.918933895352],
        [-129.07725376153, -143.07669860903, 15.586784389737],
        [-129.05199116731, -142.7486155707, 17.254634884121],
        [-129.02672857309, -142.42053634706, 18.922485378506],
        [-129.00146591926, -142.09245330873, 20.590335634472],
        [-128.97620332504, -141.7643740851, 22.258186009648],
        [-128.95094070101, -141.43629486147, 23.926036325219],
        [-128.92567807699, -141.10821182314, 25.593886640789],
        [-128.90041545296, -140.78013259951, 27.261737135174],
        [-128.87515282894, -140.45204956117, 28.92958739114],
        [-128.84989023471, -140.12397033754, 30.597437885525],
        [-128.82462761069, -139.79588920656, 32.26528837991],
        [-128.79936498666, -139.46780807558, 33.933138874295],
        [-128.77410236264, -139.1397269446, 35.600988415005],
        [-128.74883973861, -138.81164772096, 37.26883890939],
        [-128.72357712949, -138.48356658998, 38.936689403775],
        [-128.69831450546, -138.155485459, 40.604538944485],
        [-128.67305189634, -137.82740432802, 42.27238943887],
        [-128.64778927231, -137.49932319704, 43.940239933255],
        [-128.62252666319, -137.17124206606, 45.608090427639],
        [-128.59726403916, -136.84316284242, 47.275940922024],
        [-128.57200142259, -136.51508171144, 48.943791416409],
        [-128.54673880229, -136.18700058046, 50.611641910794],
        [-128.52147618385, -135.85891944948, 52.279492405178],
        [-128.49621356635, -135.5308383185, 53.947342899563],
        [-128.47095094884, -135.20275718752, 55.615191486599],
        [-128.44568832854, -134.87467796388, 57.283041980984],
        [-128.42042570824, -134.5465968329, 58.950892475369],
        [-128.39516309166, -134.21851570192, 60.618742969754],
        [-128.36990047509, -133.89043457094, 62.286593464138],
        [-128.34463785851, -133.56235343996, 63.954443958523],
        [-128.31937523449, -133.23427230898, 65.622294452908],
        [-128.29411262537, -132.90619308534, 67.290144947293],
        [-128.26885000134, -132.57811195436, 68.957995441677],
        [-128.24358737731, -132.25003082338, 70.625845936062],
        [-128.21832475329, -131.9219496924, 72.293696430447],
        [-128.19306215907, -131.59386856142, 73.961546924832],
        [-128.16779953504, -131.26578933779, 75.629397419217],
        [-128.14253691102, -130.9377082068, 77.297247913601],
        [-128.11727428699, -130.60962707582, 78.965098407986],
        [-128.09201166296, -130.28154594484, 80.632948902371],
        [-128.06674906874, -129.95346481386, 82.300799396756],
        [-128.04148644472, -129.62538368288, 83.96864989114],
        [-128.01622382069, -129.29730445925, 85.636500385525],
        [-127.99096119667, -128.96922332826, 87.30435087991],
        [-127.96569860244, -128.64114219728, 88.972197559597],
        [-127.94043594861, -128.3130610663, 90.640051868679],
        [-127.91517335439, -127.98497993532, 92.307898548367],
        [-127.88991070056, -127.65689880434, 93.975752857449]
],
      "InstanceCreationTime": ["123250.214000", "123250.316000", "123250.223000", "123250.323000", "123250.230000", "123250.329000", "123250.237000", "123250.336000", "123250.243000", "123250.342000", "123250.250000", "123250.349000", "123250.257000", "123250.355000", "123250.263000", "123250.361000", "123250.275000", "123250.368000", "123250.282000", "123250.374000", "123250.288000", "123250.382000", "123250.297000", "123250.388000", "123250.303000", "123250.395000", "123250.310000", "123250.218000", "123250.318000", "123250.226000", "123250.325000", "123250.233000", "123250.331000", "123250.239000", "123250.338000", "123250.246000", "123250.344000", "123250.252000", "123250.351000", "123250.259000", "123250.357000", "123250.271000", "123250.364000", "123250.277000", "123250.370000", "123250.284000", "123250.377000", "123250.290000", "123250.384000", "123250.299000", "123250.391000", "123250.306000", "123250.398000", "123250.312000", "123250.220000", "123250.321000", "123250.228000", "123250.327000", "123250.235000", "123250.333000", "123250.241000", "123250.340000", "123250.248000", "123250.346000", "123250.254000", "123250.353000", "123250.261000", "123250.359000", "123250.273000", "123250.366000", "123250.279000", "123250.372000", "123250.286000", "123250.379000", "123250.295000", "123250.386000", "123250.301000", "123250.393000", "123250.308000", "123250.400000", "123250.314000"],
      "InstanceNumber": [1, 2, 3, 4, 5, 6, 7, 8, 9, 10, 11, 12, 13, 14, 15, 16, 17, 18, 19, 20, 21, 22, 23, 24, 25, 26, 27, 28, 29, 30, 31, 32, 33, 34, 35, 36, 37, 38, 39, 40, 41, 42, 43, 44, 45, 46, 47, 48, 49, 50, 51, 52, 53, 54, 55, 56, 57, 58, 59, 60, 61, 62, 63, 64, 65, 66, 67, 68, 69, 70, 71, 72, 73, 74, 75, 76, 77, 78, 79, 80, 81],
      "LargestImagePixelValue": [22212, 20987, 25094, 22498, 16569, 16750, 21081, 26682, 25181, 17074, 15256, 17868, 20313, 15576, 19924, 19520, 22173, 25132, 22398, 37589, 49949, 23747, 34733, 31732, 49412, 65535, 52434, 35848, 31616, 43823, 41287, 42690, 50791, 30706, 37442, 30134, 35817, 49184, 65535, 49410, 43583, 53699, 47329, 46191, 44334, 40599, 41095, 55260, 52124, 36622, 36096, 40459, 45141, 49518, 33192, 28917, 31519, 28758, 30188, 29701, 27871, 29693, 34047, 33164, 30605, 28824, 26888, 29025, 34648, 23536, 33189, 29502, 26219, 26927, 23820, 24978, 29842, 31919, 26488, 27206, 15933],
      "SliceLocation": [-70.33830504137, -68.638305203939, -66.938308372871, -65.23830853544, -63.53830869801, -61.838308122614, -60.138308285184, -58.43830771156, -56.73830787413, -55.038308036699, -53.338307461304, -51.638307623874, -49.93830705025, -48.238307212819, -46.538306639195, -44.838306799993, -43.138306962563, -41.438306388939, -39.738306550623, -38.038305976999, -36.338306139569, -34.638306301252, -32.938307598906, -31.23830776059, -29.538307186966, -27.838307349536, -26.138306775026, -24.438306937596, -22.73830709928, -21.038306525656, -19.338306688225, -17.638306113716, -15.938307211924, -14.238307373608, -12.538306799984, -10.838306962554, -9.1383066219537, -7.4383069014782, -5.7383072390372, -4.0383068404027, -2.3383070025294, -0.6383066623724, 1.061693175058, 2.7616933810281, 4.4616935869981, 6.1616928573293, 7.8616926952026, 9.5616929009511, 11.261692171282, 12.961692377031, 14.661692583001, 16.36169278875, 18.061692626623, 19.761692832482, 21.461693038397, 23.161693244284, 24.861693450157, 26.561691784752, 28.26169162257, 29.961691828485, 31.661692034344, 33.361692240204, 35.061692446063, 36.761692652033, 38.461692489685, 40.161692695655, 41.861692901625, 43.561693107595, 45.261693313122, 46.961693150995, 48.661693356965, 50.361693562935, 52.061693768905, 53.761693974432, 55.461694180403, 57.161694018276, 58.861694224246, 60.561690687218, 62.261694636186, 63.961691099158, 65.661695048126],
      "WindowCenter": [3418.0, 3204.0, 3917.0, 4296.0, 3611.0, 3972.0, 4545.0, 4815.0, 4839.0, 4347.0, 4163.0, 4383.0, 4507.0, 4393.0, 5151.0, 5361.0, 5663.0, 5831.0, 5945.0, 6480.0, 7421.0, 6204.0, 6751.0, 6631.0, 7196.0, 7590.0, 7231.0, 6867.0, 7018.0, 7340.0, 7428.0, 7427.0, 7494.0, 7289.0, 7602.0, 7682.0, 7778.0, 8070.0, 8343.0, 8269.0, 8238.0, 8452.0, 8476.0, 8551.0, 8656.0, 8583.0, 8535.0, 8874.0, 9080.0, 8874.0, 8698.0, 8668.0, 8616.0, 8563.0, 8155.0, 8089.0, 8305.0, 8322.0, 8322.0, 8222.0, 8184.0, 8244.0, 8200.0, 8074.0, 8003.0, 7865.0, 7699.0, 7590.0, 7489.0, 7097.0, 7181.0, 7213.0, 6959.0, 6635.0, 6515.0, 6511.0, 6691.0, 6496.0, 5356.0, 4433.0, 2965.0],
      "WindowWidth": [8744.0, 8077.0, 9185.0, 9813.0, 8838.0, 9372.0, 10179.0, 10604.0, 10729.0, 9846.0, 9504.0, 9917.0, 10259.0, 10164.0, 11486.0, 11813.0, 12347.0, 12708.0, 12887.0, 14014.0, 16096.0, 14224.0, 15591.0, 15632.0, 16936.0, 17879.0, 16585.0, 15644.0, 15669.0, 16223.0, 16450.0, 16505.0, 16551.0, 15965.0, 16467.0, 16557.0, 16799.0, 17697.0, 18218.0, 18156.0, 18236.0, 18674.0, 18896.0, 19149.0, 19304.0, 18866.0, 18607.0, 19400.0, 19575.0, 19144.0, 18727.0, 18729.0, 18709.0, 18463.0, 17507.0, 17318.0, 17690.0, 17780.0, 17826.0, 17564.0, 17521.0, 17697.0, 17478.0, 17251.0, 17131.0, 16840.0, 16426.0, 16266.0, 16058.0, 15248.0, 15437.0, 15509.0, 15025.0, 14183.0, 13979.0, 13928.0, 14286.0, 13953.0, 12237.0, 10501.0, 7050.0]
    }
  }
}