{
  "AcquisitionMatrixPE": 82,
  "AcquisitionNumber": 1,
  "AcquisitionTime": "13:17:1.382500",
  "BandwidthPerPixelPhaseEncode": 24.888,
  "BaseResolution": 82,
  "BodyPartExamined": "BRAIN",
  "ConsistencyInfo": "N4_VE11E_LATEST_20181129",
  "ConversionSoftware": "dcm2niix",
  "ConversionSoftwareVersion": "v1.0.20201102",
  "DerivedVendorReportedEchoSpacing": 0.00049,
  "DeviceSerialNumber": "66112",
  "DwellTime": 2e-06,
  "EchoTime": 0.0272,
  "EchoTrainLength": 82,
  "EffectiveEchoSpacing": 0.00049,
  "FlipAngle": 44,
  "ImageComments": "Unaliased MB8/PE3",
  "ImageOrientationPatientDICOM": [0.999927, 0.00939499, -0.00759102, -0.00872622, 0.996446, 0.0837849],
  "ImageType": [
    "ORIGINAL",
    "PRIMARY",
    "M",
    "MB",
    "ND",
    "NORM",
    "MOSAIC"
],
  "ImagingFrequency": 123.252,
  "InPlanePhaseEncodingDirectionDICOM": "COL",
  "InstitutionAddress": "Maynard 3,Hanover,NH,US,03755",
  "InstitutionName": "Dartmouth College - PBS",
  "InstitutionalDepartmentName": "Department",
  "MRAcquisitionType": "2D",
  "MagneticFieldStrength": 3,
  "Manufacturer": "Siemens",
  "ManufacturersModelName": "Prisma",
  "Modality": "MR",
  "MultibandAccelerationFactor": 8,
  "PartialFourier": 1,
  "PatientPosition": "HFS",
  "PercentPhaseFOV": 100,
  "PercentSampling": 100,
  "PhaseEncodingDirection": "j-",
  "PhaseEncodingSteps": 82,
  "PhaseResolution": 1,
  "PixelBandwidth": 3050,
  "ProcedureStepDescription": "Wager_Wager^1076_spacetop",
  "ProtocolName": "func_run-06_task-social_acq-ap-mb8",
  "PulseSequenceDetails": "%CustomerSeq%\\cmrr_mbep2d_bold",
  "ReceiveCoilActiveElements": "HEA;HEP",
  "ReceiveCoilName": "Head_32",
  "ReconMatrixPE": 82,
  "RepetitionTime": 0.46,
  "SAR": 0.104914,
  "ScanOptions": "FS",
  "ScanningSequence": "EP",
  "SequenceName": "epfid2d1_82",
  "SequenceVariant": "SK\\SS",
  "SeriesDescription": "func_run-06_task-social_acq-ap-mb8",
  "SeriesNumber": 26,
  "ShimSetting": [4160, -7778, -7243, 488, 18, -82, 62, 14],
  "SliceThickness": 2.7,
  "SliceTiming": [0, 0.2525, 0.0625, 0.315, 0.125, 0.3775, 0.1875, 0, 0.2525, 0.0625, 0.315, 0.125, 0.3775, 0.1875, 0, 0.2525, 0.0625, 0.315, 0.125, 0.3775, 0.1875, 0, 0.2525, 0.0625, 0.315, 0.125, 0.3775, 0.1875, 0, 0.2525, 0.0625, 0.315, 0.125, 0.3775, 0.1875, 0, 0.2525, 0.0625, 0.315, 0.125, 0.3775, 0.1875, 0, 0.2525, 0.0625, 0.315, 0.125, 0.3775, 0.1875, 0, 0.2525, 0.0625, 0.315, 0.125, 0.3775, 0.1875],
  "SoftwareVersions": "syngo MR E11",
  "SpacingBetweenSlices": 2.7,
  "StationName": "AWP66112",
  "TaskName": "social",
  "TotalReadoutTime": 0.03969,
  "TxRefAmp": 256.292,
  "WipMemBlock": "1ee0106f-26be-4008-b979-24f5eb4f6eaa||Sequence: R016 ve11e/master r/434b28f1; Aug  7 2019 18:53:46 by eja",
  "dcmmeta_affine": [
    [-2.6827311515808105, -0.023411806672811508, -0.022548237815499306, 115.82984161376953],
    [-0.0252060666680336, 2.6733908653259277, 0.22602394223213196, -90.91085052490234],
    [-0.020366156473755836, -0.2247888296842575, 2.6904282569885254, -42.00956344604492],
    [0.0, 0.0, 0.0, 1.0]
],
  "dcmmeta_reorient_transform": [
    [0.0, -1.0, 0.0, 81.0],
    [1.0, 0.0, 0.0, 0.0],
    [0.0, 0.0, 1.0, 0.0],
    [0.0, 0.0, 0.0, 1.0]
],
  "dcmmeta_shape": [82, 82, 56, 872],
  "dcmmeta_slice_dim": 2,
  "dcmmeta_version": 0.6,
  "global": {
    "const": {
      "AccessionNumber": "A004057",
      "AcquisitionMatrix": [82, 0, 0, 82],
      "AngioFlag": "N",
      "BitsAllocated": 16,
      "BitsStored": 16,
      "BodyPartExamined": "BRAIN",
      "Columns": 656,
      "EchoNumbers": 1,
      "EchoTime": 27.2,
      "EchoTrainLength": 82,
      "FlipAngle": 44.0,
      "HighBit": 15,
      "ImageOrientationPatient": [0.99992705263136, 0.00939498806613, -0.0075910220131, -0.0087262183693, 0.99644565309573, 0.0837849242978],
      "ImagePositionPatient": [-877.15814454564, -900.1311192873, -118.88676384405],
      "ImageType": [
        "ORIGINAL",
        "PRIMARY",
        "M",
        "MB",
        "ND",
        "NORM",
        "MOSAIC"
],
      "ImagedNucleus": "1H",
      "ImagingFrequency": 123.252156,
      "InPlanePhaseEncodingDirection": "COL",
      "MRAcquisitionType": "2D",
      "MagneticFieldStrength": 3.0,
      "Manufacturer": "SIEMENS",
      "ManufacturerModelName": "Prisma",
      "Modality": "MR",
      "NumberOfAverages": 1.0,
      "NumberOfPhaseEncodingSteps": 82,
      "PercentPhaseFieldOfView": 100.0,
      "PercentSampling": 100.0,
      "PerformedProcedureStepStartTime": "120017.765000",
      "PhotometricInterpretation": "MONOCHROME2",
      "PixelBandwidth": 3050.0,
      "PixelRepresentation": 0,
      "PixelSpacing": [2.6829268932343, 2.6829268932343],
      "ProtocolName": "func_run-06_task-social_acq-ap-mb8",
      "RepetitionTime": 460.0,
      "Rows": 656,
      "SAR": 0.10491373901268,
      "SamplesPerPixel": 1,
      "ScanOptions": "FS",
      "ScanningSequence": "EP",
      "SequenceName": "epfid2d1_82",
      "SequenceVariant": [
        "SK",
        "SS"
],
      "SeriesDescription": "func_run-06_task-social_acq-ap-mb8",
      "SeriesNumber": 26,
      "SeriesTime": "131724.858000",
      "SliceLocation": -50.438335815659,
      "SliceThickness": 2.7000000476837,
      "SmallestImagePixelValue": 0,
      "SoftwareVersions": "syngo MR E11",
      "SpacingBetweenSlices": 2.6999999424263,
      "SpecificCharacterSet": "ISO_IR 100",
      "StudyID": "2",
      "StudyTime": "120017.709000",
      "TransmitCoilName": "Body",
      "VariableFlipAngleFlag": "N",
      "WindowCenterWidthExplanation": "Algo1"
    },
    "slices": {}
  },
  "time": {
    "samples": {
      "AcquisitionNumber": [1, 2, 3, 4, 5, 6, 7, 8, 9, 10, 11, 12, 13, 14, 15, 16, 17, 18, 19, 20, 21, 22, 23, 24, 25, 26, 27, 28, 29, 30, 31, 32, 33, 34, 35, 36, 37, 38, 39, 40, 41, 42, 43, 44, 45, 46, 47, 48, 49, 50, 51, 52, 53, 54, 55, 56, 57, 58, 59, 60, 61, 62, 63, 64, 65, 66, 67, 68, 69, 70, 71, 72, 73, 74, 75, 76, 77, 78, 79, 80, 81, 82, 83, 84, 85, 86, 87, 88, 89, 90, 91, 92, 93, 94, 95, 96, 97, 98, 99, 100, 101, 102, 103, 104, 105, 106, 107, 108, 109, 110, 111, 112, 113, 114, 115, 116, 117, 118, 119, 120, 121, 122, 123, 124, 125, 126, 127, 128, 129, 130, 131, 132, 133, 134, 135, 136, 137, 138, 139, 140, 141, 142, 143, 144, 145, 146, 147, 148, 149, 150, 151, 152, 153, 154, 155, 156, 157, 158, 159, 160, 161, 162, 163, 164, 165, 166, 167, 168, 169, 170, 171, 172, 173, 174, 175, 176, 177, 178, 179, 180, 181, 182, 183, 184, 185, 186, 187, 188, 189, 190, 191, 192, 193, 194, 195, 196, 197, 198, 199, 200, 201, 202, 203, 204, 205, 206, 207, 208, 209, 210, 211, 212, 213, 214, 215, 216, 217, 218, 219, 220, 221, 222, 223, 224, 225, 226, 227, 228, 229, 230, 231, 232, 233, 234, 235, 236, 237, 238, 239, 240, 241, 242, 243, 244, 245, 246, 247, 248, 249, 250, 251, 252, 253, 254, 255, 256, 257, 258, 259, 260, 261, 262, 263, 264, 265, 266, 267, 268, 269, 270, 271, 272, 273, 274, 275, 276, 277, 278, 279, 280, 281, 282, 283, 284, 285, 286, 287, 288, 289, 290, 291, 292, 293, 294, 295, 296, 297, 298, 299, 300, 301, 302, 303, 304, 305, 306, 307, 308, 309, 310, 311, 312, 313, 314, 315, 316, 317, 318, 319, 320, 321, 322, 323, 324, 325, 326, 327, 328, 329, 330, 331, 332, 333, 334, 335, 336, 337, 338, 339, 340, 341, 342, 343, 344, 345, 346, 347, 348, 349, 350, 351, 352, 353, 354, 355, 356, 357, 358, 359, 360, 361, 362, 363, 364, 365, 366, 367, 368, 369, 370, 371, 372, 373, 374, 375, 376, 377, 378, 379, 380, 381, 382, 383, 384, 385, 386, 387, 388, 389, 390, 391, 392, 393, 394, 395, 396, 397, 398, 399, 400, 401, 402, 403, 404, 405, 406, 407, 408, 409, 410, 411, 412, 413, 414, 415, 416, 417, 418, 419, 420, 421, 422, 423, 424, 425, 426, 427, 428, 429, 430, 431, 432, 433, 434, 435, 436, 437, 438, 439, 440, 441, 442, 443, 444, 445, 446, 447, 448, 449, 450, 451, 452, 453, 454, 455, 456, 457, 458, 459, 460, 461, 462, 463, 464, 465, 466, 467, 468, 469, 470, 471, 472, 473, 474, 475, 476, 477, 478, 479, 480, 481, 482, 483, 484, 485, 486, 487, 488, 489, 490, 491, 492, 493, 494, 495, 496, 497, 498, 499, 500, 501, 502, 503, 504, 505, 506, 507, 508, 509, 510, 511, 512, 513, 514, 515, 516, 517, 518, 519, 520, 521, 522, 523, 524, 525, 526, 527, 528, 529, 530, 531, 532, 533, 534, 535, 536, 537, 538, 539, 540, 541, 542, 543, 544, 545, 546, 547, 548, 549, 550, 551, 552, 553, 554, 555, 556, 557, 558, 559, 560, 561, 562, 563, 564, 565, 566, 567, 568, 569, 570, 571, 572, 573, 574, 575, 576, 577, 578, 579, 580, 581, 582, 583, 584, 585, 586, 587, 588, 589, 590, 591, 592, 593, 594, 595, 596, 597, 598, 599, 600, 601, 602, 603, 604, 605, 606, 607, 608, 609, 610, 611, 612, 613, 614, 615, 616, 617, 618, 619, 620, 621, 622, 623, 624, 625, 626, 627, 628, 629, 630, 631, 632, 633, 634, 635, 636, 637, 638, 639, 640, 641, 642, 643, 644, 645, 646, 647, 648, 649, 650, 651, 652, 653, 654, 655, 656, 657, 658, 659, 660, 661, 662, 663, 664, 665, 666, 667, 668, 669, 670, 671, 672, 673, 674, 675, 676, 677, 678, 679, 680, 681, 682, 683, 684, 685, 686, 687, 688, 689, 690, 691, 692, 693, 694, 695, 696, 697, 698, 699, 700, 701, 702, 703, 704, 705, 706, 707, 708, 709, 710, 711, 712, 713, 714, 715, 716, 717, 718, 719, 720, 721, 722, 723, 724, 725, 726, 727, 728, 729, 730, 731, 732, 733, 734, 735, 736, 737, 738, 739, 740, 741, 742, 743, 744, 745, 746, 747, 748, 749, 750, 751, 752, 753, 754, 755, 756, 757, 758, 759, 760, 761, 762, 763, 764, 765, 766, 767, 768, 769, 770, 771, 772, 773, 774, 775, 776, 777, 778, 779, 780, 781, 782, 783, 784, 785, 786, 787, 788, 789, 790, 791, 792, 793, 794, 795, 796, 797, 798, 799, 800, 801, 802, 803, 804, 805, 806, 807, 808, 809, 810, 811, 812, 813, 814, 815, 816, 817, 818, 819, 820, 821, 822, 823, 824, 825, 826, 827, 828, 829, 830, 831, 832, 833, 834, 835, 836, 837, 838, 839, 840, 841, 842, 843, 844, 845, 846, 847, 848, 849, 850, 851, 852, 853, 854, 855, 856, 857, 858, 859, 860, 861, 862, 863, 864, 865, 866, 867, 868, 869, 870, 871, 872],
      "AcquisitionTime": ["131701.382500", "131701.842500", "131702.302500", "131702.762500", "131703.222500", "131703.682500", "131704.142500", "131704.602500", "131705.062500", "131705.522500", "131705.982500", "131706.442500", "131706.902500", "131707.362500", "131707.822500", "131708.282500", "131708.742500", "131709.202500", "131709.662500", "131710.122500", "131710.582500", "131711.042500", "131711.502500", "131711.962500", "131712.422500", "131712.882500", "131713.342500", "131713.802500", "131714.262500", "131714.722500", "131715.182500", "131715.642500", "131716.102500", "131716.562500", "131717.022500", "131717.482500", "131717.942500", "131718.402500", "131718.862500", "131719.322500", "131719.782500", "131720.242500", "131720.702500", "131721.162500", "131721.622500", "131722.082500", "131722.542500", "131723.002500", "131723.462500", "131723.922500", "131724.382500", "131724.842500", "131725.302500", "131725.762500", "131726.222500", "131726.682500", "131727.142500", "131727.602500", "131728.062500", "131728.522500", "131728.982500", "131729.442500", "131729.902500", "131730.362500", "131730.822500", "131731.282500", "131731.742500", "131732.202500", "131732.662500", "131733.122500", "131733.582500", "131734.042500", "131734.502500", "131734.962500", "131735.422500", "131735.882500", "131736.342500", "131736.802500", "131737.262500", "131737.722500", "131738.182500", "131738.642500", "131739.102500", "131739.562500", "131740.022500", "131740.482500", "131740.942500", "131741.402500", "131741.862500", "131742.322500", "131742.782500", "131743.242500", "131743.702500", "131744.162500", "131744.622500", "131745.082500", "131745.542500", "131746.002500", "131746.462500", "131746.922500", "131747.382500", "131747.842500", "131748.302500", "131748.762500", "131749.222500", "131749.682500", "131750.142500", "131750.602500", "131751.062500", "131751.522500", "131751.982500", "131752.442500", "131752.902500", "131753.362500", "131753.822500", "131754.282500", "131754.742500", "131755.202500", "131755.662500", "131756.122500", "131756.582500", "131757.042500", "131757.502500", "131757.962500", "131758.422500", "131758.882500", "131759.342500", "131759.802500", "131800.262500", "131800.722500", "131801.182500", "131801.642500", "131802.102500", "131802.562500", "131803.022500", "131803.482500", "131803.942500", "131804.402500", "131804.862500", "131805.322500", "131805.782500", "131806.242500", "131806.702500", "131807.162500", "131807.622500", "131808.082500", "131808.542500", "131809.002500", "131809.462500", "131809.922500", "131810.382500", "131810.842500", "131811.302500", "131811.762500", "131812.222500", "131812.682500", "131813.142500", "131813.602500", "131814.062500", "131814.522500", "131814.982500", "131815.442500", "131815.902500", "131816.362500", "131816.822500", "131817.282500", "131817.742500", "131818.202500", "131818.662500", "131819.122500", "131819.582500", "131820.042500", "131820.502500", "131820.962500", "131821.422500", "131821.882500", "131822.342500", "131822.802500", "131823.262500", "131823.722500", "131824.182500", "131824.642500", "131825.102500", "131825.562500", "131826.022500", "131826.482500", "131826.942500", "131827.402500", "131827.862500", "131828.322500", "131828.782500", "131829.242500", "131829.702500", "131830.162500", "131830.622500", "131831.082500", "131831.542500", "131832.002500", "131832.462500", "131832.922500", "131833.382500", "131833.842500", "131834.302500", "131834.762500", "131835.222500", "131835.682500", "131836.142500", "131836.602500", "131837.062500", "131837.522500", "131837.982500", "131838.442500", "131838.902500", "131839.362500", "131839.822500", "131840.282500", "131840.742500", "131841.202500", "131841.662500", "131842.122500", "131842.582500", "131843.042500", "131843.502500", "131843.962500", "131844.422500", "131844.882500", "131845.342500", "131845.802500", "131846.262500", "131846.722500", "131847.182500", "131847.642500", "131848.102500", "131848.562500", "131849.022500", "131849.482500", "131849.942500", "131850.402500", "131850.862500", "131851.322500", "131851.782500", "131852.242500", "131852.702500", "131853.162500", "131853.622500", "131854.082500", "131854.542500", "131855.002500", "131855.462500", "131855.922500", "131856.382500", "131856.842500", "131857.302500", "131857.762500", "131858.222500", "131858.682500", "131859.142500", "131859.602500", "131900.062500", "131900.522500", "131900.982500", "131901.442500", "131901.902500", "131902.362500", "131902.822500", "131903.282500", "131903.742500", "131904.202500", "131904.662500", "131905.122500", "131905.582500", "131906.042500", "131906.502500", "131906.962500", "131907.422500", "131907.882500", "131908.342500", "131908.802500", "131909.262500", "131909.722500", "131910.182500", "131910.642500", "131911.102500", "131911.562500", "131912.022500", "131912.482500", "131912.942500", "131913.402500", "131913.862500", "131914.322500", "131914.782500", "131915.242500", "131915.702500", "131916.162500", "131916.622500", "131917.082500", "131917.542500", "131918.002500", "131918.462500", "131918.922500", "131919.382500", "131919.842500", "131920.302500", "131920.762500", "131921.222500", "131921.682500", "131922.142500", "131922.602500", "131923.062500", "131923.522500", "131923.982500", "131924.442500", "131924.902500", "131925.362500", "131925.822500", "131926.282500", "131926.742500", "131927.202500", "131927.662500", "131928.122500", "131928.582500", "131929.042500", "131929.502500", "131929.962500", "131930.422500", "131930.882500", "131931.342500", "131931.802500", "131932.262500", "131932.722500", "131933.182500", "131933.642500", "131934.102500", "131934.562500", "131935.022500", "131935.482500", "131935.942500", "131936.402500", "131936.862500", "131937.322500", "131937.782500", "131938.242500", "131938.702500", "131939.162500", "131939.622500", "131940.082500", "131940.542500", "131941.002500", "131941.462500", "131941.922500", "131942.382500", "131942.842500", "131943.302500", "131943.762500", "131944.222500", "131944.682500", "131945.142500", "131945.602500", "131946.062500", "131946.522500", "131946.982500", "131947.442500", "131947.902500", "131948.362500", "131948.822500", "131949.282500", "131949.742500", "131950.202500", "131950.662500", "131951.122500", "131951.582500", "131952.042500", "131952.502500", "131952.962500", "131953.422500", "131953.882500", "131954.342500", "131954.802500", "131955.262500", "131955.722500", "131956.182500", "131956.642500", "131957.102500", "131957.562500", "131958.022500", "131958.482500", "131958.942500", "131959.402500", "131959.862500", "132000.322500", "132000.782500", "132001.242500", "132001.702500", "132002.162500", "132002.622500", "132003.082500", "132003.542500", "132004.002500", "132004.462500", "132004.922500", "132005.382500", "132005.842500", "132006.302500", "132006.762500", "132007.222500", "132007.682500", "132008.142500", "132008.602500", "132009.062500", "132009.522500", "132009.982500", "132010.442500", "132010.902500", "132011.362500", "132011.822500", "132012.282500", "132012.742500", "132013.202500", "132013.662500", "132014.122500", "132014.582500", "132015.042500", "132015.502500", "132015.962500", "132016.422500", "132016.882500", "132017.342500", "132017.802500", "132018.262500", "132018.722500", "132019.182500", "132019.642500", "132020.102500", "132020.562500", "132021.022500", "132021.482500", "132021.942500", "132022.402500", "132022.862500", "132023.322500", "132023.782500", "132024.242500", "132024.702500", "132025.162500", "132025.622500", "132026.082500", "132026.542500", "132027.002500", "132027.462500", "132027.922500", "132028.382500", "132028.842500", "132029.302500", "132029.762500", "132030.222500", "132030.682500", "132031.142500", "132031.602500", "132032.062500", "132032.522500", "132032.982500", "132033.442500", "132033.902500", "132034.362500", "132034.822500", "132035.282500", "132035.742500", "132036.202500", "132036.662500", "132037.122500", "132037.582500", "132038.042500", "132038.502500", "132038.962500", "132039.422500", "132039.882500", "132040.342500", "132040.802500", "132041.262500", "132041.722500", "132042.182500", "132042.642500", "132043.102500", "132043.562500", "132044.022500", "132044.482500", "132044.942500", "132045.402500", "132045.862500", "132046.322500", "132046.782500", "132047.242500", "132047.702500", "132048.162500", "132048.622500", "132049.082500", "132049.542500", "132050.002500", "132050.462500", "132050.922500", "132051.382500", "132051.842500", "132052.302500", "132052.762500", "132053.222500", "132053.682500", "132054.142500", "132054.602500", "132055.062500", "132055.522500", "132055.982500", "132056.442500", "132056.902500", "132057.362500", "132057.822500", "132058.282500", "132058.742500", "132059.202500", "132059.662500", "132100.122500", "132100.582500", "132101.042500", "132101.502500", "132101.962500", "132102.422500", "132102.882500", "132103.342500", "132103.802500", "132104.262500", "132104.722500", "132105.182500", "132105.642500", "132106.102500", "132106.562500", "132107.022500", "132107.482500", "132107.942500", "132108.402500", "132108.862500", "132109.322500", "132109.782500", "132110.242500", "132110.702500", "132111.162500", "132111.622500", "132112.082500", "132112.542500", "132113.002500", "132113.462500", "132113.922500", "132114.382500", "132114.842500", "132115.302500", "132115.762500", "132116.222500", "132116.682500", "132117.142500", "132117.602500", "132118.062500", "132118.522500", "132118.982500", "132119.442500", "132119.902500", "132120.362500", "132120.822500", "132121.282500", "132121.742500", "132122.202500", "132122.662500", "132123.122500", "132123.582500", "132124.042500", "132124.502500", "132124.962500", "132125.422500", "132125.882500", "132126.342500", "132126.802500", "132127.262500", "132127.722500", "132128.182500", "132128.642500", "132129.102500", "132129.562500", "132130.022500", "132130.482500", "132130.942500", "132131.402500", "132131.862500", "132132.322500", "132132.782500", "132133.242500", "132133.702500", "132134.162500", "132134.622500", "132135.082500", "132135.542500", "132136.002500", "132136.462500", "132136.922500", "132137.382500", "132137.842500", "132138.302500", "132138.762500", "132139.222500", "132139.682500", "132140.142500", "132140.602500", "132141.062500", "132141.522500", "132141.982500", "132142.442500", "132142.902500", "132143.362500", "132143.822500", "132144.282500", "132144.742500", "132145.202500", "132145.662500", "132146.122500", "132146.582500", "132147.042500", "132147.502500", "132147.962500", "132148.422500", "132148.882500", "132149.342500", "132149.802500", "132150.262500", "132150.722500", "132151.182500", "132151.642500", "132152.102500", "132152.562500", "132153.022500", "132153.482500", "132153.942500", "132154.402500", "132154.862500", "132155.322500", "132155.782500", "132156.242500", "132156.702500", "132157.162500", "132157.622500", "132158.082500", "132158.542500", "132159.002500", "132159.462500", "132159.922500", "132200.382500", "132200.842500", "132201.302500", "132201.762500", "132202.222500", "132202.682500", "132203.142500", "132203.602500", "132204.062500", "132204.522500", "132204.982500", "132205.442500", "132205.902500", "132206.362500", "132206.822500", "132207.282500", "132207.742500", "132208.202500", "132208.662500", "132209.122500", "132209.582500", "132210.042500", "132210.502500", "132210.962500", "132211.422500", "132211.882500", "132212.342500", "132212.802500", "132213.262500", "132213.722500", "132214.182500", "132214.642500", "132215.102500", "132215.562500", "132216.022500", "132216.482500", "132216.942500", "132217.402500", "132217.862500", "132218.322500", "132218.782500", "132219.242500", "132219.702500", "132220.162500", "132220.622500", "132221.082500", "132221.542500", "132222.002500", "132222.462500", "132222.922500", "132223.382500", "132223.842500", "132224.302500", "132224.762500", "132225.222500", "132225.682500", "132226.142500", "132226.602500", "132227.062500", "132227.522500", "132227.982500", "132228.442500", "132228.902500", "132229.362500", "132229.822500", "132230.282500", "132230.742500", "132231.202500", "132231.662500", "132232.122500", "132232.582500", "132233.042500", "132233.502500", "132233.962500", "132234.422500", "132234.882500", "132235.342500", "132235.802500", "132236.262500", "132236.722500", "132237.182500", "132237.642500", "132238.102500", "132238.562500", "132239.022500", "132239.482500", "132239.942500", "132240.402500", "132240.862500", "132241.322500", "132241.782500", "132242.242500", "132242.702500", "132243.162500", "132243.622500", "132244.082500", "132244.542500", "132245.002500", "132245.462500", "132245.922500", "132246.382500", "132246.842500", "132247.302500", "132247.762500", "132248.222500", "132248.682500", "132249.142500", "132249.602500", "132250.062500", "132250.522500", "132250.982500", "132251.442500", "132251.902500", "132252.362500", "132252.822500", "132253.282500", "132253.742500", "132254.202500", "132254.662500", "132255.122500", "132255.582500", "132256.042500", "132256.502500", "132256.962500", "132257.422500", "132257.882500", "132258.342500", "132258.802500", "132259.262500", "132259.722500", "132300.182500", "132300.642500", "132301.102500", "132301.562500", "132302.022500", "132302.482500", "132302.942500", "132303.402500", "132303.862500", "132304.322500", "132304.782500", "132305.242500", "132305.702500", "132306.162500", "132306.622500", "132307.082500", "132307.542500", "132308.002500", "132308.462500", "132308.922500", "132309.382500", "132309.842500", "132310.302500", "132310.762500", "132311.222500", "132311.682500", "132312.142500", "132312.602500", "132313.062500", "132313.522500", "132313.982500", "132314.442500", "132314.902500", "132315.362500", "132315.822500", "132316.282500", "132316.742500", "132317.202500", "132317.662500", "132318.122500", "132318.582500", "132319.042500", "132319.502500", "132319.962500", "132320.422500", "132320.882500", "132321.342500", "132321.802500", "132322.262500", "132322.722500", "132323.182500", "132323.642500", "132324.102500", "132324.562500", "132325.022500", "132325.482500", "132325.942500", "132326.402500", "132326.862500", "132327.322500", "132327.782500", "132328.242500", "132328.702500", "132329.162500", "132329.622500", "132330.082500", "132330.542500", "132331.002500", "132331.462500", "132331.922500", "132332.382500", "132332.842500", "132333.302500", "132333.762500", "132334.222500", "132334.682500", "132335.142500", "132335.602500", "132336.062500", "132336.522500", "132336.982500", "132337.442500", "132337.902500", "132338.362500", "132338.822500", "132339.282500", "132339.742500", "132340.202500", "132340.662500", "132341.122500", "132341.582500", "132342.042500"],
