{
  "AcquisitionMatrixPE": 82,
  "AcquisitionNumber": 1,
  "AcquisitionTime": "16:56:4.540000",
  "BandwidthPerPixelPhaseEncode": 24.888,
  "BaseResolution": 82,
  "BodyPartExamined": "BRAIN",
  "ConsistencyInfo": "N4_VE11E_LATEST_20181129",
  "ConversionSoftware": "dcm2niix",
  "ConversionSoftwareVersion": "v1.0.20201102",
  "DerivedVendorReportedEchoSpacing": 0.00049,
  "DeviceSerialNumber": "66112",
  "DwellTime": 2e-06,
  "EchoTime": 0.0272,
  "EchoTrainLength": 82,
  "EffectiveEchoSpacing": 0.00049,
  "FlipAngle": 44,
  "ImageComments": "Unaliased MB8/PE3",
  "ImageOrientationPatientDICOM": [0.999467, -0.0154305, 0.0287825, 0.0122114, 0.993984, 0.108842],
  "ImageType": [
    "ORIGINAL",
    "PRIMARY",
    "M",
    "MB",
    "ND",
    "NORM",
    "MOSAIC"
],
  "ImagingFrequency": 123.252,
  "InPlanePhaseEncodingDirectionDICOM": "COL",
  "InstitutionAddress": "Maynard 3,Hanover,NH,US,03755",
  "InstitutionName": "Dartmouth College - PBS",
  "InstitutionalDepartmentName": "Department",
  "MRAcquisitionType": "2D",
  "MagneticFieldStrength": 3,
  "Manufacturer": "Siemens",
  "ManufacturersModelName": "Prisma",
  "Modality": "MR",
  "MultibandAccelerationFactor": 8,
  "PartialFourier": 1,
  "PatientPosition": "HFS",
  "PercentPhaseFOV": 100,
  "PercentSampling": 100,
  "PhaseEncodingDirection": "j-",
  "PhaseEncodingSteps": 82,
  "PhaseResolution": 1,
  "PixelBandwidth": 3050,
  "ProcedureStepDescription": "Wager_Wager^1076_spacetop",
  "ProtocolName": "func_run-03_task-social_acq-ap-mb8",
  "PulseSequenceDetails": "%CustomerSeq%\\cmrr_mbep2d_bold",
  "ReceiveCoilActiveElements": "HEA;HEP",
  "ReceiveCoilName": "Head_32",
  "ReconMatrixPE": 82,
  "RepetitionTime": 0.46,
  "SAR": 0.0927817,
  "ScanOptions": "FS",
  "ScanningSequence": "EP",
  "SequenceName": "epfid2d1_82",
  "SequenceVariant": "SK\\SS",
  "SeriesDescription": "func_run-03_task-social_acq-ap-mb8",
  "SeriesNumber": 12,
  "ShimSetting": [4149, -7704, -7295, 681, -60, -28, 1, 94],
  "SliceThickness": 2.7,
  "SliceTiming": [0, 0.25, 0.0625, 0.315, 0.125, 0.3775, 0.1875, 0, 0.25, 0.0625, 0.315, 0.125, 0.3775, 0.1875, 0, 0.25, 0.0625, 0.315, 0.125, 0.3775, 0.1875, 0, 0.25, 0.0625, 0.315, 0.125, 0.3775, 0.1875, 0, 0.25, 0.0625, 0.315, 0.125, 0.3775, 0.1875, 0, 0.25, 0.0625, 0.315, 0.125, 0.3775, 0.1875, 0, 0.25, 0.0625, 0.315, 0.125, 0.3775, 0.1875, 0, 0.25, 0.0625, 0.315, 0.125, 0.3775, 0.1875],
  "SoftwareVersions": "syngo MR E11",
  "SpacingBetweenSlices": 2.7,
  "StationName": "AWP66112",
  "TaskName": "social",
  "TotalReadoutTime": 0.03969,
  "TxRefAmp": 237.529,
  "WipMemBlock": "f3bf5c61-721c-4aa6-bbe8-4855dfa04f7e||Sequence: R016 ve11e/master r/434b28f1; Aug  7 2019 18:53:46 by eja",
  "dcmmeta_affine": [
    [-2.6814959049224854, 0.032762352377176285, 0.08177974075078964, 112.24788665771484],
    [0.04139883443713188, 2.6667866706848145, 0.2927672863006592, -110.64653778076172],
    [0.07722125202417374, -0.2920147776603699, 2.6828341484069824, -57.08112335205078],
    [0.0, 0.0, 0.0, 1.0]
],
  "dcmmeta_reorient_transform": [
    [0.0, -1.0, 0.0, 81.0],
    [1.0, 0.0, 0.0, 0.0],
    [0.0, 0.0, 1.0, 0.0],
    [0.0, 0.0, 0.0, 1.0]
],
  "dcmmeta_shape": [82, 82, 56, 872],
  "dcmmeta_slice_dim": 2,
  "dcmmeta_version": 0.6,
  "global": {
    "const": {
      "AccessionNumber": "A003923",
      "AcquisitionMatrix": [82, 0, 0, 82],
      "AngioFlag": "N",
      "BitsAllocated": 16,
      "BitsStored": 16,
      "BodyPartExamined": "BRAIN",
      "Columns": 656,
      "EchoNumbers": 1,
      "EchoTime": 27.2,
      "EchoTrainLength": 82,
      "FlipAngle": 44.0,
      "HighBit": 15,
      "ImageOrientationPatient": [0.99946659279196, -0.0154304748971, 0.0287824657957, 0.01221142255699, 0.99398406881531, 0.10884186740637],
      "ImagePositionPatient": [-893.89373014903, -858.84945867445, -186.70505819514],
      "ImageType": [
        "ORIGINAL",
        "PRIMARY",
        "M",
        "MB",
        "ND",
        "NORM",
        "MOSAIC"
],
      "ImagedNucleus": "1H",
      "ImagingFrequency": 123.252238,
      "InPlanePhaseEncodingDirection": "COL",
      "MRAcquisitionType": "2D",
      "MagneticFieldStrength": 3.0,
      "Manufacturer": "SIEMENS",
      "ManufacturerModelName": "Prisma",
      "Modality": "MR",
      "NumberOfAverages": 1.0,
      "NumberOfPhaseEncodingSteps": 82,
      "PercentPhaseFieldOfView": 100.0,
      "PercentSampling": 100.0,
      "PerformedProcedureStepStartTime": "163049.739000",
      "PhotometricInterpretation": "MONOCHROME2",
      "PixelBandwidth": 3050.0,
      "PixelRepresentation": 0,
      "PixelSpacing": [2.6829268932343, 2.6829268932343],
      "ProtocolName": "func_run-03_task-social_acq-ap-mb8",
      "RepetitionTime": 460.0,
      "Rows": 656,
      "SAR": 0.09278171795894,
      "SamplesPerPixel": 1,
      "ScanOptions": "FS",
      "ScanningSequence": "EP",
      "SequenceName": "epfid2d1_82",
      "SequenceVariant": [
        "SK",
        "SS"
],
      "SeriesDescription": "func_run-03_task-social_acq-ap-mb8",
      "SeriesNumber": 12,
      "SeriesTime": "165617.949000",
      "SliceLocation": -65.316027324838,
      "SliceThickness": 2.7000000476837,
      "SmallestImagePixelValue": 0,
      "SoftwareVersions": "syngo MR E11",
      "SpacingBetweenSlices": 2.6999999333127,
      "SpecificCharacterSet": "ISO_IR 100",
      "StudyID": "3",
      "StudyTime": "163049.673000",
      "TransmitCoilName": "Body",
      "VariableFlipAngleFlag": "N",
      "WindowCenterWidthExplanation": "Algo1"
    },
    "slices": {}
  },
  "time": {
    "samples": {
      "AcquisitionNumber": [1, 2, 3, 4, 5, 6, 7, 8, 9, 10, 11, 12, 13, 14, 15, 16, 17, 18, 19, 20, 21, 22, 23, 24, 25, 26, 27, 28, 29, 30, 31, 32, 33, 34, 35, 36, 37, 38, 39, 40, 41, 42, 43, 44, 45, 46, 47, 48, 49, 50, 51, 52, 53, 54, 55, 56, 57, 58, 59, 60, 61, 62, 63, 64, 65, 66, 67, 68, 69, 70, 71, 72, 73, 74, 75, 76, 77, 78, 79, 80, 81, 82, 83, 84, 85, 86, 87, 88, 89, 90, 91, 92, 93, 94, 95, 96, 97, 98, 99, 100, 101, 102, 103, 104, 105, 106, 107, 108, 109, 110, 111, 112, 113, 114, 115, 116, 117, 118, 119, 120, 121, 122, 123, 124, 125, 126, 127, 128, 129, 130, 131, 132, 133, 134, 135, 136, 137, 138, 139, 140, 141, 142, 143, 144, 145, 146, 147, 148, 149, 150, 151, 152, 153, 154, 155, 156, 157, 158, 159, 160, 161, 162, 163, 164, 165, 166, 167, 168, 169, 170, 171, 172, 173, 174, 175, 176, 177, 178, 179, 180, 181, 182, 183, 184, 185, 186, 187, 188, 189, 190, 191, 192, 193, 194, 195, 196, 197, 198, 199, 200, 201, 202, 203, 204, 205, 206, 207, 208, 209, 210, 211, 212, 213, 214, 215, 216, 217, 218, 219, 220, 221, 222, 223, 224, 225, 226, 227, 228, 229, 230, 231, 232, 233, 234, 235, 236, 237, 238, 239, 240, 241, 242, 243, 244, 245, 246, 247, 248, 249, 250, 251, 252, 253, 254, 255, 256, 257, 258, 259, 260, 261, 262, 263, 264, 265, 266, 267, 268, 269, 270, 271, 272, 273, 274, 275, 276, 277, 278, 279, 280, 281, 282, 283, 284, 285, 286, 287, 288, 289, 290, 291, 292, 293, 294, 295, 296, 297, 298, 299, 300, 301, 302, 303, 304, 305, 306, 307, 308, 309, 310, 311, 312, 313, 314, 315, 316, 317, 318, 319, 320, 321, 322, 323, 324, 325, 326, 327, 328, 329, 330, 331, 332, 333, 334, 335, 336, 337, 338, 339, 340, 341, 342, 343, 344, 345, 346, 347, 348, 349, 350, 351, 352, 353, 354, 355, 356, 357, 358, 359, 360, 361, 362, 363, 364, 365, 366, 367, 368, 369, 370, 371, 372, 373, 374, 375, 376, 377, 378, 379, 380, 381, 382, 383, 384, 385, 386, 387, 388, 389, 390, 391, 392, 393, 394, 395, 396, 397, 398, 399, 400, 401, 402, 403, 404, 405, 406, 407, 408, 409, 410, 411, 412, 413, 414, 415, 416, 417, 418, 419, 420, 421, 422, 423, 424, 425, 426, 427, 428, 429, 430, 431, 432, 433, 434, 435, 436, 437, 438, 439, 440, 441, 442, 443, 444, 445, 446, 447, 448, 449, 450, 451, 452, 453, 454, 455, 456, 457, 458, 459, 460, 461, 462, 463, 464, 465, 466, 467, 468, 469, 470, 471, 472, 473, 474, 475, 476, 477, 478, 479, 480, 481, 482, 483, 484, 485, 486, 487, 488, 489, 490, 491, 492, 493, 494, 495, 496, 497, 498, 499, 500, 501, 502, 503, 504, 505, 506, 507, 508, 509, 510, 511, 512, 513, 514, 515, 516, 517, 518, 519, 520, 521, 522, 523, 524, 525, 526, 527, 528, 529, 530, 531, 532, 533, 534, 535, 536, 537, 538, 539, 540, 541, 542, 543, 544, 545, 546, 547, 548, 549, 550, 551, 552, 553, 554, 555, 556, 557, 558, 559, 560, 561, 562, 563, 564, 565, 566, 567, 568, 569, 570, 571, 572, 573, 574, 575, 576, 577, 578, 579, 580, 581, 582, 583, 584, 585, 586, 587, 588, 589, 590, 591, 592, 593, 594, 595, 596, 597, 598, 599, 600, 601, 602, 603, 604, 605, 606, 607, 608, 609, 610, 611, 612, 613, 614, 615, 616, 617, 618, 619, 620, 621, 622, 623, 624, 625, 626, 627, 628, 629, 630, 631, 632, 633, 634, 635, 636, 637, 638, 639, 640, 641, 642, 643, 644, 645, 646, 647, 648, 649, 650, 651, 652, 653, 654, 655, 656, 657, 658, 659, 660, 661, 662, 663, 664, 665, 666, 667, 668, 669, 670, 671, 672, 673, 674, 675, 676, 677, 678, 679, 680, 681, 682, 683, 684, 685, 686, 687, 688, 689, 690, 691, 692, 693, 694, 695, 696, 697, 698, 699, 700, 701, 702, 703, 704, 705, 706, 707, 708, 709, 710, 711, 712, 713, 714, 715, 716, 717, 718, 719, 720, 721, 722, 723, 724, 725, 726, 727, 728, 729, 730, 731, 732, 733, 734, 735, 736, 737, 738, 739, 740, 741, 742, 743, 744, 745, 746, 747, 748, 749, 750, 751, 752, 753, 754, 755, 756, 757, 758, 759, 760, 761, 762, 763, 764, 765, 766, 767, 768, 769, 770, 771, 772, 773, 774, 775, 776, 777, 778, 779, 780, 781, 782, 783, 784, 785, 786, 787, 788, 789, 790, 791, 792, 793, 794, 795, 796, 797, 798, 799, 800, 801, 802, 803, 804, 805, 806, 807, 808, 809, 810, 811, 812, 813, 814, 815, 816, 817, 818, 819, 820, 821, 822, 823, 824, 825, 826, 827, 828, 829, 830, 831, 832, 833, 834, 835, 836, 837, 838, 839, 840, 841, 842, 843, 844, 845, 846, 847, 848, 849, 850, 851, 852, 853, 854, 855, 856, 857, 858, 859, 860, 861, 862, 863, 864, 865, 866, 867, 868, 869, 870, 871, 872],
      "AcquisitionTime": ["165604.540000", "165605.000000", "165605.460000", "165605.920000", "165606.380000", "165606.840000", "165607.300000", "165607.760000", "165608.220000", "165608.680000", "165609.140000", "165609.600000", "165610.060000", "165610.520000", "165610.980000", "165611.440000", "165611.900000", "165612.360000", "165612.820000", "165613.280000", "165613.740000", "165614.200000", "165614.660000", "165615.120000", "165615.580000", "165616.040000", "165616.500000", "165616.960000", "165617.420000", "165617.880000", "165618.340000", "165618.800000", "165619.260000", "165619.720000", "165620.180000", "165620.640000", "165621.100000", "165621.560000", "165622.020000", "165622.480000", "165622.940000", "165623.400000", "165623.860000", "165624.320000", "165624.780000", "165625.240000", "165625.700000", "165626.160000", "165626.620000", "165627.080000", "165627.540000", "165628.000000", "165628.460000", "165628.920000", "165629.380000", "165629.840000", "165630.300000", "165630.760000", "165631.220000", "165631.680000", "165632.140000", "165632.600000", "165633.060000", "165633.520000", "165633.980000", "165634.440000", "165634.900000", "165635.360000", "165635.820000", "165636.280000", "165636.740000", "165637.200000", "165637.660000", "165638.120000", "165638.580000", "165639.040000", "165639.500000", "165639.960000", "165640.420000", "165640.880000", "165641.340000", "165641.800000", "165642.260000", "165642.720000", "165643.180000", "165643.640000", "165644.100000", "165644.560000", "165645.020000", "165645.480000", "165645.940000", "165646.400000", "165646.860000", "165647.320000", "165647.780000", "165648.240000", "165648.700000", "165649.160000", "165649.620000", "165650.080000", "165650.540000", "165651.000000", "165651.460000", "165651.920000", "165652.380000", "165652.840000", "165653.300000", "165653.760000", "165654.220000", "165654.680000", "165655.140000", "165655.600000", "165656.060000", "165656.520000", "165656.980000", "165657.440000", "165657.900000", "165658.360000", "165658.820000", "165659.280000", "165659.740000", "165700.200000", "165700.660000", "165701.120000", "165701.580000", "165702.040000", "165702.500000", "165702.960000", "165703.420000", "165703.880000", "165704.340000", "165704.800000", "165705.260000", "165705.720000", "165706.180000", "165706.640000", "165707.100000", "165707.560000", "165708.020000", "165708.480000", "165708.940000", "165709.400000", "165709.860000", "165710.320000", "165710.780000", "165711.240000", "165711.700000", "165712.160000", "165712.620000", "165713.080000", "165713.540000", "165714.000000", "165714.460000", "165714.920000", "165715.380000", "165715.840000", "165716.300000", "165716.760000", "165717.220000", "165717.680000", "165718.140000", "165718.600000", "165719.060000", "165719.520000", "165719.980000", "165720.440000", "165720.900000", "165721.360000", "165721.820000", "165722.280000", "165722.740000", "165723.200000", "165723.660000", "165724.120000", "165724.580000", "165725.040000", "165725.500000", "165725.960000", "165726.420000", "165726.880000", "165727.340000", "165727.800000", "165728.260000", "165728.720000", "165729.180000", "165729.640000", "165730.100000", "165730.560000", "165731.020000", "165731.480000", "165731.940000", "165732.400000", "165732.860000", "165733.320000", "165733.780000", "165734.240000", "165734.700000", "165735.160000", "165735.620000", "165736.080000", "165736.540000", "165737.000000", "165737.460000", "165737.920000", "165738.380000", "165738.840000", "165739.300000", "165739.760000", "165740.220000", "165740.680000", "165741.140000", "165741.600000", "165742.060000", "165742.520000", "165742.980000", "165743.440000", "165743.900000", "165744.360000", "165744.820000", "165745.280000", "165745.740000", "165746.200000", "165746.660000", "165747.120000", "165747.580000", "165748.040000", "165748.500000", "165748.960000", "165749.420000", "165749.880000", "165750.340000", "165750.800000", "165751.260000", "165751.720000", "165752.180000", "165752.640000", "165753.100000", "165753.560000", "165754.020000", "165754.480000", "165754.940000", "165755.400000", "165755.860000", "165756.320000", "165756.780000", "165757.240000", "165757.700000", "165758.160000", "165758.620000", "165759.080000", "165759.540000", "165800.000000", "165800.460000", "165800.920000", "165801.380000", "165801.840000", "165802.300000", "165802.760000", "165803.220000", "165803.680000", "165804.140000", "165804.600000", "165805.060000", "165805.520000", "165805.980000", "165806.440000", "165806.900000", "165807.360000", "165807.820000", "165808.280000", "165808.740000", "165809.200000", "165809.660000", "165810.120000", "165810.580000", "165811.040000", "165811.500000", "165811.960000", "165812.420000", "165812.880000", "165813.340000", "165813.800000", "165814.260000", "165814.720000", "165815.180000", "165815.640000", "165816.100000", "165816.560000", "165817.020000", "165817.480000", "165817.940000", "165818.400000", "165818.860000", "165819.320000", "165819.780000", "165820.240000", "165820.700000", "165821.160000", "165821.620000", "165822.080000", "165822.540000", "165823.000000", "165823.460000", "165823.920000", "165824.380000", "165824.840000", "165825.300000", "165825.760000", "165826.220000", "165826.680000", "165827.140000", "165827.600000", "165828.060000", "165828.520000", "165828.980000", "165829.440000", "165829.900000", "165830.360000", "165830.820000", "165831.280000", "165831.740000", "165832.200000", "165832.660000", "165833.120000", "165833.580000", "165834.040000", "165834.500000", "165834.960000", "165835.420000", "165835.880000", "165836.340000", "165836.800000", "165837.260000", "165837.720000", "165838.180000", "165838.640000", "165839.100000", "165839.560000", "165840.020000", "165840.480000", "165840.940000", "165841.400000", "165841.860000", "165842.320000", "165842.780000", "165843.240000", "165843.700000", "165844.160000", "165844.620000", "165845.080000", "165845.540000", "165846.000000", "165846.460000", "165846.920000", "165847.380000", "165847.840000", "165848.300000", "165848.760000", "165849.220000", "165849.680000", "165850.140000", "165850.600000", "165851.060000", "165851.520000", "165851.980000", "165852.440000", "165852.900000", "165853.360000", "165853.820000", "165854.280000", "165854.740000", "165855.200000", "165855.660000", "165856.120000", "165856.580000", "165857.040000", "165857.500000", "165857.960000", "165858.420000", "165858.880000", "165859.340000", "165859.800000", "165900.260000", "165900.720000", "165901.180000", "165901.640000", "165902.100000", "165902.560000", "165903.020000", "165903.480000", "165903.940000", "165904.400000", "165904.860000", "165905.320000", "165905.780000", "165906.240000", "165906.700000", "165907.160000", "165907.620000", "165908.080000", "165908.540000", "165909.000000", "165909.460000", "165909.920000", "165910.380000", "165910.840000", "165911.300000", "165911.760000", "165912.220000", "165912.680000", "165913.140000", "165913.600000", "165914.060000", "165914.520000", "165914.980000", "165915.440000", "165915.900000", "165916.360000", "165916.820000", "165917.280000", "165917.740000", "165918.200000", "165918.660000", "165919.120000", "165919.580000", "165920.040000", "165920.500000", "165920.960000", "165921.420000", "165921.880000", "165922.340000", "165922.800000", "165923.260000", "165923.720000", "165924.180000", "165924.640000", "165925.100000", "165925.560000", "165926.020000", "165926.480000", "165926.940000", "165927.400000", "165927.860000", "165928.320000", "165928.780000", "165929.240000", "165929.700000", "165930.160000", "165930.620000", "165931.080000", "165931.540000", "165932.000000", "165932.460000", "165932.920000", "165933.380000", "165933.840000", "165934.300000", "165934.760000", "165935.220000", "165935.680000", "165936.140000", "165936.600000", "165937.060000", "165937.520000", "165937.980000", "165938.440000", "165938.900000", "165939.360000", "165939.820000", "165940.280000", "165940.740000", "165941.200000", "165941.660000", "165942.120000", "165942.580000", "165943.040000", "165943.500000", "165943.960000", "165944.420000", "165944.880000", "165945.340000", "165945.800000", "165946.260000", "165946.720000", "165947.180000", "165947.640000", "165948.100000", "165948.560000", "165949.020000", "165949.480000", "165949.940000", "165950.400000", "165950.860000", "165951.320000", "165951.780000", "165952.240000", "165952.700000", "165953.160000", "165953.620000", "165954.080000", "165954.540000", "165955.000000", "165955.460000", "165955.920000", "165956.380000", "165956.840000", "165957.300000", "165957.760000", "165958.220000", "165958.680000", "165959.140000", "165959.600000", "170000.060000", "170000.520000", "170000.980000", "170001.440000", "170001.900000", "170002.360000", "170002.820000", "170003.280000", "170003.740000", "170004.200000", "170004.660000", "170005.120000", "170005.580000", "170006.040000", "170006.500000", "170006.960000", "170007.420000", "170007.880000", "170008.340000", "170008.800000", "170009.260000", "170009.720000", "170010.180000", "170010.640000", "170011.100000", "170011.560000", "170012.020000", "170012.480000", "170012.940000", "170013.400000", "170013.860000", "170014.320000", "170014.780000", "170015.240000", "170015.700000", "170016.160000", "170016.620000", "170017.080000", "170017.540000", "170018.000000", "170018.460000", "170018.920000", "170019.380000", "170019.840000", "170020.300000", "170020.760000", "170021.220000", "170021.680000", "170022.140000", "170022.600000", "170023.060000", "170023.520000", "170023.980000", "170024.440000", "170024.900000", "170025.360000", "170025.820000", "170026.280000", "170026.740000", "170027.200000", "170027.660000", "170028.120000", "170028.580000", "170029.040000", "170029.500000", "170029.960000", "170030.420000", "170030.880000", "170031.340000", "170031.800000", "170032.260000", "170032.720000", "170033.180000", "170033.640000", "170034.100000", "170034.560000", "170035.020000", "170035.480000", "170035.940000", "170036.400000", "170036.860000", "170037.320000", "170037.780000", "170038.240000", "170038.700000", "170039.160000", "170039.620000", "170040.080000", "170040.540000", "170041.000000", "170041.460000", "170041.920000", "170042.380000", "170042.840000", "170043.300000", "170043.760000", "170044.220000", "170044.680000", "170045.140000", "170045.600000", "170046.060000", "170046.520000", "170046.980000", "170047.440000", "170047.900000", "170048.360000", "170048.820000", "170049.280000", "170049.740000", "170050.200000", "170050.660000", "170051.120000", "170051.580000", "170052.040000", "170052.500000", "170052.960000", "170053.420000", "170053.880000", "170054.340000", "170054.800000", "170055.260000", "170055.720000", "170056.180000", "170056.640000", "170057.100000", "170057.560000", "170058.020000", "170058.480000", "170058.940000", "170059.400000", "170059.860000", "170100.320000", "170100.780000", "170101.240000", "170101.700000", "170102.160000", "170102.620000", "170103.080000", "170103.540000", "170104.000000", "170104.460000", "170104.920000", "170105.380000", "170105.840000", "170106.300000", "170106.760000", "170107.220000", "170107.680000", "170108.140000", "170108.600000", "170109.060000", "170109.520000", "170109.980000", "170110.440000", "170110.900000", "170111.360000", "170111.820000", "170112.280000", "170112.740000", "170113.200000", "170113.660000", "170114.120000", "170114.580000", "170115.040000", "170115.500000", "170115.960000", "170116.420000", "170116.880000", "170117.340000", "170117.800000", "170118.260000", "170118.720000", "170119.180000", "170119.640000", "170120.100000", "170120.560000", "170121.020000", "170121.480000", "170121.940000", "170122.400000", "170122.860000", "170123.320000", "170123.780000", "170124.240000", "170124.700000", "170125.160000", "170125.620000", "170126.080000", "170126.540000", "170127.000000", "170127.460000", "170127.920000", "170128.380000", "170128.840000", "170129.300000", "170129.760000", "170130.220000", "170130.680000", "170131.140000", "170131.600000", "170132.060000", "170132.520000", "170132.980000", "170133.440000", "170133.900000", "170134.360000", "170134.820000", "170135.280000", "170135.740000", "170136.200000", "170136.660000", "170137.120000", "170137.580000", "170138.040000", "170138.500000", "170138.960000", "170139.420000", "170139.880000", "170140.340000", "170140.800000", "170141.260000", "170141.720000", "170142.180000", "170142.640000", "170143.100000", "170143.560000", "170144.020000", "170144.480000", "170144.940000", "170145.400000", "170145.860000", "170146.320000", "170146.780000", "170147.240000", "170147.700000", "170148.160000", "170148.620000", "170149.080000", "170149.540000", "170150.000000", "170150.460000", "170150.920000", "170151.380000", "170151.840000", "170152.300000", "170152.760000", "170153.220000", "170153.680000", "170154.140000", "170154.600000", "170155.060000", "170155.520000", "170155.980000", "170156.440000", "170156.900000", "170157.360000", "170157.820000", "170158.280000", "170158.740000", "170159.200000", "170159.660000", "170200.120000", "170200.580000", "170201.040000", "170201.500000", "170201.960000", "170202.420000", "170202.880000", "170203.340000", "170203.800000", "170204.260000", "170204.720000", "170205.180000", "170205.640000", "170206.100000", "170206.560000", "170207.020000", "170207.480000", "170207.940000", "170208.400000", "170208.860000", "170209.320000", "170209.780000", "170210.240000", "170210.700000", "170211.160000", "170211.620000", "170212.080000", "170212.540000", "170213.000000", "170213.460000", "170213.920000", "170214.380000", "170214.840000", "170215.300000", "170215.760000", "170216.220000", "170216.680000", "170217.140000", "170217.600000", "170218.060000", "170218.520000", "170218.980000", "170219.440000", "170219.900000", "170220.360000", "170220.820000", "170221.280000", "170221.740000", "170222.200000", "170222.660000", "170223.120000", "170223.580000", "170224.040000", "170224.500000", "170224.960000", "170225.420000", "170225.880000", "170226.340000", "170226.800000", "170227.260000", "170227.720000", "170228.180000", "170228.640000", "170229.100000", "170229.560000", "170230.020000", "170230.480000", "170230.940000", "170231.400000", "170231.860000", "170232.320000", "170232.780000", "170233.240000", "170233.700000", "170234.160000", "170234.620000", "170235.080000", "170235.540000", "170236.000000", "170236.460000", "170236.920000", "170237.380000", "170237.840000", "170238.300000", "170238.760000", "170239.220000", "170239.680000", "170240.140000", "170240.600000", "170241.060000", "170241.520000", "170241.980000", "170242.440000", "170242.900000", "170243.360000", "170243.820000", "170244.280000", "170244.740000", "170245.200000"],
