{
  "AcquisitionMatrixPE": 82,
  "AcquisitionNumber": 1,
  "AcquisitionTime": "16:49:1.545000",
  "BandwidthPerPixelPhaseEncode": 24.888,
  "BaseResolution": 82,
  "BodyPartExamined": "BRAIN",
  "ConsistencyInfo": "N4_VE11E_LATEST_20181129",
  "ConversionSoftware": "dcm2niix",
  "ConversionSoftwareVersion": "v1.0.20201102",
  "DerivedVendorReportedEchoSpacing": 0.00049,
  "DeviceSerialNumber": "66112",
  "DwellTime": 2e-06,
  "EchoTime": 0.0272,
  "EchoTrainLength": 82,
  "EffectiveEchoSpacing": 0.00049,
  "FlipAngle": 44,
  "ImageComments": "Unaliased MB8/PE3",
  "ImageOrientationPatientDICOM": [0.999467, -0.0154305, 0.0287825, 0.0122114, 0.993984, 0.108842],
  "ImageType": [
    "ORIGINAL",
    "PRIMARY",
    "M",
    "MB",
    "ND",
    "NORM",
    "MOSAIC"
],
  "ImagingFrequency": 123.252,
  "InPlanePhaseEncodingDirectionDICOM": "COL",
  "InstitutionAddress": "Maynard 3,Hanover,NH,US,03755",
  "InstitutionName": "Dartmouth College - PBS",
  "InstitutionalDepartmentName": "Department",
  "MRAcquisitionType": "2D",
  "MagneticFieldStrength": 3,
  "Manufacturer": "Siemens",
  "ManufacturersModelName": "Prisma",
  "Modality": "MR",
  "MultibandAccelerationFactor": 8,
  "PartialFourier": 1,
  "PatientPosition": "HFS",
  "PercentPhaseFOV": 100,
  "PercentSampling": 100,
  "PhaseEncodingDirection": "j-",
  "PhaseEncodingSteps": 82,
  "PhaseResolution": 1,
  "PixelBandwidth": 3050,
  "ProcedureStepDescription": "Wager_Wager^1076_spacetop",
  "ProtocolName": "func_run-02_task-social_acq-ap-mb8",
  "PulseSequenceDetails": "%CustomerSeq%\\cmrr_mbep2d_bold",
  "ReceiveCoilActiveElements": "HEA;HEP",
  "ReceiveCoilName": "Head_32",
  "ReconMatrixPE": 82,
  "RepetitionTime": 0.46,
  "SAR": 0.0927817,
  "ScanOptions": "FS",
  "ScanningSequence": "EP",
  "SequenceName": "epfid2d1_82",
  "SequenceVariant": "SK\\SS",
  "SeriesDescription": "func_run-02_task-social_acq-ap-mb8",
  "SeriesNumber": 10,
  "ShimSetting": [4149, -7704, -7295, 681, -60, -28, 1, 94],
  "SliceThickness": 2.7,
  "SliceTiming": [0, 0.2525, 0.065, 0.315, 0.1275, 0.3775, 0.19, 0, 0.2525, 0.065, 0.315, 0.1275, 0.3775, 0.19, 0, 0.2525, 0.065, 0.315, 0.1275, 0.3775, 0.19, 0, 0.2525, 0.065, 0.315, 0.1275, 0.3775, 0.19, 0, 0.2525, 0.065, 0.315, 0.1275, 0.3775, 0.19, 0, 0.2525, 0.065, 0.315, 0.1275, 0.3775, 0.19, 0, 0.2525, 0.065, 0.315, 0.1275, 0.3775, 0.19, 0, 0.2525, 0.065, 0.315, 0.1275, 0.3775, 0.19],
  "SoftwareVersions": "syngo MR E11",
  "SpacingBetweenSlices": 2.7,
  "StationName": "AWP66112",
  "TaskName": "social",
  "TotalReadoutTime": 0.03969,
  "TxRefAmp": 237.529,
  "WipMemBlock": "c8007596-396f-48d2-9dd5-6f0419c9f6b4||Sequence: R016 ve11e/master r/434b28f1; Aug  7 2019 18:53:46 by eja",
  "dcmmeta_affine": [
    [-2.6814959049224854, 0.032762352377176285, 0.08177974075078964, 112.24788665771484],
    [0.04139883443713188, 2.6667866706848145, 0.2927672863006592, -110.64653778076172],
    [0.07722125202417374, -0.2920147776603699, 2.6828341484069824, -57.08112335205078],
    [0.0, 0.0, 0.0, 1.0]
],
  "dcmmeta_reorient_transform": [
    [0.0, -1.0, 0.0, 81.0],
    [1.0, 0.0, 0.0, 0.0],
    [0.0, 0.0, 1.0, 0.0],
    [0.0, 0.0, 0.0, 1.0]
],
  "dcmmeta_shape": [82, 82, 56, 872],
  "dcmmeta_slice_dim": 2,
  "dcmmeta_version": 0.6,
  "global": {
    "const": {
      "AccessionNumber": "A003923",
      "AcquisitionMatrix": [82, 0, 0, 82],
      "AngioFlag": "N",
      "BitsAllocated": 16,
      "BitsStored": 16,
      "BodyPartExamined": "BRAIN",
      "Columns": 656,
      "EchoNumbers": 1,
      "EchoTime": 27.2,
      "EchoTrainLength": 82,
      "FlipAngle": 44.0,
      "HighBit": 15,
      "ImageOrientationPatient": [0.99946659279196, -0.0154304748971, 0.0287824657957, 0.01221142255699, 0.99398406881531, 0.10884186740637],
      "ImagePositionPatient": [-893.89373014903, -858.84945867445, -186.70505819514],
      "ImageType": [
        "ORIGINAL",
        "PRIMARY",
        "M",
        "MB",
        "ND",
        "NORM",
        "MOSAIC"
],
      "ImagedNucleus": "1H",
      "ImagingFrequency": 123.252235,
      "InPlanePhaseEncodingDirection": "COL",
      "MRAcquisitionType": "2D",
      "MagneticFieldStrength": 3.0,
      "Manufacturer": "SIEMENS",
      "ManufacturerModelName": "Prisma",
      "Modality": "MR",
      "NumberOfAverages": 1.0,
      "NumberOfPhaseEncodingSteps": 82,
      "PercentPhaseFieldOfView": 100.0,
      "PercentSampling": 100.0,
      "PerformedProcedureStepStartTime": "163049.739000",
      "PhotometricInterpretation": "MONOCHROME2",
      "PixelBandwidth": 3050.0,
      "PixelRepresentation": 0,
      "PixelSpacing": [2.6829268932343, 2.6829268932343],
      "ProtocolName": "func_run-02_task-social_acq-ap-mb8",
      "RepetitionTime": 460.0,
      "Rows": 656,
      "SAR": 0.09278171795894,
      "SamplesPerPixel": 1,
      "ScanOptions": "FS",
      "ScanningSequence": "EP",
      "SequenceName": "epfid2d1_82",
      "SequenceVariant": [
        "SK",
        "SS"
],
      "SeriesDescription": "func_run-02_task-social_acq-ap-mb8",
      "SeriesNumber": 10,
      "SeriesTime": "164917.845000",
      "SliceLocation": -65.316027324838,
      "SliceThickness": 2.7000000476837,
      "SmallestImagePixelValue": 0,
      "SoftwareVersions": "syngo MR E11",
      "SpacingBetweenSlices": 2.6999999333127,
      "SpecificCharacterSet": "ISO_IR 100",
      "StudyID": "3",
      "StudyTime": "163049.673000",
      "TransmitCoilName": "Body",
      "VariableFlipAngleFlag": "N",
      "WindowCenterWidthExplanation": "Algo1"
    },
    "slices": {}
  },
  "time": {
    "samples": {
      "AcquisitionNumber": [1, 2, 3, 4, 5, 6, 7, 8, 9, 10, 11, 12, 13, 14, 15, 16, 17, 18, 19, 20, 21, 22, 23, 24, 25, 26, 27, 28, 29, 30, 31, 32, 33, 34, 35, 36, 37, 38, 39, 40, 41, 42, 43, 44, 45, 46, 47, 48, 49, 50, 51, 52, 53, 54, 55, 56, 57, 58, 59, 60, 61, 62, 63, 64, 65, 66, 67, 68, 69, 70, 71, 72, 73, 74, 75, 76, 77, 78, 79, 80, 81, 82, 83, 84, 85, 86, 87, 88, 89, 90, 91, 92, 93, 94, 95, 96, 97, 98, 99, 100, 101, 102, 103, 104, 105, 106, 107, 108, 109, 110, 111, 112, 113, 114, 115, 116, 117, 118, 119, 120, 121, 122, 123, 124, 125, 126, 127, 128, 129, 130, 131, 132, 133, 134, 135, 136, 137, 138, 139, 140, 141, 142, 143, 144, 145, 146, 147, 148, 149, 150, 151, 152, 153, 154, 155, 156, 157, 158, 159, 160, 161, 162, 163, 164, 165, 166, 167, 168, 169, 170, 171, 172, 173, 174, 175, 176, 177, 178, 179, 180, 181, 182, 183, 184, 185, 186, 187, 188, 189, 190, 191, 192, 193, 194, 195, 196, 197, 198, 199, 200, 201, 202, 203, 204, 205, 206, 207, 208, 209, 210, 211, 212, 213, 214, 215, 216, 217, 218, 219, 220, 221, 222, 223, 224, 225, 226, 227, 228, 229, 230, 231, 232, 233, 234, 235, 236, 237, 238, 239, 240, 241, 242, 243, 244, 245, 246, 247, 248, 249, 250, 251, 252, 253, 254, 255, 256, 257, 258, 259, 260, 261, 262, 263, 264, 265, 266, 267, 268, 269, 270, 271, 272, 273, 274, 275, 276, 277, 278, 279, 280, 281, 282, 283, 284, 285, 286, 287, 288, 289, 290, 291, 292, 293, 294, 295, 296, 297, 298, 299, 300, 301, 302, 303, 304, 305, 306, 307, 308, 309, 310, 311, 312, 313, 314, 315, 316, 317, 318, 319, 320, 321, 322, 323, 324, 325, 326, 327, 328, 329, 330, 331, 332, 333, 334, 335, 336, 337, 338, 339, 340, 341, 342, 343, 344, 345, 346, 347, 348, 349, 350, 351, 352, 353, 354, 355, 356, 357, 358, 359, 360, 361, 362, 363, 364, 365, 366, 367, 368, 369, 370, 371, 372, 373, 374, 375, 376, 377, 378, 379, 380, 381, 382, 383, 384, 385, 386, 387, 388, 389, 390, 391, 392, 393, 394, 395, 396, 397, 398, 399, 400, 401, 402, 403, 404, 405, 406, 407, 408, 409, 410, 411, 412, 413, 414, 415, 416, 417, 418, 419, 420, 421, 422, 423, 424, 425, 426, 427, 428, 429, 430, 431, 432, 433, 434, 435, 436, 437, 438, 439, 440, 441, 442, 443, 444, 445, 446, 447, 448, 449, 450, 451, 452, 453, 454, 455, 456, 457, 458, 459, 460, 461, 462, 463, 464, 465, 466, 467, 468, 469, 470, 471, 472, 473, 474, 475, 476, 477, 478, 479, 480, 481, 482, 483, 484, 485, 486, 487, 488, 489, 490, 491, 492, 493, 494, 495, 496, 497, 498, 499, 500, 501, 502, 503, 504, 505, 506, 507, 508, 509, 510, 511, 512, 513, 514, 515, 516, 517, 518, 519, 520, 521, 522, 523, 524, 525, 526, 527, 528, 529, 530, 531, 532, 533, 534, 535, 536, 537, 538, 539, 540, 541, 542, 543, 544, 545, 546, 547, 548, 549, 550, 551, 552, 553, 554, 555, 556, 557, 558, 559, 560, 561, 562, 563, 564, 565, 566, 567, 568, 569, 570, 571, 572, 573, 574, 575, 576, 577, 578, 579, 580, 581, 582, 583, 584, 585, 586, 587, 588, 589, 590, 591, 592, 593, 594, 595, 596, 597, 598, 599, 600, 601, 602, 603, 604, 605, 606, 607, 608, 609, 610, 611, 612, 613, 614, 615, 616, 617, 618, 619, 620, 621, 622, 623, 624, 625, 626, 627, 628, 629, 630, 631, 632, 633, 634, 635, 636, 637, 638, 639, 640, 641, 642, 643, 644, 645, 646, 647, 648, 649, 650, 651, 652, 653, 654, 655, 656, 657, 658, 659, 660, 661, 662, 663, 664, 665, 666, 667, 668, 669, 670, 671, 672, 673, 674, 675, 676, 677, 678, 679, 680, 681, 682, 683, 684, 685, 686, 687, 688, 689, 690, 691, 692, 693, 694, 695, 696, 697, 698, 699, 700, 701, 702, 703, 704, 705, 706, 707, 708, 709, 710, 711, 712, 713, 714, 715, 716, 717, 718, 719, 720, 721, 722, 723, 724, 725, 726, 727, 728, 729, 730, 731, 732, 733, 734, 735, 736, 737, 738, 739, 740, 741, 742, 743, 744, 745, 746, 747, 748, 749, 750, 751, 752, 753, 754, 755, 756, 757, 758, 759, 760, 761, 762, 763, 764, 765, 766, 767, 768, 769, 770, 771, 772, 773, 774, 775, 776, 777, 778, 779, 780, 781, 782, 783, 784, 785, 786, 787, 788, 789, 790, 791, 792, 793, 794, 795, 796, 797, 798, 799, 800, 801, 802, 803, 804, 805, 806, 807, 808, 809, 810, 811, 812, 813, 814, 815, 816, 817, 818, 819, 820, 821, 822, 823, 824, 825, 826, 827, 828, 829, 830, 831, 832, 833, 834, 835, 836, 837, 838, 839, 840, 841, 842, 843, 844, 845, 846, 847, 848, 849, 850, 851, 852, 853, 854, 855, 856, 857, 858, 859, 860, 861, 862, 863, 864, 865, 866, 867, 868, 869, 870, 871, 872],
      "AcquisitionTime": ["164901.545000", "164902.005000", "164902.465000", "164902.925000", "164903.385000", "164903.845000", "164904.305000", "164904.765000", "164905.225000", "164905.685000", "164906.145000", "164906.605000", "164907.065000", "164907.525000", "164907.985000", "164908.445000", "164908.905000", "164909.365000", "164909.825000", "164910.285000", "164910.745000", "164911.205000", "164911.665000", "164912.125000", "164912.585000", "164913.045000", "164913.505000", "164913.965000", "164914.425000", "164914.885000", "164915.345000", "164915.805000", "164916.265000", "164916.725000", "164917.185000", "164917.645000", "164918.105000", "164918.565000", "164919.025000", "164919.485000", "164919.945000", "164920.405000", "164920.865000", "164921.325000", "164921.785000", "164922.245000", "164922.705000", "164923.165000", "164923.625000", "164924.085000", "164924.545000", "164925.005000", "164925.465000", "164925.925000", "164926.385000", "164926.845000", "164927.305000", "164927.765000", "164928.225000", "164928.685000", "164929.145000", "164929.605000", "164930.065000", "164930.525000", "164930.985000", "164931.445000", "164931.905000", "164932.365000", "164932.825000", "164933.285000", "164933.745000", "164934.205000", "164934.665000", "164935.125000", "164935.585000", "164936.045000", "164936.505000", "164936.965000", "164937.425000", "164937.885000", "164938.345000", "164938.805000", "164939.265000", "164939.725000", "164940.185000", "164940.645000", "164941.105000", "164941.565000", "164942.025000", "164942.485000", "164942.945000", "164943.405000", "164943.865000", "164944.325000", "164944.785000", "164945.245000", "164945.705000", "164946.165000", "164946.625000", "164947.085000", "164947.545000", "164948.005000", "164948.465000", "164948.925000", "164949.385000", "164949.845000", "164950.305000", "164950.765000", "164951.225000", "164951.685000", "164952.145000", "164952.605000", "164953.065000", "164953.525000", "164953.985000", "164954.445000", "164954.905000", "164955.365000", "164955.825000", "164956.285000", "164956.745000", "164957.205000", "164957.665000", "164958.125000", "164958.585000", "164959.045000", "164959.505000", "164959.965000", "165000.425000", "165000.885000", "165001.345000", "165001.805000", "165002.265000", "165002.725000", "165003.185000", "165003.645000", "165004.105000", "165004.565000", "165005.025000", "165005.485000", "165005.945000", "165006.405000", "165006.865000", "165007.325000", "165007.785000", "165008.245000", "165008.705000", "165009.165000", "165009.625000", "165010.085000", "165010.545000", "165011.005000", "165011.465000", "165011.925000", "165012.385000", "165012.845000", "165013.305000", "165013.765000", "165014.225000", "165014.685000", "165015.145000", "165015.605000", "165016.065000", "165016.525000", "165016.985000", "165017.445000", "165017.905000", "165018.365000", "165018.825000", "165019.285000", "165019.745000", "165020.205000", "165020.665000", "165021.125000", "165021.585000", "165022.045000", "165022.505000", "165022.965000", "165023.425000", "165023.885000", "165024.345000", "165024.805000", "165025.265000", "165025.725000", "165026.185000", "165026.645000", "165027.105000", "165027.565000", "165028.025000", "165028.485000", "165028.945000", "165029.405000", "165029.865000", "165030.325000", "165030.785000", "165031.245000", "165031.705000", "165032.165000", "165032.625000", "165033.085000", "165033.545000", "165034.005000", "165034.465000", "165034.925000", "165035.385000", "165035.845000", "165036.305000", "165036.765000", "165037.225000", "165037.685000", "165038.145000", "165038.605000", "165039.065000", "165039.525000", "165039.985000", "165040.445000", "165040.905000", "165041.365000", "165041.825000", "165042.285000", "165042.745000", "165043.205000", "165043.665000", "165044.125000", "165044.585000", "165045.045000", "165045.505000", "165045.965000", "165046.425000", "165046.885000", "165047.345000", "165047.805000", "165048.265000", "165048.725000", "165049.185000", "165049.645000", "165050.105000", "165050.565000", "165051.025000", "165051.485000", "165051.945000", "165052.405000", "165052.865000", "165053.325000", "165053.785000", "165054.245000", "165054.705000", "165055.165000", "165055.625000", "165056.085000", "165056.545000", "165057.005000", "165057.465000", "165057.925000", "165058.385000", "165058.845000", "165059.305000", "165059.765000", "165100.225000", "165100.685000", "165101.145000", "165101.605000", "165102.065000", "165102.525000", "165102.985000", "165103.445000", "165103.905000", "165104.365000", "165104.825000", "165105.285000", "165105.745000", "165106.205000", "165106.665000", "165107.125000", "165107.585000", "165108.045000", "165108.505000", "165108.965000", "165109.425000", "165109.885000", "165110.345000", "165110.805000", "165111.265000", "165111.725000", "165112.185000", "165112.645000", "165113.105000", "165113.565000", "165114.025000", "165114.485000", "165114.945000", "165115.405000", "165115.865000", "165116.325000", "165116.785000", "165117.245000", "165117.705000", "165118.165000", "165118.625000", "165119.085000", "165119.545000", "165120.005000", "165120.465000", "165120.925000", "165121.385000", "165121.845000", "165122.305000", "165122.765000", "165123.225000", "165123.685000", "165124.145000", "165124.605000", "165125.065000", "165125.525000", "165125.985000", "165126.445000", "165126.905000", "165127.365000", "165127.825000", "165128.285000", "165128.745000", "165129.205000", "165129.665000", "165130.125000", "165130.585000", "165131.045000", "165131.505000", "165131.965000", "165132.425000", "165132.885000", "165133.345000", "165133.805000", "165134.265000", "165134.725000", "165135.185000", "165135.645000", "165136.105000", "165136.565000", "165137.025000", "165137.485000", "165137.945000", "165138.405000", "165138.865000", "165139.325000", "165139.785000", "165140.245000", "165140.705000", "165141.165000", "165141.625000", "165142.085000", "165142.545000", "165143.005000", "165143.465000", "165143.925000", "165144.385000", "165144.845000", "165145.305000", "165145.765000", "165146.225000", "165146.685000", "165147.145000", "165147.605000", "165148.065000", "165148.525000", "165148.985000", "165149.445000", "165149.905000", "165150.365000", "165150.825000", "165151.285000", "165151.745000", "165152.205000", "165152.665000", "165153.125000", "165153.585000", "165154.045000", "165154.505000", "165154.965000", "165155.425000", "165155.885000", "165156.345000", "165156.805000", "165157.265000", "165157.725000", "165158.185000", "165158.645000", "165159.105000", "165159.565000", "165200.025000", "165200.485000", "165200.945000", "165201.405000", "165201.865000", "165202.325000", "165202.785000", "165203.245000", "165203.705000", "165204.165000", "165204.625000", "165205.085000", "165205.545000", "165206.005000", "165206.465000", "165206.925000", "165207.385000", "165207.845000", "165208.305000", "165208.765000", "165209.225000", "165209.685000", "165210.145000", "165210.605000", "165211.065000", "165211.525000", "165211.985000", "165212.445000", "165212.905000", "165213.365000", "165213.825000", "165214.285000", "165214.745000", "165215.205000", "165215.665000", "165216.125000", "165216.585000", "165217.045000", "165217.505000", "165217.965000", "165218.425000", "165218.885000", "165219.345000", "165219.805000", "165220.265000", "165220.725000", "165221.185000", "165221.645000", "165222.105000", "165222.565000", "165223.025000", "165223.485000", "165223.945000", "165224.405000", "165224.865000", "165225.325000", "165225.785000", "165226.245000", "165226.705000", "165227.165000", "165227.625000", "165228.085000", "165228.545000", "165229.005000", "165229.465000", "165229.925000", "165230.385000", "165230.845000", "165231.305000", "165231.765000", "165232.225000", "165232.685000", "165233.145000", "165233.605000", "165234.065000", "165234.525000", "165234.985000", "165235.445000", "165235.905000", "165236.365000", "165236.825000", "165237.285000", "165237.745000", "165238.205000", "165238.665000", "165239.125000", "165239.585000", "165240.045000", "165240.505000", "165240.965000", "165241.425000", "165241.885000", "165242.345000", "165242.805000", "165243.265000", "165243.725000", "165244.185000", "165244.645000", "165245.105000", "165245.565000", "165246.025000", "165246.485000", "165246.945000", "165247.405000", "165247.865000", "165248.325000", "165248.785000", "165249.245000", "165249.705000", "165250.165000", "165250.625000", "165251.085000", "165251.545000", "165252.005000", "165252.465000", "165252.925000", "165253.385000", "165253.845000", "165254.305000", "165254.765000", "165255.225000", "165255.685000", "165256.145000", "165256.605000", "165257.065000", "165257.525000", "165257.985000", "165258.445000", "165258.905000", "165259.365000", "165259.825000", "165300.285000", "165300.745000", "165301.205000", "165301.665000", "165302.125000", "165302.585000", "165303.045000", "165303.505000", "165303.965000", "165304.425000", "165304.885000", "165305.345000", "165305.805000", "165306.265000", "165306.725000", "165307.185000", "165307.645000", "165308.105000", "165308.565000", "165309.025000", "165309.485000", "165309.945000", "165310.405000", "165310.865000", "165311.325000", "165311.785000", "165312.245000", "165312.705000", "165313.165000", "165313.625000", "165314.085000", "165314.545000", "165315.005000", "165315.465000", "165315.925000", "165316.385000", "165316.845000", "165317.305000", "165317.765000", "165318.225000", "165318.685000", "165319.145000", "165319.605000", "165320.065000", "165320.525000", "165320.985000", "165321.445000", "165321.905000", "165322.365000", "165322.825000", "165323.285000", "165323.745000", "165324.205000", "165324.665000", "165325.125000", "165325.585000", "165326.045000", "165326.505000", "165326.965000", "165327.425000", "165327.885000", "165328.345000", "165328.805000", "165329.265000", "165329.725000", "165330.185000", "165330.645000", "165331.105000", "165331.565000", "165332.025000", "165332.485000", "165332.945000", "165333.405000", "165333.865000", "165334.325000", "165334.785000", "165335.245000", "165335.705000", "165336.165000", "165336.625000", "165337.085000", "165337.545000", "165338.005000", "165338.465000", "165338.925000", "165339.385000", "165339.845000", "165340.305000", "165340.765000", "165341.225000", "165341.685000", "165342.145000", "165342.605000", "165343.065000", "165343.525000", "165343.985000", "165344.445000", "165344.905000", "165345.365000", "165345.825000", "165346.285000", "165346.745000", "165347.205000", "165347.665000", "165348.125000", "165348.585000", "165349.045000", "165349.505000", "165349.965000", "165350.425000", "165350.885000", "165351.345000", "165351.805000", "165352.265000", "165352.725000", "165353.185000", "165353.645000", "165354.105000", "165354.565000", "165355.025000", "165355.485000", "165355.945000", "165356.405000", "165356.865000", "165357.325000", "165357.785000", "165358.245000", "165358.705000", "165359.165000", "165359.625000", "165400.085000", "165400.545000", "165401.005000", "165401.465000", "165401.925000", "165402.385000", "165402.845000", "165403.305000", "165403.765000", "165404.225000", "165404.685000", "165405.145000", "165405.605000", "165406.065000", "165406.525000", "165406.985000", "165407.445000", "165407.905000", "165408.365000", "165408.825000", "165409.285000", "165409.745000", "165410.205000", "165410.665000", "165411.125000", "165411.585000", "165412.045000", "165412.505000", "165412.965000", "165413.425000", "165413.885000", "165414.345000", "165414.805000", "165415.265000", "165415.725000", "165416.185000", "165416.645000", "165417.105000", "165417.565000", "165418.025000", "165418.485000", "165418.945000", "165419.405000", "165419.865000", "165420.325000", "165420.785000", "165421.245000", "165421.705000", "165422.165000", "165422.625000", "165423.085000", "165423.545000", "165424.005000", "165424.465000", "165424.925000", "165425.385000", "165425.845000", "165426.305000", "165426.765000", "165427.225000", "165427.685000", "165428.145000", "165428.605000", "165429.065000", "165429.525000", "165429.985000", "165430.445000", "165430.905000", "165431.365000", "165431.825000", "165432.285000", "165432.745000", "165433.205000", "165433.665000", "165434.125000", "165434.585000", "165435.045000", "165435.505000", "165435.965000", "165436.425000", "165436.885000", "165437.345000", "165437.805000", "165438.265000", "165438.725000", "165439.185000", "165439.645000", "165440.105000", "165440.565000", "165441.025000", "165441.485000", "165441.945000", "165442.405000", "165442.865000", "165443.325000", "165443.785000", "165444.245000", "165444.705000", "165445.165000", "165445.625000", "165446.085000", "165446.545000", "165447.005000", "165447.465000", "165447.925000", "165448.385000", "165448.845000", "165449.305000", "165449.765000", "165450.225000", "165450.685000", "165451.145000", "165451.605000", "165452.065000", "165452.525000", "165452.985000", "165453.445000", "165453.905000", "165454.365000", "165454.825000", "165455.285000", "165455.745000", "165456.205000", "165456.665000", "165457.125000", "165457.585000", "165458.045000", "165458.505000", "165458.965000", "165459.425000", "165459.885000", "165500.345000", "165500.805000", "165501.265000", "165501.725000", "165502.185000", "165502.645000", "165503.105000", "165503.565000", "165504.025000", "165504.485000", "165504.945000", "165505.405000", "165505.865000", "165506.325000", "165506.785000", "165507.245000", "165507.705000", "165508.165000", "165508.625000", "165509.085000", "165509.545000", "165510.005000", "165510.465000", "165510.925000", "165511.385000", "165511.845000", "165512.305000", "165512.765000", "165513.225000", "165513.685000", "165514.145000", "165514.605000", "165515.065000", "165515.525000", "165515.985000", "165516.445000", "165516.905000", "165517.365000", "165517.825000", "165518.285000", "165518.745000", "165519.205000", "165519.665000", "165520.125000", "165520.585000", "165521.045000", "165521.505000", "165521.965000", "165522.425000", "165522.885000", "165523.345000", "165523.805000", "165524.265000", "165524.725000", "165525.185000", "165525.645000", "165526.105000", "165526.565000", "165527.025000", "165527.485000", "165527.945000", "165528.405000", "165528.865000", "165529.325000", "165529.785000", "165530.245000", "165530.705000", "165531.165000", "165531.625000", "165532.085000", "165532.545000", "165533.005000", "165533.465000", "165533.925000", "165534.385000", "165534.845000", "165535.305000", "165535.765000", "165536.225000", "165536.685000", "165537.145000", "165537.605000", "165538.065000", "165538.525000", "165538.985000", "165539.445000", "165539.905000", "165540.365000", "165540.825000", "165541.285000", "165541.745000", "165542.205000"],
