{
  "AcquisitionMatrixPE": 82,
  "AcquisitionNumber": 1,
  "AcquisitionTime": "17:03:3.545000",
  "BandwidthPerPixelPhaseEncode": 24.888,
  "BaseResolution": 82,
  "BodyPartExamined": "BRAIN",
  "ConsistencyInfo": "N4_VE11E_LATEST_20181129",
  "ConversionSoftware": "dcm2niix",
  "ConversionSoftwareVersion": "v1.0.20201102",
  "DerivedVendorReportedEchoSpacing": 0.00049,
  "DeviceSerialNumber": "66112",
  "DwellTime": 2e-06,
  "EchoTime": 0.0272,
  "EchoTrainLength": 82,
  "EffectiveEchoSpacing": 0.00049,
  "FlipAngle": 44,
  "ImageComments": "Unaliased MB8/PE3",
  "ImageOrientationPatientDICOM": [0.999467, -0.0154305, 0.0287825, 0.0122114, 0.993984, 0.108842],
  "ImageType": [
    "ORIGINAL",
    "PRIMARY",
    "M",
    "MB",
    "ND",
    "NORM",
    "MOSAIC"
],
  "ImagingFrequency": 123.252,
  "InPlanePhaseEncodingDirectionDICOM": "COL",
  "InstitutionAddress": "Maynard 3,Hanover,NH,US,03755",
  "InstitutionName": "Dartmouth College - PBS",
  "InstitutionalDepartmentName": "Department",
  "MRAcquisitionType": "2D",
  "MagneticFieldStrength": 3,
  "Manufacturer": "Siemens",
  "ManufacturersModelName": "Prisma",
  "Modality": "MR",
  "MultibandAccelerationFactor": 8,
  "PartialFourier": 1,
  "PatientPosition": "HFS",
  "PercentPhaseFOV": 100,
  "PercentSampling": 100,
  "PhaseEncodingDirection": "j-",
  "PhaseEncodingSteps": 82,
  "PhaseResolution": 1,
  "PixelBandwidth": 3050,
  "ProcedureStepDescription": "Wager_Wager^1076_spacetop",
  "ProtocolName": "func_run-04_task-social_acq-ap-mb8",
  "PulseSequenceDetails": "%CustomerSeq%\\cmrr_mbep2d_bold",
  "ReceiveCoilActiveElements": "HEA;HEP",
  "ReceiveCoilName": "Head_32",
  "ReconMatrixPE": 82,
  "RepetitionTime": 0.46,
  "SAR": 0.0927817,
  "ScanOptions": "FS",
  "ScanningSequence": "EP",
  "SequenceName": "epfid2d1_82",
  "SequenceVariant": "SK\\SS",
  "SeriesDescription": "func_run-04_task-social_acq-ap-mb8",
  "SeriesNumber": 14,
  "ShimSetting": [4149, -7704, -7295, 681, -60, -28, 1, 94],
  "SliceThickness": 2.7,
  "SliceTiming": [0, 0.2525, 0.065, 0.315, 0.1275, 0.3775, 0.19, 0, 0.2525, 0.065, 0.315, 0.1275, 0.3775, 0.19, 0, 0.2525, 0.065, 0.315, 0.1275, 0.3775, 0.19, 0, 0.2525, 0.065, 0.315, 0.1275, 0.3775, 0.19, 0, 0.2525, 0.065, 0.315, 0.1275, 0.3775, 0.19, 0, 0.2525, 0.065, 0.315, 0.1275, 0.3775, 0.19, 0, 0.2525, 0.065, 0.315, 0.1275, 0.3775, 0.19, 0, 0.2525, 0.065, 0.315, 0.1275, 0.3775, 0.19],
  "SoftwareVersions": "syngo MR E11",
  "SpacingBetweenSlices": 2.7,
  "StationName": "AWP66112",
  "TaskName": "social",
  "TotalReadoutTime": 0.03969,
  "TxRefAmp": 237.529,
  "WipMemBlock": "1743b25c-f423-4d47-a279-11cc74b03bb7||Sequence: R016 ve11e/master r/434b28f1; Aug  7 2019 18:53:46 by eja",
  "dcmmeta_affine": [
    [-2.6814959049224854, 0.032762352377176285, 0.08177974075078964, 112.24788665771484],
    [0.04139883443713188, 2.6667866706848145, 0.2927672863006592, -110.64653778076172],
    [0.07722125202417374, -0.2920147776603699, 2.6828341484069824, -57.08112335205078],
    [0.0, 0.0, 0.0, 1.0]
],
  "dcmmeta_reorient_transform": [
    [0.0, -1.0, 0.0, 81.0],
    [1.0, 0.0, 0.0, 0.0],
    [0.0, 0.0, 1.0, 0.0],
    [0.0, 0.0, 0.0, 1.0]
],
  "dcmmeta_shape": [82, 82, 56, 872],
  "dcmmeta_slice_dim": 2,
  "dcmmeta_version": 0.6,
  "global": {
    "const": {
      "AccessionNumber": "A003923",
      "AcquisitionMatrix": [82, 0, 0, 82],
      "AngioFlag": "N",
      "BitsAllocated": 16,
      "BitsStored": 16,
      "BodyPartExamined": "BRAIN",
      "Columns": 656,
      "EchoNumbers": 1,
      "EchoTime": 27.2,
      "EchoTrainLength": 82,
      "FlipAngle": 44.0,
      "HighBit": 15,
      "ImageOrientationPatient": [0.99946659279196, -0.0154304748971, 0.0287824657957, 0.01221142255699, 0.99398406881531, 0.10884186740637],
      "ImagePositionPatient": [-893.89373014903, -858.84945867445, -186.70505819514],
      "ImageType": [
        "ORIGINAL",
        "PRIMARY",
        "M",
        "MB",
        "ND",
        "NORM",
        "MOSAIC"
],
      "ImagedNucleus": "1H",
      "ImagingFrequency": 123.252242,
      "InPlanePhaseEncodingDirection": "COL",
      "MRAcquisitionType": "2D",
      "MagneticFieldStrength": 3.0,
      "Manufacturer": "SIEMENS",
      "ManufacturerModelName": "Prisma",
      "Modality": "MR",
      "NumberOfAverages": 1.0,
      "NumberOfPhaseEncodingSteps": 82,
      "PercentPhaseFieldOfView": 100.0,
      "PercentSampling": 100.0,
      "PerformedProcedureStepStartTime": "163049.739000",
      "PhotometricInterpretation": "MONOCHROME2",
      "PixelBandwidth": 3050.0,
      "PixelRepresentation": 0,
      "PixelSpacing": [2.6829268932343, 2.6829268932343],
      "ProtocolName": "func_run-04_task-social_acq-ap-mb8",
      "RepetitionTime": 460.0,
      "Rows": 656,
      "SAR": 0.09278171795894,
      "SamplesPerPixel": 1,
      "ScanOptions": "FS",
      "ScanningSequence": "EP",
      "SequenceName": "epfid2d1_82",
      "SequenceVariant": [
        "SK",
        "SS"
],
      "SeriesDescription": "func_run-04_task-social_acq-ap-mb8",
      "SeriesNumber": 14,
      "SeriesTime": "170318.033000",
      "SliceLocation": -65.316027324838,
      "SliceThickness": 2.7000000476837,
      "SmallestImagePixelValue": 0,
      "SoftwareVersions": "syngo MR E11",
      "SpacingBetweenSlices": 2.6999999333127,
      "SpecificCharacterSet": "ISO_IR 100",
      "StudyID": "3",
      "StudyTime": "163049.673000",
      "TransmitCoilName": "Body",
      "VariableFlipAngleFlag": "N",
      "WindowCenterWidthExplanation": "Algo1"
    },
    "slices": {}
  },
  "time": {
    "samples": {
      "AcquisitionNumber": [1, 2, 3, 4, 5, 6, 7, 8, 9, 10, 11, 12, 13, 14, 15, 16, 17, 18, 19, 20, 21, 22, 23, 24, 25, 26, 27, 28, 29, 30, 31, 32, 33, 34, 35, 36, 37, 38, 39, 40, 41, 42, 43, 44, 45, 46, 47, 48, 49, 50, 51, 52, 53, 54, 55, 56, 57, 58, 59, 60, 61, 62, 63, 64, 65, 66, 67, 68, 69, 70, 71, 72, 73, 74, 75, 76, 77, 78, 79, 80, 81, 82, 83, 84, 85, 86, 87, 88, 89, 90, 91, 92, 93, 94, 95, 96, 97, 98, 99, 100, 101, 102, 103, 104, 105, 106, 107, 108, 109, 110, 111, 112, 113, 114, 115, 116, 117, 118, 119, 120, 121, 122, 123, 124, 125, 126, 127, 128, 129, 130, 131, 132, 133, 134, 135, 136, 137, 138, 139, 140, 141, 142, 143, 144, 145, 146, 147, 148, 149, 150, 151, 152, 153, 154, 155, 156, 157, 158, 159, 160, 161, 162, 163, 164, 165, 166, 167, 168, 169, 170, 171, 172, 173, 174, 175, 176, 177, 178, 179, 180, 181, 182, 183, 184, 185, 186, 187, 188, 189, 190, 191, 192, 193, 194, 195, 196, 197, 198, 199, 200, 201, 202, 203, 204, 205, 206, 207, 208, 209, 210, 211, 212, 213, 214, 215, 216, 217, 218, 219, 220, 221, 222, 223, 224, 225, 226, 227, 228, 229, 230, 231, 232, 233, 234, 235, 236, 237, 238, 239, 240, 241, 242, 243, 244, 245, 246, 247, 248, 249, 250, 251, 252, 253, 254, 255, 256, 257, 258, 259, 260, 261, 262, 263, 264, 265, 266, 267, 268, 269, 270, 271, 272, 273, 274, 275, 276, 277, 278, 279, 280, 281, 282, 283, 284, 285, 286, 287, 288, 289, 290, 291, 292, 293, 294, 295, 296, 297, 298, 299, 300, 301, 302, 303, 304, 305, 306, 307, 308, 309, 310, 311, 312, 313, 314, 315, 316, 317, 318, 319, 320, 321, 322, 323, 324, 325, 326, 327, 328, 329, 330, 331, 332, 333, 334, 335, 336, 337, 338, 339, 340, 341, 342, 343, 344, 345, 346, 347, 348, 349, 350, 351, 352, 353, 354, 355, 356, 357, 358, 359, 360, 361, 362, 363, 364, 365, 366, 367, 368, 369, 370, 371, 372, 373, 374, 375, 376, 377, 378, 379, 380, 381, 382, 383, 384, 385, 386, 387, 388, 389, 390, 391, 392, 393, 394, 395, 396, 397, 398, 399, 400, 401, 402, 403, 404, 405, 406, 407, 408, 409, 410, 411, 412, 413, 414, 415, 416, 417, 418, 419, 420, 421, 422, 423, 424, 425, 426, 427, 428, 429, 430, 431, 432, 433, 434, 435, 436, 437, 438, 439, 440, 441, 442, 443, 444, 445, 446, 447, 448, 449, 450, 451, 452, 453, 454, 455, 456, 457, 458, 459, 460, 461, 462, 463, 464, 465, 466, 467, 468, 469, 470, 471, 472, 473, 474, 475, 476, 477, 478, 479, 480, 481, 482, 483, 484, 485, 486, 487, 488, 489, 490, 491, 492, 493, 494, 495, 496, 497, 498, 499, 500, 501, 502, 503, 504, 505, 506, 507, 508, 509, 510, 511, 512, 513, 514, 515, 516, 517, 518, 519, 520, 521, 522, 523, 524, 525, 526, 527, 528, 529, 530, 531, 532, 533, 534, 535, 536, 537, 538, 539, 540, 541, 542, 543, 544, 545, 546, 547, 548, 549, 550, 551, 552, 553, 554, 555, 556, 557, 558, 559, 560, 561, 562, 563, 564, 565, 566, 567, 568, 569, 570, 571, 572, 573, 574, 575, 576, 577, 578, 579, 580, 581, 582, 583, 584, 585, 586, 587, 588, 589, 590, 591, 592, 593, 594, 595, 596, 597, 598, 599, 600, 601, 602, 603, 604, 605, 606, 607, 608, 609, 610, 611, 612, 613, 614, 615, 616, 617, 618, 619, 620, 621, 622, 623, 624, 625, 626, 627, 628, 629, 630, 631, 632, 633, 634, 635, 636, 637, 638, 639, 640, 641, 642, 643, 644, 645, 646, 647, 648, 649, 650, 651, 652, 653, 654, 655, 656, 657, 658, 659, 660, 661, 662, 663, 664, 665, 666, 667, 668, 669, 670, 671, 672, 673, 674, 675, 676, 677, 678, 679, 680, 681, 682, 683, 684, 685, 686, 687, 688, 689, 690, 691, 692, 693, 694, 695, 696, 697, 698, 699, 700, 701, 702, 703, 704, 705, 706, 707, 708, 709, 710, 711, 712, 713, 714, 715, 716, 717, 718, 719, 720, 721, 722, 723, 724, 725, 726, 727, 728, 729, 730, 731, 732, 733, 734, 735, 736, 737, 738, 739, 740, 741, 742, 743, 744, 745, 746, 747, 748, 749, 750, 751, 752, 753, 754, 755, 756, 757, 758, 759, 760, 761, 762, 763, 764, 765, 766, 767, 768, 769, 770, 771, 772, 773, 774, 775, 776, 777, 778, 779, 780, 781, 782, 783, 784, 785, 786, 787, 788, 789, 790, 791, 792, 793, 794, 795, 796, 797, 798, 799, 800, 801, 802, 803, 804, 805, 806, 807, 808, 809, 810, 811, 812, 813, 814, 815, 816, 817, 818, 819, 820, 821, 822, 823, 824, 825, 826, 827, 828, 829, 830, 831, 832, 833, 834, 835, 836, 837, 838, 839, 840, 841, 842, 843, 844, 845, 846, 847, 848, 849, 850, 851, 852, 853, 854, 855, 856, 857, 858, 859, 860, 861, 862, 863, 864, 865, 866, 867, 868, 869, 870, 871, 872],
      "AcquisitionTime": ["170303.545000", "170304.005000", "170304.465000", "170304.925000", "170305.385000", "170305.845000", "170306.305000", "170306.765000", "170307.225000", "170307.685000", "170308.145000", "170308.605000", "170309.065000", "170309.525000", "170309.985000", "170310.445000", "170310.905000", "170311.365000", "170311.825000", "170312.285000", "170312.745000", "170313.205000", "170313.665000", "170314.125000", "170314.585000", "170315.045000", "170315.505000", "170315.965000", "170316.425000", "170316.885000", "170317.345000", "170317.805000", "170318.265000", "170318.725000", "170319.185000", "170319.645000", "170320.105000", "170320.565000", "170321.025000", "170321.485000", "170321.945000", "170322.405000", "170322.865000", "170323.325000", "170323.785000", "170324.245000", "170324.705000", "170325.165000", "170325.625000", "170326.085000", "170326.545000", "170327.005000", "170327.465000", "170327.925000", "170328.385000", "170328.845000", "170329.305000", "170329.765000", "170330.225000", "170330.685000", "170331.145000", "170331.605000", "170332.065000", "170332.525000", "170332.985000", "170333.445000", "170333.905000", "170334.365000", "170334.825000", "170335.285000", "170335.745000", "170336.205000", "170336.665000", "170337.125000", "170337.585000", "170338.045000", "170338.505000", "170338.965000", "170339.425000", "170339.885000", "170340.345000", "170340.805000", "170341.265000", "170341.725000", "170342.185000", "170342.645000", "170343.105000", "170343.565000", "170344.025000", "170344.485000", "170344.945000", "170345.405000", "170345.865000", "170346.325000", "170346.785000", "170347.245000", "170347.705000", "170348.165000", "170348.625000", "170349.085000", "170349.545000", "170350.005000", "170350.465000", "170350.925000", "170351.385000", "170351.845000", "170352.305000", "170352.765000", "170353.225000", "170353.685000", "170354.145000", "170354.605000", "170355.065000", "170355.525000", "170355.985000", "170356.445000", "170356.905000", "170357.365000", "170357.825000", "170358.285000", "170358.745000", "170359.205000", "170359.665000", "170400.125000", "170400.585000", "170401.045000", "170401.505000", "170401.965000", "170402.425000", "170402.885000", "170403.345000", "170403.805000", "170404.265000", "170404.725000", "170405.185000", "170405.645000", "170406.105000", "170406.565000", "170407.025000", "170407.485000", "170407.945000", "170408.405000", "170408.865000", "170409.325000", "170409.785000", "170410.245000", "170410.705000", "170411.165000", "170411.625000", "170412.085000", "170412.545000", "170413.005000", "170413.465000", "170413.925000", "170414.385000", "170414.845000", "170415.305000", "170415.765000", "170416.225000", "170416.685000", "170417.145000", "170417.605000", "170418.065000", "170418.525000", "170418.985000", "170419.445000", "170419.905000", "170420.365000", "170420.825000", "170421.285000", "170421.745000", "170422.205000", "170422.665000", "170423.125000", "170423.585000", "170424.045000", "170424.505000", "170424.965000", "170425.425000", "170425.885000", "170426.345000", "170426.805000", "170427.265000", "170427.725000", "170428.185000", "170428.645000", "170429.105000", "170429.565000", "170430.025000", "170430.485000", "170430.945000", "170431.405000", "170431.865000", "170432.325000", "170432.785000", "170433.245000", "170433.705000", "170434.165000", "170434.625000", "170435.085000", "170435.545000", "170436.005000", "170436.465000", "170436.925000", "170437.385000", "170437.845000", "170438.305000", "170438.765000", "170439.225000", "170439.685000", "170440.145000", "170440.605000", "170441.065000", "170441.525000", "170441.985000", "170442.445000", "170442.905000", "170443.365000", "170443.825000", "170444.285000", "170444.745000", "170445.205000", "170445.665000", "170446.125000", "170446.585000", "170447.045000", "170447.505000", "170447.965000", "170448.425000", "170448.885000", "170449.345000", "170449.805000", "170450.265000", "170450.725000", "170451.185000", "170451.645000", "170452.105000", "170452.565000", "170453.025000", "170453.485000", "170453.945000", "170454.405000", "170454.865000", "170455.325000", "170455.785000", "170456.245000", "170456.705000", "170457.165000", "170457.625000", "170458.085000", "170458.545000", "170459.005000", "170459.465000", "170459.925000", "170500.385000", "170500.845000", "170501.305000", "170501.765000", "170502.225000", "170502.685000", "170503.145000", "170503.605000", "170504.065000", "170504.525000", "170504.985000", "170505.445000", "170505.905000", "170506.365000", "170506.825000", "170507.285000", "170507.745000", "170508.205000", "170508.665000", "170509.125000", "170509.585000", "170510.045000", "170510.505000", "170510.965000", "170511.425000", "170511.885000", "170512.345000", "170512.805000", "170513.265000", "170513.725000", "170514.185000", "170514.645000", "170515.105000", "170515.565000", "170516.025000", "170516.485000", "170516.945000", "170517.405000", "170517.865000", "170518.325000", "170518.785000", "170519.245000", "170519.705000", "170520.165000", "170520.625000", "170521.085000", "170521.545000", "170522.005000", "170522.465000", "170522.925000", "170523.385000", "170523.845000", "170524.305000", "170524.765000", "170525.225000", "170525.685000", "170526.145000", "170526.605000", "170527.065000", "170527.525000", "170527.985000", "170528.445000", "170528.905000", "170529.365000", "170529.825000", "170530.285000", "170530.745000", "170531.205000", "170531.665000", "170532.125000", "170532.585000", "170533.045000", "170533.505000", "170533.965000", "170534.425000", "170534.885000", "170535.345000", "170535.805000", "170536.265000", "170536.725000", "170537.185000", "170537.645000", "170538.105000", "170538.565000", "170539.025000", "170539.485000", "170539.945000", "170540.405000", "170540.865000", "170541.325000", "170541.785000", "170542.245000", "170542.705000", "170543.165000", "170543.625000", "170544.085000", "170544.545000", "170545.005000", "170545.465000", "170545.925000", "170546.385000", "170546.845000", "170547.305000", "170547.765000", "170548.225000", "170548.685000", "170549.145000", "170549.605000", "170550.065000", "170550.525000", "170550.985000", "170551.445000", "170551.905000", "170552.365000", "170552.825000", "170553.285000", "170553.745000", "170554.205000", "170554.665000", "170555.125000", "170555.585000", "170556.045000", "170556.505000", "170556.965000", "170557.425000", "170557.885000", "170558.345000", "170558.805000", "170559.265000", "170559.725000", "170600.185000", "170600.645000", "170601.105000", "170601.565000", "170602.025000", "170602.485000", "170602.945000", "170603.405000", "170603.865000", "170604.325000", "170604.785000", "170605.245000", "170605.705000", "170606.165000", "170606.625000", "170607.085000", "170607.545000", "170608.005000", "170608.465000", "170608.925000", "170609.385000", "170609.845000", "170610.305000", "170610.765000", "170611.225000", "170611.685000", "170612.145000", "170612.605000", "170613.065000", "170613.525000", "170613.985000", "170614.445000", "170614.905000", "170615.365000", "170615.825000", "170616.285000", "170616.745000", "170617.205000", "170617.665000", "170618.125000", "170618.585000", "170619.045000", "170619.505000", "170619.965000", "170620.425000", "170620.885000", "170621.345000", "170621.805000", "170622.265000", "170622.725000", "170623.185000", "170623.645000", "170624.105000", "170624.565000", "170625.025000", "170625.485000", "170625.945000", "170626.405000", "170626.865000", "170627.325000", "170627.785000", "170628.245000", "170628.705000", "170629.165000", "170629.625000", "170630.085000", "170630.545000", "170631.005000", "170631.465000", "170631.925000", "170632.385000", "170632.845000", "170633.305000", "170633.765000", "170634.225000", "170634.685000", "170635.145000", "170635.605000", "170636.065000", "170636.525000", "170636.985000", "170637.445000", "170637.905000", "170638.365000", "170638.825000", "170639.285000", "170639.745000", "170640.205000", "170640.665000", "170641.125000", "170641.585000", "170642.045000", "170642.505000", "170642.965000", "170643.425000", "170643.885000", "170644.345000", "170644.805000", "170645.265000", "170645.725000", "170646.185000", "170646.645000", "170647.105000", "170647.565000", "170648.025000", "170648.485000", "170648.945000", "170649.405000", "170649.865000", "170650.325000", "170650.785000", "170651.245000", "170651.705000", "170652.165000", "170652.625000", "170653.085000", "170653.545000", "170654.005000", "170654.465000", "170654.925000", "170655.385000", "170655.845000", "170656.305000", "170656.765000", "170657.225000", "170657.685000", "170658.145000", "170658.605000", "170659.065000", "170659.525000", "170659.985000", "170700.445000", "170700.905000", "170701.365000", "170701.825000", "170702.285000", "170702.745000", "170703.205000", "170703.665000", "170704.125000", "170704.585000", "170705.045000", "170705.505000", "170705.965000", "170706.425000", "170706.885000", "170707.345000", "170707.805000", "170708.265000", "170708.725000", "170709.185000", "170709.645000", "170710.105000", "170710.565000", "170711.025000", "170711.485000", "170711.945000", "170712.405000", "170712.865000", "170713.325000", "170713.785000", "170714.245000", "170714.705000", "170715.165000", "170715.625000", "170716.085000", "170716.545000", "170717.005000", "170717.465000", "170717.925000", "170718.385000", "170718.845000", "170719.305000", "170719.765000", "170720.225000", "170720.685000", "170721.145000", "170721.605000", "170722.065000", "170722.525000", "170722.985000", "170723.445000", "170723.905000", "170724.365000", "170724.825000", "170725.285000", "170725.745000", "170726.205000", "170726.665000", "170727.125000", "170727.585000", "170728.045000", "170728.505000", "170728.965000", "170729.425000", "170729.885000", "170730.345000", "170730.805000", "170731.265000", "170731.725000", "170732.185000", "170732.645000", "170733.105000", "170733.565000", "170734.025000", "170734.485000", "170734.945000", "170735.405000", "170735.865000", "170736.325000", "170736.785000", "170737.245000", "170737.705000", "170738.165000", "170738.625000", "170739.085000", "170739.545000", "170740.005000", "170740.465000", "170740.925000", "170741.385000", "170741.845000", "170742.305000", "170742.765000", "170743.225000", "170743.685000", "170744.145000", "170744.605000", "170745.065000", "170745.525000", "170745.985000", "170746.445000", "170746.905000", "170747.365000", "170747.825000", "170748.285000", "170748.745000", "170749.205000", "170749.665000", "170750.125000", "170750.585000", "170751.045000", "170751.505000", "170751.965000", "170752.425000", "170752.885000", "170753.345000", "170753.805000", "170754.265000", "170754.725000", "170755.185000", "170755.645000", "170756.105000", "170756.565000", "170757.025000", "170757.485000", "170757.945000", "170758.405000", "170758.865000", "170759.325000", "170759.785000", "170800.245000", "170800.705000", "170801.165000", "170801.625000", "170802.085000", "170802.545000", "170803.005000", "170803.465000", "170803.925000", "170804.385000", "170804.845000", "170805.305000", "170805.765000", "170806.225000", "170806.685000", "170807.145000", "170807.605000", "170808.065000", "170808.525000", "170808.985000", "170809.445000", "170809.905000", "170810.365000", "170810.825000", "170811.285000", "170811.745000", "170812.205000", "170812.665000", "170813.125000", "170813.585000", "170814.045000", "170814.505000", "170814.965000", "170815.425000", "170815.885000", "170816.345000", "170816.805000", "170817.265000", "170817.725000", "170818.185000", "170818.645000", "170819.105000", "170819.565000", "170820.025000", "170820.485000", "170820.945000", "170821.405000", "170821.865000", "170822.325000", "170822.785000", "170823.245000", "170823.705000", "170824.165000", "170824.625000", "170825.085000", "170825.545000", "170826.005000", "170826.465000", "170826.925000", "170827.385000", "170827.845000", "170828.305000", "170828.765000", "170829.225000", "170829.685000", "170830.145000", "170830.605000", "170831.065000", "170831.525000", "170831.985000", "170832.445000", "170832.905000", "170833.365000", "170833.825000", "170834.285000", "170834.745000", "170835.205000", "170835.665000", "170836.125000", "170836.585000", "170837.045000", "170837.505000", "170837.965000", "170838.425000", "170838.885000", "170839.345000", "170839.805000", "170840.265000", "170840.725000", "170841.185000", "170841.645000", "170842.105000", "170842.565000", "170843.025000", "170843.485000", "170843.945000", "170844.405000", "170844.865000", "170845.325000", "170845.785000", "170846.245000", "170846.705000", "170847.165000", "170847.625000", "170848.085000", "170848.545000", "170849.005000", "170849.465000", "170849.925000", "170850.385000", "170850.845000", "170851.305000", "170851.765000", "170852.225000", "170852.685000", "170853.145000", "170853.605000", "170854.065000", "170854.525000", "170854.985000", "170855.445000", "170855.905000", "170856.365000", "170856.825000", "170857.285000", "170857.745000", "170858.205000", "170858.665000", "170859.125000", "170859.585000", "170900.045000", "170900.505000", "170900.965000", "170901.425000", "170901.885000", "170902.345000", "170902.805000", "170903.265000", "170903.725000", "170904.185000", "170904.645000", "170905.105000", "170905.565000", "170906.025000", "170906.485000", "170906.945000", "170907.405000", "170907.865000", "170908.325000", "170908.785000", "170909.245000", "170909.705000", "170910.165000", "170910.625000", "170911.085000", "170911.545000", "170912.005000", "170912.465000", "170912.925000", "170913.385000", "170913.845000", "170914.305000", "170914.765000", "170915.225000", "170915.685000", "170916.145000", "170916.605000", "170917.065000", "170917.525000", "170917.985000", "170918.445000", "170918.905000", "170919.365000", "170919.825000", "170920.285000", "170920.745000", "170921.205000", "170921.665000", "170922.125000", "170922.585000", "170923.045000", "170923.505000", "170923.965000", "170924.425000", "170924.885000", "170925.345000", "170925.805000", "170926.265000", "170926.725000", "170927.185000", "170927.645000", "170928.105000", "170928.565000", "170929.025000", "170929.485000", "170929.945000", "170930.405000", "170930.865000", "170931.325000", "170931.785000", "170932.245000", "170932.705000", "170933.165000", "170933.625000", "170934.085000", "170934.545000", "170935.005000", "170935.465000", "170935.925000", "170936.385000", "170936.845000", "170937.305000", "170937.765000", "170938.225000", "170938.685000", "170939.145000", "170939.605000", "170940.065000", "170940.525000", "170940.985000", "170941.445000", "170941.905000", "170942.365000", "170942.825000", "170943.285000", "170943.745000", "170944.205000"],
