{
  "AcquisitionMatrixPE": 82,
  "AcquisitionNumber": 1,
  "AcquisitionTime": "17:11:44.015000",
  "BandwidthPerPixelPhaseEncode": 24.888,
  "BaseResolution": 82,
  "BodyPartExamined": "BRAIN",
  "ConsistencyInfo": "N4_VE11E_LATEST_20181129",
  "ConversionSoftware": "dcm2niix",
  "ConversionSoftwareVersion": "v1.0.20201102",
  "DerivedVendorReportedEchoSpacing": 0.00049,
  "DeviceSerialNumber": "66112",
  "DwellTime": 2e-06,
  "EchoTime": 0.0272,
  "EchoTrainLength": 82,
  "EffectiveEchoSpacing": 0.00049,
  "FlipAngle": 44,
  "ImageComments": "Unaliased MB8/PE3",
  "ImageOrientationPatientDICOM": [0.999467, -0.0154305, 0.0287825, 0.0122114, 0.993984, 0.108842],
  "ImageType": [
    "ORIGINAL",
    "PRIMARY",
    "M",
    "MB",
    "ND",
    "NORM",
    "MOSAIC"
],
  "ImagingFrequency": 123.252,
  "InPlanePhaseEncodingDirectionDICOM": "COL",
  "InstitutionAddress": "Maynard 3,Hanover,NH,US,03755",
  "InstitutionName": "Dartmouth College - PBS",
  "InstitutionalDepartmentName": "Department",
  "MRAcquisitionType": "2D",
  "MagneticFieldStrength": 3,
  "Manufacturer": "Siemens",
  "ManufacturersModelName": "Prisma",
  "Modality": "MR",
  "MultibandAccelerationFactor": 8,
  "PartialFourier": 1,
  "PatientPosition": "HFS",
  "PercentPhaseFOV": 100,
  "PercentSampling": 100,
  "PhaseEncodingDirection": "j-",
  "PhaseEncodingSteps": 82,
  "PhaseResolution": 1,
  "PixelBandwidth": 3050,
  "ProcedureStepDescription": "Wager_Wager^1076_spacetop",
  "ProtocolName": "func_run-05_task-social_acq-ap-mb8",
  "PulseSequenceDetails": "%CustomerSeq%\\cmrr_mbep2d_bold",
  "ReceiveCoilActiveElements": "HEA;HEP",
  "ReceiveCoilName": "Head_32",
  "ReconMatrixPE": 82,
  "RepetitionTime": 0.46,
  "SAR": 0.0927817,
  "ScanOptions": "FS",
  "ScanningSequence": "EP",
  "SequenceName": "epfid2d1_82",
  "SequenceVariant": "SK\\SS",
  "SeriesDescription": "func_run-05_task-social_acq-ap-mb8",
  "SeriesNumber": 16,
  "ShimSetting": [4149, -7704, -7295, 681, -60, -28, 1, 94],
  "SliceThickness": 2.7,
  "SliceTiming": [0, 0.25, 0.0625, 0.3125, 0.125, 0.3775, 0.1875, 0, 0.25, 0.0625, 0.3125, 0.125, 0.3775, 0.1875, 0, 0.25, 0.0625, 0.3125, 0.125, 0.3775, 0.1875, 0, 0.25, 0.0625, 0.3125, 0.125, 0.3775, 0.1875, 0, 0.25, 0.0625, 0.3125, 0.125, 0.3775, 0.1875, 0, 0.25, 0.0625, 0.3125, 0.125, 0.3775, 0.1875, 0, 0.25, 0.0625, 0.3125, 0.125, 0.3775, 0.1875, 0, 0.25, 0.0625, 0.3125, 0.125, 0.3775, 0.1875],
  "SoftwareVersions": "syngo MR E11",
  "SpacingBetweenSlices": 2.7,
  "StationName": "AWP66112",
  "TaskName": "social",
  "TotalReadoutTime": 0.03969,
  "TxRefAmp": 237.529,
  "WipMemBlock": "ff2ca9e0-d9c1-4d3a-8fa2-f9656a45ce4e||Sequence: R016 ve11e/master r/434b28f1; Aug  7 2019 18:53:46 by eja",
  "dcmmeta_affine": [
    [-2.6814959049224854, 0.032762352377176285, 0.08177974075078964, 112.24788665771484],
    [0.04139883443713188, 2.6667866706848145, 0.2927672863006592, -110.64653778076172],
    [0.07722125202417374, -0.2920147776603699, 2.6828341484069824, -57.08112335205078],
    [0.0, 0.0, 0.0, 1.0]
],
  "dcmmeta_reorient_transform": [
    [0.0, -1.0, 0.0, 81.0],
    [1.0, 0.0, 0.0, 0.0],
    [0.0, 0.0, 1.0, 0.0],
    [0.0, 0.0, 0.0, 1.0]
],
  "dcmmeta_shape": [82, 82, 56, 872],
  "dcmmeta_slice_dim": 2,
  "dcmmeta_version": 0.6,
  "global": {
    "const": {
      "AccessionNumber": "A003923",
      "AcquisitionMatrix": [82, 0, 0, 82],
      "AngioFlag": "N",
      "BitsAllocated": 16,
      "BitsStored": 16,
      "BodyPartExamined": "BRAIN",
      "Columns": 656,
      "EchoNumbers": 1,
      "EchoTime": 27.2,
      "EchoTrainLength": 82,
      "FlipAngle": 44.0,
      "HighBit": 15,
      "ImageOrientationPatient": [0.99946659279196, -0.0154304748971, 0.0287824657957, 0.01221142255699, 0.99398406881531, 0.10884186740637],
      "ImagePositionPatient": [-893.89373014903, -858.84945867445, -186.70505819514],
      "ImageType": [
        "ORIGINAL",
        "PRIMARY",
        "M",
        "MB",
        "ND",
        "NORM",
        "MOSAIC"
],
      "ImagedNucleus": "1H",
      "ImagingFrequency": 123.252245,
      "InPlanePhaseEncodingDirection": "COL",
      "MRAcquisitionType": "2D",
      "MagneticFieldStrength": 3.0,
      "Manufacturer": "SIEMENS",
      "ManufacturerModelName": "Prisma",
      "Modality": "MR",
      "NumberOfAverages": 1.0,
      "NumberOfPhaseEncodingSteps": 82,
      "PercentPhaseFieldOfView": 100.0,
      "PercentSampling": 100.0,
      "PerformedProcedureStepStartTime": "163049.739000",
      "PhotometricInterpretation": "MONOCHROME2",
      "PixelBandwidth": 3050.0,
      "PixelRepresentation": 0,
      "PixelSpacing": [2.6829268932343, 2.6829268932343],
      "ProtocolName": "func_run-05_task-social_acq-ap-mb8",
      "RepetitionTime": 460.0,
      "Rows": 656,
      "SAR": 0.09278171795894,
      "SamplesPerPixel": 1,
      "ScanOptions": "FS",
      "ScanningSequence": "EP",
      "SequenceName": "epfid2d1_82",
      "SequenceVariant": [
        "SK",
        "SS"
],
      "SeriesDescription": "func_run-05_task-social_acq-ap-mb8",
      "SeriesNumber": 16,
      "SeriesTime": "171157.880000",
      "SliceLocation": -65.316027324838,
      "SliceThickness": 2.7000000476837,
      "SmallestImagePixelValue": 0,
      "SoftwareVersions": "syngo MR E11",
      "SpacingBetweenSlices": 2.6999999333127,
      "SpecificCharacterSet": "ISO_IR 100",
      "StudyID": "3",
      "StudyTime": "163049.673000",
      "TransmitCoilName": "Body",
      "VariableFlipAngleFlag": "N",
      "WindowCenterWidthExplanation": "Algo1"
    },
    "slices": {}
  },
  "time": {
    "samples": {
      "AcquisitionNumber": [1, 2, 3, 4, 5, 6, 7, 8, 9, 10, 11, 12, 13, 14, 15, 16, 17, 18, 19, 20, 21, 22, 23, 24, 25, 26, 27, 28, 29, 30, 31, 32, 33, 34, 35, 36, 37, 38, 39, 40, 41, 42, 43, 44, 45, 46, 47, 48, 49, 50, 51, 52, 53, 54, 55, 56, 57, 58, 59, 60, 61, 62, 63, 64, 65, 66, 67, 68, 69, 70, 71, 72, 73, 74, 75, 76, 77, 78, 79, 80, 81, 82, 83, 84, 85, 86, 87, 88, 89, 90, 91, 92, 93, 94, 95, 96, 97, 98, 99, 100, 101, 102, 103, 104, 105, 106, 107, 108, 109, 110, 111, 112, 113, 114, 115, 116, 117, 118, 119, 120, 121, 122, 123, 124, 125, 126, 127, 128, 129, 130, 131, 132, 133, 134, 135, 136, 137, 138, 139, 140, 141, 142, 143, 144, 145, 146, 147, 148, 149, 150, 151, 152, 153, 154, 155, 156, 157, 158, 159, 160, 161, 162, 163, 164, 165, 166, 167, 168, 169, 170, 171, 172, 173, 174, 175, 176, 177, 178, 179, 180, 181, 182, 183, 184, 185, 186, 187, 188, 189, 190, 191, 192, 193, 194, 195, 196, 197, 198, 199, 200, 201, 202, 203, 204, 205, 206, 207, 208, 209, 210, 211, 212, 213, 214, 215, 216, 217, 218, 219, 220, 221, 222, 223, 224, 225, 226, 227, 228, 229, 230, 231, 232, 233, 234, 235, 236, 237, 238, 239, 240, 241, 242, 243, 244, 245, 246, 247, 248, 249, 250, 251, 252, 253, 254, 255, 256, 257, 258, 259, 260, 261, 262, 263, 264, 265, 266, 267, 268, 269, 270, 271, 272, 273, 274, 275, 276, 277, 278, 279, 280, 281, 282, 283, 284, 285, 286, 287, 288, 289, 290, 291, 292, 293, 294, 295, 296, 297, 298, 299, 300, 301, 302, 303, 304, 305, 306, 307, 308, 309, 310, 311, 312, 313, 314, 315, 316, 317, 318, 319, 320, 321, 322, 323, 324, 325, 326, 327, 328, 329, 330, 331, 332, 333, 334, 335, 336, 337, 338, 339, 340, 341, 342, 343, 344, 345, 346, 347, 348, 349, 350, 351, 352, 353, 354, 355, 356, 357, 358, 359, 360, 361, 362, 363, 364, 365, 366, 367, 368, 369, 370, 371, 372, 373, 374, 375, 376, 377, 378, 379, 380, 381, 382, 383, 384, 385, 386, 387, 388, 389, 390, 391, 392, 393, 394, 395, 396, 397, 398, 399, 400, 401, 402, 403, 404, 405, 406, 407, 408, 409, 410, 411, 412, 413, 414, 415, 416, 417, 418, 419, 420, 421, 422, 423, 424, 425, 426, 427, 428, 429, 430, 431, 432, 433, 434, 435, 436, 437, 438, 439, 440, 441, 442, 443, 444, 445, 446, 447, 448, 449, 450, 451, 452, 453, 454, 455, 456, 457, 458, 459, 460, 461, 462, 463, 464, 465, 466, 467, 468, 469, 470, 471, 472, 473, 474, 475, 476, 477, 478, 479, 480, 481, 482, 483, 484, 485, 486, 487, 488, 489, 490, 491, 492, 493, 494, 495, 496, 497, 498, 499, 500, 501, 502, 503, 504, 505, 506, 507, 508, 509, 510, 511, 512, 513, 514, 515, 516, 517, 518, 519, 520, 521, 522, 523, 524, 525, 526, 527, 528, 529, 530, 531, 532, 533, 534, 535, 536, 537, 538, 539, 540, 541, 542, 543, 544, 545, 546, 547, 548, 549, 550, 551, 552, 553, 554, 555, 556, 557, 558, 559, 560, 561, 562, 563, 564, 565, 566, 567, 568, 569, 570, 571, 572, 573, 574, 575, 576, 577, 578, 579, 580, 581, 582, 583, 584, 585, 586, 587, 588, 589, 590, 591, 592, 593, 594, 595, 596, 597, 598, 599, 600, 601, 602, 603, 604, 605, 606, 607, 608, 609, 610, 611, 612, 613, 614, 615, 616, 617, 618, 619, 620, 621, 622, 623, 624, 625, 626, 627, 628, 629, 630, 631, 632, 633, 634, 635, 636, 637, 638, 639, 640, 641, 642, 643, 644, 645, 646, 647, 648, 649, 650, 651, 652, 653, 654, 655, 656, 657, 658, 659, 660, 661, 662, 663, 664, 665, 666, 667, 668, 669, 670, 671, 672, 673, 674, 675, 676, 677, 678, 679, 680, 681, 682, 683, 684, 685, 686, 687, 688, 689, 690, 691, 692, 693, 694, 695, 696, 697, 698, 699, 700, 701, 702, 703, 704, 705, 706, 707, 708, 709, 710, 711, 712, 713, 714, 715, 716, 717, 718, 719, 720, 721, 722, 723, 724, 725, 726, 727, 728, 729, 730, 731, 732, 733, 734, 735, 736, 737, 738, 739, 740, 741, 742, 743, 744, 745, 746, 747, 748, 749, 750, 751, 752, 753, 754, 755, 756, 757, 758, 759, 760, 761, 762, 763, 764, 765, 766, 767, 768, 769, 770, 771, 772, 773, 774, 775, 776, 777, 778, 779, 780, 781, 782, 783, 784, 785, 786, 787, 788, 789, 790, 791, 792, 793, 794, 795, 796, 797, 798, 799, 800, 801, 802, 803, 804, 805, 806, 807, 808, 809, 810, 811, 812, 813, 814, 815, 816, 817, 818, 819, 820, 821, 822, 823, 824, 825, 826, 827, 828, 829, 830, 831, 832, 833, 834, 835, 836, 837, 838, 839, 840, 841, 842, 843, 844, 845, 846, 847, 848, 849, 850, 851, 852, 853, 854, 855, 856, 857, 858, 859, 860, 861, 862, 863, 864, 865, 866, 867, 868, 869, 870, 871, 872],
      "AcquisitionTime": ["171144.015000", "171144.475000", "171144.935000", "171145.395000", "171145.855000", "171146.315000", "171146.775000", "171147.235000", "171147.695000", "171148.155000", "171148.615000", "171149.075000", "171149.535000", "171149.995000", "171150.455000", "171150.915000", "171151.375000", "171151.835000", "171152.295000", "171152.755000", "171153.215000", "171153.675000", "171154.135000", "171154.595000", "171155.055000", "171155.515000", "171155.975000", "171156.435000", "171156.895000", "171157.355000", "171157.815000", "171158.275000", "171158.735000", "171159.195000", "171159.655000", "171200.115000", "171200.575000", "171201.035000", "171201.495000", "171201.955000", "171202.415000", "171202.875000", "171203.335000", "171203.795000", "171204.255000", "171204.715000", "171205.175000", "171205.635000", "171206.095000", "171206.555000", "171207.015000", "171207.475000", "171207.935000", "171208.395000", "171208.855000", "171209.315000", "171209.775000", "171210.235000", "171210.695000", "171211.155000", "171211.615000", "171212.075000", "171212.535000", "171212.995000", "171213.455000", "171213.915000", "171214.375000", "171214.835000", "171215.295000", "171215.755000", "171216.215000", "171216.675000", "171217.135000", "171217.595000", "171218.055000", "171218.515000", "171218.975000", "171219.435000", "171219.895000", "171220.355000", "171220.815000", "171221.275000", "171221.735000", "171222.195000", "171222.655000", "171223.115000", "171223.575000", "171224.035000", "171224.495000", "171224.955000", "171225.415000", "171225.875000", "171226.335000", "171226.795000", "171227.255000", "171227.715000", "171228.175000", "171228.635000", "171229.095000", "171229.555000", "171230.015000", "171230.475000", "171230.935000", "171231.395000", "171231.855000", "171232.315000", "171232.775000", "171233.235000", "171233.695000", "171234.155000", "171234.615000", "171235.075000", "171235.535000", "171235.995000", "171236.455000", "171236.915000", "171237.375000", "171237.835000", "171238.295000", "171238.755000", "171239.215000", "171239.675000", "171240.135000", "171240.595000", "171241.055000", "171241.515000", "171241.975000", "171242.435000", "171242.895000", "171243.355000", "171243.815000", "171244.275000", "171244.735000", "171245.195000", "171245.655000", "171246.115000", "171246.575000", "171247.035000", "171247.495000", "171247.955000", "171248.415000", "171248.875000", "171249.335000", "171249.795000", "171250.255000", "171250.715000", "171251.175000", "171251.635000", "171252.095000", "171252.555000", "171253.015000", "171253.475000", "171253.935000", "171254.395000", "171254.855000", "171255.315000", "171255.775000", "171256.235000", "171256.695000", "171257.155000", "171257.615000", "171258.075000", "171258.535000", "171258.995000", "171259.455000", "171259.915000", "171300.375000", "171300.835000", "171301.295000", "171301.755000", "171302.215000", "171302.675000", "171303.135000", "171303.595000", "171304.055000", "171304.515000", "171304.975000", "171305.435000", "171305.895000", "171306.355000", "171306.815000", "171307.275000", "171307.735000", "171308.195000", "171308.655000", "171309.115000", "171309.575000", "171310.035000", "171310.495000", "171310.955000", "171311.415000", "171311.875000", "171312.335000", "171312.795000", "171313.255000", "171313.715000", "171314.175000", "171314.635000", "171315.095000", "171315.555000", "171316.015000", "171316.475000", "171316.935000", "171317.395000", "171317.855000", "171318.315000", "171318.775000", "171319.235000", "171319.695000", "171320.155000", "171320.615000", "171321.075000", "171321.535000", "171321.995000", "171322.455000", "171322.915000", "171323.375000", "171323.835000", "171324.295000", "171324.755000", "171325.215000", "171325.675000", "171326.135000", "171326.595000", "171327.055000", "171327.515000", "171327.975000", "171328.435000", "171328.895000", "171329.355000", "171329.815000", "171330.275000", "171330.735000", "171331.195000", "171331.655000", "171332.115000", "171332.575000", "171333.035000", "171333.495000", "171333.955000", "171334.415000", "171334.875000", "171335.335000", "171335.795000", "171336.255000", "171336.715000", "171337.175000", "171337.635000", "171338.095000", "171338.555000", "171339.015000", "171339.475000", "171339.935000", "171340.395000", "171340.855000", "171341.315000", "171341.775000", "171342.235000", "171342.695000", "171343.155000", "171343.615000", "171344.075000", "171344.535000", "171344.995000", "171345.455000", "171345.915000", "171346.375000", "171346.835000", "171347.295000", "171347.755000", "171348.215000", "171348.675000", "171349.135000", "171349.595000", "171350.055000", "171350.515000", "171350.975000", "171351.435000", "171351.895000", "171352.355000", "171352.815000", "171353.275000", "171353.735000", "171354.195000", "171354.655000", "171355.115000", "171355.575000", "171356.035000", "171356.495000", "171356.955000", "171357.415000", "171357.875000", "171358.335000", "171358.795000", "171359.255000", "171359.715000", "171400.175000", "171400.635000", "171401.095000", "171401.555000", "171402.015000", "171402.475000", "171402.935000", "171403.395000", "171403.855000", "171404.315000", "171404.775000", "171405.235000", "171405.695000", "171406.155000", "171406.615000", "171407.075000", "171407.535000", "171407.995000", "171408.455000", "171408.915000", "171409.375000", "171409.835000", "171410.295000", "171410.755000", "171411.215000", "171411.675000", "171412.135000", "171412.595000", "171413.055000", "171413.515000", "171413.975000", "171414.435000", "171414.895000", "171415.355000", "171415.815000", "171416.275000", "171416.735000", "171417.195000", "171417.655000", "171418.115000", "171418.575000", "171419.035000", "171419.495000", "171419.955000", "171420.415000", "171420.875000", "171421.335000", "171421.795000", "171422.255000", "171422.715000", "171423.175000", "171423.635000", "171424.095000", "171424.555000", "171425.015000", "171425.475000", "171425.935000", "171426.395000", "171426.855000", "171427.315000", "171427.775000", "171428.235000", "171428.695000", "171429.155000", "171429.615000", "171430.075000", "171430.535000", "171430.995000", "171431.455000", "171431.915000", "171432.375000", "171432.835000", "171433.295000", "171433.755000", "171434.215000", "171434.675000", "171435.135000", "171435.595000", "171436.055000", "171436.515000", "171436.975000", "171437.435000", "171437.895000", "171438.355000", "171438.815000", "171439.275000", "171439.735000", "171440.195000", "171440.655000", "171441.115000", "171441.575000", "171442.035000", "171442.495000", "171442.955000", "171443.415000", "171443.875000", "171444.335000", "171444.795000", "171445.255000", "171445.715000", "171446.175000", "171446.635000", "171447.095000", "171447.555000", "171448.015000", "171448.475000", "171448.935000", "171449.395000", "171449.855000", "171450.315000", "171450.775000", "171451.235000", "171451.695000", "171452.155000", "171452.615000", "171453.075000", "171453.535000", "171453.995000", "171454.455000", "171454.915000", "171455.375000", "171455.835000", "171456.295000", "171456.755000", "171457.215000", "171457.675000", "171458.135000", "171458.595000", "171459.055000", "171459.515000", "171459.975000", "171500.435000", "171500.895000", "171501.355000", "171501.815000", "171502.275000", "171502.735000", "171503.195000", "171503.655000", "171504.115000", "171504.575000", "171505.035000", "171505.495000", "171505.955000", "171506.415000", "171506.875000", "171507.335000", "171507.795000", "171508.255000", "171508.715000", "171509.175000", "171509.635000", "171510.095000", "171510.555000", "171511.015000", "171511.475000", "171511.935000", "171512.395000", "171512.855000", "171513.315000", "171513.775000", "171514.235000", "171514.695000", "171515.155000", "171515.615000", "171516.075000", "171516.535000", "171516.995000", "171517.455000", "171517.915000", "171518.375000", "171518.835000", "171519.295000", "171519.755000", "171520.215000", "171520.675000", "171521.135000", "171521.595000", "171522.055000", "171522.515000", "171522.975000", "171523.435000", "171523.895000", "171524.355000", "171524.815000", "171525.275000", "171525.735000", "171526.195000", "171526.655000", "171527.115000", "171527.575000", "171528.035000", "171528.495000", "171528.955000", "171529.415000", "171529.875000", "171530.335000", "171530.795000", "171531.255000", "171531.715000", "171532.175000", "171532.635000", "171533.095000", "171533.555000", "171534.015000", "171534.475000", "171534.935000", "171535.395000", "171535.855000", "171536.315000", "171536.775000", "171537.235000", "171537.695000", "171538.155000", "171538.615000", "171539.075000", "171539.535000", "171539.995000", "171540.455000", "171540.915000", "171541.375000", "171541.835000", "171542.295000", "171542.755000", "171543.215000", "171543.675000", "171544.135000", "171544.595000", "171545.055000", "171545.515000", "171545.975000", "171546.435000", "171546.895000", "171547.355000", "171547.815000", "171548.275000", "171548.735000", "171549.195000", "171549.655000", "171550.115000", "171550.575000", "171551.035000", "171551.495000", "171551.955000", "171552.415000", "171552.875000", "171553.335000", "171553.795000", "171554.255000", "171554.715000", "171555.175000", "171555.635000", "171556.095000", "171556.555000", "171557.015000", "171557.475000", "171557.935000", "171558.395000", "171558.855000", "171559.315000", "171559.775000", "171600.235000", "171600.695000", "171601.155000", "171601.615000", "171602.075000", "171602.535000", "171602.995000", "171603.455000", "171603.915000", "171604.375000", "171604.835000", "171605.295000", "171605.755000", "171606.215000", "171606.675000", "171607.135000", "171607.595000", "171608.055000", "171608.515000", "171608.975000", "171609.435000", "171609.895000", "171610.355000", "171610.815000", "171611.275000", "171611.735000", "171612.195000", "171612.655000", "171613.115000", "171613.575000", "171614.035000", "171614.495000", "171614.955000", "171615.415000", "171615.875000", "171616.335000", "171616.795000", "171617.255000", "171617.715000", "171618.175000", "171618.635000", "171619.095000", "171619.555000", "171620.015000", "171620.475000", "171620.935000", "171621.395000", "171621.855000", "171622.315000", "171622.775000", "171623.235000", "171623.695000", "171624.155000", "171624.615000", "171625.075000", "171625.535000", "171625.995000", "171626.455000", "171626.915000", "171627.375000", "171627.835000", "171628.295000", "171628.755000", "171629.215000", "171629.675000", "171630.135000", "171630.595000", "171631.055000", "171631.515000", "171631.975000", "171632.435000", "171632.895000", "171633.355000", "171633.815000", "171634.275000", "171634.735000", "171635.195000", "171635.655000", "171636.115000", "171636.575000", "171637.035000", "171637.495000", "171637.955000", "171638.415000", "171638.875000", "171639.335000", "171639.795000", "171640.255000", "171640.715000", "171641.175000", "171641.635000", "171642.095000", "171642.555000", "171643.015000", "171643.475000", "171643.935000", "171644.395000", "171644.855000", "171645.315000", "171645.775000", "171646.235000", "171646.695000", "171647.155000", "171647.615000", "171648.075000", "171648.535000", "171648.995000", "171649.455000", "171649.915000", "171650.375000", "171650.835000", "171651.295000", "171651.755000", "171652.215000", "171652.675000", "171653.135000", "171653.595000", "171654.055000", "171654.515000", "171654.975000", "171655.435000", "171655.895000", "171656.355000", "171656.815000", "171657.275000", "171657.735000", "171658.195000", "171658.655000", "171659.115000", "171659.575000", "171700.035000", "171700.495000", "171700.955000", "171701.415000", "171701.875000", "171702.335000", "171702.795000", "171703.255000", "171703.715000", "171704.175000", "171704.635000", "171705.095000", "171705.555000", "171706.015000", "171706.475000", "171706.935000", "171707.395000", "171707.855000", "171708.315000", "171708.775000", "171709.235000", "171709.695000", "171710.155000", "171710.615000", "171711.075000", "171711.535000", "171711.995000", "171712.455000", "171712.915000", "171713.375000", "171713.835000", "171714.295000", "171714.755000", "171715.215000", "171715.675000", "171716.135000", "171716.595000", "171717.055000", "171717.515000", "171717.975000", "171718.435000", "171718.895000", "171719.355000", "171719.815000", "171720.275000", "171720.735000", "171721.195000", "171721.655000", "171722.115000", "171722.575000", "171723.035000", "171723.495000", "171723.955000", "171724.415000", "171724.875000", "171725.335000", "171725.795000", "171726.255000", "171726.715000", "171727.175000", "171727.635000", "171728.095000", "171728.555000", "171729.015000", "171729.475000", "171729.935000", "171730.395000", "171730.855000", "171731.315000", "171731.775000", "171732.235000", "171732.695000", "171733.155000", "171733.615000", "171734.075000", "171734.535000", "171734.995000", "171735.455000", "171735.915000", "171736.375000", "171736.835000", "171737.295000", "171737.755000", "171738.215000", "171738.675000", "171739.135000", "171739.595000", "171740.055000", "171740.515000", "171740.975000", "171741.435000", "171741.895000", "171742.355000", "171742.815000", "171743.275000", "171743.735000", "171744.195000", "171744.655000", "171745.115000", "171745.575000", "171746.035000", "171746.495000", "171746.955000", "171747.415000", "171747.875000", "171748.335000", "171748.795000", "171749.255000", "171749.715000", "171750.175000", "171750.635000", "171751.095000", "171751.555000", "171752.015000", "171752.475000", "171752.935000", "171753.395000", "171753.855000", "171754.315000", "171754.775000", "171755.235000", "171755.695000", "171756.155000", "171756.615000", "171757.075000", "171757.535000", "171757.995000", "171758.455000", "171758.915000", "171759.375000", "171759.835000", "171800.295000", "171800.755000", "171801.215000", "171801.675000", "171802.135000", "171802.595000", "171803.055000", "171803.515000", "171803.975000", "171804.435000", "171804.895000", "171805.355000", "171805.815000", "171806.275000", "171806.735000", "171807.195000", "171807.655000", "171808.115000", "171808.575000", "171809.035000", "171809.495000", "171809.955000", "171810.415000", "171810.875000", "171811.335000", "171811.795000", "171812.255000", "171812.715000", "171813.175000", "171813.635000", "171814.095000", "171814.555000", "171815.015000", "171815.475000", "171815.935000", "171816.395000", "171816.855000", "171817.315000", "171817.775000", "171818.235000", "171818.695000", "171819.155000", "171819.615000", "171820.075000", "171820.535000", "171820.995000", "171821.455000", "171821.915000", "171822.375000", "171822.835000", "171823.295000", "171823.755000", "171824.215000", "171824.675000"],
