{
  "AcquisitionMatrixPE": 82,
  "AcquisitionNumber": 1,
  "AcquisitionTime": "17:56:29.640000",
  "BandwidthPerPixelPhaseEncode": 24.888,
  "BaseResolution": 82,
  "BodyPartExamined": "BRAIN",
  "ConsistencyInfo": "N4_VE11E_LATEST_20181129",
  "ConversionSoftware": "dcm2niix",
  "ConversionSoftwareVersion": "v1.0.20201102",
  "DerivedVendorReportedEchoSpacing": 0.00049,
  "DeviceSerialNumber": "66112",
  "DwellTime": 2e-06,
  "EchoTime": 0.0272,
  "EchoTrainLength": 82,
  "EffectiveEchoSpacing": 0.00049,
  "FlipAngle": 44,
  "ImageComments": "Unaliased MB8/PE3",
  "ImageOrientationPatientDICOM": [0.999731, 0.00598351, 0.0224018, -0.00593262, 0.99998, -0.00233768],
  "ImageType": [
    "ORIGINAL",
    "PRIMARY",
    "M",
    "MB",
    "ND",
    "NORM",
    "MOSAIC"
],
  "ImagingFrequency": 123.252,
  "InPlanePhaseEncodingDirectionDICOM": "COL",
  "InstitutionAddress": "Maynard 3,Hanover,NH,US,03755",
  "InstitutionName": "Dartmouth College - PBS",
  "InstitutionalDepartmentName": "Department",
  "MRAcquisitionType": "2D",
  "MagneticFieldStrength": 3,
  "Manufacturer": "Siemens",
  "ManufacturersModelName": "Prisma",
  "Modality": "MR",
  "MultibandAccelerationFactor": 8,
  "PartialFourier": 1,
  "PatientPosition": "HFS",
  "PercentPhaseFOV": 100,
  "PercentSampling": 100,
  "PhaseEncodingDirection": "j-",
  "PhaseEncodingSteps": 82,
  "PhaseResolution": 1,
  "PixelBandwidth": 3050,
  "ProcedureStepDescription": "Wager_Wager^1076_spacetop",
  "ProtocolName": "func_run-02_task-social_acq-ap-mb8",
  "PulseSequenceDetails": "%CustomerSeq%\\cmrr_mbep2d_bold",
  "ReceiveCoilActiveElements": "HEA;HEP",
  "ReceiveCoilName": "Head_32",
  "ReconMatrixPE": 82,
  "RepetitionTime": 0.46,
  "SAR": 0.0910527,
  "ScanOptions": "FS",
  "ScanningSequence": "EP",
  "SequenceName": "epfid2d1_82",
  "SequenceVariant": "SK\\SS",
  "SeriesDescription": "func_run-02_task-social_acq-ap-mb8",
  "SeriesNumber": 10,
  "ShimSetting": [4163, -7707, -7262, 589, 17, -111, -127, -1],
  "SliceThickness": 2.7,
  "SliceTiming": [0, 0.25, 0.0625, 0.3125, 0.125, 0.375, 0.1875, 0, 0.25, 0.0625, 0.3125, 0.125, 0.375, 0.1875, 0, 0.25, 0.0625, 0.3125, 0.125, 0.375, 0.1875, 0, 0.25, 0.0625, 0.3125, 0.125, 0.375, 0.1875, 0, 0.25, 0.0625, 0.3125, 0.125, 0.375, 0.1875, 0, 0.25, 0.0625, 0.3125, 0.125, 0.375, 0.1875, 0, 0.25, 0.0625, 0.3125, 0.125, 0.375, 0.1875, 0, 0.25, 0.0625, 0.3125, 0.125, 0.375, 0.1875],
  "SoftwareVersions": "syngo MR E11",
  "SpacingBetweenSlices": 2.7,
  "StationName": "AWP66112",
  "TaskName": "social",
  "TotalReadoutTime": 0.03969,
  "TxRefAmp": 251.455,
  "WipMemBlock": "ea856d8d-f8ff-44f3-b77b-204f70684a2e||Sequence: R016 ve11e/master r/434b28f1; Aug  7 2019 18:53:46 by eja",
  "dcmmeta_affine": [
    [-2.6822056770324707, -0.01591677777469158, 0.06052127853035927, 110.47282409667969],
    [-0.016053322702646255, 2.6828722953796387, -0.005951198283582926, -92.42729949951172],
    [0.060102272778749466, 0.006271816790103912, 2.699315071105957, -79.33183288574219],
    [0.0, 0.0, 0.0, 1.0]
],
  "dcmmeta_reorient_transform": [
    [0.0, -1.0, 0.0, 81.0],
    [1.0, 0.0, 0.0, 0.0],
    [0.0, 0.0, 1.0, 0.0],
    [0.0, 0.0, 0.0, 1.0]
],
  "dcmmeta_shape": [82, 82, 56, 872],
  "dcmmeta_slice_dim": 2,
  "dcmmeta_version": 0.6,
  "global": {
    "const": {
      "AccessionNumber": "A004255",
      "AcquisitionMatrix": [82, 0, 0, 82],
      "AngioFlag": "N",
      "BitsAllocated": 16,
      "BitsStored": 16,
      "BodyPartExamined": "BRAIN",
      "Columns": 656,
      "EchoNumbers": 1,
      "EchoTime": 27.2,
      "EchoTrainLength": 82,
      "FlipAngle": 44.0,
      "HighBit": 15,
      "ImageOrientationPatient": [0.99973114331233, 0.00598351138296, 0.02240175624713, -0.0059326166871, 0.99997966945596, -0.00233767705],
      "ImagePositionPatient": [-874.4084488743, -899.4770304157, -94.273157997771],
      "ImageType": [
        "ORIGINAL",
        "PRIMARY",
        "M",
        "MB",
        "ND",
        "NORM",
        "MOSAIC"
],
      "ImagedNucleus": "1H",
      "ImagingFrequency": 123.252188,
      "InPlanePhaseEncodingDirection": "COL",
      "MRAcquisitionType": "2D",
      "MagneticFieldStrength": 3.0,
      "Manufacturer": "SIEMENS",
      "ManufacturerModelName": "Prisma",
      "Modality": "MR",
      "NumberOfAverages": 1.0,
      "NumberOfPhaseEncodingSteps": 82,
      "PercentPhaseFieldOfView": 100.0,
      "PercentSampling": 100.0,
      "PerformedProcedureStepStartTime": "173526.660000",
      "PhotometricInterpretation": "MONOCHROME2",
      "PixelBandwidth": 3050.0,
      "PixelRepresentation": 0,
      "PixelSpacing": [2.6829268932343, 2.6829268932343],
      "ProtocolName": "func_run-02_task-social_acq-ap-mb8",
      "RepetitionTime": 460.0,
      "Rows": 656,
      "SAR": 0.09105265681225,
      "SamplesPerPixel": 1,
      "ScanOptions": "FS",
      "ScanningSequence": "EP",
      "SequenceName": "epfid2d1_82",
      "SequenceVariant": [
        "SK",
        "SS"
],
      "SeriesDescription": "func_run-02_task-social_acq-ap-mb8",
      "SeriesNumber": 10,
      "SeriesTime": "175648.556000",
      "SliceLocation": -76.631704984924,
      "SliceThickness": 2.7000000476837,
      "SmallestImagePixelValue": 0,
      "SoftwareVersions": "syngo MR E11",
      "SpacingBetweenSlices": 2.6999999656675,
      "SpecificCharacterSet": "ISO_IR 100",
      "StudyID": "3",
      "StudyTime": "173526.607000",
      "TransmitCoilName": "Body",
      "VariableFlipAngleFlag": "N",
      "WindowCenterWidthExplanation": "Algo1"
    },
    "slices": {}
  },
  "time": {
    "samples": {
      "AcquisitionNumber": [1, 2, 3, 4, 5, 6, 7, 8, 9, 10, 11, 12, 13, 14, 15, 16, 17, 18, 19, 20, 21, 22, 23, 24, 25, 26, 27, 28, 29, 30, 31, 32, 33, 34, 35, 36, 37, 38, 39, 40, 41, 42, 43, 44, 45, 46, 47, 48, 49, 50, 51, 52, 53, 54, 55, 56, 57, 58, 59, 60, 61, 62, 63, 64, 65, 66, 67, 68, 69, 70, 71, 72, 73, 74, 75, 76, 77, 78, 79, 80, 81, 82, 83, 84, 85, 86, 87, 88, 89, 90, 91, 92, 93, 94, 95, 96, 97, 98, 99, 100, 101, 102, 103, 104, 105, 106, 107, 108, 109, 110, 111, 112, 113, 114, 115, 116, 117, 118, 119, 120, 121, 122, 123, 124, 125, 126, 127, 128, 129, 130, 131, 132, 133, 134, 135, 136, 137, 138, 139, 140, 141, 142, 143, 144, 145, 146, 147, 148, 149, 150, 151, 152, 153, 154, 155, 156, 157, 158, 159, 160, 161, 162, 163, 164, 165, 166, 167, 168, 169, 170, 171, 172, 173, 174, 175, 176, 177, 178, 179, 180, 181, 182, 183, 184, 185, 186, 187, 188, 189, 190, 191, 192, 193, 194, 195, 196, 197, 198, 199, 200, 201, 202, 203, 204, 205, 206, 207, 208, 209, 210, 211, 212, 213, 214, 215, 216, 217, 218, 219, 220, 221, 222, 223, 224, 225, 226, 227, 228, 229, 230, 231, 232, 233, 234, 235, 236, 237, 238, 239, 240, 241, 242, 243, 244, 245, 246, 247, 248, 249, 250, 251, 252, 253, 254, 255, 256, 257, 258, 259, 260, 261, 262, 263, 264, 265, 266, 267, 268, 269, 270, 271, 272, 273, 274, 275, 276, 277, 278, 279, 280, 281, 282, 283, 284, 285, 286, 287, 288, 289, 290, 291, 292, 293, 294, 295, 296, 297, 298, 299, 300, 301, 302, 303, 304, 305, 306, 307, 308, 309, 310, 311, 312, 313, 314, 315, 316, 317, 318, 319, 320, 321, 322, 323, 324, 325, 326, 327, 328, 329, 330, 331, 332, 333, 334, 335, 336, 337, 338, 339, 340, 341, 342, 343, 344, 345, 346, 347, 348, 349, 350, 351, 352, 353, 354, 355, 356, 357, 358, 359, 360, 361, 362, 363, 364, 365, 366, 367, 368, 369, 370, 371, 372, 373, 374, 375, 376, 377, 378, 379, 380, 381, 382, 383, 384, 385, 386, 387, 388, 389, 390, 391, 392, 393, 394, 395, 396, 397, 398, 399, 400, 401, 402, 403, 404, 405, 406, 407, 408, 409, 410, 411, 412, 413, 414, 415, 416, 417, 418, 419, 420, 421, 422, 423, 424, 425, 426, 427, 428, 429, 430, 431, 432, 433, 434, 435, 436, 437, 438, 439, 440, 441, 442, 443, 444, 445, 446, 447, 448, 449, 450, 451, 452, 453, 454, 455, 456, 457, 458, 459, 460, 461, 462, 463, 464, 465, 466, 467, 468, 469, 470, 471, 472, 473, 474, 475, 476, 477, 478, 479, 480, 481, 482, 483, 484, 485, 486, 487, 488, 489, 490, 491, 492, 493, 494, 495, 496, 497, 498, 499, 500, 501, 502, 503, 504, 505, 506, 507, 508, 509, 510, 511, 512, 513, 514, 515, 516, 517, 518, 519, 520, 521, 522, 523, 524, 525, 526, 527, 528, 529, 530, 531, 532, 533, 534, 535, 536, 537, 538, 539, 540, 541, 542, 543, 544, 545, 546, 547, 548, 549, 550, 551, 552, 553, 554, 555, 556, 557, 558, 559, 560, 561, 562, 563, 564, 565, 566, 567, 568, 569, 570, 571, 572, 573, 574, 575, 576, 577, 578, 579, 580, 581, 582, 583, 584, 585, 586, 587, 588, 589, 590, 591, 592, 593, 594, 595, 596, 597, 598, 599, 600, 601, 602, 603, 604, 605, 606, 607, 608, 609, 610, 611, 612, 613, 614, 615, 616, 617, 618, 619, 620, 621, 622, 623, 624, 625, 626, 627, 628, 629, 630, 631, 632, 633, 634, 635, 636, 637, 638, 639, 640, 641, 642, 643, 644, 645, 646, 647, 648, 649, 650, 651, 652, 653, 654, 655, 656, 657, 658, 659, 660, 661, 662, 663, 664, 665, 666, 667, 668, 669, 670, 671, 672, 673, 674, 675, 676, 677, 678, 679, 680, 681, 682, 683, 684, 685, 686, 687, 688, 689, 690, 691, 692, 693, 694, 695, 696, 697, 698, 699, 700, 701, 702, 703, 704, 705, 706, 707, 708, 709, 710, 711, 712, 713, 714, 715, 716, 717, 718, 719, 720, 721, 722, 723, 724, 725, 726, 727, 728, 729, 730, 731, 732, 733, 734, 735, 736, 737, 738, 739, 740, 741, 742, 743, 744, 745, 746, 747, 748, 749, 750, 751, 752, 753, 754, 755, 756, 757, 758, 759, 760, 761, 762, 763, 764, 765, 766, 767, 768, 769, 770, 771, 772, 773, 774, 775, 776, 777, 778, 779, 780, 781, 782, 783, 784, 785, 786, 787, 788, 789, 790, 791, 792, 793, 794, 795, 796, 797, 798, 799, 800, 801, 802, 803, 804, 805, 806, 807, 808, 809, 810, 811, 812, 813, 814, 815, 816, 817, 818, 819, 820, 821, 822, 823, 824, 825, 826, 827, 828, 829, 830, 831, 832, 833, 834, 835, 836, 837, 838, 839, 840, 841, 842, 843, 844, 845, 846, 847, 848, 849, 850, 851, 852, 853, 854, 855, 856, 857, 858, 859, 860, 861, 862, 863, 864, 865, 866, 867, 868, 869, 870, 871, 872],
      "AcquisitionTime": ["175629.640000", "175630.100000", "175630.560000", "175631.020000", "175631.480000", "175631.940000", "175632.400000", "175632.860000", "175633.320000", "175633.780000", "175634.240000", "175634.700000", "175635.160000", "175635.620000", "175636.080000", "175636.540000", "175637.000000", "175637.460000", "175637.920000", "175638.380000", "175638.840000", "175639.300000", "175639.760000", "175640.220000", "175640.680000", "175641.140000", "175641.600000", "175642.060000", "175642.520000", "175642.980000", "175643.440000", "175643.900000", "175644.360000", "175644.820000", "175645.280000", "175645.740000", "175646.200000", "175646.660000", "175647.120000", "175647.580000", "175648.040000", "175648.500000", "175648.960000", "175649.420000", "175649.880000", "175650.340000", "175650.800000", "175651.260000", "175651.720000", "175652.180000", "175652.640000", "175653.100000", "175653.560000", "175654.020000", "175654.480000", "175654.940000", "175655.400000", "175655.860000", "175656.320000", "175656.780000", "175657.240000", "175657.700000", "175658.160000", "175658.620000", "175659.080000", "175659.540000", "175700.000000", "175700.460000", "175700.920000", "175701.380000", "175701.840000", "175702.300000", "175702.760000", "175703.220000", "175703.680000", "175704.140000", "175704.600000", "175705.060000", "175705.520000", "175705.980000", "175706.440000", "175706.900000", "175707.360000", "175707.820000", "175708.280000", "175708.740000", "175709.200000", "175709.660000", "175710.120000", "175710.580000", "175711.040000", "175711.500000", "175711.960000", "175712.420000", "175712.880000", "175713.340000", "175713.800000", "175714.260000", "175714.720000", "175715.180000", "175715.640000", "175716.100000", "175716.560000", "175717.020000", "175717.480000", "175717.940000", "175718.400000", "175718.860000", "175719.320000", "175719.780000", "175720.240000", "175720.700000", "175721.160000", "175721.620000", "175722.080000", "175722.540000", "175723.000000", "175723.460000", "175723.920000", "175724.380000", "175724.840000", "175725.300000", "175725.760000", "175726.220000", "175726.680000", "175727.140000", "175727.600000", "175728.060000", "175728.520000", "175728.980000", "175729.440000", "175729.900000", "175730.360000", "175730.820000", "175731.280000", "175731.740000", "175732.200000", "175732.660000", "175733.120000", "175733.580000", "175734.040000", "175734.500000", "175734.960000", "175735.420000", "175735.880000", "175736.340000", "175736.800000", "175737.260000", "175737.720000", "175738.180000", "175738.640000", "175739.100000", "175739.560000", "175740.020000", "175740.480000", "175740.940000", "175741.400000", "175741.860000", "175742.320000", "175742.780000", "175743.240000", "175743.700000", "175744.160000", "175744.620000", "175745.080000", "175745.540000", "175746.000000", "175746.460000", "175746.920000", "175747.380000", "175747.840000", "175748.300000", "175748.760000", "175749.220000", "175749.680000", "175750.140000", "175750.600000", "175751.060000", "175751.520000", "175751.980000", "175752.440000", "175752.900000", "175753.360000", "175753.820000", "175754.280000", "175754.740000", "175755.200000", "175755.660000", "175756.120000", "175756.580000", "175757.040000", "175757.500000", "175757.960000", "175758.420000", "175758.880000", "175759.340000", "175759.800000", "175800.260000", "175800.720000", "175801.180000", "175801.640000", "175802.100000", "175802.560000", "175803.020000", "175803.480000", "175803.940000", "175804.400000", "175804.860000", "175805.320000", "175805.780000", "175806.240000", "175806.700000", "175807.160000", "175807.620000", "175808.080000", "175808.540000", "175809.000000", "175809.460000", "175809.920000", "175810.380000", "175810.840000", "175811.300000", "175811.760000", "175812.220000", "175812.680000", "175813.140000", "175813.600000", "175814.060000", "175814.520000", "175814.980000", "175815.440000", "175815.900000", "175816.360000", "175816.820000", "175817.280000", "175817.740000", "175818.200000", "175818.660000", "175819.120000", "175819.580000", "175820.040000", "175820.500000", "175820.960000", "175821.420000", "175821.880000", "175822.340000", "175822.800000", "175823.260000", "175823.720000", "175824.180000", "175824.640000", "175825.100000", "175825.560000", "175826.020000", "175826.480000", "175826.940000", "175827.400000", "175827.860000", "175828.320000", "175828.780000", "175829.240000", "175829.700000", "175830.160000", "175830.620000", "175831.080000", "175831.540000", "175832.000000", "175832.460000", "175832.920000", "175833.380000", "175833.840000", "175834.300000", "175834.760000", "175835.220000", "175835.680000", "175836.140000", "175836.600000", "175837.060000", "175837.520000", "175837.980000", "175838.440000", "175838.900000", "175839.360000", "175839.820000", "175840.280000", "175840.740000", "175841.200000", "175841.660000", "175842.120000", "175842.580000", "175843.040000", "175843.500000", "175843.960000", "175844.420000", "175844.880000", "175845.340000", "175845.800000", "175846.260000", "175846.720000", "175847.180000", "175847.640000", "175848.100000", "175848.560000", "175849.020000", "175849.480000", "175849.940000", "175850.400000", "175850.860000", "175851.320000", "175851.780000", "175852.240000", "175852.700000", "175853.160000", "175853.620000", "175854.080000", "175854.540000", "175855.000000", "175855.460000", "175855.920000", "175856.380000", "175856.840000", "175857.300000", "175857.760000", "175858.220000", "175858.680000", "175859.140000", "175859.600000", "175900.060000", "175900.520000", "175900.980000", "175901.440000", "175901.900000", "175902.360000", "175902.820000", "175903.280000", "175903.740000", "175904.200000", "175904.660000", "175905.120000", "175905.580000", "175906.040000", "175906.500000", "175906.960000", "175907.420000", "175907.880000", "175908.340000", "175908.800000", "175909.260000", "175909.720000", "175910.180000", "175910.640000", "175911.100000", "175911.560000", "175912.020000", "175912.480000", "175912.940000", "175913.400000", "175913.860000", "175914.320000", "175914.780000", "175915.240000", "175915.700000", "175916.160000", "175916.620000", "175917.080000", "175917.540000", "175918.000000", "175918.460000", "175918.920000", "175919.380000", "175919.840000", "175920.300000", "175920.760000", "175921.220000", "175921.680000", "175922.140000", "175922.600000", "175923.060000", "175923.520000", "175923.980000", "175924.440000", "175924.900000", "175925.360000", "175925.820000", "175926.280000", "175926.740000", "175927.200000", "175927.660000", "175928.120000", "175928.580000", "175929.040000", "175929.500000", "175929.960000", "175930.420000", "175930.880000", "175931.340000", "175931.800000", "175932.260000", "175932.720000", "175933.180000", "175933.640000", "175934.100000", "175934.560000", "175935.020000", "175935.480000", "175935.940000", "175936.400000", "175936.860000", "175937.320000", "175937.780000", "175938.240000", "175938.700000", "175939.160000", "175939.620000", "175940.080000", "175940.540000", "175941.000000", "175941.460000", "175941.920000", "175942.380000", "175942.840000", "175943.300000", "175943.760000", "175944.220000", "175944.680000", "175945.140000", "175945.600000", "175946.060000", "175946.520000", "175946.980000", "175947.440000", "175947.900000", "175948.360000", "175948.820000", "175949.280000", "175949.740000", "175950.200000", "175950.660000", "175951.120000", "175951.580000", "175952.040000", "175952.500000", "175952.960000", "175953.420000", "175953.880000", "175954.340000", "175954.800000", "175955.260000", "175955.720000", "175956.180000", "175956.640000", "175957.100000", "175957.560000", "175958.020000", "175958.480000", "175958.940000", "175959.400000", "175959.860000", "180000.320000", "180000.780000", "180001.240000", "180001.700000", "180002.160000", "180002.620000", "180003.080000", "180003.540000", "180004.000000", "180004.460000", "180004.920000", "180005.380000", "180005.840000", "180006.300000", "180006.760000", "180007.220000", "180007.680000", "180008.140000", "180008.600000", "180009.060000", "180009.520000", "180009.980000", "180010.440000", "180010.900000", "180011.360000", "180011.820000", "180012.280000", "180012.740000", "180013.200000", "180013.660000", "180014.120000", "180014.580000", "180015.040000", "180015.500000", "180015.960000", "180016.420000", "180016.880000", "180017.340000", "180017.800000", "180018.260000", "180018.720000", "180019.180000", "180019.640000", "180020.100000", "180020.560000", "180021.020000", "180021.480000", "180021.940000", "180022.400000", "180022.860000", "180023.320000", "180023.780000", "180024.240000", "180024.700000", "180025.160000", "180025.620000", "180026.080000", "180026.540000", "180027.000000", "180027.460000", "180027.920000", "180028.380000", "180028.840000", "180029.300000", "180029.760000", "180030.220000", "180030.680000", "180031.140000", "180031.600000", "180032.060000", "180032.520000", "180032.980000", "180033.440000", "180033.900000", "180034.360000", "180034.820000", "180035.280000", "180035.740000", "180036.200000", "180036.660000", "180037.120000", "180037.580000", "180038.040000", "180038.500000", "180038.960000", "180039.420000", "180039.880000", "180040.340000", "180040.800000", "180041.260000", "180041.720000", "180042.180000", "180042.640000", "180043.100000", "180043.560000", "180044.020000", "180044.480000", "180044.940000", "180045.400000", "180045.860000", "180046.320000", "180046.780000", "180047.240000", "180047.700000", "180048.160000", "180048.620000", "180049.080000", "180049.540000", "180050.000000", "180050.460000", "180050.920000", "180051.380000", "180051.840000", "180052.300000", "180052.760000", "180053.220000", "180053.680000", "180054.140000", "180054.600000", "180055.060000", "180055.520000", "180055.980000", "180056.440000", "180056.900000", "180057.360000", "180057.820000", "180058.280000", "180058.740000", "180059.200000", "180059.660000", "180100.120000", "180100.580000", "180101.040000", "180101.500000", "180101.960000", "180102.420000", "180102.880000", "180103.340000", "180103.800000", "180104.260000", "180104.720000", "180105.180000", "180105.640000", "180106.100000", "180106.560000", "180107.020000", "180107.480000", "180107.940000", "180108.400000", "180108.860000", "180109.320000", "180109.780000", "180110.240000", "180110.700000", "180111.160000", "180111.620000", "180112.080000", "180112.540000", "180113.000000", "180113.460000", "180113.920000", "180114.380000", "180114.840000", "180115.300000", "180115.760000", "180116.220000", "180116.680000", "180117.140000", "180117.600000", "180118.060000", "180118.520000", "180118.980000", "180119.440000", "180119.900000", "180120.360000", "180120.820000", "180121.280000", "180121.740000", "180122.200000", "180122.660000", "180123.120000", "180123.580000", "180124.040000", "180124.500000", "180124.960000", "180125.420000", "180125.880000", "180126.340000", "180126.800000", "180127.260000", "180127.720000", "180128.180000", "180128.640000", "180129.100000", "180129.560000", "180130.020000", "180130.480000", "180130.940000", "180131.400000", "180131.860000", "180132.320000", "180132.780000", "180133.240000", "180133.700000", "180134.160000", "180134.620000", "180135.080000", "180135.540000", "180136.000000", "180136.460000", "180136.920000", "180137.380000", "180137.840000", "180138.300000", "180138.760000", "180139.220000", "180139.680000", "180140.140000", "180140.600000", "180141.060000", "180141.520000", "180141.980000", "180142.440000", "180142.900000", "180143.360000", "180143.820000", "180144.280000", "180144.740000", "180145.200000", "180145.660000", "180146.120000", "180146.580000", "180147.040000", "180147.500000", "180147.960000", "180148.420000", "180148.880000", "180149.340000", "180149.800000", "180150.260000", "180150.720000", "180151.180000", "180151.640000", "180152.100000", "180152.560000", "180153.020000", "180153.480000", "180153.940000", "180154.400000", "180154.860000", "180155.320000", "180155.780000", "180156.240000", "180156.700000", "180157.160000", "180157.620000", "180158.080000", "180158.540000", "180159.000000", "180159.460000", "180159.920000", "180200.380000", "180200.840000", "180201.300000", "180201.760000", "180202.220000", "180202.680000", "180203.140000", "180203.600000", "180204.060000", "180204.520000", "180204.980000", "180205.440000", "180205.900000", "180206.360000", "180206.820000", "180207.280000", "180207.740000", "180208.200000", "180208.660000", "180209.120000", "180209.580000", "180210.040000", "180210.500000", "180210.960000", "180211.420000", "180211.880000", "180212.340000", "180212.800000", "180213.260000", "180213.720000", "180214.180000", "180214.640000", "180215.100000", "180215.560000", "180216.020000", "180216.480000", "180216.940000", "180217.400000", "180217.860000", "180218.320000", "180218.780000", "180219.240000", "180219.700000", "180220.160000", "180220.620000", "180221.080000", "180221.540000", "180222.000000", "180222.460000", "180222.920000", "180223.380000", "180223.840000", "180224.300000", "180224.760000", "180225.220000", "180225.680000", "180226.140000", "180226.600000", "180227.060000", "180227.520000", "180227.980000", "180228.440000", "180228.900000", "180229.360000", "180229.820000", "180230.280000", "180230.740000", "180231.200000", "180231.660000", "180232.120000", "180232.580000", "180233.040000", "180233.500000", "180233.960000", "180234.420000", "180234.880000", "180235.340000", "180235.800000", "180236.260000", "180236.720000", "180237.180000", "180237.640000", "180238.100000", "180238.560000", "180239.020000", "180239.480000", "180239.940000", "180240.400000", "180240.860000", "180241.320000", "180241.780000", "180242.240000", "180242.700000", "180243.160000", "180243.620000", "180244.080000", "180244.540000", "180245.000000", "180245.460000", "180245.920000", "180246.380000", "180246.840000", "180247.300000", "180247.760000", "180248.220000", "180248.680000", "180249.140000", "180249.600000", "180250.060000", "180250.520000", "180250.980000", "180251.440000", "180251.900000", "180252.360000", "180252.820000", "180253.280000", "180253.740000", "180254.200000", "180254.660000", "180255.120000", "180255.580000", "180256.040000", "180256.500000", "180256.960000", "180257.420000", "180257.880000", "180258.340000", "180258.800000", "180259.260000", "180259.720000", "180300.180000", "180300.640000", "180301.100000", "180301.560000", "180302.020000", "180302.480000", "180302.940000", "180303.400000", "180303.860000", "180304.320000", "180304.780000", "180305.240000", "180305.700000", "180306.160000", "180306.620000", "180307.080000", "180307.540000", "180308.000000", "180308.460000", "180308.920000", "180309.380000", "180309.840000", "180310.300000"],
