{
  "AcquisitionMatrixPE": 82,
  "AcquisitionNumber": 1,
  "AcquisitionTime": "19:09:59.120000",
  "BandwidthPerPixelPhaseEncode": 24.888,
  "BaseResolution": 82,
  "BodyPartExamined": "BRAIN",
  "ConsistencyInfo": "N4_VE11E_LATEST_20181129",
  "ConversionSoftware": "dcm2niix",
  "ConversionSoftwareVersion": "v1.0.20201102",
  "DerivedVendorReportedEchoSpacing": 0.00049,
  "DeviceSerialNumber": "66112",
  "DwellTime": 2e-06,
  "EchoTime": 0.0272,
  "EchoTrainLength": 82,
  "EffectiveEchoSpacing": 0.00049,
  "FlipAngle": 44,
  "ImageComments": "Unaliased MB8/PE3",
  "ImageOrientationPatientDICOM": [0.99947, 0.0123223, 0.0301243, -0.0130838, 0.999596, 0.0252126],
  "ImageType": [
    "ORIGINAL",
    "PRIMARY",
    "M",
    "MB",
    "ND",
    "NORM",
    "MOSAIC"
],
  "ImagingFrequency": 123.252,
  "InPlanePhaseEncodingDirectionDICOM": "COL",
  "InstitutionAddress": "Maynard 3,Hanover,NH,US,03755",
  "InstitutionName": "Dartmouth College - PBS",
  "InstitutionalDepartmentName": "Department",
  "MRAcquisitionType": "2D",
  "MagneticFieldStrength": 3,
  "Manufacturer": "Siemens",
  "ManufacturersModelName": "Prisma",
  "Modality": "MR",
  "MultibandAccelerationFactor": 8,
  "PartialFourier": 1,
  "PatientPosition": "HFS",
  "PercentPhaseFOV": 100,
  "PercentSampling": 100,
  "PhaseEncodingDirection": "j-",
  "PhaseEncodingSteps": 82,
  "PhaseResolution": 1,
  "PixelBandwidth": 3050,
  "ProcedureStepDescription": "Wager_Wager^1076_spacetop",
  "ProtocolName": "func_run-03_task-alignvideo_acq-ap-mb8",
  "PulseSequenceDetails": "%CustomerSeq%\\cmrr_mbep2d_bold",
  "ReceiveCoilActiveElements": "HEA;HEP",
  "ReceiveCoilName": "Head_32",
  "ReconMatrixPE": 82,
  "RepetitionTime": 0.46,
  "SAR": 0.0911554,
  "ScanOptions": "FS",
  "ScanningSequence": "EP",
  "SequenceName": "epfid2d1_82",
  "SequenceVariant": "SK\\SS",
  "SeriesDescription": "func_run-03_task-alignvideo_acq-ap-mb8",
  "SeriesNumber": 32,
  "ShimSetting": [4163, -7708, -7261, 596, 16, -102, -133, -1],
  "SliceThickness": 2.7,
  "SliceTiming": [0, 0.25, 0.0625, 0.3125, 0.125, 0.375, 0.1875, 0, 0.25, 0.0625, 0.3125, 0.125, 0.375, 0.1875, 0, 0.25, 0.0625, 0.3125, 0.125, 0.375, 0.1875, 0, 0.25, 0.0625, 0.3125, 0.125, 0.375, 0.1875, 0, 0.25, 0.0625, 0.3125, 0.125, 0.375, 0.1875, 0, 0.25, 0.0625, 0.3125, 0.125, 0.375, 0.1875, 0, 0.25, 0.0625, 0.3125, 0.125, 0.375, 0.1875, 0, 0.25, 0.0625, 0.3125, 0.125, 0.375, 0.1875],
  "SoftwareVersions": "syngo MR E11",
  "SpacingBetweenSlices": 2.7,
  "StationName": "AWP66112",
  "TaskName": "alignvideo",
  "TotalReadoutTime": 0.03969,
  "TxRefAmp": 251.455,
  "WipMemBlock": "ccd991c2-1bf0-4843-85d7-1952e6c0a28b||Sequence: R016 ve11e/master r/434b28f1; Aug  7 2019 18:53:46 by eja",
  "dcmmeta_affine": [
    [-2.6815054416656494, -0.03510284051299095, 0.08046404272317886, 110.26358032226562],
    [-0.03305986523628235, 2.6818442344665527, 0.06910211592912674, -93.88409423828125],
    [0.08082137256860733, -0.06764353811740875, 2.697916030883789, -75.45433807373047],
    [0.0, 0.0, 0.0, 1.0]
],
  "dcmmeta_reorient_transform": [
    [0.0, -1.0, 0.0, 81.0],
    [1.0, 0.0, 0.0, 0.0],
    [0.0, 0.0, 1.0, 0.0],
    [0.0, 0.0, 0.0, 1.0]
],
  "dcmmeta_shape": [82, 82, 56, 1065],
  "dcmmeta_slice_dim": 2,
  "dcmmeta_version": 0.6,
  "global": {
    "const": {
      "AccessionNumber": "A004255",
      "AcquisitionMatrix": [82, 0, 0, 82],
      "AngioFlag": "N",
      "BitsAllocated": 16,
      "BitsStored": 16,
      "BodyPartExamined": "BRAIN",
      "Columns": 656,
      "EchoNumbers": 1,
      "EchoTime": 27.2,
      "EchoTrainLength": 82,
      "FlipAngle": 44.0,
      "HighBit": 15,
      "ImageOrientationPatient": [0.9994702023752, 0.01232231340128, 0.03012432831646, -0.0130837853387, 0.99959648849293, 0.02521259117607],
      "ImagePositionPatient": [-866.9378117278, -902.52279236167, -123.54289534374],
      "ImageType": [
        "ORIGINAL",
        "PRIMARY",
        "M",
        "MB",
        "ND",
        "NORM",
        "MOSAIC"
],
      "ImagedNucleus": "1H",
      "ImagingFrequency": 123.252201,
      "InPlanePhaseEncodingDirection": "COL",
      "MRAcquisitionType": "2D",
      "MagneticFieldStrength": 3.0,
      "Manufacturer": "SIEMENS",
      "ManufacturerModelName": "Prisma",
      "Modality": "MR",
      "NumberOfAverages": 1.0,
      "NumberOfPhaseEncodingSteps": 82,
      "PercentPhaseFieldOfView": 100.0,
      "PercentSampling": 100.0,
      "PerformedProcedureStepStartTime": "173526.660000",
      "PhotometricInterpretation": "MONOCHROME2",
      "PixelBandwidth": 3050.0,
      "PixelRepresentation": 0,
      "PixelSpacing": [2.6829268932343, 2.6829268932343],
      "ProtocolName": "func_run-03_task-alignvideo_acq-ap-mb8",
      "RepetitionTime": 460.0,
      "Rows": 656,
      "SAR": 0.09115536957616,
      "SamplesPerPixel": 1,
      "ScanOptions": "FS",
      "ScanningSequence": "EP",
      "SequenceName": "epfid2d1_82",
      "SequenceVariant": [
        "SK",
        "SS"
],
      "SeriesDescription": "func_run-03_task-alignvideo_acq-ap-mb8",
      "SeriesNumber": 32,
      "SeriesTime": "191028.475000",
      "SliceLocation": -74.512889536061,
      "SliceThickness": 2.7000000476837,
      "SmallestImagePixelValue": 0,
      "SoftwareVersions": "syngo MR E11",
      "SpacingBetweenSlices": 2.7000001223564,
      "SpecificCharacterSet": "ISO_IR 100",
      "StudyID": "3",
      "StudyTime": "173526.607000",
      "TransmitCoilName": "Body",
      "VariableFlipAngleFlag": "N",
      "WindowCenterWidthExplanation": "Algo1"
    },
    "slices": {}
  },
  "time": {
    "samples": {
      "AcquisitionNumber": [1, 2, 3, 4, 5, 6, 7, 8, 9, 10, 11, 12, 13, 14, 15, 16, 17, 18, 19, 20, 21, 22, 23, 24, 25, 26, 27, 28, 29, 30, 31, 32, 33, 34, 35, 36, 37, 38, 39, 40, 41, 42, 43, 44, 45, 46, 47, 48, 49, 50, 51, 52, 53, 54, 55, 56, 57, 58, 59, 60, 61, 62, 63, 64, 65, 66, 67, 68, 69, 70, 71, 72, 73, 74, 75, 76, 77, 78, 79, 80, 81, 82, 83, 84, 85, 86, 87, 88, 89, 90, 91, 92, 93, 94, 95, 96, 97, 98, 99, 100, 101, 102, 103, 104, 105, 106, 107, 108, 109, 110, 111, 112, 113, 114, 115, 116, 117, 118, 119, 120, 121, 122, 123, 124, 125, 126, 127, 128, 129, 130, 131, 132, 133, 134, 135, 136, 137, 138, 139, 140, 141, 142, 143, 144, 145, 146, 147, 148, 149, 150, 151, 152, 153, 154, 155, 156, 157, 158, 159, 160, 161, 162, 163, 164, 165, 166, 167, 168, 169, 170, 171, 172, 173, 174, 175, 176, 177, 178, 179, 180, 181, 182, 183, 184, 185, 186, 187, 188, 189, 190, 191, 192, 193, 194, 195, 196, 197, 198, 199, 200, 201, 202, 203, 204, 205, 206, 207, 208, 209, 210, 211, 212, 213, 214, 215, 216, 217, 218, 219, 220, 221, 222, 223, 224, 225, 226, 227, 228, 229, 230, 231, 232, 233, 234, 235, 236, 237, 238, 239, 240, 241, 242, 243, 244, 245, 246, 247, 248, 249, 250, 251, 252, 253, 254, 255, 256, 257, 258, 259, 260, 261, 262, 263, 264, 265, 266, 267, 268, 269, 270, 271, 272, 273, 274, 275, 276, 277, 278, 279, 280, 281, 282, 283, 284, 285, 286, 287, 288, 289, 290, 291, 292, 293, 294, 295, 296, 297, 298, 299, 300, 301, 302, 303, 304, 305, 306, 307, 308, 309, 310, 311, 312, 313, 314, 315, 316, 317, 318, 319, 320, 321, 322, 323, 324, 325, 326, 327, 328, 329, 330, 331, 332, 333, 334, 335, 336, 337, 338, 339, 340, 341, 342, 343, 344, 345, 346, 347, 348, 349, 350, 351, 352, 353, 354, 355, 356, 357, 358, 359, 360, 361, 362, 363, 364, 365, 366, 367, 368, 369, 370, 371, 372, 373, 374, 375, 376, 377, 378, 379, 380, 381, 382, 383, 384, 385, 386, 387, 388, 389, 390, 391, 392, 393, 394, 395, 396, 397, 398, 399, 400, 401, 402, 403, 404, 405, 406, 407, 408, 409, 410, 411, 412, 413, 414, 415, 416, 417, 418, 419, 420, 421, 422, 423, 424, 425, 426, 427, 428, 429, 430, 431, 432, 433, 434, 435, 436, 437, 438, 439, 440, 441, 442, 443, 444, 445, 446, 447, 448, 449, 450, 451, 452, 453, 454, 455, 456, 457, 458, 459, 460, 461, 462, 463, 464, 465, 466, 467, 468, 469, 470, 471, 472, 473, 474, 475, 476, 477, 478, 479, 480, 481, 482, 483, 484, 485, 486, 487, 488, 489, 490, 491, 492, 493, 494, 495, 496, 497, 498, 499, 500, 501, 502, 503, 504, 505, 506, 507, 508, 509, 510, 511, 512, 513, 514, 515, 516, 517, 518, 519, 520, 521, 522, 523, 524, 525, 526, 527, 528, 529, 530, 531, 532, 533, 534, 535, 536, 537, 538, 539, 540, 541, 542, 543, 544, 545, 546, 547, 548, 549, 550, 551, 552, 553, 554, 555, 556, 557, 558, 559, 560, 561, 562, 563, 564, 565, 566, 567, 568, 569, 570, 571, 572, 573, 574, 575, 576, 577, 578, 579, 580, 581, 582, 583, 584, 585, 586, 587, 588, 589, 590, 591, 592, 593, 594, 595, 596, 597, 598, 599, 600, 601, 602, 603, 604, 605, 606, 607, 608, 609, 610, 611, 612, 613, 614, 615, 616, 617, 618, 619, 620, 621, 622, 623, 624, 625, 626, 627, 628, 629, 630, 631, 632, 633, 634, 635, 636, 637, 638, 639, 640, 641, 642, 643, 644, 645, 646, 647, 648, 649, 650, 651, 652, 653, 654, 655, 656, 657, 658, 659, 660, 661, 662, 663, 664, 665, 666, 667, 668, 669, 670, 671, 672, 673, 674, 675, 676, 677, 678, 679, 680, 681, 682, 683, 684, 685, 686, 687, 688, 689, 690, 691, 692, 693, 694, 695, 696, 697, 698, 699, 700, 701, 702, 703, 704, 705, 706, 707, 708, 709, 710, 711, 712, 713, 714, 715, 716, 717, 718, 719, 720, 721, 722, 723, 724, 725, 726, 727, 728, 729, 730, 731, 732, 733, 734, 735, 736, 737, 738, 739, 740, 741, 742, 743, 744, 745, 746, 747, 748, 749, 750, 751, 752, 753, 754, 755, 756, 757, 758, 759, 760, 761, 762, 763, 764, 765, 766, 767, 768, 769, 770, 771, 772, 773, 774, 775, 776, 777, 778, 779, 780, 781, 782, 783, 784, 785, 786, 787, 788, 789, 790, 791, 792, 793, 794, 795, 796, 797, 798, 799, 800, 801, 802, 803, 804, 805, 806, 807, 808, 809, 810, 811, 812, 813, 814, 815, 816, 817, 818, 819, 820, 821, 822, 823, 824, 825, 826, 827, 828, 829, 830, 831, 832, 833, 834, 835, 836, 837, 838, 839, 840, 841, 842, 843, 844, 845, 846, 847, 848, 849, 850, 851, 852, 853, 854, 855, 856, 857, 858, 859, 860, 861, 862, 863, 864, 865, 866, 867, 868, 869, 870, 871, 872, 873, 874, 875, 876, 877, 878, 879, 880, 881, 882, 883, 884, 885, 886, 887, 888, 889, 890, 891, 892, 893, 894, 895, 896, 897, 898, 899, 900, 901, 902, 903, 904, 905, 906, 907, 908, 909, 910, 911, 912, 913, 914, 915, 916, 917, 918, 919, 920, 921, 922, 923, 924, 925, 926, 927, 928, 929, 930, 931, 932, 933, 934, 935, 936, 937, 938, 939, 940, 941, 942, 943, 944, 945, 946, 947, 948, 949, 950, 951, 952, 953, 954, 955, 956, 957, 958, 959, 960, 961, 962, 963, 964, 965, 966, 967, 968, 969, 970, 971, 972, 973, 974, 975, 976, 977, 978, 979, 980, 981, 982, 983, 984, 985, 986, 987, 988, 989, 990, 991, 992, 993, 994, 995, 996, 997, 998, 999, 1000, 1001, 1002, 1003, 1004, 1005, 1006, 1007, 1008, 1009, 1010, 1011, 1012, 1013, 1014, 1015, 1016, 1017, 1018, 1019, 1020, 1021, 1022, 1023, 1024, 1025, 1026, 1027, 1028, 1029, 1030, 1031, 1032, 1033, 1034, 1035, 1036, 1037, 1038, 1039, 1040, 1041, 1042, 1043, 1044, 1045, 1046, 1047, 1048, 1049, 1050, 1051, 1052, 1053, 1054, 1055, 1056, 1057, 1058, 1059, 1060, 1061, 1062, 1063, 1064, 1065],
      "AcquisitionTime": ["190959.120000", "190959.580000", "191000.040000", "191000.500000", "191000.960000", "191001.420000", "191001.880000", "191002.340000", "191002.800000", "191003.260000", "191003.720000", "191004.180000", "191004.640000", "191005.100000", "191005.560000", "191006.020000", "191006.480000", "191006.940000", "191007.400000", "191007.860000", "191008.320000", "191008.780000", "191009.240000", "191009.700000", "191010.160000", "191010.620000", "191011.080000", "191011.540000", "191012.000000", "191012.460000", "191012.920000", "191013.380000", "191013.840000", "191014.300000", "191014.760000", "191015.220000", "191015.680000", "191016.140000", "191016.600000", "191017.060000", "191017.520000", "191017.980000", "191018.440000", "191018.900000", "191019.360000", "191019.820000", "191020.280000", "191020.740000", "191021.200000", "191021.660000", "191022.120000", "191022.580000", "191023.040000", "191023.500000", "191023.960000", "191024.420000", "191024.880000", "191025.340000", "191025.800000", "191026.260000", "191026.720000", "191027.180000", "191027.640000", "191028.100000", "191028.560000", "191029.020000", "191029.480000", "191029.940000", "191030.400000", "191030.860000", "191031.320000", "191031.780000", "191032.240000", "191032.700000", "191033.160000", "191033.620000", "191034.080000", "191034.540000", "191035.000000", "191035.460000", "191035.920000", "191036.380000", "191036.840000", "191037.300000", "191037.760000", "191038.220000", "191038.680000", "191039.140000", "191039.600000", "191040.060000", "191040.520000", "191040.980000", "191041.440000", "191041.900000", "191042.360000", "191042.820000", "191043.280000", "191043.740000", "191044.200000", "191044.660000", "191045.120000", "191045.580000", "191046.040000", "191046.500000", "191046.960000", "191047.420000", "191047.880000", "191048.340000", "191048.800000", "191049.260000", "191049.720000", "191050.180000", "191050.640000", "191051.100000", "191051.560000", "191052.020000", "191052.480000", "191052.940000", "191053.400000", "191053.860000", "191054.320000", "191054.780000", "191055.240000", "191055.700000", "191056.160000", "191056.620000", "191057.080000", "191057.540000", "191058.000000", "191058.460000", "191058.920000", "191059.380000", "191059.840000", "191100.300000", "191100.760000", "191101.220000", "191101.680000", "191102.140000", "191102.600000", "191103.060000", "191103.520000", "191103.980000", "191104.440000", "191104.900000", "191105.360000", "191105.820000", "191106.280000", "191106.740000", "191107.200000", "191107.660000", "191108.120000", "191108.580000", "191109.040000", "191109.500000", "191109.960000", "191110.420000", "191110.880000", "191111.340000", "191111.800000", "191112.260000", "191112.720000", "191113.180000", "191113.640000", "191114.100000", "191114.560000", "191115.020000", "191115.480000", "191115.940000", "191116.400000", "191116.860000", "191117.320000", "191117.780000", "191118.240000", "191118.700000", "191119.160000", "191119.620000", "191120.080000", "191120.540000", "191121.000000", "191121.460000", "191121.920000", "191122.380000", "191122.840000", "191123.300000", "191123.760000", "191124.220000", "191124.680000", "191125.140000", "191125.600000", "191126.060000", "191126.520000", "191126.980000", "191127.440000", "191127.900000", "191128.360000", "191128.820000", "191129.280000", "191129.740000", "191130.200000", "191130.660000", "191131.120000", "191131.580000", "191132.040000", "191132.500000", "191132.960000", "191133.420000", "191133.880000", "191134.340000", "191134.800000", "191135.260000", "191135.720000", "191136.180000", "191136.640000", "191137.100000", "191137.560000", "191138.020000", "191138.480000", "191138.940000", "191139.400000", "191139.860000", "191140.320000", "191140.780000", "191141.240000", "191141.700000", "191142.160000", "191142.620000", "191143.080000", "191143.540000", "191144.000000", "191144.460000", "191144.920000", "191145.380000", "191145.840000", "191146.300000", "191146.760000", "191147.220000", "191147.680000", "191148.140000", "191148.600000", "191149.060000", "191149.520000", "191149.980000", "191150.440000", "191150.900000", "191151.360000", "191151.820000", "191152.280000", "191152.740000", "191153.200000", "191153.660000", "191154.120000", "191154.580000", "191155.040000", "191155.500000", "191155.960000", "191156.420000", "191156.880000", "191157.340000", "191157.800000", "191158.260000", "191158.720000", "191159.180000", "191159.640000", "191200.100000", "191200.560000", "191201.020000", "191201.480000", "191201.940000", "191202.400000", "191202.860000", "191203.320000", "191203.780000", "191204.240000", "191204.700000", "191205.160000", "191205.620000", "191206.080000", "191206.540000", "191207.000000", "191207.460000", "191207.920000", "191208.380000", "191208.840000", "191209.300000", "191209.760000", "191210.220000", "191210.680000", "191211.140000", "191211.600000", "191212.060000", "191212.520000", "191212.980000", "191213.440000", "191213.900000", "191214.360000", "191214.820000", "191215.280000", "191215.740000", "191216.200000", "191216.660000", "191217.120000", "191217.580000", "191218.040000", "191218.500000", "191218.960000", "191219.420000", "191219.880000", "191220.340000", "191220.800000", "191221.260000", "191221.720000", "191222.180000", "191222.640000", "191223.100000", "191223.560000", "191224.020000", "191224.480000", "191224.940000", "191225.400000", "191225.860000", "191226.320000", "191226.780000", "191227.240000", "191227.700000", "191228.160000", "191228.620000", "191229.080000", "191229.540000", "191230.000000", "191230.460000", "191230.920000", "191231.380000", "191231.840000", "191232.300000", "191232.760000", "191233.220000", "191233.680000", "191234.140000", "191234.600000", "191235.060000", "191235.520000", "191235.980000", "191236.440000", "191236.900000", "191237.360000", "191237.820000", "191238.280000", "191238.740000", "191239.200000", "191239.660000", "191240.120000", "191240.580000", "191241.040000", "191241.500000", "191241.960000", "191242.420000", "191242.880000", "191243.340000", "191243.800000", "191244.260000", "191244.720000", "191245.180000", "191245.640000", "191246.100000", "191246.560000", "191247.020000", "191247.480000", "191247.940000", "191248.400000", "191248.860000", "191249.320000", "191249.780000", "191250.240000", "191250.700000", "191251.160000", "191251.620000", "191252.080000", "191252.540000", "191253.000000", "191253.460000", "191253.920000", "191254.380000", "191254.840000", "191255.300000", "191255.760000", "191256.220000", "191256.680000", "191257.140000", "191257.600000", "191258.060000", "191258.520000", "191258.980000", "191259.440000", "191259.900000", "191300.360000", "191300.820000", "191301.280000", "191301.740000", "191302.200000", "191302.660000", "191303.120000", "191303.580000", "191304.040000", "191304.500000", "191304.960000", "191305.420000", "191305.880000", "191306.340000", "191306.800000", "191307.260000", "191307.720000", "191308.180000", "191308.640000", "191309.100000", "191309.560000", "191310.020000", "191310.480000", "191310.940000", "191311.400000", "191311.860000", "191312.320000", "191312.780000", "191313.240000", "191313.700000", "191314.160000", "191314.620000", "191315.080000", "191315.540000", "191316.000000", "191316.460000", "191316.920000", "191317.380000", "191317.840000", "191318.300000", "191318.760000", "191319.220000", "191319.680000", "191320.140000", "191320.600000", "191321.060000", "191321.520000", "191321.980000", "191322.440000", "191322.900000", "191323.360000", "191323.820000", "191324.280000", "191324.740000", "191325.200000", "191325.660000", "191326.120000", "191326.580000", "191327.040000", "191327.500000", "191327.960000", "191328.420000", "191328.880000", "191329.340000", "191329.800000", "191330.260000", "191330.720000", "191331.180000", "191331.640000", "191332.100000", "191332.560000", "191333.020000", "191333.480000", "191333.940000", "191334.400000", "191334.860000", "191335.320000", "191335.780000", "191336.240000", "191336.700000", "191337.160000", "191337.620000", "191338.080000", "191338.540000", "191339.000000", "191339.460000", "191339.920000", "191340.380000", "191340.840000", "191341.300000", "191341.760000", "191342.220000", "191342.680000", "191343.140000", "191343.600000", "191344.060000", "191344.520000", "191344.980000", "191345.440000", "191345.900000", "191346.360000", "191346.820000", "191347.280000", "191347.740000", "191348.200000", "191348.660000", "191349.120000", "191349.580000", "191350.040000", "191350.500000", "191350.960000", "191351.420000", "191351.880000", "191352.340000", "191352.800000", "191353.260000", "191353.720000", "191354.180000", "191354.640000", "191355.100000", "191355.560000", "191356.020000", "191356.480000", "191356.940000", "191357.400000", "191357.860000", "191358.320000", "191358.780000", "191359.240000", "191359.700000", "191400.160000", "191400.620000", "191401.080000", "191401.540000", "191402.000000", "191402.460000", "191402.920000", "191403.380000", "191403.840000", "191404.300000", "191404.760000", "191405.220000", "191405.680000", "191406.140000", "191406.600000", "191407.060000", "191407.520000", "191407.980000", "191408.440000", "191408.900000", "191409.360000", "191409.820000", "191410.280000", "191410.740000", "191411.200000", "191411.660000", "191412.120000", "191412.580000", "191413.040000", "191413.500000", "191413.960000", "191414.420000", "191414.880000", "191415.340000", "191415.800000", "191416.260000", "191416.720000", "191417.180000", "191417.640000", "191418.100000", "191418.560000", "191419.020000", "191419.480000", "191419.940000", "191420.400000", "191420.860000", "191421.320000", "191421.780000", "191422.240000", "191422.700000", "191423.160000", "191423.620000", "191424.080000", "191424.540000", "191425.000000", "191425.460000", "191425.920000", "191426.380000", "191426.840000", "191427.300000", "191427.760000", "191428.220000", "191428.680000", "191429.140000", "191429.600000", "191430.060000", "191430.520000", "191430.980000", "191431.440000", "191431.900000", "191432.360000", "191432.820000", "191433.280000", "191433.740000", "191434.200000", "191434.660000", "191435.120000", "191435.580000", "191436.040000", "191436.500000", "191436.960000", "191437.420000", "191437.880000", "191438.340000", "191438.800000", "191439.260000", "191439.720000", "191440.180000", "191440.640000", "191441.100000", "191441.560000", "191442.020000", "191442.480000", "191442.940000", "191443.400000", "191443.860000", "191444.320000", "191444.780000", "191445.240000", "191445.700000", "191446.160000", "191446.620000", "191447.080000", "191447.540000", "191448.000000", "191448.460000", "191448.920000", "191449.380000", "191449.840000", "191450.300000", "191450.760000", "191451.220000", "191451.680000", "191452.140000", "191452.600000", "191453.060000", "191453.520000", "191453.980000", "191454.440000", "191454.900000", "191455.360000", "191455.820000", "191456.280000", "191456.740000", "191457.200000", "191457.660000", "191458.120000", "191458.580000", "191459.040000", "191459.500000", "191459.960000", "191500.420000", "191500.880000", "191501.340000", "191501.800000", "191502.260000", "191502.720000", "191503.180000", "191503.640000", "191504.100000", "191504.560000", "191505.020000", "191505.480000", "191505.940000", "191506.400000", "191506.860000", "191507.320000", "191507.780000", "191508.240000", "191508.700000", "191509.160000", "191509.620000", "191510.080000", "191510.540000", "191511.000000", "191511.460000", "191511.920000", "191512.380000", "191512.840000", "191513.300000", "191513.760000", "191514.220000", "191514.680000", "191515.140000", "191515.600000", "191516.060000", "191516.520000", "191516.980000", "191517.440000", "191517.900000", "191518.360000", "191518.820000", "191519.280000", "191519.740000", "191520.200000", "191520.660000", "191521.120000", "191521.580000", "191522.040000", "191522.500000", "191522.960000", "191523.420000", "191523.880000", "191524.340000", "191524.800000", "191525.260000", "191525.720000", "191526.180000", "191526.640000", "191527.100000", "191527.560000", "191528.020000", "191528.480000", "191528.940000", "191529.400000", "191529.860000", "191530.320000", "191530.780000", "191531.240000", "191531.700000", "191532.160000", "191532.620000", "191533.080000", "191533.540000", "191534.000000", "191534.460000", "191534.920000", "191535.380000", "191535.840000", "191536.300000", "191536.760000", "191537.220000", "191537.680000", "191538.140000", "191538.600000", "191539.060000", "191539.520000", "191539.980000", "191540.440000", "191540.900000", "191541.360000", "191541.820000", "191542.280000", "191542.740000", "191543.200000", "191543.660000", "191544.120000", "191544.580000", "191545.040000", "191545.500000", "191545.960000", "191546.420000", "191546.880000", "191547.340000", "191547.800000", "191548.260000", "191548.720000", "191549.180000", "191549.640000", "191550.100000", "191550.560000", "191551.020000", "191551.480000", "191551.940000", "191552.400000", "191552.860000", "191553.320000", "191553.780000", "191554.240000", "191554.700000", "191555.160000", "191555.620000", "191556.080000", "191556.540000", "191557.000000", "191557.460000", "191557.920000", "191558.380000", "191558.840000", "191559.300000", "191559.760000", "191600.220000", "191600.680000", "191601.140000", "191601.600000", "191602.060000", "191602.520000", "191602.980000", "191603.440000", "191603.900000", "191604.360000", "191604.820000", "191605.280000", "191605.740000", "191606.200000", "191606.660000", "191607.120000", "191607.580000", "191608.040000", "191608.500000", "191608.960000", "191609.420000", "191609.880000", "191610.340000", "191610.800000", "191611.260000", "191611.720000", "191612.180000", "191612.640000", "191613.100000", "191613.560000", "191614.020000", "191614.480000", "191614.940000", "191615.400000", "191615.860000", "191616.320000", "191616.780000", "191617.240000", "191617.700000", "191618.160000", "191618.620000", "191619.080000", "191619.540000", "191620.000000", "191620.460000", "191620.920000", "191621.380000", "191621.840000", "191622.300000", "191622.760000", "191623.220000", "191623.680000", "191624.140000", "191624.600000", "191625.060000", "191625.520000", "191625.980000", "191626.440000", "191626.900000", "191627.360000", "191627.820000", "191628.280000", "191628.740000", "191629.200000", "191629.660000", "191630.120000", "191630.580000", "191631.040000", "191631.500000", "191631.960000", "191632.420000", "191632.880000", "191633.340000", "191633.800000", "191634.260000", "191634.720000", "191635.180000", "191635.640000", "191636.100000", "191636.560000", "191637.020000", "191637.480000", "191637.940000", "191638.400000", "191638.860000", "191639.320000", "191639.780000", "191640.240000", "191640.700000", "191641.160000", "191641.620000", "191642.080000", "191642.540000", "191643.000000", "191643.460000", "191643.920000", "191644.380000", "191644.840000", "191645.300000", "191645.760000", "191646.220000", "191646.680000", "191647.140000", "191647.600000", "191648.060000", "191648.520000", "191648.980000", "191649.440000", "191649.900000", "191650.360000", "191650.820000", "191651.280000", "191651.740000", "191652.200000", "191652.660000", "191653.120000", "191653.580000", "191654.040000", "191654.500000", "191654.960000", "191655.420000", "191655.880000", "191656.340000", "191656.800000", "191657.260000", "191657.720000", "191658.180000", "191658.640000", "191659.100000", "191659.560000", "191700.020000", "191700.480000", "191700.940000", "191701.400000", "191701.860000", "191702.320000", "191702.780000", "191703.240000", "191703.700000", "191704.160000", "191704.620000", "191705.080000", "191705.540000", "191706.000000", "191706.460000", "191706.920000", "191707.380000", "191707.840000", "191708.300000", "191708.760000", "191709.220000", "191709.680000", "191710.140000", "191710.600000", "191711.060000", "191711.520000", "191711.980000", "191712.440000", "191712.900000", "191713.360000", "191713.820000", "191714.280000", "191714.740000", "191715.200000", "191715.660000", "191716.120000", "191716.580000", "191717.040000", "191717.500000", "191717.960000", "191718.420000", "191718.880000", "191719.340000", "191719.800000", "191720.260000", "191720.720000", "191721.180000", "191721.640000", "191722.100000", "191722.560000", "191723.020000", "191723.480000", "191723.940000", "191724.400000", "191724.860000", "191725.320000", "191725.780000", "191726.240000", "191726.700000", "191727.160000", "191727.620000", "191728.080000", "191728.540000", "191729.000000", "191729.460000", "191729.920000", "191730.380000", "191730.840000", "191731.300000", "191731.760000", "191732.220000", "191732.680000", "191733.140000", "191733.600000", "191734.060000", "191734.520000", "191734.980000", "191735.440000", "191735.900000", "191736.360000", "191736.820000", "191737.280000", "191737.740000", "191738.200000", "191738.660000", "191739.120000", "191739.580000", "191740.040000", "191740.500000", "191740.960000", "191741.420000", "191741.880000", "191742.340000", "191742.800000", "191743.260000", "191743.720000", "191744.180000", "191744.640000", "191745.100000", "191745.560000", "191746.020000", "191746.480000", "191746.940000", "191747.400000", "191747.860000", "191748.320000", "191748.780000", "191749.240000", "191749.700000", "191750.160000", "191750.620000", "191751.080000", "191751.540000", "191752.000000", "191752.460000", "191752.920000", "191753.380000", "191753.840000", "191754.300000", "191754.760000", "191755.220000", "191755.680000", "191756.140000", "191756.600000", "191757.060000", "191757.520000", "191757.980000", "191758.440000", "191758.900000", "191759.360000", "191759.820000", "191800.280000", "191800.740000", "191801.200000", "191801.660000", "191802.120000", "191802.580000", "191803.040000", "191803.500000", "191803.960000", "191804.420000", "191804.880000", "191805.340000", "191805.800000", "191806.260000", "191806.720000", "191807.180000", "191807.640000", "191808.100000", "191808.560000"],
