{
  "AcquisitionMatrixPE": 82,
  "AcquisitionNumber": 1,
  "AcquisitionTime": "08:58:42.287500",
  "BandwidthPerPixelPhaseEncode": 24.888,
  "BaseResolution": 82,
  "BodyPartExamined": "BRAIN",
  "ConsistencyInfo": "N4_VE11E_LATEST_20181129",
  "ConversionSoftware": "dcm2niix",
  "ConversionSoftwareVersion": "v1.0.20201102",
  "DerivedVendorReportedEchoSpacing": 0.00049,
  "DeviceSerialNumber": "66112",
  "DwellTime": 2e-06,
  "EchoTime": 0.0272,
  "EchoTrainLength": 82,
  "EffectiveEchoSpacing": 0.00049,
  "FlipAngle": 44,
  "ImageComments": "Unaliased MB8/PE3",
  "ImageOrientationPatientDICOM": [0.998866, -0.0465056, 0.010178, 0.0458823, 0.997449, 0.0546888],
  "ImageType": [
    "ORIGINAL",
    "PRIMARY",
    "M",
    "MB",
    "ND",
    "NORM",
    "MOSAIC"
],
  "ImagingFrequency": 123.252,
  "InPlanePhaseEncodingDirectionDICOM": "COL",
  "InstitutionAddress": "Maynard 3,Hanover,NH,US,03755",
  "InstitutionName": "Dartmouth College - PBS",
  "InstitutionalDepartmentName": "Department",
  "MRAcquisitionType": "2D",
  "MagneticFieldStrength": 3,
  "Manufacturer": "Siemens",
  "ManufacturersModelName": "Prisma",
  "Modality": "MR",
  "MultibandAccelerationFactor": 8,
  "PartialFourier": 1,
  "PatientPosition": "HFS",
  "PercentPhaseFOV": 100,
  "PercentSampling": 100,
  "PhaseEncodingDirection": "j-",
  "PhaseEncodingSteps": 82,
  "PhaseResolution": 1,
  "PixelBandwidth": 3050,
  "ProcedureStepDescription": "Wager_Wager^1076_spacetop",
  "ProtocolName": "func_run-03_task-social_acq-ap-mb8",
  "PulseSequenceDetails": "%CustomerSeq%\\cmrr_mbep2d_bold",
  "ReceiveCoilActiveElements": "HEA;HEP",
  "ReceiveCoilName": "Head_32",
  "ReconMatrixPE": 82,
  "RepetitionTime": 0.46,
  "SAR": 0.0770923,
  "ScanOptions": "FS",
  "ScanningSequence": "EP",
  "SequenceName": "epfid2d1_82",
  "SequenceVariant": "SK\\SS",
  "SeriesDescription": "func_run-03_task-social_acq-ap-mb8",
  "SeriesNumber": 16,
  "ShimSetting": [4152, -7743, -7264, 650, -57, -103, 62, 80],
  "SliceThickness": 2.7,
  "SliceTiming": [0, 0.25, 0.0625, 0.3125, 0.125, 0.3775, 0.1875, 0, 0.25, 0.0625, 0.3125, 0.125, 0.3775, 0.1875, 0, 0.25, 0.0625, 0.3125, 0.125, 0.3775, 0.1875, 0, 0.25, 0.0625, 0.3125, 0.125, 0.3775, 0.1875, 0, 0.25, 0.0625, 0.3125, 0.125, 0.3775, 0.1875, 0, 0.25, 0.0625, 0.3125, 0.125, 0.3775, 0.1875, 0, 0.25, 0.0625, 0.3125, 0.125, 0.3775, 0.1875, 0, 0.25, 0.0625, 0.3125, 0.125, 0.3775, 0.1875],
  "SoftwareVersions": "syngo MR E11",
  "SpacingBetweenSlices": 2.7,
  "StationName": "AWP66112",
  "TaskName": "social",
  "TotalReadoutTime": 0.03969,
  "TxRefAmp": 241.403,
  "WipMemBlock": "1162f794-d06c-4153-adff-7def491486c9||Sequence: R016 ve11e/master r/434b28f1; Aug  7 2019 18:53:46 by eja",
  "dcmmeta_affine": [
    [-2.679884910583496, 0.12309897691011429, 0.03427752107381821, 106.54242706298828],
    [0.1247711107134819, 2.676081895828247, 0.14623157680034637, -95.03337097167969],
    [0.027306852862238884, -0.14672616124153137, 2.695819139480591, -63.34056091308594],
    [0.0, 0.0, 0.0, 1.0]
],
  "dcmmeta_reorient_transform": [
    [0.0, -1.0, 0.0, 81.0],
    [1.0, 0.0, 0.0, 0.0],
    [0.0, 0.0, 1.0, 0.0],
    [0.0, 0.0, 0.0, 1.0]
],
  "dcmmeta_shape": [82, 82, 56, 872],
  "dcmmeta_slice_dim": 2,
  "dcmmeta_version": 0.6,
  "global": {
    "const": {
      "AccessionNumber": "A003872",
      "AcquisitionMatrix": [82, 0, 0, 82],
      "AngioFlag": "N",
      "BitsAllocated": 16,
      "BitsStored": 16,
      "BodyPartExamined": "BRAIN",
      "Columns": 656,
      "EchoNumbers": 1,
      "EchoTime": 27.2,
      "EchoTrainLength": 82,
      "FlipAngle": 44.0,
      "HighBit": 15,
      "ImageOrientationPatient": [0.99886617607898, -0.0465055956549, 0.01017800855499, 0.04588234566757, 0.99744871592702, 0.05468884211234],
      "ImagePositionPatient": [-920.96982794829, -853.95549221929, -125.17285680368],
      "ImageType": [
        "ORIGINAL",
        "PRIMARY",
        "M",
        "MB",
        "ND",
        "NORM",
        "MOSAIC"
],
      "ImagedNucleus": "1H",
      "ImagingFrequency": 123.252219,
      "InPlanePhaseEncodingDirection": "COL",
      "MRAcquisitionType": "2D",
      "MagneticFieldStrength": 3.0,
      "Manufacturer": "SIEMENS",
      "ManufacturerModelName": "Prisma",
      "Modality": "MR",
      "NumberOfAverages": 1.0,
      "NumberOfPhaseEncodingSteps": 82,
      "PercentPhaseFieldOfView": 100.0,
      "PercentSampling": 100.0,
      "PerformedProcedureStepStartTime": "080448.856000",
      "PhotometricInterpretation": "MONOCHROME2",
      "PixelBandwidth": 3050.0,
      "PixelRepresentation": 0,
      "PixelSpacing": [2.6829268932343, 2.6829268932343],
      "ProtocolName": "func_run-03_task-social_acq-ap-mb8",
      "RepetitionTime": 460.0,
      "Rows": 656,
      "SAR": 0.07709228494199,
      "SamplesPerPixel": 1,
      "ScanOptions": "FS",
      "ScanningSequence": "EP",
      "SequenceName": "epfid2d1_82",
      "SequenceVariant": [
        "SK",
        "SS"
],
      "SeriesDescription": "func_run-03_task-social_acq-ap-mb8",
      "SeriesNumber": 16,
      "SeriesTime": "085858.962000",
      "SliceLocation": -67.036878712112,
      "SliceThickness": 2.7000000476837,
      "SmallestImagePixelValue": 0,
      "SoftwareVersions": "syngo MR E11",
      "SpacingBetweenSlices": 2.6999999912983,
      "SpecificCharacterSet": "ISO_IR 100",
      "StudyID": "1",
      "StudyTime": "080448.695000",
      "TransmitCoilName": "Body",
      "VariableFlipAngleFlag": "N",
      "WindowCenterWidthExplanation": "Algo1"
    },
    "slices": {}
  },
  "time": {
    "samples": {
      "AcquisitionNumber": [1, 2, 3, 4, 5, 6, 7, 8, 9, 10, 11, 12, 13, 14, 15, 16, 17, 18, 19, 20, 21, 22, 23, 24, 25, 26, 27, 28, 29, 30, 31, 32, 33, 34, 35, 36, 37, 38, 39, 40, 41, 42, 43, 44, 45, 46, 47, 48, 49, 50, 51, 52, 53, 54, 55, 56, 57, 58, 59, 60, 61, 62, 63, 64, 65, 66, 67, 68, 69, 70, 71, 72, 73, 74, 75, 76, 77, 78, 79, 80, 81, 82, 83, 84, 85, 86, 87, 88, 89, 90, 91, 92, 93, 94, 95, 96, 97, 98, 99, 100, 101, 102, 103, 104, 105, 106, 107, 108, 109, 110, 111, 112, 113, 114, 115, 116, 117, 118, 119, 120, 121, 122, 123, 124, 125, 126, 127, 128, 129, 130, 131, 132, 133, 134, 135, 136, 137, 138, 139, 140, 141, 142, 143, 144, 145, 146, 147, 148, 149, 150, 151, 152, 153, 154, 155, 156, 157, 158, 159, 160, 161, 162, 163, 164, 165, 166, 167, 168, 169, 170, 171, 172, 173, 174, 175, 176, 177, 178, 179, 180, 181, 182, 183, 184, 185, 186, 187, 188, 189, 190, 191, 192, 193, 194, 195, 196, 197, 198, 199, 200, 201, 202, 203, 204, 205, 206, 207, 208, 209, 210, 211, 212, 213, 214, 215, 216, 217, 218, 219, 220, 221, 222, 223, 224, 225, 226, 227, 228, 229, 230, 231, 232, 233, 234, 235, 236, 237, 238, 239, 240, 241, 242, 243, 244, 245, 246, 247, 248, 249, 250, 251, 252, 253, 254, 255, 256, 257, 258, 259, 260, 261, 262, 263, 264, 265, 266, 267, 268, 269, 270, 271, 272, 273, 274, 275, 276, 277, 278, 279, 280, 281, 282, 283, 284, 285, 286, 287, 288, 289, 290, 291, 292, 293, 294, 295, 296, 297, 298, 299, 300, 301, 302, 303, 304, 305, 306, 307, 308, 309, 310, 311, 312, 313, 314, 315, 316, 317, 318, 319, 320, 321, 322, 323, 324, 325, 326, 327, 328, 329, 330, 331, 332, 333, 334, 335, 336, 337, 338, 339, 340, 341, 342, 343, 344, 345, 346, 347, 348, 349, 350, 351, 352, 353, 354, 355, 356, 357, 358, 359, 360, 361, 362, 363, 364, 365, 366, 367, 368, 369, 370, 371, 372, 373, 374, 375, 376, 377, 378, 379, 380, 381, 382, 383, 384, 385, 386, 387, 388, 389, 390, 391, 392, 393, 394, 395, 396, 397, 398, 399, 400, 401, 402, 403, 404, 405, 406, 407, 408, 409, 410, 411, 412, 413, 414, 415, 416, 417, 418, 419, 420, 421, 422, 423, 424, 425, 426, 427, 428, 429, 430, 431, 432, 433, 434, 435, 436, 437, 438, 439, 440, 441, 442, 443, 444, 445, 446, 447, 448, 449, 450, 451, 452, 453, 454, 455, 456, 457, 458, 459, 460, 461, 462, 463, 464, 465, 466, 467, 468, 469, 470, 471, 472, 473, 474, 475, 476, 477, 478, 479, 480, 481, 482, 483, 484, 485, 486, 487, 488, 489, 490, 491, 492, 493, 494, 495, 496, 497, 498, 499, 500, 501, 502, 503, 504, 505, 506, 507, 508, 509, 510, 511, 512, 513, 514, 515, 516, 517, 518, 519, 520, 521, 522, 523, 524, 525, 526, 527, 528, 529, 530, 531, 532, 533, 534, 535, 536, 537, 538, 539, 540, 541, 542, 543, 544, 545, 546, 547, 548, 549, 550, 551, 552, 553, 554, 555, 556, 557, 558, 559, 560, 561, 562, 563, 564, 565, 566, 567, 568, 569, 570, 571, 572, 573, 574, 575, 576, 577, 578, 579, 580, 581, 582, 583, 584, 585, 586, 587, 588, 589, 590, 591, 592, 593, 594, 595, 596, 597, 598, 599, 600, 601, 602, 603, 604, 605, 606, 607, 608, 609, 610, 611, 612, 613, 614, 615, 616, 617, 618, 619, 620, 621, 622, 623, 624, 625, 626, 627, 628, 629, 630, 631, 632, 633, 634, 635, 636, 637, 638, 639, 640, 641, 642, 643, 644, 645, 646, 647, 648, 649, 650, 651, 652, 653, 654, 655, 656, 657, 658, 659, 660, 661, 662, 663, 664, 665, 666, 667, 668, 669, 670, 671, 672, 673, 674, 675, 676, 677, 678, 679, 680, 681, 682, 683, 684, 685, 686, 687, 688, 689, 690, 691, 692, 693, 694, 695, 696, 697, 698, 699, 700, 701, 702, 703, 704, 705, 706, 707, 708, 709, 710, 711, 712, 713, 714, 715, 716, 717, 718, 719, 720, 721, 722, 723, 724, 725, 726, 727, 728, 729, 730, 731, 732, 733, 734, 735, 736, 737, 738, 739, 740, 741, 742, 743, 744, 745, 746, 747, 748, 749, 750, 751, 752, 753, 754, 755, 756, 757, 758, 759, 760, 761, 762, 763, 764, 765, 766, 767, 768, 769, 770, 771, 772, 773, 774, 775, 776, 777, 778, 779, 780, 781, 782, 783, 784, 785, 786, 787, 788, 789, 790, 791, 792, 793, 794, 795, 796, 797, 798, 799, 800, 801, 802, 803, 804, 805, 806, 807, 808, 809, 810, 811, 812, 813, 814, 815, 816, 817, 818, 819, 820, 821, 822, 823, 824, 825, 826, 827, 828, 829, 830, 831, 832, 833, 834, 835, 836, 837, 838, 839, 840, 841, 842, 843, 844, 845, 846, 847, 848, 849, 850, 851, 852, 853, 854, 855, 856, 857, 858, 859, 860, 861, 862, 863, 864, 865, 866, 867, 868, 869, 870, 871, 872],
      "AcquisitionTime": ["085842.287500", "085842.747500", "085843.207500", "085843.667500", "085844.127500", "085844.587500", "085845.047500", "085845.507500", "085845.967500", "085846.427500", "085846.887500", "085847.347500", "085847.807500", "085848.267500", "085848.727500", "085849.187500", "085849.647500", "085850.107500", "085850.567500", "085851.027500", "085851.487500", "085851.947500", "085852.407500", "085852.867500", "085853.327500", "085853.787500", "085854.247500", "085854.707500", "085855.167500", "085855.627500", "085856.087500", "085856.547500", "085857.007500", "085857.467500", "085857.927500", "085858.387500", "085858.847500", "085859.307500", "085859.767500", "085900.227500", "085900.687500", "085901.147500", "085901.607500", "085902.067500", "085902.527500", "085902.987500", "085903.447500", "085903.907500", "085904.367500", "085904.827500", "085905.287500", "085905.747500", "085906.207500", "085906.667500", "085907.127500", "085907.587500", "085908.047500", "085908.507500", "085908.967500", "085909.427500", "085909.887500", "085910.347500", "085910.807500", "085911.267500", "085911.727500", "085912.187500", "085912.647500", "085913.107500", "085913.567500", "085914.027500", "085914.487500", "085914.947500", "085915.407500", "085915.867500", "085916.327500", "085916.787500", "085917.247500", "085917.707500", "085918.167500", "085918.627500", "085919.087500", "085919.547500", "085920.007500", "085920.467500", "085920.927500", "085921.387500", "085921.847500", "085922.307500", "085922.767500", "085923.227500", "085923.687500", "085924.147500", "085924.607500", "085925.067500", "085925.527500", "085925.987500", "085926.447500", "085926.907500", "085927.367500", "085927.827500", "085928.287500", "085928.747500", "085929.207500", "085929.667500", "085930.127500", "085930.587500", "085931.047500", "085931.507500", "085931.967500", "085932.427500", "085932.887500", "085933.347500", "085933.807500", "085934.267500", "085934.727500", "085935.187500", "085935.647500", "085936.107500", "085936.567500", "085937.027500", "085937.487500", "085937.947500", "085938.407500", "085938.867500", "085939.327500", "085939.787500", "085940.247500", "085940.707500", "085941.167500", "085941.627500", "085942.087500", "085942.547500", "085943.007500", "085943.467500", "085943.927500", "085944.387500", "085944.847500", "085945.307500", "085945.767500", "085946.227500", "085946.687500", "085947.147500", "085947.607500", "085948.067500", "085948.527500", "085948.987500", "085949.447500", "085949.907500", "085950.367500", "085950.827500", "085951.287500", "085951.747500", "085952.207500", "085952.667500", "085953.127500", "085953.587500", "085954.047500", "085954.507500", "085954.967500", "085955.427500", "085955.887500", "085956.347500", "085956.807500", "085957.267500", "085957.727500", "085958.187500", "085958.647500", "085959.107500", "085959.567500", "090000.027500", "090000.487500", "090000.947500", "090001.407500", "090001.867500", "090002.327500", "090002.787500", "090003.247500", "090003.707500", "090004.167500", "090004.627500", "090005.087500", "090005.547500", "090006.007500", "090006.467500", "090006.927500", "090007.387500", "090007.847500", "090008.307500", "090008.767500", "090009.227500", "090009.687500", "090010.147500", "090010.607500", "090011.067500", "090011.527500", "090011.987500", "090012.447500", "090012.907500", "090013.367500", "090013.827500", "090014.287500", "090014.747500", "090015.207500", "090015.667500", "090016.127500", "090016.587500", "090017.047500", "090017.507500", "090017.967500", "090018.427500", "090018.887500", "090019.347500", "090019.807500", "090020.267500", "090020.727500", "090021.187500", "090021.647500", "090022.107500", "090022.567500", "090023.027500", "090023.487500", "090023.947500", "090024.407500", "090024.867500", "090025.327500", "090025.787500", "090026.247500", "090026.707500", "090027.167500", "090027.627500", "090028.087500", "090028.547500", "090029.007500", "090029.467500", "090029.927500", "090030.387500", "090030.847500", "090031.307500", "090031.767500", "090032.227500", "090032.687500", "090033.147500", "090033.607500", "090034.067500", "090034.527500", "090034.987500", "090035.447500", "090035.907500", "090036.367500", "090036.827500", "090037.287500", "090037.747500", "090038.207500", "090038.667500", "090039.127500", "090039.587500", "090040.047500", "090040.507500", "090040.967500", "090041.427500", "090041.887500", "090042.347500", "090042.807500", "090043.267500", "090043.727500", "090044.187500", "090044.647500", "090045.107500", "090045.567500", "090046.027500", "090046.487500", "090046.947500", "090047.407500", "090047.867500", "090048.327500", "090048.787500", "090049.247500", "090049.707500", "090050.167500", "090050.627500", "090051.087500", "090051.547500", "090052.007500", "090052.467500", "090052.927500", "090053.387500", "090053.847500", "090054.307500", "090054.767500", "090055.227500", "090055.687500", "090056.147500", "090056.607500", "090057.067500", "090057.527500", "090057.987500", "090058.447500", "090058.907500", "090059.367500", "090059.827500", "090100.287500", "090100.747500", "090101.207500", "090101.667500", "090102.127500", "090102.587500", "090103.047500", "090103.507500", "090103.967500", "090104.427500", "090104.887500", "090105.347500", "090105.807500", "090106.267500", "090106.727500", "090107.187500", "090107.647500", "090108.107500", "090108.567500", "090109.027500", "090109.487500", "090109.947500", "090110.407500", "090110.867500", "090111.327500", "090111.787500", "090112.247500", "090112.707500", "090113.167500", "090113.627500", "090114.087500", "090114.547500", "090115.007500", "090115.467500", "090115.927500", "090116.387500", "090116.847500", "090117.307500", "090117.767500", "090118.227500", "090118.687500", "090119.147500", "090119.607500", "090120.067500", "090120.527500", "090120.987500", "090121.447500", "090121.907500", "090122.367500", "090122.827500", "090123.287500", "090123.747500", "090124.207500", "090124.667500", "090125.127500", "090125.587500", "090126.047500", "090126.507500", "090126.967500", "090127.427500", "090127.887500", "090128.347500", "090128.807500", "090129.267500", "090129.727500", "090130.187500", "090130.647500", "090131.107500", "090131.567500", "090132.027500", "090132.487500", "090132.947500", "090133.407500", "090133.867500", "090134.327500", "090134.787500", "090135.247500", "090135.707500", "090136.167500", "090136.627500", "090137.087500", "090137.547500", "090138.007500", "090138.467500", "090138.927500", "090139.387500", "090139.847500", "090140.307500", "090140.767500", "090141.227500", "090141.687500", "090142.147500", "090142.607500", "090143.067500", "090143.527500", "090143.987500", "090144.447500", "090144.907500", "090145.367500", "090145.827500", "090146.287500", "090146.747500", "090147.207500", "090147.667500", "090148.127500", "090148.587500", "090149.047500", "090149.507500", "090149.967500", "090150.427500", "090150.887500", "090151.347500", "090151.807500", "090152.267500", "090152.727500", "090153.187500", "090153.647500", "090154.107500", "090154.567500", "090155.027500", "090155.487500", "090155.947500", "090156.407500", "090156.867500", "090157.327500", "090157.787500", "090158.247500", "090158.707500", "090159.167500", "090159.627500", "090200.087500", "090200.547500", "090201.007500", "090201.467500", "090201.927500", "090202.387500", "090202.847500", "090203.307500", "090203.767500", "090204.227500", "090204.687500", "090205.147500", "090205.607500", "090206.067500", "090206.527500", "090206.987500", "090207.447500", "090207.907500", "090208.367500", "090208.827500", "090209.287500", "090209.747500", "090210.207500", "090210.667500", "090211.127500", "090211.587500", "090212.047500", "090212.507500", "090212.967500", "090213.427500", "090213.887500", "090214.347500", "090214.807500", "090215.267500", "090215.727500", "090216.187500", "090216.647500", "090217.107500", "090217.567500", "090218.027500", "090218.487500", "090218.947500", "090219.407500", "090219.867500", "090220.327500", "090220.787500", "090221.247500", "090221.707500", "090222.167500", "090222.627500", "090223.087500", "090223.547500", "090224.007500", "090224.467500", "090224.927500", "090225.387500", "090225.847500", "090226.307500", "090226.767500", "090227.227500", "090227.687500", "090228.147500", "090228.607500", "090229.067500", "090229.527500", "090229.987500", "090230.447500", "090230.907500", "090231.367500", "090231.827500", "090232.287500", "090232.747500", "090233.207500", "090233.667500", "090234.127500", "090234.587500", "090235.047500", "090235.507500", "090235.967500", "090236.427500", "090236.887500", "090237.347500", "090237.807500", "090238.267500", "090238.727500", "090239.187500", "090239.647500", "090240.107500", "090240.567500", "090241.027500", "090241.487500", "090241.947500", "090242.407500", "090242.867500", "090243.327500", "090243.787500", "090244.247500", "090244.707500", "090245.167500", "090245.627500", "090246.087500", "090246.547500", "090247.007500", "090247.467500", "090247.927500", "090248.387500", "090248.847500", "090249.307500", "090249.767500", "090250.227500", "090250.687500", "090251.147500", "090251.607500", "090252.067500", "090252.527500", "090252.987500", "090253.447500", "090253.907500", "090254.367500", "090254.827500", "090255.287500", "090255.747500", "090256.207500", "090256.667500", "090257.127500", "090257.587500", "090258.047500", "090258.507500", "090258.967500", "090259.427500", "090259.887500", "090300.347500", "090300.807500", "090301.267500", "090301.727500", "090302.187500", "090302.647500", "090303.107500", "090303.567500", "090304.027500", "090304.487500", "090304.947500", "090305.407500", "090305.867500", "090306.327500", "090306.787500", "090307.247500", "090307.707500", "090308.167500", "090308.627500", "090309.087500", "090309.547500", "090310.007500", "090310.467500", "090310.927500", "090311.387500", "090311.847500", "090312.307500", "090312.767500", "090313.227500", "090313.687500", "090314.147500", "090314.607500", "090315.067500", "090315.527500", "090315.987500", "090316.447500", "090316.907500", "090317.367500", "090317.827500", "090318.287500", "090318.747500", "090319.207500", "090319.667500", "090320.127500", "090320.587500", "090321.047500", "090321.507500", "090321.967500", "090322.427500", "090322.887500", "090323.347500", "090323.807500", "090324.267500", "090324.727500", "090325.187500", "090325.647500", "090326.107500", "090326.567500", "090327.027500", "090327.487500", "090327.947500", "090328.407500", "090328.867500", "090329.327500", "090329.787500", "090330.247500", "090330.707500", "090331.167500", "090331.627500", "090332.087500", "090332.547500", "090333.007500", "090333.467500", "090333.927500", "090334.387500", "090334.847500", "090335.307500", "090335.767500", "090336.227500", "090336.687500", "090337.147500", "090337.607500", "090338.067500", "090338.527500", "090338.987500", "090339.447500", "090339.907500", "090340.367500", "090340.827500", "090341.287500", "090341.747500", "090342.207500", "090342.667500", "090343.127500", "090343.587500", "090344.047500", "090344.507500", "090344.967500", "090345.427500", "090345.887500", "090346.347500", "090346.807500", "090347.267500", "090347.727500", "090348.187500", "090348.647500", "090349.107500", "090349.567500", "090350.027500", "090350.487500", "090350.947500", "090351.407500", "090351.867500", "090352.327500", "090352.787500", "090353.247500", "090353.707500", "090354.167500", "090354.627500", "090355.087500", "090355.547500", "090356.007500", "090356.467500", "090356.927500", "090357.387500", "090357.847500", "090358.307500", "090358.767500", "090359.227500", "090359.687500", "090400.147500", "090400.607500", "090401.067500", "090401.527500", "090401.987500", "090402.447500", "090402.907500", "090403.367500", "090403.827500", "090404.287500", "090404.747500", "090405.207500", "090405.667500", "090406.127500", "090406.587500", "090407.047500", "090407.507500", "090407.967500", "090408.427500", "090408.887500", "090409.347500", "090409.807500", "090410.267500", "090410.727500", "090411.187500", "090411.647500", "090412.107500", "090412.567500", "090413.027500", "090413.487500", "090413.947500", "090414.407500", "090414.867500", "090415.327500", "090415.787500", "090416.247500", "090416.707500", "090417.167500", "090417.627500", "090418.087500", "090418.547500", "090419.007500", "090419.467500", "090419.927500", "090420.387500", "090420.847500", "090421.307500", "090421.767500", "090422.227500", "090422.687500", "090423.147500", "090423.607500", "090424.067500", "090424.527500", "090424.987500", "090425.447500", "090425.907500", "090426.367500", "090426.827500", "090427.287500", "090427.747500", "090428.207500", "090428.667500", "090429.127500", "090429.587500", "090430.047500", "090430.507500", "090430.967500", "090431.427500", "090431.887500", "090432.347500", "090432.807500", "090433.267500", "090433.727500", "090434.187500", "090434.647500", "090435.107500", "090435.567500", "090436.027500", "090436.487500", "090436.947500", "090437.407500", "090437.867500", "090438.327500", "090438.787500", "090439.247500", "090439.707500", "090440.167500", "090440.627500", "090441.087500", "090441.547500", "090442.007500", "090442.467500", "090442.927500", "090443.387500", "090443.847500", "090444.307500", "090444.767500", "090445.227500", "090445.687500", "090446.147500", "090446.607500", "090447.067500", "090447.527500", "090447.987500", "090448.447500", "090448.907500", "090449.367500", "090449.827500", "090450.287500", "090450.747500", "090451.207500", "090451.667500", "090452.127500", "090452.587500", "090453.047500", "090453.507500", "090453.967500", "090454.427500", "090454.887500", "090455.347500", "090455.807500", "090456.267500", "090456.727500", "090457.187500", "090457.647500", "090458.107500", "090458.567500", "090459.027500", "090459.487500", "090459.947500", "090500.407500", "090500.867500", "090501.327500", "090501.787500", "090502.247500", "090502.707500", "090503.167500", "090503.627500", "090504.087500", "090504.547500", "090505.007500", "090505.467500", "090505.927500", "090506.387500", "090506.847500", "090507.307500", "090507.767500", "090508.227500", "090508.687500", "090509.147500", "090509.607500", "090510.067500", "090510.527500", "090510.987500", "090511.447500", "090511.907500", "090512.367500", "090512.827500", "090513.287500", "090513.747500", "090514.207500", "090514.667500", "090515.127500", "090515.587500", "090516.047500", "090516.507500", "090516.967500", "090517.427500", "090517.887500", "090518.347500", "090518.807500", "090519.267500", "090519.727500", "090520.187500", "090520.647500", "090521.107500", "090521.567500", "090522.027500", "090522.487500", "090522.947500"],
