{
  "AcquisitionMatrixPE": 82,
  "AcquisitionNumber": 1,
  "AcquisitionTime": "08:44:27.147500",
  "BandwidthPerPixelPhaseEncode": 24.888,
  "BaseResolution": 82,
  "BodyPartExamined": "BRAIN",
  "ConsistencyInfo": "N4_VE11E_LATEST_20181129",
  "ConversionSoftware": "dcm2niix",
  "ConversionSoftwareVersion": "v1.0.20201102",
  "DerivedVendorReportedEchoSpacing": 0.00049,
  "DeviceSerialNumber": "66112",
  "DwellTime": 2e-06,
  "EchoTime": 0.0272,
  "EchoTrainLength": 82,
  "EffectiveEchoSpacing": 0.00049,
  "FlipAngle": 44,
  "ImageComments": "Unaliased MB8/PE3",
  "ImageOrientationPatientDICOM": [0.998866, -0.0465056, 0.010178, 0.0458823, 0.997449, 0.0546888],
  "ImageType": [
    "ORIGINAL",
    "PRIMARY",
    "M",
    "MB",
    "ND",
    "NORM",
    "MOSAIC"
],
  "ImagingFrequency": 123.252,
  "InPlanePhaseEncodingDirectionDICOM": "COL",
  "InstitutionAddress": "Maynard 3,Hanover,NH,US,03755",
  "InstitutionName": "Dartmouth College - PBS",
  "InstitutionalDepartmentName": "Department",
  "MRAcquisitionType": "2D",
  "MagneticFieldStrength": 3,
  "Manufacturer": "Siemens",
  "ManufacturersModelName": "Prisma",
  "Modality": "MR",
  "MultibandAccelerationFactor": 8,
  "PartialFourier": 1,
  "PatientPosition": "HFS",
  "PercentPhaseFOV": 100,
  "PercentSampling": 100,
  "PhaseEncodingDirection": "j-",
  "PhaseEncodingSteps": 82,
  "PhaseResolution": 1,
  "PixelBandwidth": 3050,
  "ProcedureStepDescription": "Wager_Wager^1076_spacetop",
  "ProtocolName": "func_run-01_task-social_acq-ap-mb8",
  "PulseSequenceDetails": "%CustomerSeq%\\cmrr_mbep2d_bold",
  "ReceiveCoilActiveElements": "HEA;HEP",
  "ReceiveCoilName": "Head_32",
  "ReconMatrixPE": 82,
  "RepetitionTime": 0.46,
  "SAR": 0.0770923,
  "ScanOptions": "FS",
  "ScanningSequence": "EP",
  "SequenceName": "epfid2d1_82",
  "SequenceVariant": "SK\\SS",
  "SeriesDescription": "func_run-01_task-social_acq-ap-mb8",
  "SeriesNumber": 12,
  "ShimSetting": [4152, -7743, -7264, 650, -57, -103, 62, 80],
  "SliceThickness": 2.7,
  "SliceTiming": [0, 0.25, 0.0625, 0.3125, 0.125, 0.3775, 0.1875, 0, 0.25, 0.0625, 0.3125, 0.125, 0.3775, 0.1875, 0, 0.25, 0.0625, 0.3125, 0.125, 0.3775, 0.1875, 0, 0.25, 0.0625, 0.3125, 0.125, 0.3775, 0.1875, 0, 0.25, 0.0625, 0.3125, 0.125, 0.3775, 0.1875, 0, 0.25, 0.0625, 0.3125, 0.125, 0.3775, 0.1875, 0, 0.25, 0.0625, 0.3125, 0.125, 0.3775, 0.1875, 0, 0.25, 0.0625, 0.3125, 0.125, 0.3775, 0.1875],
  "SoftwareVersions": "syngo MR E11",
  "SpacingBetweenSlices": 2.7,
  "StationName": "AWP66112",
  "TaskName": "social",
  "TotalReadoutTime": 0.03969,
  "TxRefAmp": 241.403,
  "WipMemBlock": "915402b0-3fe1-4ea1-afc3-db4f54cca1c4||Sequence: R016 ve11e/master r/434b28f1; Aug  7 2019 18:53:46 by eja",
  "dcmmeta_affine": [
    [-2.679884910583496, 0.12309897691011429, 0.03427752107381821, 106.54242706298828],
    [0.1247711107134819, 2.676081895828247, 0.14623157680034637, -95.03337097167969],
    [0.027306852862238884, -0.14672616124153137, 2.695819139480591, -63.34056091308594],
    [0.0, 0.0, 0.0, 1.0]
],
  "dcmmeta_reorient_transform": [
    [0.0, -1.0, 0.0, 81.0],
    [1.0, 0.0, 0.0, 0.0],
    [0.0, 0.0, 1.0, 0.0],
    [0.0, 0.0, 0.0, 1.0]
],
  "dcmmeta_shape": [82, 82, 56, 872],
  "dcmmeta_slice_dim": 2,
  "dcmmeta_version": 0.6,
  "global": {
    "const": {
      "AccessionNumber": "A003872",
      "AcquisitionMatrix": [82, 0, 0, 82],
      "AngioFlag": "N",
      "BitsAllocated": 16,
      "BitsStored": 16,
      "BodyPartExamined": "BRAIN",
      "Columns": 656,
      "EchoNumbers": 1,
      "EchoTime": 27.2,
      "EchoTrainLength": 82,
      "FlipAngle": 44.0,
      "HighBit": 15,
      "ImageOrientationPatient": [0.99886617607898, -0.0465055956549, 0.01017800855499, 0.04588234566757, 0.99744871592702, 0.05468884211234],
      "ImagePositionPatient": [-920.96982794829, -853.95549221929, -125.17285680368],
      "ImageType": [
        "ORIGINAL",
        "PRIMARY",
        "M",
        "MB",
        "ND",
        "NORM",
        "MOSAIC"
],
      "ImagedNucleus": "1H",
      "ImagingFrequency": 123.2522,
      "InPlanePhaseEncodingDirection": "COL",
      "MRAcquisitionType": "2D",
      "MagneticFieldStrength": 3.0,
      "Manufacturer": "SIEMENS",
      "ManufacturerModelName": "Prisma",
      "Modality": "MR",
      "NumberOfAverages": 1.0,
      "NumberOfPhaseEncodingSteps": 82,
      "PercentPhaseFieldOfView": 100.0,
      "PercentSampling": 100.0,
      "PerformedProcedureStepStartTime": "080448.856000",
      "PhotometricInterpretation": "MONOCHROME2",
      "PixelBandwidth": 3050.0,
      "PixelRepresentation": 0,
      "PixelSpacing": [2.6829268932343, 2.6829268932343],
      "ProtocolName": "func_run-01_task-social_acq-ap-mb8",
      "RepetitionTime": 460.0,
      "Rows": 656,
      "SAR": 0.07709228494199,
      "SamplesPerPixel": 1,
      "ScanOptions": "FS",
      "ScanningSequence": "EP",
      "SequenceName": "epfid2d1_82",
      "SequenceVariant": [
        "SK",
        "SS"
],
      "SeriesDescription": "func_run-01_task-social_acq-ap-mb8",
      "SeriesNumber": 12,
      "SeriesTime": "084438.800000",
      "SliceLocation": -67.036878712112,
      "SliceThickness": 2.7000000476837,
      "SmallestImagePixelValue": 0,
      "SoftwareVersions": "syngo MR E11",
      "SpacingBetweenSlices": 2.6999999912983,
      "SpecificCharacterSet": "ISO_IR 100",
      "StudyID": "1",
      "StudyTime": "080448.695000",
      "TransmitCoilName": "Body",
      "VariableFlipAngleFlag": "N",
      "WindowCenterWidthExplanation": "Algo1"
    },
    "slices": {}
  },
  "time": {
    "samples": {
      "AcquisitionNumber": [1, 2, 3, 4, 5, 6, 7, 8, 9, 10, 11, 12, 13, 14, 15, 16, 17, 18, 19, 20, 21, 22, 23, 24, 25, 26, 27, 28, 29, 30, 31, 32, 33, 34, 35, 36, 37, 38, 39, 40, 41, 42, 43, 44, 45, 46, 47, 48, 49, 50, 51, 52, 53, 54, 55, 56, 57, 58, 59, 60, 61, 62, 63, 64, 65, 66, 67, 68, 69, 70, 71, 72, 73, 74, 75, 76, 77, 78, 79, 80, 81, 82, 83, 84, 85, 86, 87, 88, 89, 90, 91, 92, 93, 94, 95, 96, 97, 98, 99, 100, 101, 102, 103, 104, 105, 106, 107, 108, 109, 110, 111, 112, 113, 114, 115, 116, 117, 118, 119, 120, 121, 122, 123, 124, 125, 126, 127, 128, 129, 130, 131, 132, 133, 134, 135, 136, 137, 138, 139, 140, 141, 142, 143, 144, 145, 146, 147, 148, 149, 150, 151, 152, 153, 154, 155, 156, 157, 158, 159, 160, 161, 162, 163, 164, 165, 166, 167, 168, 169, 170, 171, 172, 173, 174, 175, 176, 177, 178, 179, 180, 181, 182, 183, 184, 185, 186, 187, 188, 189, 190, 191, 192, 193, 194, 195, 196, 197, 198, 199, 200, 201, 202, 203, 204, 205, 206, 207, 208, 209, 210, 211, 212, 213, 214, 215, 216, 217, 218, 219, 220, 221, 222, 223, 224, 225, 226, 227, 228, 229, 230, 231, 232, 233, 234, 235, 236, 237, 238, 239, 240, 241, 242, 243, 244, 245, 246, 247, 248, 249, 250, 251, 252, 253, 254, 255, 256, 257, 258, 259, 260, 261, 262, 263, 264, 265, 266, 267, 268, 269, 270, 271, 272, 273, 274, 275, 276, 277, 278, 279, 280, 281, 282, 283, 284, 285, 286, 287, 288, 289, 290, 291, 292, 293, 294, 295, 296, 297, 298, 299, 300, 301, 302, 303, 304, 305, 306, 307, 308, 309, 310, 311, 312, 313, 314, 315, 316, 317, 318, 319, 320, 321, 322, 323, 324, 325, 326, 327, 328, 329, 330, 331, 332, 333, 334, 335, 336, 337, 338, 339, 340, 341, 342, 343, 344, 345, 346, 347, 348, 349, 350, 351, 352, 353, 354, 355, 356, 357, 358, 359, 360, 361, 362, 363, 364, 365, 366, 367, 368, 369, 370, 371, 372, 373, 374, 375, 376, 377, 378, 379, 380, 381, 382, 383, 384, 385, 386, 387, 388, 389, 390, 391, 392, 393, 394, 395, 396, 397, 398, 399, 400, 401, 402, 403, 404, 405, 406, 407, 408, 409, 410, 411, 412, 413, 414, 415, 416, 417, 418, 419, 420, 421, 422, 423, 424, 425, 426, 427, 428, 429, 430, 431, 432, 433, 434, 435, 436, 437, 438, 439, 440, 441, 442, 443, 444, 445, 446, 447, 448, 449, 450, 451, 452, 453, 454, 455, 456, 457, 458, 459, 460, 461, 462, 463, 464, 465, 466, 467, 468, 469, 470, 471, 472, 473, 474, 475, 476, 477, 478, 479, 480, 481, 482, 483, 484, 485, 486, 487, 488, 489, 490, 491, 492, 493, 494, 495, 496, 497, 498, 499, 500, 501, 502, 503, 504, 505, 506, 507, 508, 509, 510, 511, 512, 513, 514, 515, 516, 517, 518, 519, 520, 521, 522, 523, 524, 525, 526, 527, 528, 529, 530, 531, 532, 533, 534, 535, 536, 537, 538, 539, 540, 541, 542, 543, 544, 545, 546, 547, 548, 549, 550, 551, 552, 553, 554, 555, 556, 557, 558, 559, 560, 561, 562, 563, 564, 565, 566, 567, 568, 569, 570, 571, 572, 573, 574, 575, 576, 577, 578, 579, 580, 581, 582, 583, 584, 585, 586, 587, 588, 589, 590, 591, 592, 593, 594, 595, 596, 597, 598, 599, 600, 601, 602, 603, 604, 605, 606, 607, 608, 609, 610, 611, 612, 613, 614, 615, 616, 617, 618, 619, 620, 621, 622, 623, 624, 625, 626, 627, 628, 629, 630, 631, 632, 633, 634, 635, 636, 637, 638, 639, 640, 641, 642, 643, 644, 645, 646, 647, 648, 649, 650, 651, 652, 653, 654, 655, 656, 657, 658, 659, 660, 661, 662, 663, 664, 665, 666, 667, 668, 669, 670, 671, 672, 673, 674, 675, 676, 677, 678, 679, 680, 681, 682, 683, 684, 685, 686, 687, 688, 689, 690, 691, 692, 693, 694, 695, 696, 697, 698, 699, 700, 701, 702, 703, 704, 705, 706, 707, 708, 709, 710, 711, 712, 713, 714, 715, 716, 717, 718, 719, 720, 721, 722, 723, 724, 725, 726, 727, 728, 729, 730, 731, 732, 733, 734, 735, 736, 737, 738, 739, 740, 741, 742, 743, 744, 745, 746, 747, 748, 749, 750, 751, 752, 753, 754, 755, 756, 757, 758, 759, 760, 761, 762, 763, 764, 765, 766, 767, 768, 769, 770, 771, 772, 773, 774, 775, 776, 777, 778, 779, 780, 781, 782, 783, 784, 785, 786, 787, 788, 789, 790, 791, 792, 793, 794, 795, 796, 797, 798, 799, 800, 801, 802, 803, 804, 805, 806, 807, 808, 809, 810, 811, 812, 813, 814, 815, 816, 817, 818, 819, 820, 821, 822, 823, 824, 825, 826, 827, 828, 829, 830, 831, 832, 833, 834, 835, 836, 837, 838, 839, 840, 841, 842, 843, 844, 845, 846, 847, 848, 849, 850, 851, 852, 853, 854, 855, 856, 857, 858, 859, 860, 861, 862, 863, 864, 865, 866, 867, 868, 869, 870, 871, 872],
      "AcquisitionTime": ["084427.147500", "084427.607500", "084428.067500", "084428.527500", "084428.987500", "084429.447500", "084429.907500", "084430.367500", "084430.827500", "084431.287500", "084431.747500", "084432.207500", "084432.667500", "084433.127500", "084433.587500", "084434.047500", "084434.507500", "084434.967500", "084435.427500", "084435.887500", "084436.347500", "084436.807500", "084437.267500", "084437.727500", "084438.187500", "084438.647500", "084439.107500", "084439.567500", "084440.027500", "084440.487500", "084440.947500", "084441.407500", "084441.867500", "084442.327500", "084442.787500", "084443.247500", "084443.707500", "084444.167500", "084444.627500", "084445.087500", "084445.547500", "084446.007500", "084446.467500", "084446.927500", "084447.387500", "084447.847500", "084448.307500", "084448.767500", "084449.227500", "084449.687500", "084450.147500", "084450.607500", "084451.067500", "084451.527500", "084451.987500", "084452.447500", "084452.907500", "084453.367500", "084453.827500", "084454.287500", "084454.747500", "084455.207500", "084455.667500", "084456.127500", "084456.587500", "084457.047500", "084457.507500", "084457.967500", "084458.427500", "084458.887500", "084459.347500", "084459.807500", "084500.267500", "084500.727500", "084501.187500", "084501.647500", "084502.107500", "084502.567500", "084503.027500", "084503.487500", "084503.947500", "084504.407500", "084504.867500", "084505.327500", "084505.787500", "084506.247500", "084506.707500", "084507.167500", "084507.627500", "084508.087500", "084508.547500", "084509.007500", "084509.467500", "084509.927500", "084510.387500", "084510.847500", "084511.307500", "084511.767500", "084512.227500", "084512.687500", "084513.147500", "084513.607500", "084514.067500", "084514.527500", "084514.987500", "084515.447500", "084515.907500", "084516.367500", "084516.827500", "084517.287500", "084517.747500", "084518.207500", "084518.667500", "084519.127500", "084519.587500", "084520.047500", "084520.507500", "084520.967500", "084521.427500", "084521.887500", "084522.347500", "084522.807500", "084523.267500", "084523.727500", "084524.187500", "084524.647500", "084525.107500", "084525.567500", "084526.027500", "084526.487500", "084526.947500", "084527.407500", "084527.867500", "084528.327500", "084528.787500", "084529.247500", "084529.707500", "084530.167500", "084530.627500", "084531.087500", "084531.547500", "084532.007500", "084532.467500", "084532.927500", "084533.387500", "084533.847500", "084534.307500", "084534.767500", "084535.227500", "084535.687500", "084536.147500", "084536.607500", "084537.067500", "084537.527500", "084537.987500", "084538.447500", "084538.907500", "084539.367500", "084539.827500", "084540.287500", "084540.747500", "084541.207500", "084541.667500", "084542.127500", "084542.587500", "084543.047500", "084543.507500", "084543.967500", "084544.427500", "084544.887500", "084545.347500", "084545.807500", "084546.267500", "084546.727500", "084547.187500", "084547.647500", "084548.107500", "084548.567500", "084549.027500", "084549.487500", "084549.947500", "084550.407500", "084550.867500", "084551.327500", "084551.787500", "084552.247500", "084552.707500", "084553.167500", "084553.627500", "084554.087500", "084554.547500", "084555.007500", "084555.467500", "084555.927500", "084556.387500", "084556.847500", "084557.307500", "084557.767500", "084558.227500", "084558.687500", "084559.147500", "084559.607500", "084600.067500", "084600.527500", "084600.987500", "084601.447500", "084601.907500", "084602.367500", "084602.827500", "084603.287500", "084603.747500", "084604.207500", "084604.667500", "084605.127500", "084605.587500", "084606.047500", "084606.507500", "084606.967500", "084607.427500", "084607.887500", "084608.347500", "084608.807500", "084609.267500", "084609.727500", "084610.187500", "084610.647500", "084611.107500", "084611.567500", "084612.027500", "084612.487500", "084612.947500", "084613.407500", "084613.867500", "084614.327500", "084614.787500", "084615.247500", "084615.707500", "084616.167500", "084616.627500", "084617.087500", "084617.547500", "084618.007500", "084618.467500", "084618.927500", "084619.387500", "084619.847500", "084620.307500", "084620.767500", "084621.227500", "084621.687500", "084622.147500", "084622.607500", "084623.067500", "084623.527500", "084623.987500", "084624.447500", "084624.907500", "084625.367500", "084625.827500", "084626.287500", "084626.747500", "084627.207500", "084627.667500", "084628.127500", "084628.587500", "084629.047500", "084629.507500", "084629.967500", "084630.427500", "084630.887500", "084631.347500", "084631.807500", "084632.267500", "084632.727500", "084633.187500", "084633.647500", "084634.107500", "084634.567500", "084635.027500", "084635.487500", "084635.947500", "084636.407500", "084636.867500", "084637.327500", "084637.787500", "084638.247500", "084638.707500", "084639.167500", "084639.627500", "084640.087500", "084640.547500", "084641.007500", "084641.467500", "084641.927500", "084642.387500", "084642.847500", "084643.307500", "084643.767500", "084644.227500", "084644.687500", "084645.147500", "084645.607500", "084646.067500", "084646.527500", "084646.987500", "084647.447500", "084647.907500", "084648.367500", "084648.827500", "084649.287500", "084649.747500", "084650.207500", "084650.667500", "084651.127500", "084651.587500", "084652.047500", "084652.507500", "084652.967500", "084653.427500", "084653.887500", "084654.347500", "084654.807500", "084655.267500", "084655.727500", "084656.187500", "084656.647500", "084657.107500", "084657.567500", "084658.027500", "084658.487500", "084658.947500", "084659.407500", "084659.867500", "084700.327500", "084700.787500", "084701.247500", "084701.707500", "084702.167500", "084702.627500", "084703.087500", "084703.547500", "084704.007500", "084704.467500", "084704.927500", "084705.387500", "084705.847500", "084706.307500", "084706.767500", "084707.227500", "084707.687500", "084708.147500", "084708.607500", "084709.067500", "084709.527500", "084709.987500", "084710.447500", "084710.907500", "084711.367500", "084711.827500", "084712.287500", "084712.747500", "084713.207500", "084713.667500", "084714.127500", "084714.587500", "084715.047500", "084715.507500", "084715.967500", "084716.427500", "084716.887500", "084717.347500", "084717.807500", "084718.267500", "084718.727500", "084719.187500", "084719.647500", "084720.107500", "084720.567500", "084721.027500", "084721.487500", "084721.947500", "084722.407500", "084722.867500", "084723.327500", "084723.787500", "084724.247500", "084724.707500", "084725.167500", "084725.627500", "084726.087500", "084726.547500", "084727.007500", "084727.467500", "084727.927500", "084728.387500", "084728.847500", "084729.307500", "084729.767500", "084730.227500", "084730.687500", "084731.147500", "084731.607500", "084732.067500", "084732.527500", "084732.987500", "084733.447500", "084733.907500", "084734.367500", "084734.827500", "084735.287500", "084735.747500", "084736.207500", "084736.667500", "084737.127500", "084737.587500", "084738.047500", "084738.507500", "084738.967500", "084739.427500", "084739.887500", "084740.347500", "084740.807500", "084741.267500", "084741.727500", "084742.187500", "084742.647500", "084743.107500", "084743.567500", "084744.027500", "084744.487500", "084744.947500", "084745.407500", "084745.867500", "084746.327500", "084746.787500", "084747.247500", "084747.707500", "084748.167500", "084748.627500", "084749.087500", "084749.547500", "084750.007500", "084750.467500", "084750.927500", "084751.387500", "084751.847500", "084752.307500", "084752.767500", "084753.227500", "084753.687500", "084754.147500", "084754.607500", "084755.067500", "084755.527500", "084755.987500", "084756.447500", "084756.907500", "084757.367500", "084757.827500", "084758.287500", "084758.747500", "084759.207500", "084759.667500", "084800.127500", "084800.587500", "084801.047500", "084801.507500", "084801.967500", "084802.427500", "084802.887500", "084803.347500", "084803.807500", "084804.267500", "084804.727500", "084805.187500", "084805.647500", "084806.107500", "084806.567500", "084807.027500", "084807.487500", "084807.947500", "084808.407500", "084808.867500", "084809.327500", "084809.787500", "084810.247500", "084810.707500", "084811.167500", "084811.627500", "084812.087500", "084812.547500", "084813.007500", "084813.467500", "084813.927500", "084814.387500", "084814.847500", "084815.307500", "084815.767500", "084816.227500", "084816.687500", "084817.147500", "084817.607500", "084818.067500", "084818.527500", "084818.987500", "084819.447500", "084819.907500", "084820.367500", "084820.827500", "084821.287500", "084821.747500", "084822.207500", "084822.667500", "084823.127500", "084823.587500", "084824.047500", "084824.507500", "084824.967500", "084825.427500", "084825.887500", "084826.347500", "084826.807500", "084827.267500", "084827.727500", "084828.187500", "084828.647500", "084829.107500", "084829.567500", "084830.027500", "084830.487500", "084830.947500", "084831.407500", "084831.867500", "084832.327500", "084832.787500", "084833.247500", "084833.707500", "084834.167500", "084834.627500", "084835.087500", "084835.547500", "084836.007500", "084836.467500", "084836.927500", "084837.387500", "084837.847500", "084838.307500", "084838.767500", "084839.227500", "084839.687500", "084840.147500", "084840.607500", "084841.067500", "084841.527500", "084841.987500", "084842.447500", "084842.907500", "084843.367500", "084843.827500", "084844.287500", "084844.747500", "084845.207500", "084845.667500", "084846.127500", "084846.587500", "084847.047500", "084847.507500", "084847.967500", "084848.427500", "084848.887500", "084849.347500", "084849.807500", "084850.267500", "084850.727500", "084851.187500", "084851.647500", "084852.107500", "084852.567500", "084853.027500", "084853.487500", "084853.947500", "084854.407500", "084854.867500", "084855.327500", "084855.787500", "084856.247500", "084856.707500", "084857.167500", "084857.627500", "084858.087500", "084858.547500", "084859.007500", "084859.467500", "084859.927500", "084900.387500", "084900.847500", "084901.307500", "084901.767500", "084902.227500", "084902.687500", "084903.147500", "084903.607500", "084904.067500", "084904.527500", "084904.987500", "084905.447500", "084905.907500", "084906.367500", "084906.827500", "084907.287500", "084907.747500", "084908.207500", "084908.667500", "084909.127500", "084909.587500", "084910.047500", "084910.507500", "084910.967500", "084911.427500", "084911.887500", "084912.347500", "084912.807500", "084913.267500", "084913.727500", "084914.187500", "084914.647500", "084915.107500", "084915.567500", "084916.027500", "084916.487500", "084916.947500", "084917.407500", "084917.867500", "084918.327500", "084918.787500", "084919.247500", "084919.707500", "084920.167500", "084920.627500", "084921.087500", "084921.547500", "084922.007500", "084922.467500", "084922.927500", "084923.387500", "084923.847500", "084924.307500", "084924.767500", "084925.227500", "084925.687500", "084926.147500", "084926.607500", "084927.067500", "084927.527500", "084927.987500", "084928.447500", "084928.907500", "084929.367500", "084929.827500", "084930.287500", "084930.747500", "084931.207500", "084931.667500", "084932.127500", "084932.587500", "084933.047500", "084933.507500", "084933.967500", "084934.427500", "084934.887500", "084935.347500", "084935.807500", "084936.267500", "084936.727500", "084937.187500", "084937.647500", "084938.107500", "084938.567500", "084939.027500", "084939.487500", "084939.947500", "084940.407500", "084940.867500", "084941.327500", "084941.787500", "084942.247500", "084942.707500", "084943.167500", "084943.627500", "084944.087500", "084944.547500", "084945.007500", "084945.467500", "084945.927500", "084946.387500", "084946.847500", "084947.307500", "084947.767500", "084948.227500", "084948.687500", "084949.147500", "084949.607500", "084950.067500", "084950.527500", "084950.987500", "084951.447500", "084951.907500", "084952.367500", "084952.827500", "084953.287500", "084953.747500", "084954.207500", "084954.667500", "084955.127500", "084955.587500", "084956.047500", "084956.507500", "084956.967500", "084957.427500", "084957.887500", "084958.347500", "084958.807500", "084959.267500", "084959.727500", "085000.187500", "085000.647500", "085001.107500", "085001.567500", "085002.027500", "085002.487500", "085002.947500", "085003.407500", "085003.867500", "085004.327500", "085004.787500", "085005.247500", "085005.707500", "085006.167500", "085006.627500", "085007.087500", "085007.547500", "085008.007500", "085008.467500", "085008.927500", "085009.387500", "085009.847500", "085010.307500", "085010.767500", "085011.227500", "085011.687500", "085012.147500", "085012.607500", "085013.067500", "085013.527500", "085013.987500", "085014.447500", "085014.907500", "085015.367500", "085015.827500", "085016.287500", "085016.747500", "085017.207500", "085017.667500", "085018.127500", "085018.587500", "085019.047500", "085019.507500", "085019.967500", "085020.427500", "085020.887500", "085021.347500", "085021.807500", "085022.267500", "085022.727500", "085023.187500", "085023.647500", "085024.107500", "085024.567500", "085025.027500", "085025.487500", "085025.947500", "085026.407500", "085026.867500", "085027.327500", "085027.787500", "085028.247500", "085028.707500", "085029.167500", "085029.627500", "085030.087500", "085030.547500", "085031.007500", "085031.467500", "085031.927500", "085032.387500", "085032.847500", "085033.307500", "085033.767500", "085034.227500", "085034.687500", "085035.147500", "085035.607500", "085036.067500", "085036.527500", "085036.987500", "085037.447500", "085037.907500", "085038.367500", "085038.827500", "085039.287500", "085039.747500", "085040.207500", "085040.667500", "085041.127500", "085041.587500", "085042.047500", "085042.507500", "085042.967500", "085043.427500", "085043.887500", "085044.347500", "085044.807500", "085045.267500", "085045.727500", "085046.187500", "085046.647500", "085047.107500", "085047.567500", "085048.027500", "085048.487500", "085048.947500", "085049.407500", "085049.867500", "085050.327500", "085050.787500", "085051.247500", "085051.707500", "085052.167500", "085052.627500", "085053.087500", "085053.547500", "085054.007500", "085054.467500", "085054.927500", "085055.387500", "085055.847500", "085056.307500", "085056.767500", "085057.227500", "085057.687500", "085058.147500", "085058.607500", "085059.067500", "085059.527500", "085059.987500", "085100.447500", "085100.907500", "085101.367500", "085101.827500", "085102.287500", "085102.747500", "085103.207500", "085103.667500", "085104.127500", "085104.587500", "085105.047500", "085105.507500", "085105.967500", "085106.427500", "085106.887500", "085107.347500", "085107.807500"],
