{
  "AcquisitionMatrixPE": 82,
  "AcquisitionNumber": 1,
  "AcquisitionTime": "09:07:10.422500",
  "BandwidthPerPixelPhaseEncode": 24.888,
  "BaseResolution": 82,
  "BodyPartExamined": "BRAIN",
  "ConsistencyInfo": "N4_VE11E_LATEST_20181129",
  "ConversionSoftware": "dcm2niix",
  "ConversionSoftwareVersion": "v1.0.20201102",
  "DerivedVendorReportedEchoSpacing": 0.00049,
  "DeviceSerialNumber": "66112",
  "DwellTime": 2e-06,
  "EchoTime": 0.0272,
  "EchoTrainLength": 82,
  "EffectiveEchoSpacing": 0.00049,
  "FlipAngle": 44,
  "ImageComments": "Unaliased MB8/PE3",
  "ImageOrientationPatientDICOM": [0.998866, -0.0465056, 0.010178, 0.0458823, 0.997449, 0.0546888],
  "ImageType": [
    "ORIGINAL",
    "PRIMARY",
    "M",
    "MB",
    "ND",
    "NORM",
    "MOSAIC"
],
  "ImagingFrequency": 123.252,
  "InPlanePhaseEncodingDirectionDICOM": "COL",
  "InstitutionAddress": "Maynard 3,Hanover,NH,US,03755",
  "InstitutionName": "Dartmouth College - PBS",
  "InstitutionalDepartmentName": "Department",
  "MRAcquisitionType": "2D",
  "MagneticFieldStrength": 3,
  "Manufacturer": "Siemens",
  "ManufacturersModelName": "Prisma",
  "Modality": "MR",
  "MultibandAccelerationFactor": 8,
  "PartialFourier": 1,
  "PatientPosition": "HFS",
  "PercentPhaseFOV": 100,
  "PercentSampling": 100,
  "PhaseEncodingDirection": "j-",
  "PhaseEncodingSteps": 82,
  "PhaseResolution": 1,
  "PixelBandwidth": 3050,
  "ProcedureStepDescription": "Wager_Wager^1076_spacetop",
  "ProtocolName": "func_run-04_task-social_acq-ap-mb8",
  "PulseSequenceDetails": "%CustomerSeq%\\cmrr_mbep2d_bold",
  "ReceiveCoilActiveElements": "HEA;HEP",
  "ReceiveCoilName": "Head_32",
  "ReconMatrixPE": 82,
  "RepetitionTime": 0.46,
  "SAR": 0.0770923,
  "ScanOptions": "FS",
  "ScanningSequence": "EP",
  "SequenceName": "epfid2d1_82",
  "SequenceVariant": "SK\\SS",
  "SeriesDescription": "func_run-04_task-social_acq-ap-mb8",
  "SeriesNumber": 18,
  "ShimSetting": [4152, -7743, -7264, 650, -57, -103, 62, 80],
  "SliceThickness": 2.7,
  "SliceTiming": [0, 0.25, 0.0625, 0.3125, 0.125, 0.375, 0.1875, 0, 0.25, 0.0625, 0.3125, 0.125, 0.375, 0.1875, 0, 0.25, 0.0625, 0.3125, 0.125, 0.375, 0.1875, 0, 0.25, 0.0625, 0.3125, 0.125, 0.375, 0.1875, 0, 0.25, 0.0625, 0.3125, 0.125, 0.375, 0.1875, 0, 0.25, 0.0625, 0.3125, 0.125, 0.375, 0.1875, 0, 0.25, 0.0625, 0.3125, 0.125, 0.375, 0.1875, 0, 0.25, 0.0625, 0.3125, 0.125, 0.375, 0.1875],
  "SoftwareVersions": "syngo MR E11",
  "SpacingBetweenSlices": 2.7,
  "StationName": "AWP66112",
  "TaskName": "social",
  "TotalReadoutTime": 0.03969,
  "TxRefAmp": 241.403,
  "WipMemBlock": "6f12562c-6c15-4e9c-83fa-1374163b7fbd||Sequence: R016 ve11e/master r/434b28f1; Aug  7 2019 18:53:46 by eja",
  "dcmmeta_affine": [
    [-2.679884910583496, 0.12309897691011429, 0.03427752107381821, 106.54242706298828],
    [0.1247711107134819, 2.676081895828247, 0.14623157680034637, -95.03337097167969],
    [0.027306852862238884, -0.14672616124153137, 2.695819139480591, -63.34056091308594],
    [0.0, 0.0, 0.0, 1.0]
],
  "dcmmeta_reorient_transform": [
    [0.0, -1.0, 0.0, 81.0],
    [1.0, 0.0, 0.0, 0.0],
    [0.0, 0.0, 1.0, 0.0],
    [0.0, 0.0, 0.0, 1.0]
],
  "dcmmeta_shape": [82, 82, 56, 872],
  "dcmmeta_slice_dim": 2,
  "dcmmeta_version": 0.6,
  "global": {
    "const": {
      "AccessionNumber": "A003872",
      "AcquisitionMatrix": [82, 0, 0, 82],
      "AngioFlag": "N",
      "BitsAllocated": 16,
      "BitsStored": 16,
      "BodyPartExamined": "BRAIN",
      "Columns": 656,
      "EchoNumbers": 1,
      "EchoTime": 27.2,
      "EchoTrainLength": 82,
      "FlipAngle": 44.0,
      "HighBit": 15,
      "ImageOrientationPatient": [0.99886617607898, -0.0465055956549, 0.01017800855499, 0.04588234566757, 0.99744871592702, 0.05468884211234],
      "ImagePositionPatient": [-920.96982794829, -853.95549221929, -125.17285680368],
      "ImageType": [
        "ORIGINAL",
        "PRIMARY",
        "M",
        "MB",
        "ND",
        "NORM",
        "MOSAIC"
],
      "ImagedNucleus": "1H",
      "ImagingFrequency": 123.252207,
      "InPlanePhaseEncodingDirection": "COL",
      "MRAcquisitionType": "2D",
      "MagneticFieldStrength": 3.0,
      "Manufacturer": "SIEMENS",
      "ManufacturerModelName": "Prisma",
      "Modality": "MR",
      "NumberOfAverages": 1.0,
      "NumberOfPhaseEncodingSteps": 82,
      "PercentPhaseFieldOfView": 100.0,
      "PercentSampling": 100.0,
      "PerformedProcedureStepStartTime": "080448.856000",
      "PhotometricInterpretation": "MONOCHROME2",
      "PixelBandwidth": 3050.0,
      "PixelRepresentation": 0,
      "PixelSpacing": [2.6829268932343, 2.6829268932343],
      "ProtocolName": "func_run-04_task-social_acq-ap-mb8",
      "RepetitionTime": 460.0,
      "Rows": 656,
      "SAR": 0.07709228494199,
      "SamplesPerPixel": 1,
      "ScanOptions": "FS",
      "ScanningSequence": "EP",
      "SequenceName": "epfid2d1_82",
      "SequenceVariant": [
        "SK",
        "SS"
],
      "SeriesDescription": "func_run-04_task-social_acq-ap-mb8",
      "SeriesNumber": 18,
      "SeriesTime": "090738.795000",
      "SliceLocation": -67.036878712112,
      "SliceThickness": 2.7000000476837,
      "SmallestImagePixelValue": 0,
      "SoftwareVersions": "syngo MR E11",
      "SpacingBetweenSlices": 2.6999999912983,
      "SpecificCharacterSet": "ISO_IR 100",
      "StudyID": "1",
      "StudyTime": "080448.695000",
      "TransmitCoilName": "Body",
      "VariableFlipAngleFlag": "N",
      "WindowCenterWidthExplanation": "Algo1"
    },
    "slices": {}
  },
  "time": {
    "samples": {
      "AcquisitionNumber": [1, 2, 3, 4, 5, 6, 7, 8, 9, 10, 11, 12, 13, 14, 15, 16, 17, 18, 19, 20, 21, 22, 23, 24, 25, 26, 27, 28, 29, 30, 31, 32, 33, 34, 35, 36, 37, 38, 39, 40, 41, 42, 43, 44, 45, 46, 47, 48, 49, 50, 51, 52, 53, 54, 55, 56, 57, 58, 59, 60, 61, 62, 63, 64, 65, 66, 67, 68, 69, 70, 71, 72, 73, 74, 75, 76, 77, 78, 79, 80, 81, 82, 83, 84, 85, 86, 87, 88, 89, 90, 91, 92, 93, 94, 95, 96, 97, 98, 99, 100, 101, 102, 103, 104, 105, 106, 107, 108, 109, 110, 111, 112, 113, 114, 115, 116, 117, 118, 119, 120, 121, 122, 123, 124, 125, 126, 127, 128, 129, 130, 131, 132, 133, 134, 135, 136, 137, 138, 139, 140, 141, 142, 143, 144, 145, 146, 147, 148, 149, 150, 151, 152, 153, 154, 155, 156, 157, 158, 159, 160, 161, 162, 163, 164, 165, 166, 167, 168, 169, 170, 171, 172, 173, 174, 175, 176, 177, 178, 179, 180, 181, 182, 183, 184, 185, 186, 187, 188, 189, 190, 191, 192, 193, 194, 195, 196, 197, 198, 199, 200, 201, 202, 203, 204, 205, 206, 207, 208, 209, 210, 211, 212, 213, 214, 215, 216, 217, 218, 219, 220, 221, 222, 223, 224, 225, 226, 227, 228, 229, 230, 231, 232, 233, 234, 235, 236, 237, 238, 239, 240, 241, 242, 243, 244, 245, 246, 247, 248, 249, 250, 251, 252, 253, 254, 255, 256, 257, 258, 259, 260, 261, 262, 263, 264, 265, 266, 267, 268, 269, 270, 271, 272, 273, 274, 275, 276, 277, 278, 279, 280, 281, 282, 283, 284, 285, 286, 287, 288, 289, 290, 291, 292, 293, 294, 295, 296, 297, 298, 299, 300, 301, 302, 303, 304, 305, 306, 307, 308, 309, 310, 311, 312, 313, 314, 315, 316, 317, 318, 319, 320, 321, 322, 323, 324, 325, 326, 327, 328, 329, 330, 331, 332, 333, 334, 335, 336, 337, 338, 339, 340, 341, 342, 343, 344, 345, 346, 347, 348, 349, 350, 351, 352, 353, 354, 355, 356, 357, 358, 359, 360, 361, 362, 363, 364, 365, 366, 367, 368, 369, 370, 371, 372, 373, 374, 375, 376, 377, 378, 379, 380, 381, 382, 383, 384, 385, 386, 387, 388, 389, 390, 391, 392, 393, 394, 395, 396, 397, 398, 399, 400, 401, 402, 403, 404, 405, 406, 407, 408, 409, 410, 411, 412, 413, 414, 415, 416, 417, 418, 419, 420, 421, 422, 423, 424, 425, 426, 427, 428, 429, 430, 431, 432, 433, 434, 435, 436, 437, 438, 439, 440, 441, 442, 443, 444, 445, 446, 447, 448, 449, 450, 451, 452, 453, 454, 455, 456, 457, 458, 459, 460, 461, 462, 463, 464, 465, 466, 467, 468, 469, 470, 471, 472, 473, 474, 475, 476, 477, 478, 479, 480, 481, 482, 483, 484, 485, 486, 487, 488, 489, 490, 491, 492, 493, 494, 495, 496, 497, 498, 499, 500, 501, 502, 503, 504, 505, 506, 507, 508, 509, 510, 511, 512, 513, 514, 515, 516, 517, 518, 519, 520, 521, 522, 523, 524, 525, 526, 527, 528, 529, 530, 531, 532, 533, 534, 535, 536, 537, 538, 539, 540, 541, 542, 543, 544, 545, 546, 547, 548, 549, 550, 551, 552, 553, 554, 555, 556, 557, 558, 559, 560, 561, 562, 563, 564, 565, 566, 567, 568, 569, 570, 571, 572, 573, 574, 575, 576, 577, 578, 579, 580, 581, 582, 583, 584, 585, 586, 587, 588, 589, 590, 591, 592, 593, 594, 595, 596, 597, 598, 599, 600, 601, 602, 603, 604, 605, 606, 607, 608, 609, 610, 611, 612, 613, 614, 615, 616, 617, 618, 619, 620, 621, 622, 623, 624, 625, 626, 627, 628, 629, 630, 631, 632, 633, 634, 635, 636, 637, 638, 639, 640, 641, 642, 643, 644, 645, 646, 647, 648, 649, 650, 651, 652, 653, 654, 655, 656, 657, 658, 659, 660, 661, 662, 663, 664, 665, 666, 667, 668, 669, 670, 671, 672, 673, 674, 675, 676, 677, 678, 679, 680, 681, 682, 683, 684, 685, 686, 687, 688, 689, 690, 691, 692, 693, 694, 695, 696, 697, 698, 699, 700, 701, 702, 703, 704, 705, 706, 707, 708, 709, 710, 711, 712, 713, 714, 715, 716, 717, 718, 719, 720, 721, 722, 723, 724, 725, 726, 727, 728, 729, 730, 731, 732, 733, 734, 735, 736, 737, 738, 739, 740, 741, 742, 743, 744, 745, 746, 747, 748, 749, 750, 751, 752, 753, 754, 755, 756, 757, 758, 759, 760, 761, 762, 763, 764, 765, 766, 767, 768, 769, 770, 771, 772, 773, 774, 775, 776, 777, 778, 779, 780, 781, 782, 783, 784, 785, 786, 787, 788, 789, 790, 791, 792, 793, 794, 795, 796, 797, 798, 799, 800, 801, 802, 803, 804, 805, 806, 807, 808, 809, 810, 811, 812, 813, 814, 815, 816, 817, 818, 819, 820, 821, 822, 823, 824, 825, 826, 827, 828, 829, 830, 831, 832, 833, 834, 835, 836, 837, 838, 839, 840, 841, 842, 843, 844, 845, 846, 847, 848, 849, 850, 851, 852, 853, 854, 855, 856, 857, 858, 859, 860, 861, 862, 863, 864, 865, 866, 867, 868, 869, 870, 871, 872],
      "AcquisitionTime": ["090710.422500", "090710.882500", "090711.342500", "090711.802500", "090712.262500", "090712.722500", "090713.182500", "090713.642500", "090714.102500", "090714.562500", "090715.022500", "090715.482500", "090715.942500", "090716.402500", "090716.862500", "090717.322500", "090717.782500", "090718.242500", "090718.702500", "090719.162500", "090719.622500", "090720.082500", "090720.542500", "090721.002500", "090721.462500", "090721.922500", "090722.382500", "090722.842500", "090723.302500", "090723.762500", "090724.222500", "090724.682500", "090725.142500", "090725.602500", "090726.062500", "090726.522500", "090726.982500", "090727.442500", "090727.902500", "090728.362500", "090728.822500", "090729.282500", "090729.742500", "090730.202500", "090730.662500", "090731.122500", "090731.582500", "090732.042500", "090732.502500", "090732.962500", "090733.422500", "090733.882500", "090734.342500", "090734.802500", "090735.262500", "090735.722500", "090736.182500", "090736.642500", "090737.102500", "090737.562500", "090738.022500", "090738.482500", "090738.942500", "090739.402500", "090739.862500", "090740.322500", "090740.782500", "090741.242500", "090741.702500", "090742.162500", "090742.622500", "090743.082500", "090743.542500", "090744.002500", "090744.462500", "090744.922500", "090745.382500", "090745.842500", "090746.302500", "090746.762500", "090747.222500", "090747.682500", "090748.142500", "090748.602500", "090749.062500", "090749.522500", "090749.982500", "090750.442500", "090750.902500", "090751.362500", "090751.822500", "090752.282500", "090752.742500", "090753.202500", "090753.662500", "090754.122500", "090754.582500", "090755.042500", "090755.502500", "090755.962500", "090756.422500", "090756.882500", "090757.342500", "090757.802500", "090758.262500", "090758.722500", "090759.182500", "090759.642500", "090800.102500", "090800.562500", "090801.022500", "090801.482500", "090801.942500", "090802.402500", "090802.862500", "090803.322500", "090803.782500", "090804.242500", "090804.702500", "090805.162500", "090805.622500", "090806.082500", "090806.542500", "090807.002500", "090807.462500", "090807.922500", "090808.382500", "090808.842500", "090809.302500", "090809.762500", "090810.222500", "090810.682500", "090811.142500", "090811.602500", "090812.062500", "090812.522500", "090812.982500", "090813.442500", "090813.902500", "090814.362500", "090814.822500", "090815.282500", "090815.742500", "090816.202500", "090816.662500", "090817.122500", "090817.582500", "090818.042500", "090818.502500", "090818.962500", "090819.422500", "090819.882500", "090820.342500", "090820.802500", "090821.262500", "090821.722500", "090822.182500", "090822.642500", "090823.102500", "090823.562500", "090824.022500", "090824.482500", "090824.942500", "090825.402500", "090825.862500", "090826.322500", "090826.782500", "090827.242500", "090827.702500", "090828.162500", "090828.622500", "090829.082500", "090829.542500", "090830.002500", "090830.462500", "090830.922500", "090831.382500", "090831.842500", "090832.302500", "090832.762500", "090833.222500", "090833.682500", "090834.142500", "090834.602500", "090835.062500", "090835.522500", "090835.982500", "090836.442500", "090836.902500", "090837.362500", "090837.822500", "090838.282500", "090838.742500", "090839.202500", "090839.662500", "090840.122500", "090840.582500", "090841.042500", "090841.502500", "090841.962500", "090842.422500", "090842.882500", "090843.342500", "090843.802500", "090844.262500", "090844.722500", "090845.182500", "090845.642500", "090846.102500", "090846.562500", "090847.022500", "090847.482500", "090847.942500", "090848.402500", "090848.862500", "090849.322500", "090849.782500", "090850.242500", "090850.702500", "090851.162500", "090851.622500", "090852.082500", "090852.542500", "090853.002500", "090853.462500", "090853.922500", "090854.382500", "090854.842500", "090855.302500", "090855.762500", "090856.222500", "090856.682500", "090857.142500", "090857.602500", "090858.062500", "090858.522500", "090858.982500", "090859.442500", "090859.902500", "090900.362500", "090900.822500", "090901.282500", "090901.742500", "090902.202500", "090902.662500", "090903.122500", "090903.582500", "090904.042500", "090904.502500", "090904.962500", "090905.422500", "090905.882500", "090906.342500", "090906.802500", "090907.262500", "090907.722500", "090908.182500", "090908.642500", "090909.102500", "090909.562500", "090910.022500", "090910.482500", "090910.942500", "090911.402500", "090911.862500", "090912.322500", "090912.782500", "090913.242500", "090913.702500", "090914.162500", "090914.622500", "090915.082500", "090915.542500", "090916.002500", "090916.462500", "090916.922500", "090917.382500", "090917.842500", "090918.302500", "090918.762500", "090919.222500", "090919.682500", "090920.142500", "090920.602500", "090921.062500", "090921.522500", "090921.982500", "090922.442500", "090922.902500", "090923.362500", "090923.822500", "090924.282500", "090924.742500", "090925.202500", "090925.662500", "090926.122500", "090926.582500", "090927.042500", "090927.502500", "090927.962500", "090928.422500", "090928.882500", "090929.342500", "090929.802500", "090930.262500", "090930.722500", "090931.182500", "090931.642500", "090932.102500", "090932.562500", "090933.022500", "090933.482500", "090933.942500", "090934.402500", "090934.862500", "090935.322500", "090935.782500", "090936.242500", "090936.702500", "090937.162500", "090937.622500", "090938.082500", "090938.542500", "090939.002500", "090939.462500", "090939.922500", "090940.382500", "090940.842500", "090941.302500", "090941.762500", "090942.222500", "090942.682500", "090943.142500", "090943.602500", "090944.062500", "090944.522500", "090944.982500", "090945.442500", "090945.902500", "090946.362500", "090946.822500", "090947.282500", "090947.742500", "090948.202500", "090948.662500", "090949.122500", "090949.582500", "090950.042500", "090950.502500", "090950.962500", "090951.422500", "090951.882500", "090952.342500", "090952.802500", "090953.262500", "090953.722500", "090954.182500", "090954.642500", "090955.102500", "090955.562500", "090956.022500", "090956.482500", "090956.942500", "090957.402500", "090957.862500", "090958.322500", "090958.782500", "090959.242500", "090959.702500", "091000.162500", "091000.622500", "091001.082500", "091001.542500", "091002.002500", "091002.462500", "091002.922500", "091003.382500", "091003.842500", "091004.302500", "091004.762500", "091005.222500", "091005.682500", "091006.142500", "091006.602500", "091007.062500", "091007.522500", "091007.982500", "091008.442500", "091008.902500", "091009.362500", "091009.822500", "091010.282500", "091010.742500", "091011.202500", "091011.662500", "091012.122500", "091012.582500", "091013.042500", "091013.502500", "091013.962500", "091014.422500", "091014.882500", "091015.342500", "091015.802500", "091016.262500", "091016.722500", "091017.182500", "091017.642500", "091018.102500", "091018.562500", "091019.022500", "091019.482500", "091019.942500", "091020.402500", "091020.862500", "091021.322500", "091021.782500", "091022.242500", "091022.702500", "091023.162500", "091023.622500", "091024.082500", "091024.542500", "091025.002500", "091025.462500", "091025.922500", "091026.382500", "091026.842500", "091027.302500", "091027.762500", "091028.222500", "091028.682500", "091029.142500", "091029.602500", "091030.062500", "091030.522500", "091030.982500", "091031.442500", "091031.902500", "091032.362500", "091032.822500", "091033.282500", "091033.742500", "091034.202500", "091034.662500", "091035.122500", "091035.582500", "091036.042500", "091036.502500", "091036.962500", "091037.422500", "091037.882500", "091038.342500", "091038.802500", "091039.262500", "091039.722500", "091040.182500", "091040.642500", "091041.102500", "091041.562500", "091042.022500", "091042.482500", "091042.942500", "091043.402500", "091043.862500", "091044.322500", "091044.782500", "091045.242500", "091045.702500", "091046.162500", "091046.622500", "091047.082500", "091047.542500", "091048.002500", "091048.462500", "091048.922500", "091049.382500", "091049.842500", "091050.302500", "091050.762500", "091051.222500", "091051.682500", "091052.142500", "091052.602500", "091053.062500", "091053.522500", "091053.982500", "091054.442500", "091054.902500", "091055.362500", "091055.822500", "091056.282500", "091056.742500", "091057.202500", "091057.662500", "091058.122500", "091058.582500", "091059.042500", "091059.502500", "091059.962500", "091100.422500", "091100.882500", "091101.342500", "091101.802500", "091102.262500", "091102.722500", "091103.182500", "091103.642500", "091104.102500", "091104.562500", "091105.022500", "091105.482500", "091105.942500", "091106.402500", "091106.862500", "091107.322500", "091107.782500", "091108.242500", "091108.702500", "091109.162500", "091109.622500", "091110.082500", "091110.542500", "091111.002500", "091111.462500", "091111.922500", "091112.382500", "091112.842500", "091113.302500", "091113.762500", "091114.222500", "091114.682500", "091115.142500", "091115.602500", "091116.062500", "091116.522500", "091116.982500", "091117.442500", "091117.902500", "091118.362500", "091118.822500", "091119.282500", "091119.742500", "091120.202500", "091120.662500", "091121.122500", "091121.582500", "091122.042500", "091122.502500", "091122.962500", "091123.422500", "091123.882500", "091124.342500", "091124.802500", "091125.262500", "091125.722500", "091126.182500", "091126.642500", "091127.102500", "091127.562500", "091128.022500", "091128.482500", "091128.942500", "091129.402500", "091129.862500", "091130.322500", "091130.782500", "091131.242500", "091131.702500", "091132.162500", "091132.622500", "091133.082500", "091133.542500", "091134.002500", "091134.462500", "091134.922500", "091135.382500", "091135.842500", "091136.302500", "091136.762500", "091137.222500", "091137.682500", "091138.142500", "091138.602500", "091139.062500", "091139.522500", "091139.982500", "091140.442500", "091140.902500", "091141.362500", "091141.822500", "091142.282500", "091142.742500", "091143.202500", "091143.662500", "091144.122500", "091144.582500", "091145.042500", "091145.502500", "091145.962500", "091146.422500", "091146.882500", "091147.342500", "091147.802500", "091148.262500", "091148.722500", "091149.182500", "091149.642500", "091150.102500", "091150.562500", "091151.022500", "091151.482500", "091151.942500", "091152.402500", "091152.862500", "091153.322500", "091153.782500", "091154.242500", "091154.702500", "091155.162500", "091155.622500", "091156.082500", "091156.542500", "091157.002500", "091157.462500", "091157.922500", "091158.382500", "091158.842500", "091159.302500", "091159.762500", "091200.222500", "091200.682500", "091201.142500", "091201.602500", "091202.062500", "091202.522500", "091202.982500", "091203.442500", "091203.902500", "091204.362500", "091204.822500", "091205.282500", "091205.742500", "091206.202500", "091206.662500", "091207.122500", "091207.582500", "091208.042500", "091208.502500", "091208.962500", "091209.422500", "091209.882500", "091210.342500", "091210.802500", "091211.262500", "091211.722500", "091212.182500", "091212.642500", "091213.102500", "091213.562500", "091214.022500", "091214.482500", "091214.942500", "091215.402500", "091215.862500", "091216.322500", "091216.782500", "091217.242500", "091217.702500", "091218.162500", "091218.622500", "091219.082500", "091219.542500", "091220.002500", "091220.462500", "091220.922500", "091221.382500", "091221.842500", "091222.302500", "091222.762500", "091223.222500", "091223.682500", "091224.142500", "091224.602500", "091225.062500", "091225.522500", "091225.982500", "091226.442500", "091226.902500", "091227.362500", "091227.822500", "091228.282500", "091228.742500", "091229.202500", "091229.662500", "091230.122500", "091230.582500", "091231.042500", "091231.502500", "091231.962500", "091232.422500", "091232.882500", "091233.342500", "091233.802500", "091234.262500", "091234.722500", "091235.182500", "091235.642500", "091236.102500", "091236.562500", "091237.022500", "091237.482500", "091237.942500", "091238.402500", "091238.862500", "091239.322500", "091239.782500", "091240.242500", "091240.702500", "091241.162500", "091241.622500", "091242.082500", "091242.542500", "091243.002500", "091243.462500", "091243.922500", "091244.382500", "091244.842500", "091245.302500", "091245.762500", "091246.222500", "091246.682500", "091247.142500", "091247.602500", "091248.062500", "091248.522500", "091248.982500", "091249.442500", "091249.902500", "091250.362500", "091250.822500", "091251.282500", "091251.742500", "091252.202500", "091252.662500", "091253.122500", "091253.582500", "091254.042500", "091254.502500", "091254.962500", "091255.422500", "091255.882500", "091256.342500", "091256.802500", "091257.262500", "091257.722500", "091258.182500", "091258.642500", "091259.102500", "091259.562500", "091300.022500", "091300.482500", "091300.942500", "091301.402500", "091301.862500", "091302.322500", "091302.782500", "091303.242500", "091303.702500", "091304.162500", "091304.622500", "091305.082500", "091305.542500", "091306.002500", "091306.462500", "091306.922500", "091307.382500", "091307.842500", "091308.302500", "091308.762500", "091309.222500", "091309.682500", "091310.142500", "091310.602500", "091311.062500", "091311.522500", "091311.982500", "091312.442500", "091312.902500", "091313.362500", "091313.822500", "091314.282500", "091314.742500", "091315.202500", "091315.662500", "091316.122500", "091316.582500", "091317.042500", "091317.502500", "091317.962500", "091318.422500", "091318.882500", "091319.342500", "091319.802500", "091320.262500", "091320.722500", "091321.182500", "091321.642500", "091322.102500", "091322.562500", "091323.022500", "091323.482500", "091323.942500", "091324.402500", "091324.862500", "091325.322500", "091325.782500", "091326.242500", "091326.702500", "091327.162500", "091327.622500", "091328.082500", "091328.542500", "091329.002500", "091329.462500", "091329.922500", "091330.382500", "091330.842500", "091331.302500", "091331.762500", "091332.222500", "091332.682500", "091333.142500", "091333.602500", "091334.062500", "091334.522500", "091334.982500", "091335.442500", "091335.902500", "091336.362500", "091336.822500", "091337.282500", "091337.742500", "091338.202500", "091338.662500", "091339.122500", "091339.582500", "091340.042500", "091340.502500", "091340.962500", "091341.422500", "091341.882500", "091342.342500", "091342.802500", "091343.262500", "091343.722500", "091344.182500", "091344.642500", "091345.102500", "091345.562500", "091346.022500", "091346.482500", "091346.942500", "091347.402500", "091347.862500", "091348.322500", "091348.782500", "091349.242500", "091349.702500", "091350.162500", "091350.622500", "091351.082500"],
