{
  "AcquisitionMatrixPE": 82,
  "AcquisitionNumber": 1,
  "AcquisitionTime": "14:40:9.642500",
  "BandwidthPerPixelPhaseEncode": 24.888,
  "BaseResolution": 82,
  "BodyPartExamined": "BRAIN",
  "ConsistencyInfo": "N4_VE11E_LATEST_20181129",
  "ConversionSoftware": "dcm2niix",
  "ConversionSoftwareVersion": "v1.0.20201102",
  "DerivedVendorReportedEchoSpacing": 0.00049,
  "DeviceSerialNumber": "66112",
  "DwellTime": 2e-06,
  "EchoTime": 0.0272,
  "EchoTrainLength": 82,
  "EffectiveEchoSpacing": 0.00049,
  "FlipAngle": 44,
  "ImageComments": "Unaliased MB8/PE3",
  "ImageOrientationPatientDICOM": [1, 0, 0, 0, 1, 0],
  "ImageType": [
    "ORIGINAL",
    "PRIMARY",
    "M",
    "MB",
    "ND",
    "NORM",
    "MOSAIC"
],
  "ImagingFrequency": 123.252,
  "InPlanePhaseEncodingDirectionDICOM": "COL",
  "InstitutionAddress": "Maynard 3,Hanover,NH,US,03755",
  "InstitutionName": "Dartmouth College - PBS",
  "InstitutionalDepartmentName": "Department",
  "MRAcquisitionType": "2D",
  "MagneticFieldStrength": 3,
  "Manufacturer": "Siemens",
  "ManufacturersModelName": "Prisma",
  "Modality": "MR",
  "MultibandAccelerationFactor": 8,
  "PartialFourier": 1,
  "PatientPosition": "HFS",
  "PercentPhaseFOV": 100,
  "PercentSampling": 100,
  "PhaseEncodingDirection": "j-",
  "PhaseEncodingSteps": 82,
  "PhaseResolution": 1,
  "PixelBandwidth": 3050,
  "ProcedureStepDescription": "Wager_Wager^1076_spacetop",
  "ProtocolName": "func_run-01_task-social_acq-ap-mb8",
  "PulseSequenceDetails": "%CustomerSeq%\\cmrr_mbep2d_bold",
  "ReceiveCoilActiveElements": "HEA;HEP",
  "ReceiveCoilName": "Head_32",
  "ReconMatrixPE": 82,
  "RepetitionTime": 0.46,
  "SAR": 0.0841477,
  "ScanOptions": "FS",
  "ScanningSequence": "EP",
  "SequenceName": "epfid2d1_82",
  "SequenceVariant": "SK\\SS",
  "SeriesDescription": "func_run-01_task-social_acq-ap-mb8",
  "SeriesNumber": 12,
  "ShimSetting": [4166, -7683, -7302, 425, -79, -44, 37, 36],
  "SliceThickness": 2.7,
  "SliceTiming": [0, 0.25, 0.0625, 0.315, 0.125, 0.3775, 0.1875, 0, 0.25, 0.0625, 0.315, 0.125, 0.3775, 0.1875, 0, 0.25, 0.0625, 0.315, 0.125, 0.3775, 0.1875, 0, 0.25, 0.0625, 0.315, 0.125, 0.3775, 0.1875, 0, 0.25, 0.0625, 0.315, 0.125, 0.3775, 0.1875, 0, 0.25, 0.0625, 0.315, 0.125, 0.3775, 0.1875, 0, 0.25, 0.0625, 0.315, 0.125, 0.3775, 0.1875, 0, 0.25, 0.0625, 0.315, 0.125, 0.3775, 0.1875],
  "SoftwareVersions": "syngo MR E11",
  "SpacingBetweenSlices": 2.7,
  "StationName": "AWP66112",
  "TaskName": "social",
  "TotalReadoutTime": 0.03969,
  "TxRefAmp": 230.02,
  "WipMemBlock": "a821d50a-86ce-4da0-b18b-0532ce85b6fb||Sequence: R016 ve11e/master r/434b28f1; Aug  7 2019 18:53:46 by eja",
  "dcmmeta_affine": [
    [-2.682926893234253, 0.0, 0.0, 110.0],
    [0.0, 2.682926893234253, 0.0, -81.07707977294922],
    [0.0, 0.0, 2.700000047683716, -90.25],
    [0.0, 0.0, 0.0, 1.0]
],
  "dcmmeta_reorient_transform": [
    [0.0, -1.0, 0.0, 81.0],
    [1.0, 0.0, 0.0, 0.0],
    [0.0, 0.0, 1.0, 0.0],
    [0.0, 0.0, 0.0, 1.0]
],
  "dcmmeta_shape": [82, 82, 56, 872],
  "dcmmeta_slice_dim": 2,
  "dcmmeta_version": 0.6,
  "global": {
    "const": {
      "AccessionNumber": "A004004",
      "AcquisitionMatrix": [82, 0, 0, 82],
      "AngioFlag": "N",
      "BitsAllocated": 16,
      "BitsStored": 16,
      "BodyPartExamined": "BRAIN",
      "Columns": 656,
      "EchoNumbers": 1,
      "EchoTime": 27.2,
      "EchoTrainLength": 82,
      "FlipAngle": 44.0,
      "HighBit": 15,
      "ImageOrientationPatient": [1.0, 0.0, 0.0, 0.0, 1.0, 0.0],
      "ImagePositionPatient": [-880.00002098083, -906.24002075195, -90.25],
      "ImageType": [
        "ORIGINAL",
        "PRIMARY",
        "M",
        "MB",
        "ND",
        "NORM",
        "MOSAIC"
],
      "ImagedNucleus": "1H",
      "ImagingFrequency": 123.252228,
      "InPlanePhaseEncodingDirection": "COL",
      "MRAcquisitionType": "2D",
      "MagneticFieldStrength": 3.0,
      "Manufacturer": "SIEMENS",
      "ManufacturerModelName": "Prisma",
      "Modality": "MR",
      "NumberOfAverages": 1.0,
      "NumberOfPhaseEncodingSteps": 82,
      "PercentPhaseFieldOfView": 100.0,
      "PercentSampling": 100.0,
      "PerformedProcedureStepStartTime": "132337.871000",
      "PhotometricInterpretation": "MONOCHROME2",
      "PixelBandwidth": 3050.0,
      "PixelRepresentation": 0,
      "PixelSpacing": [2.6829268932343, 2.6829268932343],
      "ProtocolName": "func_run-01_task-social_acq-ap-mb8",
      "RepetitionTime": 460.0,
      "Rows": 656,
      "SAR": 0.08414769684,
      "SamplesPerPixel": 1,
      "ScanOptions": "FS",
      "ScanningSequence": "EP",
      "SequenceName": "epfid2d1_82",
      "SequenceVariant": [
        "SK",
        "SS"
],
      "SeriesDescription": "func_run-01_task-social_acq-ap-mb8",
      "SeriesNumber": 12,
      "SeriesTime": "144028.394000",
      "SliceLocation": -90.25,
      "SliceThickness": 2.7000000476837,
      "SmallestImagePixelValue": 0,
      "SoftwareVersions": "syngo MR E11",
      "SpacingBetweenSlices": 2.7,
      "SpecificCharacterSet": "ISO_IR 100",
      "StudyID": "1",
      "StudyTime": "132337.800000",
      "TransmitCoilName": "Body",
      "VariableFlipAngleFlag": "N",
      "WindowCenterWidthExplanation": "Algo1"
    },
    "slices": {}
  },
  "time": {
    "samples": {
      "AcquisitionNumber": [1, 2, 3, 4, 5, 6, 7, 8, 9, 10, 11, 12, 13, 14, 15, 16, 17, 18, 19, 20, 21, 22, 23, 24, 25, 26, 27, 28, 29, 30, 31, 32, 33, 34, 35, 36, 37, 38, 39, 40, 41, 42, 43, 44, 45, 46, 47, 48, 49, 50, 51, 52, 53, 54, 55, 56, 57, 58, 59, 60, 61, 62, 63, 64, 65, 66, 67, 68, 69, 70, 71, 72, 73, 74, 75, 76, 77, 78, 79, 80, 81, 82, 83, 84, 85, 86, 87, 88, 89, 90, 91, 92, 93, 94, 95, 96, 97, 98, 99, 100, 101, 102, 103, 104, 105, 106, 107, 108, 109, 110, 111, 112, 113, 114, 115, 116, 117, 118, 119, 120, 121, 122, 123, 124, 125, 126, 127, 128, 129, 130, 131, 132, 133, 134, 135, 136, 137, 138, 139, 140, 141, 142, 143, 144, 145, 146, 147, 148, 149, 150, 151, 152, 153, 154, 155, 156, 157, 158, 159, 160, 161, 162, 163, 164, 165, 166, 167, 168, 169, 170, 171, 172, 173, 174, 175, 176, 177, 178, 179, 180, 181, 182, 183, 184, 185, 186, 187, 188, 189, 190, 191, 192, 193, 194, 195, 196, 197, 198, 199, 200, 201, 202, 203, 204, 205, 206, 207, 208, 209, 210, 211, 212, 213, 214, 215, 216, 217, 218, 219, 220, 221, 222, 223, 224, 225, 226, 227, 228, 229, 230, 231, 232, 233, 234, 235, 236, 237, 238, 239, 240, 241, 242, 243, 244, 245, 246, 247, 248, 249, 250, 251, 252, 253, 254, 255, 256, 257, 258, 259, 260, 261, 262, 263, 264, 265, 266, 267, 268, 269, 270, 271, 272, 273, 274, 275, 276, 277, 278, 279, 280, 281, 282, 283, 284, 285, 286, 287, 288, 289, 290, 291, 292, 293, 294, 295, 296, 297, 298, 299, 300, 301, 302, 303, 304, 305, 306, 307, 308, 309, 310, 311, 312, 313, 314, 315, 316, 317, 318, 319, 320, 321, 322, 323, 324, 325, 326, 327, 328, 329, 330, 331, 332, 333, 334, 335, 336, 337, 338, 339, 340, 341, 342, 343, 344, 345, 346, 347, 348, 349, 350, 351, 352, 353, 354, 355, 356, 357, 358, 359, 360, 361, 362, 363, 364, 365, 366, 367, 368, 369, 370, 371, 372, 373, 374, 375, 376, 377, 378, 379, 380, 381, 382, 383, 384, 385, 386, 387, 388, 389, 390, 391, 392, 393, 394, 395, 396, 397, 398, 399, 400, 401, 402, 403, 404, 405, 406, 407, 408, 409, 410, 411, 412, 413, 414, 415, 416, 417, 418, 419, 420, 421, 422, 423, 424, 425, 426, 427, 428, 429, 430, 431, 432, 433, 434, 435, 436, 437, 438, 439, 440, 441, 442, 443, 444, 445, 446, 447, 448, 449, 450, 451, 452, 453, 454, 455, 456, 457, 458, 459, 460, 461, 462, 463, 464, 465, 466, 467, 468, 469, 470, 471, 472, 473, 474, 475, 476, 477, 478, 479, 480, 481, 482, 483, 484, 485, 486, 487, 488, 489, 490, 491, 492, 493, 494, 495, 496, 497, 498, 499, 500, 501, 502, 503, 504, 505, 506, 507, 508, 509, 510, 511, 512, 513, 514, 515, 516, 517, 518, 519, 520, 521, 522, 523, 524, 525, 526, 527, 528, 529, 530, 531, 532, 533, 534, 535, 536, 537, 538, 539, 540, 541, 542, 543, 544, 545, 546, 547, 548, 549, 550, 551, 552, 553, 554, 555, 556, 557, 558, 559, 560, 561, 562, 563, 564, 565, 566, 567, 568, 569, 570, 571, 572, 573, 574, 575, 576, 577, 578, 579, 580, 581, 582, 583, 584, 585, 586, 587, 588, 589, 590, 591, 592, 593, 594, 595, 596, 597, 598, 599, 600, 601, 602, 603, 604, 605, 606, 607, 608, 609, 610, 611, 612, 613, 614, 615, 616, 617, 618, 619, 620, 621, 622, 623, 624, 625, 626, 627, 628, 629, 630, 631, 632, 633, 634, 635, 636, 637, 638, 639, 640, 641, 642, 643, 644, 645, 646, 647, 648, 649, 650, 651, 652, 653, 654, 655, 656, 657, 658, 659, 660, 661, 662, 663, 664, 665, 666, 667, 668, 669, 670, 671, 672, 673, 674, 675, 676, 677, 678, 679, 680, 681, 682, 683, 684, 685, 686, 687, 688, 689, 690, 691, 692, 693, 694, 695, 696, 697, 698, 699, 700, 701, 702, 703, 704, 705, 706, 707, 708, 709, 710, 711, 712, 713, 714, 715, 716, 717, 718, 719, 720, 721, 722, 723, 724, 725, 726, 727, 728, 729, 730, 731, 732, 733, 734, 735, 736, 737, 738, 739, 740, 741, 742, 743, 744, 745, 746, 747, 748, 749, 750, 751, 752, 753, 754, 755, 756, 757, 758, 759, 760, 761, 762, 763, 764, 765, 766, 767, 768, 769, 770, 771, 772, 773, 774, 775, 776, 777, 778, 779, 780, 781, 782, 783, 784, 785, 786, 787, 788, 789, 790, 791, 792, 793, 794, 795, 796, 797, 798, 799, 800, 801, 802, 803, 804, 805, 806, 807, 808, 809, 810, 811, 812, 813, 814, 815, 816, 817, 818, 819, 820, 821, 822, 823, 824, 825, 826, 827, 828, 829, 830, 831, 832, 833, 834, 835, 836, 837, 838, 839, 840, 841, 842, 843, 844, 845, 846, 847, 848, 849, 850, 851, 852, 853, 854, 855, 856, 857, 858, 859, 860, 861, 862, 863, 864, 865, 866, 867, 868, 869, 870, 871, 872],
      "AcquisitionTime": ["144009.642500", "144010.102500", "144010.562500", "144011.022500", "144011.482500", "144011.942500", "144012.402500", "144012.862500", "144013.322500", "144013.782500", "144014.242500", "144014.702500", "144015.162500", "144015.622500", "144016.082500", "144016.542500", "144017.002500", "144017.462500", "144017.922500", "144018.382500", "144018.842500", "144019.302500", "144019.762500", "144020.222500", "144020.682500", "144021.142500", "144021.602500", "144022.062500", "144022.522500", "144022.982500", "144023.442500", "144023.902500", "144024.362500", "144024.822500", "144025.282500", "144025.742500", "144026.202500", "144026.662500", "144027.122500", "144027.582500", "144028.042500", "144028.502500", "144028.962500", "144029.422500", "144029.882500", "144030.342500", "144030.802500", "144031.262500", "144031.722500", "144032.182500", "144032.642500", "144033.102500", "144033.562500", "144034.022500", "144034.482500", "144034.942500", "144035.402500", "144035.862500", "144036.322500", "144036.782500", "144037.242500", "144037.702500", "144038.162500", "144038.622500", "144039.082500", "144039.542500", "144040.002500", "144040.462500", "144040.922500", "144041.382500", "144041.842500", "144042.302500", "144042.762500", "144043.222500", "144043.682500", "144044.142500", "144044.602500", "144045.062500", "144045.522500", "144045.982500", "144046.442500", "144046.902500", "144047.362500", "144047.822500", "144048.282500", "144048.742500", "144049.202500", "144049.662500", "144050.122500", "144050.582500", "144051.042500", "144051.502500", "144051.962500", "144052.422500", "144052.882500", "144053.342500", "144053.802500", "144054.262500", "144054.722500", "144055.182500", "144055.642500", "144056.102500", "144056.562500", "144057.022500", "144057.482500", "144057.942500", "144058.402500", "144058.862500", "144059.322500", "144059.782500", "144100.242500", "144100.702500", "144101.162500", "144101.622500", "144102.082500", "144102.542500", "144103.002500", "144103.462500", "144103.922500", "144104.382500", "144104.842500", "144105.302500", "144105.762500", "144106.222500", "144106.682500", "144107.142500", "144107.602500", "144108.062500", "144108.522500", "144108.982500", "144109.442500", "144109.902500", "144110.362500", "144110.822500", "144111.282500", "144111.742500", "144112.202500", "144112.662500", "144113.122500", "144113.582500", "144114.042500", "144114.502500", "144114.962500", "144115.422500", "144115.882500", "144116.342500", "144116.802500", "144117.262500", "144117.722500", "144118.182500", "144118.642500", "144119.102500", "144119.562500", "144120.022500", "144120.482500", "144120.942500", "144121.402500", "144121.862500", "144122.322500", "144122.782500", "144123.242500", "144123.702500", "144124.162500", "144124.622500", "144125.082500", "144125.542500", "144126.002500", "144126.462500", "144126.922500", "144127.382500", "144127.842500", "144128.302500", "144128.762500", "144129.222500", "144129.682500", "144130.142500", "144130.602500", "144131.062500", "144131.522500", "144131.982500", "144132.442500", "144132.902500", "144133.362500", "144133.822500", "144134.282500", "144134.742500", "144135.202500", "144135.662500", "144136.122500", "144136.582500", "144137.042500", "144137.502500", "144137.962500", "144138.422500", "144138.882500", "144139.342500", "144139.802500", "144140.262500", "144140.722500", "144141.182500", "144141.642500", "144142.102500", "144142.562500", "144143.022500", "144143.482500", "144143.942500", "144144.402500", "144144.862500", "144145.322500", "144145.782500", "144146.242500", "144146.702500", "144147.162500", "144147.622500", "144148.082500", "144148.542500", "144149.002500", "144149.462500", "144149.922500", "144150.382500", "144150.842500", "144151.302500", "144151.762500", "144152.222500", "144152.682500", "144153.142500", "144153.602500", "144154.062500", "144154.522500", "144154.982500", "144155.442500", "144155.902500", "144156.362500", "144156.822500", "144157.282500", "144157.742500", "144158.202500", "144158.662500", "144159.122500", "144159.582500", "144200.042500", "144200.502500", "144200.962500", "144201.422500", "144201.882500", "144202.342500", "144202.802500", "144203.262500", "144203.722500", "144204.182500", "144204.642500", "144205.102500", "144205.562500", "144206.022500", "144206.482500", "144206.942500", "144207.402500", "144207.862500", "144208.322500", "144208.782500", "144209.242500", "144209.702500", "144210.162500", "144210.622500", "144211.082500", "144211.542500", "144212.002500", "144212.462500", "144212.922500", "144213.382500", "144213.842500", "144214.302500", "144214.762500", "144215.222500", "144215.682500", "144216.142500", "144216.602500", "144217.062500", "144217.522500", "144217.982500", "144218.442500", "144218.902500", "144219.362500", "144219.822500", "144220.282500", "144220.742500", "144221.202500", "144221.662500", "144222.122500", "144222.582500", "144223.042500", "144223.502500", "144223.962500", "144224.422500", "144224.882500", "144225.342500", "144225.802500", "144226.262500", "144226.722500", "144227.182500", "144227.642500", "144228.102500", "144228.562500", "144229.022500", "144229.482500", "144229.942500", "144230.402500", "144230.862500", "144231.322500", "144231.782500", "144232.242500", "144232.702500", "144233.162500", "144233.622500", "144234.082500", "144234.542500", "144235.002500", "144235.462500", "144235.922500", "144236.382500", "144236.842500", "144237.302500", "144237.762500", "144238.222500", "144238.682500", "144239.142500", "144239.602500", "144240.062500", "144240.522500", "144240.982500", "144241.442500", "144241.902500", "144242.362500", "144242.822500", "144243.282500", "144243.742500", "144244.202500", "144244.662500", "144245.122500", "144245.582500", "144246.042500", "144246.502500", "144246.962500", "144247.422500", "144247.882500", "144248.342500", "144248.802500", "144249.262500", "144249.722500", "144250.182500", "144250.642500", "144251.102500", "144251.562500", "144252.022500", "144252.482500", "144252.942500", "144253.402500", "144253.862500", "144254.322500", "144254.782500", "144255.242500", "144255.702500", "144256.162500", "144256.622500", "144257.082500", "144257.542500", "144258.002500", "144258.462500", "144258.922500", "144259.382500", "144259.842500", "144300.302500", "144300.762500", "144301.222500", "144301.682500", "144302.142500", "144302.602500", "144303.062500", "144303.522500", "144303.982500", "144304.442500", "144304.902500", "144305.362500", "144305.822500", "144306.282500", "144306.742500", "144307.202500", "144307.662500", "144308.122500", "144308.582500", "144309.042500", "144309.502500", "144309.962500", "144310.422500", "144310.882500", "144311.342500", "144311.802500", "144312.262500", "144312.722500", "144313.182500", "144313.642500", "144314.102500", "144314.562500", "144315.022500", "144315.482500", "144315.942500", "144316.402500", "144316.862500", "144317.322500", "144317.782500", "144318.242500", "144318.702500", "144319.162500", "144319.622500", "144320.082500", "144320.542500", "144321.002500", "144321.462500", "144321.922500", "144322.382500", "144322.842500", "144323.302500", "144323.762500", "144324.222500", "144324.682500", "144325.142500", "144325.602500", "144326.062500", "144326.522500", "144326.982500", "144327.442500", "144327.902500", "144328.362500", "144328.822500", "144329.282500", "144329.742500", "144330.202500", "144330.662500", "144331.122500", "144331.582500", "144332.042500", "144332.502500", "144332.962500", "144333.422500", "144333.882500", "144334.342500", "144334.802500", "144335.262500", "144335.722500", "144336.182500", "144336.642500", "144337.102500", "144337.562500", "144338.022500", "144338.482500", "144338.942500", "144339.402500", "144339.862500", "144340.322500", "144340.782500", "144341.242500", "144341.702500", "144342.162500", "144342.622500", "144343.082500", "144343.542500", "144344.002500", "144344.462500", "144344.922500", "144345.382500", "144345.842500", "144346.302500", "144346.762500", "144347.222500", "144347.682500", "144348.142500", "144348.602500", "144349.062500", "144349.522500", "144349.982500", "144350.442500", "144350.902500", "144351.362500", "144351.822500", "144352.282500", "144352.742500", "144353.202500", "144353.662500", "144354.122500", "144354.582500", "144355.042500", "144355.502500", "144355.962500", "144356.422500", "144356.882500", "144357.342500", "144357.802500", "144358.262500", "144358.722500", "144359.182500", "144359.642500", "144400.102500", "144400.562500", "144401.022500", "144401.482500", "144401.942500", "144402.402500", "144402.862500", "144403.322500", "144403.782500", "144404.242500", "144404.702500", "144405.162500", "144405.622500", "144406.082500", "144406.542500", "144407.002500", "144407.462500", "144407.922500", "144408.382500", "144408.842500", "144409.302500", "144409.762500", "144410.222500", "144410.682500", "144411.142500", "144411.602500", "144412.062500", "144412.522500", "144412.982500", "144413.442500", "144413.902500", "144414.362500", "144414.822500", "144415.282500", "144415.742500", "144416.202500", "144416.662500", "144417.122500", "144417.582500", "144418.042500", "144418.502500", "144418.962500", "144419.422500", "144419.882500", "144420.342500", "144420.802500", "144421.262500", "144421.722500", "144422.182500", "144422.642500", "144423.102500", "144423.562500", "144424.022500", "144424.482500", "144424.942500", "144425.402500", "144425.862500", "144426.322500", "144426.782500", "144427.242500", "144427.702500", "144428.162500", "144428.622500", "144429.082500", "144429.542500", "144430.002500", "144430.462500", "144430.922500", "144431.382500", "144431.842500", "144432.302500", "144432.762500", "144433.222500", "144433.682500", "144434.142500", "144434.602500", "144435.062500", "144435.522500", "144435.982500", "144436.442500", "144436.902500", "144437.362500", "144437.822500", "144438.282500", "144438.742500", "144439.202500", "144439.662500", "144440.122500", "144440.582500", "144441.042500", "144441.502500", "144441.962500", "144442.422500", "144442.882500", "144443.342500", "144443.802500", "144444.262500", "144444.722500", "144445.182500", "144445.642500", "144446.102500", "144446.562500", "144447.022500", "144447.482500", "144447.942500", "144448.402500", "144448.862500", "144449.322500", "144449.782500", "144450.242500", "144450.702500", "144451.162500", "144451.622500", "144452.082500", "144452.542500", "144453.002500", "144453.462500", "144453.922500", "144454.382500", "144454.842500", "144455.302500", "144455.762500", "144456.222500", "144456.682500", "144457.142500", "144457.602500", "144458.062500", "144458.522500", "144458.982500", "144459.442500", "144459.902500", "144500.362500", "144500.822500", "144501.282500", "144501.742500", "144502.202500", "144502.662500", "144503.122500", "144503.582500", "144504.042500", "144504.502500", "144504.962500", "144505.422500", "144505.882500", "144506.342500", "144506.802500", "144507.262500", "144507.722500", "144508.182500", "144508.642500", "144509.102500", "144509.562500", "144510.022500", "144510.482500", "144510.942500", "144511.402500", "144511.862500", "144512.322500", "144512.782500", "144513.242500", "144513.702500", "144514.162500", "144514.622500", "144515.082500", "144515.542500", "144516.002500", "144516.462500", "144516.922500", "144517.382500", "144517.842500", "144518.302500", "144518.762500", "144519.222500", "144519.682500", "144520.142500", "144520.602500", "144521.062500", "144521.522500", "144521.982500", "144522.442500", "144522.902500", "144523.362500", "144523.822500", "144524.282500", "144524.742500", "144525.202500", "144525.662500", "144526.122500", "144526.582500", "144527.042500", "144527.502500", "144527.962500", "144528.422500", "144528.882500", "144529.342500", "144529.802500", "144530.262500", "144530.722500", "144531.182500", "144531.642500", "144532.102500", "144532.562500", "144533.022500", "144533.482500", "144533.942500", "144534.402500", "144534.862500", "144535.322500", "144535.782500", "144536.242500", "144536.702500", "144537.162500", "144537.622500", "144538.082500", "144538.542500", "144539.002500", "144539.462500", "144539.922500", "144540.382500", "144540.842500", "144541.302500", "144541.762500", "144542.222500", "144542.682500", "144543.142500", "144543.602500", "144544.062500", "144544.522500", "144544.982500", "144545.442500", "144545.902500", "144546.362500", "144546.822500", "144547.282500", "144547.742500", "144548.202500", "144548.662500", "144549.122500", "144549.582500", "144550.042500", "144550.502500", "144550.962500", "144551.422500", "144551.882500", "144552.342500", "144552.802500", "144553.262500", "144553.722500", "144554.182500", "144554.642500", "144555.102500", "144555.562500", "144556.022500", "144556.482500", "144556.942500", "144557.402500", "144557.862500", "144558.322500", "144558.782500", "144559.242500", "144559.702500", "144600.162500", "144600.622500", "144601.082500", "144601.542500", "144602.002500", "144602.462500", "144602.922500", "144603.382500", "144603.842500", "144604.302500", "144604.762500", "144605.222500", "144605.682500", "144606.142500", "144606.602500", "144607.062500", "144607.522500", "144607.982500", "144608.442500", "144608.902500", "144609.362500", "144609.822500", "144610.282500", "144610.742500", "144611.202500", "144611.662500", "144612.122500", "144612.582500", "144613.042500", "144613.502500", "144613.962500", "144614.422500", "144614.882500", "144615.342500", "144615.802500", "144616.262500", "144616.722500", "144617.182500", "144617.642500", "144618.102500", "144618.562500", "144619.022500", "144619.482500", "144619.942500", "144620.402500", "144620.862500", "144621.322500", "144621.782500", "144622.242500", "144622.702500", "144623.162500", "144623.622500", "144624.082500", "144624.542500", "144625.002500", "144625.462500", "144625.922500", "144626.382500", "144626.842500", "144627.302500", "144627.762500", "144628.222500", "144628.682500", "144629.142500", "144629.602500", "144630.062500", "144630.522500", "144630.982500", "144631.442500", "144631.902500", "144632.362500", "144632.822500", "144633.282500", "144633.742500", "144634.202500", "144634.662500", "144635.122500", "144635.582500", "144636.042500", "144636.502500", "144636.962500", "144637.422500", "144637.882500", "144638.342500", "144638.802500", "144639.262500", "144639.722500", "144640.182500", "144640.642500", "144641.102500", "144641.562500", "144642.022500", "144642.482500", "144642.942500", "144643.402500", "144643.862500", "144644.322500", "144644.782500", "144645.242500", "144645.702500", "144646.162500", "144646.622500", "144647.082500", "144647.542500", "144648.002500", "144648.462500", "144648.922500", "144649.382500", "144649.842500", "144650.302500"],
