{
  "AcquisitionMatrixPE": 82,
  "AcquisitionNumber": 1,
  "AcquisitionTime": "15:31:11.075000",
  "BandwidthPerPixelPhaseEncode": 24.888,
  "BaseResolution": 82,
  "BodyPartExamined": "BRAIN",
  "ConsistencyInfo": "N4_VE11E_LATEST_20181129",
  "ConversionSoftware": "dcm2niix",
  "ConversionSoftwareVersion": "v1.0.20201102",
  "DerivedVendorReportedEchoSpacing": 0.00049,
  "DeviceSerialNumber": "66112",
  "DwellTime": 2e-06,
  "EchoTime": 0.0272,
  "EchoTrainLength": 82,
  "EffectiveEchoSpacing": 0.00049,
  "FlipAngle": 44,
  "ImageComments": "Unaliased MB8/PE3",
  "ImageOrientationPatientDICOM": [1, 0, 0, 0, 1, 0],
  "ImageType": [
    "ORIGINAL",
    "PRIMARY",
    "M",
    "MB",
    "ND",
    "NORM",
    "MOSAIC"
],
  "ImagingFrequency": 123.252,
  "InPlanePhaseEncodingDirectionDICOM": "COL",
  "InstitutionAddress": "Maynard 3,Hanover,NH,US,03755",
  "InstitutionName": "Dartmouth College - PBS",
  "InstitutionalDepartmentName": "Department",
  "MRAcquisitionType": "2D",
  "MagneticFieldStrength": 3,
  "Manufacturer": "Siemens",
  "ManufacturersModelName": "Prisma",
  "Modality": "MR",
  "MultibandAccelerationFactor": 8,
  "PartialFourier": 1,
  "PatientPosition": "HFS",
  "PercentPhaseFOV": 100,
  "PercentSampling": 100,
  "PhaseEncodingDirection": "j-",
  "PhaseEncodingSteps": 82,
  "PhaseResolution": 1,
  "PixelBandwidth": 3050,
  "ProcedureStepDescription": "Wager_Wager^1076_spacetop",
  "ProtocolName": "func_run-03_task-alignvideo_acq-ap-mb8",
  "PulseSequenceDetails": "%CustomerSeq%\\cmrr_mbep2d_bold",
  "ReceiveCoilActiveElements": "HEA;HEP",
  "ReceiveCoilName": "Head_32",
  "ReconMatrixPE": 82,
  "RepetitionTime": 0.46,
  "SAR": 0.0842219,
  "ScanOptions": "FS",
  "ScanningSequence": "EP",
  "SequenceName": "epfid2d1_82",
  "SequenceVariant": "SK\\SS",
  "SeriesDescription": "func_run-03_task-alignvideo_acq-ap-mb8",
  "SeriesNumber": 30,
  "ShimSetting": [4166, -7685, -7300, 425, -80, -60, 34, 34],
  "SliceThickness": 2.7,
  "SliceTiming": [0, 0.25, 0.0625, 0.3125, 0.125, 0.375, 0.1875, 0, 0.25, 0.0625, 0.3125, 0.125, 0.375, 0.1875, 0, 0.25, 0.0625, 0.3125, 0.125, 0.375, 0.1875, 0, 0.25, 0.0625, 0.3125, 0.125, 0.375, 0.1875, 0, 0.25, 0.0625, 0.3125, 0.125, 0.375, 0.1875, 0, 0.25, 0.0625, 0.3125, 0.125, 0.375, 0.1875, 0, 0.25, 0.0625, 0.3125, 0.125, 0.375, 0.1875, 0, 0.25, 0.0625, 0.3125, 0.125, 0.375, 0.1875],
  "SoftwareVersions": "syngo MR E11",
  "SpacingBetweenSlices": 2.7,
  "StationName": "AWP66112",
  "TaskName": "alignvideo",
  "TotalReadoutTime": 0.03969,
  "TxRefAmp": 230.02,
  "WipMemBlock": "eda77ad7-cfeb-4a54-bd29-c7a70ae7491b||Sequence: R016 ve11e/master r/434b28f1; Aug  7 2019 18:53:46 by eja",
  "dcmmeta_affine": [
    [-2.682926893234253, 0.0, 0.0, 110.0],
    [0.0, 2.682926893234253, 0.0, -74.03707885742188],
    [0.0, 0.0, 2.700000047683716, -94.09000396728516],
    [0.0, 0.0, 0.0, 1.0]
],
  "dcmmeta_reorient_transform": [
    [0.0, -1.0, 0.0, 81.0],
    [1.0, 0.0, 0.0, 0.0],
    [0.0, 0.0, 1.0, 0.0],
    [0.0, 0.0, 0.0, 1.0]
],
  "dcmmeta_shape": [82, 82, 56, 1016],
  "dcmmeta_slice_dim": 2,
  "dcmmeta_version": 0.6,
  "global": {
    "const": {
      "AccessionNumber": "A004004",
      "AcquisitionMatrix": [82, 0, 0, 82],
      "AngioFlag": "N",
      "BitsAllocated": 16,
      "BitsStored": 16,
      "BodyPartExamined": "BRAIN",
      "Columns": 656,
      "EchoNumbers": 1,
      "EchoTime": 27.2,
      "EchoTrainLength": 82,
      "FlipAngle": 44.0,
      "HighBit": 15,
      "ImageOrientationPatient": [1.0, 0.0, 0.0, 0.0, 1.0, 0.0],
      "ImagePositionPatient": [-880.00002098083, -913.28001976013, -94.090003967285],
      "ImageType": [
        "ORIGINAL",
        "PRIMARY",
        "M",
        "MB",
        "ND",
        "NORM",
        "MOSAIC"
],
      "ImagedNucleus": "1H",
      "ImagingFrequency": 123.252253,
      "InPlanePhaseEncodingDirection": "COL",
      "MRAcquisitionType": "2D",
      "MagneticFieldStrength": 3.0,
      "Manufacturer": "SIEMENS",
      "ManufacturerModelName": "Prisma",
      "Modality": "MR",
      "NumberOfAverages": 1.0,
      "NumberOfPhaseEncodingSteps": 82,
      "PercentPhaseFieldOfView": 100.0,
      "PercentSampling": 100.0,
      "PerformedProcedureStepStartTime": "132337.871000",
      "PhotometricInterpretation": "MONOCHROME2",
      "PixelBandwidth": 3050.0,
      "PixelRepresentation": 0,
      "PixelSpacing": [2.6829268932343, 2.6829268932343],
      "ProtocolName": "func_run-03_task-alignvideo_acq-ap-mb8",
      "RepetitionTime": 460.0,
      "Rows": 656,
      "SAR": 0.08422189024613,
      "SamplesPerPixel": 1,
      "ScanOptions": "FS",
      "ScanningSequence": "EP",
      "SequenceName": "epfid2d1_82",
      "SequenceVariant": [
        "SK",
        "SS"
],
      "SeriesDescription": "func_run-03_task-alignvideo_acq-ap-mb8",
      "SeriesNumber": 30,
      "SeriesTime": "153128.582000",
      "SliceLocation": -94.090003967285,
      "SliceThickness": 2.7000000476837,
      "SmallestImagePixelValue": 0,
      "SoftwareVersions": "syngo MR E11",
      "SpacingBetweenSlices": 2.7000000693581,
      "SpecificCharacterSet": "ISO_IR 100",
      "StudyID": "1",
      "StudyTime": "132337.800000",
      "TransmitCoilName": "Body",
      "VariableFlipAngleFlag": "N",
      "WindowCenterWidthExplanation": "Algo1"
    },
    "slices": {}
  },
  "time": {
    "samples": {
      "AcquisitionNumber": [1, 2, 3, 4, 5, 6, 7, 8, 9, 10, 11, 12, 13, 14, 15, 16, 17, 18, 19, 20, 21, 22, 23, 24, 25, 26, 27, 28, 29, 30, 31, 32, 33, 34, 35, 36, 37, 38, 39, 40, 41, 42, 43, 44, 45, 46, 47, 48, 49, 50, 51, 52, 53, 54, 55, 56, 57, 58, 59, 60, 61, 62, 63, 64, 65, 66, 67, 68, 69, 70, 71, 72, 73, 74, 75, 76, 77, 78, 79, 80, 81, 82, 83, 84, 85, 86, 87, 88, 89, 90, 91, 92, 93, 94, 95, 96, 97, 98, 99, 100, 101, 102, 103, 104, 105, 106, 107, 108, 109, 110, 111, 112, 113, 114, 115, 116, 117, 118, 119, 120, 121, 122, 123, 124, 125, 126, 127, 128, 129, 130, 131, 132, 133, 134, 135, 136, 137, 138, 139, 140, 141, 142, 143, 144, 145, 146, 147, 148, 149, 150, 151, 152, 153, 154, 155, 156, 157, 158, 159, 160, 161, 162, 163, 164, 165, 166, 167, 168, 169, 170, 171, 172, 173, 174, 175, 176, 177, 178, 179, 180, 181, 182, 183, 184, 185, 186, 187, 188, 189, 190, 191, 192, 193, 194, 195, 196, 197, 198, 199, 200, 201, 202, 203, 204, 205, 206, 207, 208, 209, 210, 211, 212, 213, 214, 215, 216, 217, 218, 219, 220, 221, 222, 223, 224, 225, 226, 227, 228, 229, 230, 231, 232, 233, 234, 235, 236, 237, 238, 239, 240, 241, 242, 243, 244, 245, 246, 247, 248, 249, 250, 251, 252, 253, 254, 255, 256, 257, 258, 259, 260, 261, 262, 263, 264, 265, 266, 267, 268, 269, 270, 271, 272, 273, 274, 275, 276, 277, 278, 279, 280, 281, 282, 283, 284, 285, 286, 287, 288, 289, 290, 291, 292, 293, 294, 295, 296, 297, 298, 299, 300, 301, 302, 303, 304, 305, 306, 307, 308, 309, 310, 311, 312, 313, 314, 315, 316, 317, 318, 319, 320, 321, 322, 323, 324, 325, 326, 327, 328, 329, 330, 331, 332, 333, 334, 335, 336, 337, 338, 339, 340, 341, 342, 343, 344, 345, 346, 347, 348, 349, 350, 351, 352, 353, 354, 355, 356, 357, 358, 359, 360, 361, 362, 363, 364, 365, 366, 367, 368, 369, 370, 371, 372, 373, 374, 375, 376, 377, 378, 379, 380, 381, 382, 383, 384, 385, 386, 387, 388, 389, 390, 391, 392, 393, 394, 395, 396, 397, 398, 399, 400, 401, 402, 403, 404, 405, 406, 407, 408, 409, 410, 411, 412, 413, 414, 415, 416, 417, 418, 419, 420, 421, 422, 423, 424, 425, 426, 427, 428, 429, 430, 431, 432, 433, 434, 435, 436, 437, 438, 439, 440, 441, 442, 443, 444, 445, 446, 447, 448, 449, 450, 451, 452, 453, 454, 455, 456, 457, 458, 459, 460, 461, 462, 463, 464, 465, 466, 467, 468, 469, 470, 471, 472, 473, 474, 475, 476, 477, 478, 479, 480, 481, 482, 483, 484, 485, 486, 487, 488, 489, 490, 491, 492, 493, 494, 495, 496, 497, 498, 499, 500, 501, 502, 503, 504, 505, 506, 507, 508, 509, 510, 511, 512, 513, 514, 515, 516, 517, 518, 519, 520, 521, 522, 523, 524, 525, 526, 527, 528, 529, 530, 531, 532, 533, 534, 535, 536, 537, 538, 539, 540, 541, 542, 543, 544, 545, 546, 547, 548, 549, 550, 551, 552, 553, 554, 555, 556, 557, 558, 559, 560, 561, 562, 563, 564, 565, 566, 567, 568, 569, 570, 571, 572, 573, 574, 575, 576, 577, 578, 579, 580, 581, 582, 583, 584, 585, 586, 587, 588, 589, 590, 591, 592, 593, 594, 595, 596, 597, 598, 599, 600, 601, 602, 603, 604, 605, 606, 607, 608, 609, 610, 611, 612, 613, 614, 615, 616, 617, 618, 619, 620, 621, 622, 623, 624, 625, 626, 627, 628, 629, 630, 631, 632, 633, 634, 635, 636, 637, 638, 639, 640, 641, 642, 643, 644, 645, 646, 647, 648, 649, 650, 651, 652, 653, 654, 655, 656, 657, 658, 659, 660, 661, 662, 663, 664, 665, 666, 667, 668, 669, 670, 671, 672, 673, 674, 675, 676, 677, 678, 679, 680, 681, 682, 683, 684, 685, 686, 687, 688, 689, 690, 691, 692, 693, 694, 695, 696, 697, 698, 699, 700, 701, 702, 703, 704, 705, 706, 707, 708, 709, 710, 711, 712, 713, 714, 715, 716, 717, 718, 719, 720, 721, 722, 723, 724, 725, 726, 727, 728, 729, 730, 731, 732, 733, 734, 735, 736, 737, 738, 739, 740, 741, 742, 743, 744, 745, 746, 747, 748, 749, 750, 751, 752, 753, 754, 755, 756, 757, 758, 759, 760, 761, 762, 763, 764, 765, 766, 767, 768, 769, 770, 771, 772, 773, 774, 775, 776, 777, 778, 779, 780, 781, 782, 783, 784, 785, 786, 787, 788, 789, 790, 791, 792, 793, 794, 795, 796, 797, 798, 799, 800, 801, 802, 803, 804, 805, 806, 807, 808, 809, 810, 811, 812, 813, 814, 815, 816, 817, 818, 819, 820, 821, 822, 823, 824, 825, 826, 827, 828, 829, 830, 831, 832, 833, 834, 835, 836, 837, 838, 839, 840, 841, 842, 843, 844, 845, 846, 847, 848, 849, 850, 851, 852, 853, 854, 855, 856, 857, 858, 859, 860, 861, 862, 863, 864, 865, 866, 867, 868, 869, 870, 871, 872, 873, 874, 875, 876, 877, 878, 879, 880, 881, 882, 883, 884, 885, 886, 887, 888, 889, 890, 891, 892, 893, 894, 895, 896, 897, 898, 899, 900, 901, 902, 903, 904, 905, 906, 907, 908, 909, 910, 911, 912, 913, 914, 915, 916, 917, 918, 919, 920, 921, 922, 923, 924, 925, 926, 927, 928, 929, 930, 931, 932, 933, 934, 935, 936, 937, 938, 939, 940, 941, 942, 943, 944, 945, 946, 947, 948, 949, 950, 951, 952, 953, 954, 955, 956, 957, 958, 959, 960, 961, 962, 963, 964, 965, 966, 967, 968, 969, 970, 971, 972, 973, 974, 975, 976, 977, 978, 979, 980, 981, 982, 983, 984, 985, 986, 987, 988, 989, 990, 991, 992, 993, 994, 995, 996, 997, 998, 999, 1000, 1001, 1002, 1003, 1004, 1005, 1006, 1007, 1008, 1009, 1010, 1011, 1012, 1013, 1014, 1015, 1016],
      "AcquisitionTime": ["153111.075000", "153111.535000", "153111.995000", "153112.455000", "153112.915000", "153113.375000", "153113.835000", "153114.295000", "153114.755000", "153115.215000", "153115.675000", "153116.135000", "153116.595000", "153117.055000", "153117.515000", "153117.975000", "153118.435000", "153118.895000", "153119.355000", "153119.815000", "153120.275000", "153120.735000", "153121.195000", "153121.655000", "153122.115000", "153122.575000", "153123.035000", "153123.495000", "153123.955000", "153124.415000", "153124.875000", "153125.335000", "153125.795000", "153126.255000", "153126.715000", "153127.175000", "153127.635000", "153128.095000", "153128.555000", "153129.015000", "153129.475000", "153129.935000", "153130.395000", "153130.855000", "153131.315000", "153131.775000", "153132.235000", "153132.695000", "153133.155000", "153133.615000", "153134.075000", "153134.535000", "153134.995000", "153135.455000", "153135.915000", "153136.375000", "153136.835000", "153137.295000", "153137.755000", "153138.215000", "153138.675000", "153139.135000", "153139.595000", "153140.055000", "153140.515000", "153140.975000", "153141.435000", "153141.895000", "153142.355000", "153142.815000", "153143.275000", "153143.735000", "153144.195000", "153144.655000", "153145.115000", "153145.575000", "153146.035000", "153146.495000", "153146.955000", "153147.415000", "153147.875000", "153148.335000", "153148.795000", "153149.255000", "153149.715000", "153150.175000", "153150.635000", "153151.095000", "153151.555000", "153152.015000", "153152.475000", "153152.935000", "153153.395000", "153153.855000", "153154.315000", "153154.775000", "153155.235000", "153155.695000", "153156.155000", "153156.615000", "153157.075000", "153157.535000", "153157.995000", "153158.455000", "153158.915000", "153159.375000", "153159.835000", "153200.295000", "153200.755000", "153201.215000", "153201.675000", "153202.135000", "153202.595000", "153203.055000", "153203.515000", "153203.975000", "153204.435000", "153204.895000", "153205.355000", "153205.815000", "153206.275000", "153206.735000", "153207.195000", "153207.655000", "153208.115000", "153208.575000", "153209.035000", "153209.495000", "153209.955000", "153210.415000", "153210.875000", "153211.335000", "153211.795000", "153212.255000", "153212.715000", "153213.175000", "153213.635000", "153214.095000", "153214.555000", "153215.015000", "153215.475000", "153215.935000", "153216.395000", "153216.855000", "153217.315000", "153217.775000", "153218.235000", "153218.695000", "153219.155000", "153219.615000", "153220.075000", "153220.535000", "153220.995000", "153221.455000", "153221.915000", "153222.375000", "153222.835000", "153223.295000", "153223.755000", "153224.215000", "153224.675000", "153225.135000", "153225.595000", "153226.055000", "153226.515000", "153226.975000", "153227.435000", "153227.895000", "153228.355000", "153228.815000", "153229.275000", "153229.735000", "153230.195000", "153230.655000", "153231.115000", "153231.575000", "153232.035000", "153232.495000", "153232.955000", "153233.415000", "153233.875000", "153234.335000", "153234.795000", "153235.255000", "153235.715000", "153236.175000", "153236.635000", "153237.095000", "153237.555000", "153238.015000", "153238.475000", "153238.935000", "153239.395000", "153239.855000", "153240.315000", "153240.775000", "153241.235000", "153241.695000", "153242.155000", "153242.615000", "153243.075000", "153243.535000", "153243.995000", "153244.455000", "153244.915000", "153245.375000", "153245.835000", "153246.295000", "153246.755000", "153247.215000", "153247.675000", "153248.135000", "153248.595000", "153249.055000", "153249.515000", "153249.975000", "153250.435000", "153250.895000", "153251.355000", "153251.815000", "153252.275000", "153252.735000", "153253.195000", "153253.655000", "153254.115000", "153254.575000", "153255.035000", "153255.495000", "153255.955000", "153256.415000", "153256.875000", "153257.335000", "153257.795000", "153258.255000", "153258.715000", "153259.175000", "153259.635000", "153300.095000", "153300.555000", "153301.015000", "153301.475000", "153301.935000", "153302.395000", "153302.855000", "153303.315000", "153303.775000", "153304.235000", "153304.695000", "153305.155000", "153305.615000", "153306.075000", "153306.535000", "153306.995000", "153307.455000", "153307.915000", "153308.375000", "153308.835000", "153309.295000", "153309.755000", "153310.215000", "153310.675000", "153311.135000", "153311.595000", "153312.055000", "153312.515000", "153312.975000", "153313.435000", "153313.895000", "153314.355000", "153314.815000", "153315.275000", "153315.735000", "153316.195000", "153316.655000", "153317.115000", "153317.575000", "153318.035000", "153318.495000", "153318.955000", "153319.415000", "153319.875000", "153320.335000", "153320.795000", "153321.255000", "153321.715000", "153322.175000", "153322.635000", "153323.095000", "153323.555000", "153324.015000", "153324.475000", "153324.935000", "153325.395000", "153325.855000", "153326.315000", "153326.775000", "153327.235000", "153327.695000", "153328.155000", "153328.615000", "153329.075000", "153329.535000", "153329.995000", "153330.455000", "153330.915000", "153331.375000", "153331.835000", "153332.295000", "153332.755000", "153333.215000", "153333.675000", "153334.135000", "153334.595000", "153335.055000", "153335.515000", "153335.975000", "153336.435000", "153336.895000", "153337.355000", "153337.815000", "153338.275000", "153338.735000", "153339.195000", "153339.655000", "153340.115000", "153340.575000", "153341.035000", "153341.495000", "153341.955000", "153342.415000", "153342.875000", "153343.335000", "153343.795000", "153344.255000", "153344.715000", "153345.175000", "153345.635000", "153346.095000", "153346.555000", "153347.015000", "153347.475000", "153347.935000", "153348.395000", "153348.855000", "153349.315000", "153349.775000", "153350.235000", "153350.695000", "153351.155000", "153351.615000", "153352.075000", "153352.535000", "153352.995000", "153353.455000", "153353.915000", "153354.375000", "153354.835000", "153355.295000", "153355.755000", "153356.215000", "153356.675000", "153357.135000", "153357.595000", "153358.055000", "153358.515000", "153358.975000", "153359.435000", "153359.895000", "153400.355000", "153400.815000", "153401.275000", "153401.735000", "153402.195000", "153402.655000", "153403.115000", "153403.575000", "153404.035000", "153404.495000", "153404.955000", "153405.415000", "153405.875000", "153406.335000", "153406.795000", "153407.255000", "153407.715000", "153408.175000", "153408.635000", "153409.095000", "153409.555000", "153410.015000", "153410.475000", "153410.935000", "153411.395000", "153411.855000", "153412.315000", "153412.775000", "153413.235000", "153413.695000", "153414.155000", "153414.615000", "153415.075000", "153415.535000", "153415.995000", "153416.455000", "153416.915000", "153417.375000", "153417.835000", "153418.295000", "153418.755000", "153419.215000", "153419.675000", "153420.135000", "153420.595000", "153421.055000", "153421.515000", "153421.975000", "153422.435000", "153422.895000", "153423.355000", "153423.815000", "153424.275000", "153424.735000", "153425.195000", "153425.655000", "153426.115000", "153426.575000", "153427.035000", "153427.495000", "153427.955000", "153428.415000", "153428.875000", "153429.335000", "153429.795000", "153430.255000", "153430.715000", "153431.175000", "153431.635000", "153432.095000", "153432.555000", "153433.015000", "153433.475000", "153433.935000", "153434.395000", "153434.855000", "153435.315000", "153435.775000", "153436.235000", "153436.695000", "153437.155000", "153437.615000", "153438.075000", "153438.535000", "153438.995000", "153439.455000", "153439.915000", "153440.375000", "153440.835000", "153441.295000", "153441.755000", "153442.215000", "153442.675000", "153443.135000", "153443.595000", "153444.055000", "153444.515000", "153444.975000", "153445.435000", "153445.895000", "153446.355000", "153446.815000", "153447.275000", "153447.735000", "153448.195000", "153448.655000", "153449.115000", "153449.575000", "153450.035000", "153450.495000", "153450.955000", "153451.415000", "153451.875000", "153452.335000", "153452.795000", "153453.255000", "153453.715000", "153454.175000", "153454.635000", "153455.095000", "153455.555000", "153456.015000", "153456.475000", "153456.935000", "153457.395000", "153457.855000", "153458.315000", "153458.775000", "153459.235000", "153459.695000", "153500.155000", "153500.615000", "153501.075000", "153501.535000", "153501.995000", "153502.455000", "153502.915000", "153503.375000", "153503.835000", "153504.295000", "153504.755000", "153505.215000", "153505.675000", "153506.135000", "153506.595000", "153507.055000", "153507.515000", "153507.975000", "153508.435000", "153508.895000", "153509.355000", "153509.815000", "153510.275000", "153510.735000", "153511.195000", "153511.655000", "153512.115000", "153512.575000", "153513.035000", "153513.495000", "153513.955000", "153514.415000", "153514.875000", "153515.335000", "153515.795000", "153516.255000", "153516.715000", "153517.175000", "153517.635000", "153518.095000", "153518.555000", "153519.015000", "153519.475000", "153519.935000", "153520.395000", "153520.855000", "153521.315000", "153521.775000", "153522.235000", "153522.695000", "153523.155000", "153523.615000", "153524.075000", "153524.535000", "153524.995000", "153525.455000", "153525.915000", "153526.375000", "153526.835000", "153527.295000", "153527.755000", "153528.215000", "153528.675000", "153529.135000", "153529.595000", "153530.055000", "153530.515000", "153530.975000", "153531.435000", "153531.895000", "153532.355000", "153532.815000", "153533.275000", "153533.735000", "153534.195000", "153534.655000", "153535.115000", "153535.575000", "153536.035000", "153536.495000", "153536.955000", "153537.415000", "153537.875000", "153538.335000", "153538.795000", "153539.255000", "153539.715000", "153540.175000", "153540.635000", "153541.095000", "153541.555000", "153542.015000", "153542.475000", "153542.935000", "153543.395000", "153543.855000", "153544.315000", "153544.775000", "153545.235000", "153545.695000", "153546.155000", "153546.615000", "153547.075000", "153547.535000", "153547.995000", "153548.455000", "153548.915000", "153549.375000", "153549.835000", "153550.295000", "153550.755000", "153551.215000", "153551.675000", "153552.135000", "153552.595000", "153553.055000", "153553.515000", "153553.975000", "153554.435000", "153554.895000", "153555.355000", "153555.815000", "153556.275000", "153556.735000", "153557.195000", "153557.655000", "153558.115000", "153558.575000", "153559.035000", "153559.495000", "153559.955000", "153600.415000", "153600.875000", "153601.335000", "153601.795000", "153602.255000", "153602.715000", "153603.175000", "153603.635000", "153604.095000", "153604.555000", "153605.015000", "153605.475000", "153605.935000", "153606.395000", "153606.855000", "153607.315000", "153607.775000", "153608.235000", "153608.695000", "153609.155000", "153609.615000", "153610.075000", "153610.535000", "153610.995000", "153611.455000", "153611.915000", "153612.375000", "153612.835000", "153613.295000", "153613.755000", "153614.215000", "153614.675000", "153615.135000", "153615.595000", "153616.055000", "153616.515000", "153616.975000", "153617.435000", "153617.895000", "153618.355000", "153618.815000", "153619.275000", "153619.735000", "153620.195000", "153620.655000", "153621.115000", "153621.575000", "153622.035000", "153622.495000", "153622.955000", "153623.415000", "153623.875000", "153624.335000", "153624.795000", "153625.255000", "153625.715000", "153626.175000", "153626.635000", "153627.095000", "153627.555000", "153628.015000", "153628.475000", "153628.935000", "153629.395000", "153629.855000", "153630.315000", "153630.775000", "153631.235000", "153631.695000", "153632.155000", "153632.615000", "153633.075000", "153633.535000", "153633.995000", "153634.455000", "153634.915000", "153635.375000", "153635.835000", "153636.295000", "153636.755000", "153637.215000", "153637.675000", "153638.135000", "153638.595000", "153639.055000", "153639.515000", "153639.975000", "153640.435000", "153640.895000", "153641.355000", "153641.815000", "153642.275000", "153642.735000", "153643.195000", "153643.655000", "153644.115000", "153644.575000", "153645.035000", "153645.495000", "153645.955000", "153646.415000", "153646.875000", "153647.335000", "153647.795000", "153648.255000", "153648.715000", "153649.175000", "153649.635000", "153650.095000", "153650.555000", "153651.015000", "153651.475000", "153651.935000", "153652.395000", "153652.855000", "153653.315000", "153653.775000", "153654.235000", "153654.695000", "153655.155000", "153655.615000", "153656.075000", "153656.535000", "153656.995000", "153657.455000", "153657.915000", "153658.375000", "153658.835000", "153659.295000", "153659.755000", "153700.215000", "153700.675000", "153701.135000", "153701.595000", "153702.055000", "153702.515000", "153702.975000", "153703.435000", "153703.895000", "153704.355000", "153704.815000", "153705.275000", "153705.735000", "153706.195000", "153706.655000", "153707.115000", "153707.575000", "153708.035000", "153708.495000", "153708.955000", "153709.415000", "153709.875000", "153710.335000", "153710.795000", "153711.255000", "153711.715000", "153712.175000", "153712.635000", "153713.095000", "153713.555000", "153714.015000", "153714.475000", "153714.935000", "153715.395000", "153715.855000", "153716.315000", "153716.775000", "153717.235000", "153717.695000", "153718.155000", "153718.615000", "153719.075000", "153719.535000", "153719.995000", "153720.455000", "153720.915000", "153721.375000", "153721.835000", "153722.295000", "153722.755000", "153723.215000", "153723.675000", "153724.135000", "153724.595000", "153725.055000", "153725.515000", "153725.975000", "153726.435000", "153726.895000", "153727.355000", "153727.815000", "153728.275000", "153728.735000", "153729.195000", "153729.655000", "153730.115000", "153730.575000", "153731.035000", "153731.495000", "153731.955000", "153732.415000", "153732.875000", "153733.335000", "153733.795000", "153734.255000", "153734.715000", "153735.175000", "153735.635000", "153736.095000", "153736.555000", "153737.015000", "153737.475000", "153737.935000", "153738.395000", "153738.855000", "153739.315000", "153739.775000", "153740.235000", "153740.695000", "153741.155000", "153741.615000", "153742.075000", "153742.535000", "153742.995000", "153743.455000", "153743.915000", "153744.375000", "153744.835000", "153745.295000", "153745.755000", "153746.215000", "153746.675000", "153747.135000", "153747.595000", "153748.055000", "153748.515000", "153748.975000", "153749.435000", "153749.895000", "153750.355000", "153750.815000", "153751.275000", "153751.735000", "153752.195000", "153752.655000", "153753.115000", "153753.575000", "153754.035000", "153754.495000", "153754.955000", "153755.415000", "153755.875000", "153756.335000", "153756.795000", "153757.255000", "153757.715000", "153758.175000", "153758.635000", "153759.095000", "153759.555000", "153800.015000", "153800.475000", "153800.935000", "153801.395000", "153801.855000", "153802.315000", "153802.775000", "153803.235000", "153803.695000", "153804.155000", "153804.615000", "153805.075000", "153805.535000", "153805.995000", "153806.455000", "153806.915000", "153807.375000", "153807.835000", "153808.295000", "153808.755000", "153809.215000", "153809.675000", "153810.135000", "153810.595000", "153811.055000", "153811.515000", "153811.975000", "153812.435000", "153812.895000", "153813.355000", "153813.815000", "153814.275000", "153814.735000", "153815.195000", "153815.655000", "153816.115000", "153816.575000", "153817.035000", "153817.495000", "153817.955000", "153818.415000", "153818.875000", "153819.335000", "153819.795000", "153820.255000", "153820.715000", "153821.175000", "153821.635000", "153822.095000", "153822.555000", "153823.015000", "153823.475000", "153823.935000", "153824.395000", "153824.855000", "153825.315000", "153825.775000", "153826.235000", "153826.695000", "153827.155000", "153827.615000", "153828.075000", "153828.535000", "153828.995000", "153829.455000", "153829.915000", "153830.375000", "153830.835000", "153831.295000", "153831.755000", "153832.215000", "153832.675000", "153833.135000", "153833.595000", "153834.055000", "153834.515000", "153834.975000", "153835.435000", "153835.895000", "153836.355000", "153836.815000", "153837.275000", "153837.735000", "153838.195000", "153838.655000", "153839.115000", "153839.575000", "153840.035000", "153840.495000", "153840.955000", "153841.415000", "153841.875000", "153842.335000", "153842.795000", "153843.255000", "153843.715000", "153844.175000", "153844.635000", "153845.095000", "153845.555000", "153846.015000", "153846.475000", "153846.935000", "153847.395000", "153847.855000", "153848.315000", "153848.775000", "153849.235000", "153849.695000", "153850.155000", "153850.615000", "153851.075000", "153851.535000", "153851.995000", "153852.455000", "153852.915000", "153853.375000", "153853.835000", "153854.295000", "153854.755000", "153855.215000", "153855.675000", "153856.135000", "153856.595000", "153857.055000", "153857.515000", "153857.975000"],
