{
  "AcquisitionMatrixPE": 82,
  "AcquisitionNumber": 1,
  "AcquisitionTime": "15:11:47.442500",
  "BandwidthPerPixelPhaseEncode": 24.888,
  "BaseResolution": 82,
  "BodyPartExamined": "BRAIN",
  "ConsistencyInfo": "N4_VE11E_LATEST_20181129",
  "ConversionSoftware": "dcm2niix",
  "ConversionSoftwareVersion": "v1.0.20201102",
  "DerivedVendorReportedEchoSpacing": 0.00049,
  "DeviceSerialNumber": "66112",
  "DwellTime": 2e-06,
  "EchoTime": 0.0272,
  "EchoTrainLength": 82,
  "EffectiveEchoSpacing": 0.00049,
  "FlipAngle": 44,
  "ImageComments": "Unaliased MB8/PE3",
  "ImageOrientationPatientDICOM": [1, 0, 0, 0, 1, 0],
  "ImageType": [
    "ORIGINAL",
    "PRIMARY",
    "M",
    "MB",
    "ND",
    "NORM",
    "MOSAIC"
],
  "ImagingFrequency": 123.252,
  "InPlanePhaseEncodingDirectionDICOM": "COL",
  "InstitutionAddress": "Maynard 3,Hanover,NH,US,03755",
  "InstitutionName": "Dartmouth College - PBS",
  "InstitutionalDepartmentName": "Department",
  "MRAcquisitionType": "2D",
  "MagneticFieldStrength": 3,
  "Manufacturer": "Siemens",
  "ManufacturersModelName": "Prisma",
  "Modality": "MR",
  "MultibandAccelerationFactor": 8,
  "PartialFourier": 1,
  "PatientPosition": "HFS",
  "PercentPhaseFOV": 100,
  "PercentSampling": 100,
  "PhaseEncodingDirection": "j-",
  "PhaseEncodingSteps": 82,
  "PhaseResolution": 1,
  "PixelBandwidth": 3050,
  "ProcedureStepDescription": "Wager_Wager^1076_spacetop",
  "ProtocolName": "func_run-01_task-alignvideo_acq-ap-mb8",
  "PulseSequenceDetails": "%CustomerSeq%\\cmrr_mbep2d_bold",
  "ReceiveCoilActiveElements": "HEA;HEP",
  "ReceiveCoilName": "Head_32",
  "ReconMatrixPE": 82,
  "RepetitionTime": 0.46,
  "SAR": 0.0842458,
  "ScanOptions": "FS",
  "ScanningSequence": "EP",
  "SequenceName": "epfid2d1_82",
  "SequenceVariant": "SK\\SS",
  "SeriesDescription": "func_run-01_task-alignvideo_acq-ap-mb8",
  "SeriesNumber": 26,
  "ShimSetting": [4166, -7685, -7300, 425, -80, -60, 34, 34],
  "SliceThickness": 2.7,
  "SliceTiming": [0, 0.2525, 0.0625, 0.315, 0.125, 0.3775, 0.19, 0, 0.2525, 0.0625, 0.315, 0.125, 0.3775, 0.19, 0, 0.2525, 0.0625, 0.315, 0.125, 0.3775, 0.19, 0, 0.2525, 0.0625, 0.315, 0.125, 0.3775, 0.19, 0, 0.2525, 0.0625, 0.315, 0.125, 0.3775, 0.19, 0, 0.2525, 0.0625, 0.315, 0.125, 0.3775, 0.19, 0, 0.2525, 0.0625, 0.315, 0.125, 0.3775, 0.19, 0, 0.2525, 0.0625, 0.315, 0.125, 0.3775, 0.19],
  "SoftwareVersions": "syngo MR E11",
  "SpacingBetweenSlices": 2.7,
  "StationName": "AWP66112",
  "TaskName": "alignvideo",
  "TotalReadoutTime": 0.03969,
  "TxRefAmp": 230.02,
  "WipMemBlock": "7c9331d1-5488-48a8-b2d1-8302dc8ab0b6||Sequence: R016 ve11e/master r/434b28f1; Aug  7 2019 18:53:46 by eja",
  "dcmmeta_affine": [
    [-2.682926893234253, 0.0, 0.0, 110.0],
    [0.0, 2.682926893234253, 0.0, -74.03707885742188],
    [0.0, 0.0, 2.700000047683716, -94.09000396728516],
    [0.0, 0.0, 0.0, 1.0]
],
  "dcmmeta_reorient_transform": [
    [0.0, -1.0, 0.0, 81.0],
    [1.0, 0.0, 0.0, 0.0],
    [0.0, 0.0, 1.0, 0.0],
    [0.0, 0.0, 0.0, 1.0]
],
  "dcmmeta_shape": [82, 82, 56, 1073],
  "dcmmeta_slice_dim": 2,
  "dcmmeta_version": 0.6,
  "global": {
    "const": {
      "AccessionNumber": "A004004",
      "AcquisitionMatrix": [82, 0, 0, 82],
      "AngioFlag": "N",
      "BitsAllocated": 16,
      "BitsStored": 16,
      "BodyPartExamined": "BRAIN",
      "Columns": 656,
      "EchoNumbers": 1,
      "EchoTime": 27.2,
      "EchoTrainLength": 82,
      "FlipAngle": 44.0,
      "HighBit": 15,
      "ImageOrientationPatient": [1.0, 0.0, 0.0, 0.0, 1.0, 0.0],
      "ImagePositionPatient": [-880.00002098083, -913.28001976013, -94.090003967285],
      "ImageType": [
        "ORIGINAL",
        "PRIMARY",
        "M",
        "MB",
        "ND",
        "NORM",
        "MOSAIC"
],
      "ImagedNucleus": "1H",
      "ImagingFrequency": 123.252246,
      "InPlanePhaseEncodingDirection": "COL",
      "MRAcquisitionType": "2D",
      "MagneticFieldStrength": 3.0,
      "Manufacturer": "SIEMENS",
      "ManufacturerModelName": "Prisma",
      "Modality": "MR",
      "NumberOfAverages": 1.0,
      "NumberOfPhaseEncodingSteps": 82,
      "PercentPhaseFieldOfView": 100.0,
      "PercentSampling": 100.0,
      "PerformedProcedureStepStartTime": "132337.871000",
      "PhotometricInterpretation": "MONOCHROME2",
      "PixelBandwidth": 3050.0,
      "PixelRepresentation": 0,
      "PixelSpacing": [2.6829268932343, 2.6829268932343],
      "ProtocolName": "func_run-01_task-alignvideo_acq-ap-mb8",
      "RepetitionTime": 460.0,
      "Rows": 656,
      "SAR": 0.08424582741891,
      "SamplesPerPixel": 1,
      "ScanOptions": "FS",
      "ScanningSequence": "EP",
      "SequenceName": "epfid2d1_82",
      "SequenceVariant": [
        "SK",
        "SS"
],
      "SeriesDescription": "func_run-01_task-alignvideo_acq-ap-mb8",
      "SeriesNumber": 26,
      "SeriesTime": "151208.389000",
      "SliceLocation": -94.090003967285,
      "SliceThickness": 2.7000000476837,
      "SmallestImagePixelValue": 0,
      "SoftwareVersions": "syngo MR E11",
      "SpacingBetweenSlices": 2.7000000693581,
      "SpecificCharacterSet": "ISO_IR 100",
      "StudyID": "1",
      "StudyTime": "132337.800000",
      "TransmitCoilName": "Body",
      "VariableFlipAngleFlag": "N",
      "WindowCenterWidthExplanation": "Algo1"
    },
    "slices": {}
  },
  "time": {
    "samples": {
      "AcquisitionNumber": [1, 2, 3, 4, 5, 6, 7, 8, 9, 10, 11, 12, 13, 14, 15, 16, 17, 18, 19, 20, 21, 22, 23, 24, 25, 26, 27, 28, 29, 30, 31, 32, 33, 34, 35, 36, 37, 38, 39, 40, 41, 42, 43, 44, 45, 46, 47, 48, 49, 50, 51, 52, 53, 54, 55, 56, 57, 58, 59, 60, 61, 62, 63, 64, 65, 66, 67, 68, 69, 70, 71, 72, 73, 74, 75, 76, 77, 78, 79, 80, 81, 82, 83, 84, 85, 86, 87, 88, 89, 90, 91, 92, 93, 94, 95, 96, 97, 98, 99, 100, 101, 102, 103, 104, 105, 106, 107, 108, 109, 110, 111, 112, 113, 114, 115, 116, 117, 118, 119, 120, 121, 122, 123, 124, 125, 126, 127, 128, 129, 130, 131, 132, 133, 134, 135, 136, 137, 138, 139, 140, 141, 142, 143, 144, 145, 146, 147, 148, 149, 150, 151, 152, 153, 154, 155, 156, 157, 158, 159, 160, 161, 162, 163, 164, 165, 166, 167, 168, 169, 170, 171, 172, 173, 174, 175, 176, 177, 178, 179, 180, 181, 182, 183, 184, 185, 186, 187, 188, 189, 190, 191, 192, 193, 194, 195, 196, 197, 198, 199, 200, 201, 202, 203, 204, 205, 206, 207, 208, 209, 210, 211, 212, 213, 214, 215, 216, 217, 218, 219, 220, 221, 222, 223, 224, 225, 226, 227, 228, 229, 230, 231, 232, 233, 234, 235, 236, 237, 238, 239, 240, 241, 242, 243, 244, 245, 246, 247, 248, 249, 250, 251, 252, 253, 254, 255, 256, 257, 258, 259, 260, 261, 262, 263, 264, 265, 266, 267, 268, 269, 270, 271, 272, 273, 274, 275, 276, 277, 278, 279, 280, 281, 282, 283, 284, 285, 286, 287, 288, 289, 290, 291, 292, 293, 294, 295, 296, 297, 298, 299, 300, 301, 302, 303, 304, 305, 306, 307, 308, 309, 310, 311, 312, 313, 314, 315, 316, 317, 318, 319, 320, 321, 322, 323, 324, 325, 326, 327, 328, 329, 330, 331, 332, 333, 334, 335, 336, 337, 338, 339, 340, 341, 342, 343, 344, 345, 346, 347, 348, 349, 350, 351, 352, 353, 354, 355, 356, 357, 358, 359, 360, 361, 362, 363, 364, 365, 366, 367, 368, 369, 370, 371, 372, 373, 374, 375, 376, 377, 378, 379, 380, 381, 382, 383, 384, 385, 386, 387, 388, 389, 390, 391, 392, 393, 394, 395, 396, 397, 398, 399, 400, 401, 402, 403, 404, 405, 406, 407, 408, 409, 410, 411, 412, 413, 414, 415, 416, 417, 418, 419, 420, 421, 422, 423, 424, 425, 426, 427, 428, 429, 430, 431, 432, 433, 434, 435, 436, 437, 438, 439, 440, 441, 442, 443, 444, 445, 446, 447, 448, 449, 450, 451, 452, 453, 454, 455, 456, 457, 458, 459, 460, 461, 462, 463, 464, 465, 466, 467, 468, 469, 470, 471, 472, 473, 474, 475, 476, 477, 478, 479, 480, 481, 482, 483, 484, 485, 486, 487, 488, 489, 490, 491, 492, 493, 494, 495, 496, 497, 498, 499, 500, 501, 502, 503, 504, 505, 506, 507, 508, 509, 510, 511, 512, 513, 514, 515, 516, 517, 518, 519, 520, 521, 522, 523, 524, 525, 526, 527, 528, 529, 530, 531, 532, 533, 534, 535, 536, 537, 538, 539, 540, 541, 542, 543, 544, 545, 546, 547, 548, 549, 550, 551, 552, 553, 554, 555, 556, 557, 558, 559, 560, 561, 562, 563, 564, 565, 566, 567, 568, 569, 570, 571, 572, 573, 574, 575, 576, 577, 578, 579, 580, 581, 582, 583, 584, 585, 586, 587, 588, 589, 590, 591, 592, 593, 594, 595, 596, 597, 598, 599, 600, 601, 602, 603, 604, 605, 606, 607, 608, 609, 610, 611, 612, 613, 614, 615, 616, 617, 618, 619, 620, 621, 622, 623, 624, 625, 626, 627, 628, 629, 630, 631, 632, 633, 634, 635, 636, 637, 638, 639, 640, 641, 642, 643, 644, 645, 646, 647, 648, 649, 650, 651, 652, 653, 654, 655, 656, 657, 658, 659, 660, 661, 662, 663, 664, 665, 666, 667, 668, 669, 670, 671, 672, 673, 674, 675, 676, 677, 678, 679, 680, 681, 682, 683, 684, 685, 686, 687, 688, 689, 690, 691, 692, 693, 694, 695, 696, 697, 698, 699, 700, 701, 702, 703, 704, 705, 706, 707, 708, 709, 710, 711, 712, 713, 714, 715, 716, 717, 718, 719, 720, 721, 722, 723, 724, 725, 726, 727, 728, 729, 730, 731, 732, 733, 734, 735, 736, 737, 738, 739, 740, 741, 742, 743, 744, 745, 746, 747, 748, 749, 750, 751, 752, 753, 754, 755, 756, 757, 758, 759, 760, 761, 762, 763, 764, 765, 766, 767, 768, 769, 770, 771, 772, 773, 774, 775, 776, 777, 778, 779, 780, 781, 782, 783, 784, 785, 786, 787, 788, 789, 790, 791, 792, 793, 794, 795, 796, 797, 798, 799, 800, 801, 802, 803, 804, 805, 806, 807, 808, 809, 810, 811, 812, 813, 814, 815, 816, 817, 818, 819, 820, 821, 822, 823, 824, 825, 826, 827, 828, 829, 830, 831, 832, 833, 834, 835, 836, 837, 838, 839, 840, 841, 842, 843, 844, 845, 846, 847, 848, 849, 850, 851, 852, 853, 854, 855, 856, 857, 858, 859, 860, 861, 862, 863, 864, 865, 866, 867, 868, 869, 870, 871, 872, 873, 874, 875, 876, 877, 878, 879, 880, 881, 882, 883, 884, 885, 886, 887, 888, 889, 890, 891, 892, 893, 894, 895, 896, 897, 898, 899, 900, 901, 902, 903, 904, 905, 906, 907, 908, 909, 910, 911, 912, 913, 914, 915, 916, 917, 918, 919, 920, 921, 922, 923, 924, 925, 926, 927, 928, 929, 930, 931, 932, 933, 934, 935, 936, 937, 938, 939, 940, 941, 942, 943, 944, 945, 946, 947, 948, 949, 950, 951, 952, 953, 954, 955, 956, 957, 958, 959, 960, 961, 962, 963, 964, 965, 966, 967, 968, 969, 970, 971, 972, 973, 974, 975, 976, 977, 978, 979, 980, 981, 982, 983, 984, 985, 986, 987, 988, 989, 990, 991, 992, 993, 994, 995, 996, 997, 998, 999, 1000, 1001, 1002, 1003, 1004, 1005, 1006, 1007, 1008, 1009, 1010, 1011, 1012, 1013, 1014, 1015, 1016, 1017, 1018, 1019, 1020, 1021, 1022, 1023, 1024, 1025, 1026, 1027, 1028, 1029, 1030, 1031, 1032, 1033, 1034, 1035, 1036, 1037, 1038, 1039, 1040, 1041, 1042, 1043, 1044, 1045, 1046, 1047, 1048, 1049, 1050, 1051, 1052, 1053, 1054, 1055, 1056, 1057, 1058, 1059, 1060, 1061, 1062, 1063, 1064, 1065, 1066, 1067, 1068, 1069, 1070, 1071, 1072, 1073],
      "AcquisitionTime": ["151147.442500", "151147.902500", "151148.362500", "151148.822500", "151149.282500", "151149.742500", "151150.202500", "151150.662500", "151151.122500", "151151.582500", "151152.042500", "151152.502500", "151152.962500", "151153.422500", "151153.882500", "151154.342500", "151154.802500", "151155.262500", "151155.722500", "151156.182500", "151156.642500", "151157.102500", "151157.562500", "151158.022500", "151158.482500", "151158.942500", "151159.402500", "151159.862500", "151200.322500", "151200.782500", "151201.242500", "151201.702500", "151202.162500", "151202.622500", "151203.082500", "151203.542500", "151204.002500", "151204.462500", "151204.922500", "151205.382500", "151205.842500", "151206.302500", "151206.762500", "151207.222500", "151207.682500", "151208.142500", "151208.602500", "151209.062500", "151209.522500", "151209.982500", "151210.442500", "151210.902500", "151211.362500", "151211.822500", "151212.282500", "151212.742500", "151213.202500", "151213.662500", "151214.122500", "151214.582500", "151215.042500", "151215.502500", "151215.962500", "151216.422500", "151216.882500", "151217.342500", "151217.802500", "151218.262500", "151218.722500", "151219.182500", "151219.642500", "151220.102500", "151220.562500", "151221.022500", "151221.482500", "151221.942500", "151222.402500", "151222.862500", "151223.322500", "151223.782500", "151224.242500", "151224.702500", "151225.162500", "151225.622500", "151226.082500", "151226.542500", "151227.002500", "151227.462500", "151227.922500", "151228.382500", "151228.842500", "151229.302500", "151229.762500", "151230.222500", "151230.682500", "151231.142500", "151231.602500", "151232.062500", "151232.522500", "151232.982500", "151233.442500", "151233.902500", "151234.362500", "151234.822500", "151235.282500", "151235.742500", "151236.202500", "151236.662500", "151237.122500", "151237.582500", "151238.042500", "151238.502500", "151238.962500", "151239.422500", "151239.882500", "151240.342500", "151240.802500", "151241.262500", "151241.722500", "151242.182500", "151242.642500", "151243.102500", "151243.562500", "151244.022500", "151244.482500", "151244.942500", "151245.402500", "151245.862500", "151246.322500", "151246.782500", "151247.242500", "151247.702500", "151248.162500", "151248.622500", "151249.082500", "151249.542500", "151250.002500", "151250.462500", "151250.922500", "151251.382500", "151251.842500", "151252.302500", "151252.762500", "151253.222500", "151253.682500", "151254.142500", "151254.602500", "151255.062500", "151255.522500", "151255.982500", "151256.442500", "151256.902500", "151257.362500", "151257.822500", "151258.282500", "151258.742500", "151259.202500", "151259.662500", "151300.122500", "151300.582500", "151301.042500", "151301.502500", "151301.962500", "151302.422500", "151302.882500", "151303.342500", "151303.802500", "151304.262500", "151304.722500", "151305.182500", "151305.642500", "151306.102500", "151306.562500", "151307.022500", "151307.482500", "151307.942500", "151308.402500", "151308.862500", "151309.322500", "151309.782500", "151310.242500", "151310.702500", "151311.162500", "151311.622500", "151312.082500", "151312.542500", "151313.002500", "151313.462500", "151313.922500", "151314.382500", "151314.842500", "151315.302500", "151315.762500", "151316.222500", "151316.682500", "151317.142500", "151317.602500", "151318.062500", "151318.522500", "151318.982500", "151319.442500", "151319.902500", "151320.362500", "151320.822500", "151321.282500", "151321.742500", "151322.202500", "151322.662500", "151323.122500", "151323.582500", "151324.042500", "151324.502500", "151324.962500", "151325.422500", "151325.882500", "151326.342500", "151326.802500", "151327.262500", "151327.722500", "151328.182500", "151328.642500", "151329.102500", "151329.562500", "151330.022500", "151330.482500", "151330.942500", "151331.402500", "151331.862500", "151332.322500", "151332.782500", "151333.242500", "151333.702500", "151334.162500", "151334.622500", "151335.082500", "151335.542500", "151336.002500", "151336.462500", "151336.922500", "151337.382500", "151337.842500", "151338.302500", "151338.762500", "151339.222500", "151339.682500", "151340.142500", "151340.602500", "151341.062500", "151341.522500", "151341.982500", "151342.442500", "151342.902500", "151343.362500", "151343.822500", "151344.282500", "151344.742500", "151345.202500", "151345.662500", "151346.122500", "151346.582500", "151347.042500", "151347.502500", "151347.962500", "151348.422500", "151348.882500", "151349.342500", "151349.802500", "151350.262500", "151350.722500", "151351.182500", "151351.642500", "151352.102500", "151352.562500", "151353.022500", "151353.482500", "151353.942500", "151354.402500", "151354.862500", "151355.322500", "151355.782500", "151356.242500", "151356.702500", "151357.162500", "151357.622500", "151358.082500", "151358.542500", "151359.002500", "151359.462500", "151359.922500", "151400.382500", "151400.842500", "151401.302500", "151401.762500", "151402.222500", "151402.682500", "151403.142500", "151403.602500", "151404.062500", "151404.522500", "151404.982500", "151405.442500", "151405.902500", "151406.362500", "151406.822500", "151407.282500", "151407.742500", "151408.202500", "151408.662500", "151409.122500", "151409.582500", "151410.042500", "151410.502500", "151410.962500", "151411.422500", "151411.882500", "151412.342500", "151412.802500", "151413.262500", "151413.722500", "151414.182500", "151414.642500", "151415.102500", "151415.562500", "151416.022500", "151416.482500", "151416.942500", "151417.402500", "151417.862500", "151418.322500", "151418.782500", "151419.242500", "151419.702500", "151420.162500", "151420.622500", "151421.082500", "151421.542500", "151422.002500", "151422.462500", "151422.922500", "151423.382500", "151423.842500", "151424.302500", "151424.762500", "151425.222500", "151425.682500", "151426.142500", "151426.602500", "151427.062500", "151427.522500", "151427.982500", "151428.442500", "151428.902500", "151429.362500", "151429.822500", "151430.282500", "151430.742500", "151431.202500", "151431.662500", "151432.122500", "151432.582500", "151433.042500", "151433.502500", "151433.962500", "151434.422500", "151434.882500", "151435.342500", "151435.802500", "151436.262500", "151436.722500", "151437.182500", "151437.642500", "151438.102500", "151438.562500", "151439.022500", "151439.482500", "151439.942500", "151440.402500", "151440.862500", "151441.322500", "151441.782500", "151442.242500", "151442.702500", "151443.162500", "151443.622500", "151444.082500", "151444.542500", "151445.002500", "151445.462500", "151445.922500", "151446.382500", "151446.842500", "151447.302500", "151447.762500", "151448.222500", "151448.682500", "151449.142500", "151449.602500", "151450.062500", "151450.522500", "151450.982500", "151451.442500", "151451.902500", "151452.362500", "151452.822500", "151453.282500", "151453.742500", "151454.202500", "151454.662500", "151455.122500", "151455.582500", "151456.042500", "151456.502500", "151456.962500", "151457.422500", "151457.882500", "151458.342500", "151458.802500", "151459.262500", "151459.722500", "151500.182500", "151500.642500", "151501.102500", "151501.562500", "151502.022500", "151502.482500", "151502.942500", "151503.402500", "151503.862500", "151504.322500", "151504.782500", "151505.242500", "151505.702500", "151506.162500", "151506.622500", "151507.082500", "151507.542500", "151508.002500", "151508.462500", "151508.922500", "151509.382500", "151509.842500", "151510.302500", "151510.762500", "151511.222500", "151511.682500", "151512.142500", "151512.602500", "151513.062500", "151513.522500", "151513.982500", "151514.442500", "151514.902500", "151515.362500", "151515.822500", "151516.282500", "151516.742500", "151517.202500", "151517.662500", "151518.122500", "151518.582500", "151519.042500", "151519.502500", "151519.962500", "151520.422500", "151520.882500", "151521.342500", "151521.802500", "151522.262500", "151522.722500", "151523.182500", "151523.642500", "151524.102500", "151524.562500", "151525.022500", "151525.482500", "151525.942500", "151526.402500", "151526.862500", "151527.322500", "151527.782500", "151528.242500", "151528.702500", "151529.162500", "151529.622500", "151530.082500", "151530.542500", "151531.002500", "151531.462500", "151531.922500", "151532.382500", "151532.842500", "151533.302500", "151533.762500", "151534.222500", "151534.682500", "151535.142500", "151535.602500", "151536.062500", "151536.522500", "151536.982500", "151537.442500", "151537.902500", "151538.362500", "151538.822500", "151539.282500", "151539.742500", "151540.202500", "151540.662500", "151541.122500", "151541.582500", "151542.042500", "151542.502500", "151542.962500", "151543.422500", "151543.882500", "151544.342500", "151544.802500", "151545.262500", "151545.722500", "151546.182500", "151546.642500", "151547.102500", "151547.562500", "151548.022500", "151548.482500", "151548.942500", "151549.402500", "151549.862500", "151550.322500", "151550.782500", "151551.242500", "151551.702500", "151552.162500", "151552.622500", "151553.082500", "151553.542500", "151554.002500", "151554.462500", "151554.922500", "151555.382500", "151555.842500", "151556.302500", "151556.762500", "151557.222500", "151557.682500", "151558.142500", "151558.602500", "151559.062500", "151559.522500", "151559.982500", "151600.442500", "151600.902500", "151601.362500", "151601.822500", "151602.282500", "151602.742500", "151603.202500", "151603.662500", "151604.122500", "151604.582500", "151605.042500", "151605.502500", "151605.962500", "151606.422500", "151606.882500", "151607.342500", "151607.802500", "151608.262500", "151608.722500", "151609.182500", "151609.642500", "151610.102500", "151610.562500", "151611.022500", "151611.482500", "151611.942500", "151612.402500", "151612.862500", "151613.322500", "151613.782500", "151614.242500", "151614.702500", "151615.162500", "151615.622500", "151616.082500", "151616.542500", "151617.002500", "151617.462500", "151617.922500", "151618.382500", "151618.842500", "151619.302500", "151619.762500", "151620.222500", "151620.682500", "151621.142500", "151621.602500", "151622.062500", "151622.522500", "151622.982500", "151623.442500", "151623.902500", "151624.362500", "151624.822500", "151625.282500", "151625.742500", "151626.202500", "151626.662500", "151627.122500", "151627.582500", "151628.042500", "151628.502500", "151628.962500", "151629.422500", "151629.882500", "151630.342500", "151630.802500", "151631.262500", "151631.722500", "151632.182500", "151632.642500", "151633.102500", "151633.562500", "151634.022500", "151634.482500", "151634.942500", "151635.402500", "151635.862500", "151636.322500", "151636.782500", "151637.242500", "151637.702500", "151638.162500", "151638.622500", "151639.082500", "151639.542500", "151640.002500", "151640.462500", "151640.922500", "151641.382500", "151641.842500", "151642.302500", "151642.762500", "151643.222500", "151643.682500", "151644.142500", "151644.602500", "151645.062500", "151645.522500", "151645.982500", "151646.442500", "151646.902500", "151647.362500", "151647.822500", "151648.282500", "151648.742500", "151649.202500", "151649.662500", "151650.122500", "151650.582500", "151651.042500", "151651.502500", "151651.962500", "151652.422500", "151652.882500", "151653.342500", "151653.802500", "151654.262500", "151654.722500", "151655.182500", "151655.642500", "151656.102500", "151656.562500", "151657.022500", "151657.482500", "151657.942500", "151658.402500", "151658.862500", "151659.322500", "151659.782500", "151700.242500", "151700.702500", "151701.162500", "151701.622500", "151702.082500", "151702.542500", "151703.002500", "151703.462500", "151703.922500", "151704.382500", "151704.842500", "151705.302500", "151705.762500", "151706.222500", "151706.682500", "151707.142500", "151707.602500", "151708.062500", "151708.522500", "151708.982500", "151709.442500", "151709.902500", "151710.362500", "151710.822500", "151711.282500", "151711.742500", "151712.202500", "151712.662500", "151713.122500", "151713.582500", "151714.042500", "151714.502500", "151714.962500", "151715.422500", "151715.882500", "151716.342500", "151716.802500", "151717.262500", "151717.722500", "151718.182500", "151718.642500", "151719.102500", "151719.562500", "151720.022500", "151720.482500", "151720.942500", "151721.402500", "151721.862500", "151722.322500", "151722.782500", "151723.242500", "151723.702500", "151724.162500", "151724.622500", "151725.082500", "151725.542500", "151726.002500", "151726.462500", "151726.922500", "151727.382500", "151727.842500", "151728.302500", "151728.762500", "151729.222500", "151729.682500", "151730.142500", "151730.602500", "151731.062500", "151731.522500", "151731.982500", "151732.442500", "151732.902500", "151733.362500", "151733.822500", "151734.282500", "151734.742500", "151735.202500", "151735.662500", "151736.122500", "151736.582500", "151737.042500", "151737.502500", "151737.962500", "151738.422500", "151738.882500", "151739.342500", "151739.802500", "151740.262500", "151740.722500", "151741.182500", "151741.642500", "151742.102500", "151742.562500", "151743.022500", "151743.482500", "151743.942500", "151744.402500", "151744.862500", "151745.322500", "151745.782500", "151746.242500", "151746.702500", "151747.162500", "151747.622500", "151748.082500", "151748.542500", "151749.002500", "151749.462500", "151749.922500", "151750.382500", "151750.842500", "151751.302500", "151751.762500", "151752.222500", "151752.682500", "151753.142500", "151753.602500", "151754.062500", "151754.522500", "151754.982500", "151755.442500", "151755.902500", "151756.362500", "151756.822500", "151757.282500", "151757.742500", "151758.202500", "151758.662500", "151759.122500", "151759.582500", "151800.042500", "151800.502500", "151800.962500", "151801.422500", "151801.882500", "151802.342500", "151802.802500", "151803.262500", "151803.722500", "151804.182500", "151804.642500", "151805.102500", "151805.562500", "151806.022500", "151806.482500", "151806.942500", "151807.402500", "151807.862500", "151808.322500", "151808.782500", "151809.242500", "151809.702500", "151810.162500", "151810.622500", "151811.082500", "151811.542500", "151812.002500", "151812.462500", "151812.922500", "151813.382500", "151813.842500", "151814.302500", "151814.762500", "151815.222500", "151815.682500", "151816.142500", "151816.602500", "151817.062500", "151817.522500", "151817.982500", "151818.442500", "151818.902500", "151819.362500", "151819.822500", "151820.282500", "151820.742500", "151821.202500", "151821.662500", "151822.122500", "151822.582500", "151823.042500", "151823.502500", "151823.962500", "151824.422500", "151824.882500", "151825.342500", "151825.802500", "151826.262500", "151826.722500", "151827.182500", "151827.642500", "151828.102500", "151828.562500", "151829.022500", "151829.482500", "151829.942500", "151830.402500", "151830.862500", "151831.322500", "151831.782500", "151832.242500", "151832.702500", "151833.162500", "151833.622500", "151834.082500", "151834.542500", "151835.002500", "151835.462500", "151835.922500", "151836.382500", "151836.842500", "151837.302500", "151837.762500", "151838.222500", "151838.682500", "151839.142500", "151839.602500", "151840.062500", "151840.522500", "151840.982500", "151841.442500", "151841.902500", "151842.362500", "151842.822500", "151843.282500", "151843.742500", "151844.202500", "151844.662500", "151845.122500", "151845.582500", "151846.042500", "151846.502500", "151846.962500", "151847.422500", "151847.882500", "151848.342500", "151848.802500", "151849.262500", "151849.722500", "151850.182500", "151850.642500", "151851.102500", "151851.562500", "151852.022500", "151852.482500", "151852.942500", "151853.402500", "151853.862500", "151854.322500", "151854.782500", "151855.242500", "151855.702500", "151856.162500", "151856.622500", "151857.082500", "151857.542500", "151858.002500", "151858.462500", "151858.922500", "151859.382500", "151859.842500", "151900.302500", "151900.762500", "151901.222500", "151901.682500", "151902.142500", "151902.602500", "151903.062500", "151903.522500", "151903.982500", "151904.442500", "151904.902500", "151905.362500", "151905.822500", "151906.282500", "151906.742500", "151907.202500", "151907.662500", "151908.122500", "151908.582500", "151909.042500", "151909.502500", "151909.962500", "151910.422500", "151910.882500", "151911.342500", "151911.802500", "151912.262500", "151912.722500", "151913.182500", "151913.642500", "151914.102500", "151914.562500", "151915.022500", "151915.482500", "151915.942500", "151916.402500", "151916.862500", "151917.322500", "151917.782500", "151918.242500", "151918.702500", "151919.162500", "151919.622500", "151920.082500", "151920.542500", "151921.002500", "151921.462500", "151921.922500", "151922.382500", "151922.842500", "151923.302500", "151923.762500", "151924.222500", "151924.682500", "151925.142500", "151925.602500", "151926.062500", "151926.522500", "151926.982500", "151927.442500", "151927.902500", "151928.362500", "151928.822500", "151929.282500", "151929.742500", "151930.202500", "151930.662500", "151931.122500", "151931.582500", "151932.042500", "151932.502500", "151932.962500", "151933.422500", "151933.882500", "151934.342500", "151934.802500", "151935.262500", "151935.722500", "151936.182500", "151936.642500", "151937.102500", "151937.562500", "151938.022500", "151938.482500", "151938.942500", "151939.402500", "151939.862500", "151940.322500", "151940.782500", "151941.242500", "151941.702500", "151942.162500", "151942.622500", "151943.082500", "151943.542500", "151944.002500", "151944.462500", "151944.922500", "151945.382500", "151945.842500", "151946.302500", "151946.762500", "151947.222500", "151947.682500", "151948.142500", "151948.602500", "151949.062500", "151949.522500", "151949.982500", "151950.442500", "151950.902500", "151951.362500", "151951.822500", "151952.282500", "151952.742500", "151953.202500", "151953.662500", "151954.122500", "151954.582500", "151955.042500", "151955.502500", "151955.962500", "151956.422500", "151956.882500", "151957.342500", "151957.802500", "151958.262500", "151958.722500", "151959.182500", "151959.642500", "152000.102500", "152000.562500"],
