{
  "AcquisitionMatrixPE": 82,
  "AcquisitionNumber": 1,
  "AcquisitionTime": "12:54:53.422500",
  "BandwidthPerPixelPhaseEncode": 24.888,
  "BaseResolution": 82,
  "BodyPartExamined": "BRAIN",
  "ConsistencyInfo": "N4_VE11C_LATEST_20160120",
  "ConversionSoftware": "dcm2niix",
  "ConversionSoftwareVersion": "v1.0.20201102",
  "DerivedVendorReportedEchoSpacing": 0.00049,
  "DeviceSerialNumber": "66112",
  "DwellTime": 2e-06,
  "EchoTime": 0.0272,
  "EchoTrainLength": 82,
  "EffectiveEchoSpacing": 0.00049,
  "FlipAngle": 44,
  "ImageComments": "Unaliased MB8/PE3",
  "ImageOrientationPatientDICOM": [0.999143, 0.0136312, 0.0390933, -0.0125563, 0.99954, -0.0276119],
  "ImageType": [
    "ORIGINAL",
    "PRIMARY",
    "M",
    "MB",
    "ND",
    "NORM",
    "MOSAIC"
],
  "ImagingFrequency": 123.252,
  "InPlanePhaseEncodingDirectionDICOM": "COL",
  "InstitutionAddress": "Maynard 3,Hanover,NH,US,03755",
  "InstitutionName": "dartmouth_brain_imaging_center",
  "InstitutionalDepartmentName": "Department",
  "MRAcquisitionType": "2D",
  "MagneticFieldStrength": 3,
  "Manufacturer": "Siemens",
  "ManufacturersModelName": "Prisma",
  "Modality": "MR",
  "MultibandAccelerationFactor": 8,
  "PartialFourier": 1,
  "PatientPosition": "HFS",
  "PercentPhaseFOV": 100,
  "PercentSampling": 100,
  "PhaseEncodingDirection": "j-",
  "PhaseEncodingSteps": 82,
  "PhaseResolution": 1,
  "PixelBandwidth": 3050,
  "ProcedureStepDescription": "Wager_Wager^1076_spacetop",
  "ProtocolName": "func_run-03_task-social_acq-ap-mb8",
  "PulseSequenceDetails": "%CustomerSeq%\\cmrr_mbep2d_bold",
  "ReceiveCoilActiveElements": "HEA;HEP",
  "ReceiveCoilName": "Head_32",
  "ReconMatrixPE": 82,
  "RepetitionTime": 0.46,
  "SAR": 0.100154,
  "ScanOptions": "FS",
  "ScanningSequence": "EP",
  "SequenceName": "epfid2d1_82",
  "SequenceVariant": "SK\\SS",
  "SeriesDescription": "func_run-03_task-social_acq-ap-mb8",
  "SeriesNumber": 16,
  "ShimSetting": [4171, -7739, -7203, 549, 34, -123, 76, 80],
  "SliceThickness": 2.7,
  "SliceTiming": [0, 0.25, 0.0625, 0.3125, 0.125, 0.3775, 0.1875, 0, 0.25, 0.0625, 0.3125, 0.125, 0.3775, 0.1875, 0, 0.25, 0.0625, 0.3125, 0.125, 0.3775, 0.1875, 0, 0.25, 0.0625, 0.3125, 0.125, 0.3775, 0.1875, 0, 0.25, 0.0625, 0.3125, 0.125, 0.3775, 0.1875, 0, 0.25, 0.0625, 0.3125, 0.125, 0.3775, 0.1875, 0, 0.25, 0.0625, 0.3125, 0.125, 0.3775, 0.1875, 0, 0.25, 0.0625, 0.3125, 0.125, 0.3775, 0.1875],
  "SoftwareVersions": "syngo MR E11",
  "SpacingBetweenSlices": 2.7,
  "StationName": "AWP66112",
  "TaskName": "social",
  "TotalReadoutTime": 0.03969,
  "TxRefAmp": 259.337,
  "WipMemBlock": "7335ac2f-40c8-4984-92e3-659698f6df79||Sequence: R016 ve11c/master r/e634e98; Dec 19 2017 11:00:25 by eja",
  "dcmmeta_affine": [
    [-2.680626392364502, -0.03368763253092766, 0.10651962459087372, 113.94967651367188],
    [-0.03657164052128792, 2.681692361831665, -0.07316293567419052, -88.04350280761719],
    [0.10488451272249222, 0.07408078014850616, 2.6969056129455566, -51.83771896362305],
    [0.0, 0.0, 0.0, 1.0]
],
  "dcmmeta_reorient_transform": [
    [0.0, -1.0, 0.0, 81.0],
    [1.0, 0.0, 0.0, 0.0],
    [0.0, 0.0, 1.0, 0.0],
    [0.0, 0.0, 0.0, 1.0]
],
  "dcmmeta_shape": [82, 82, 56, 872],
  "dcmmeta_slice_dim": 2,
  "dcmmeta_version": 0.6,
  "global": {
    "const": {
      "AccessionNumber": "A003560",
      "AcquisitionMatrix": [82, 0, 0, 82],
      "AngioFlag": "N",
      "BitsAllocated": 16,
      "BitsStored": 16,
      "BodyPartExamined": "BRAIN",
      "Columns": 656,
      "EchoNumbers": 1,
      "EchoTime": 27.2,
      "EchoTrainLength": 82,
      "FlipAngle": 44.0,
      "HighBit": 15,
      "ImageOrientationPatient": [0.99914258326598, 0.01363124740763, 0.03909331654767, -0.0125562992959, 0.99953985459717, -0.0276119253196],
      "ImagePositionPatient": [-870.89243706614, -909.31534726224, -54.677847086306],
      "ImageType": [
        "ORIGINAL",
        "PRIMARY",
        "M",
        "MB",
        "ND",
        "NORM",
        "MOSAIC"
],
      "ImagedNucleus": "1H",
      "ImagingFrequency": 123.252119,
      "InPlanePhaseEncodingDirection": "COL",
      "MRAcquisitionType": "2D",
      "MagneticFieldStrength": 3.0,
      "Manufacturer": "SIEMENS",
      "ManufacturerModelName": "Prisma",
      "Modality": "MR",
      "NumberOfAverages": 1.0,
      "NumberOfPhaseEncodingSteps": 82,
      "PercentPhaseFieldOfView": 100.0,
      "PercentSampling": 100.0,
      "PerformedProcedureStepStartTime": "114256.827000",
      "PhotometricInterpretation": "MONOCHROME2",
      "PixelBandwidth": 3050.0,
      "PixelRepresentation": 0,
      "PixelSpacing": [2.6829268932343, 2.6829268932343],
      "ProtocolName": "func_run-03_task-social_acq-ap-mb8",
      "RepetitionTime": 460.0,
      "Rows": 656,
      "SAR": 0.10015407120511,
      "SamplesPerPixel": 1,
      "ScanOptions": "FS",
      "ScanningSequence": "EP",
      "SequenceName": "epfid2d1_82",
      "SequenceVariant": [
        "SK",
        "SS"
],
      "SeriesDescription": "func_run-03_task-social_acq-ap-mb8",
      "SeriesNumber": 16,
      "SeriesTime": "125508.347000",
      "SliceLocation": -44.89705357707,
      "SliceThickness": 2.7000000476837,
      "SmallestImagePixelValue": 0,
      "SoftwareVersions": "syngo MR E11",
      "SpacingBetweenSlices": 2.6999999516079,
      "SpecificCharacterSet": "ISO_IR 100",
      "StudyID": "1",
      "StudyTime": "114256.750000",
      "TransmitCoilName": "Body",
      "VariableFlipAngleFlag": "N",
      "WindowCenterWidthExplanation": "Algo1",
      "dBdt": 0.0},
    "slices": {}
  },
  "time": {
    "samples": {
      "AcquisitionNumber": [1, 2, 3, 4, 5, 6, 7, 8, 9, 10, 11, 12, 13, 14, 15, 16, 17, 18, 19, 20, 21, 22, 23, 24, 25, 26, 27, 28, 29, 30, 31, 32, 33, 34, 35, 36, 37, 38, 39, 40, 41, 42, 43, 44, 45, 46, 47, 48, 49, 50, 51, 52, 53, 54, 55, 56, 57, 58, 59, 60, 61, 62, 63, 64, 65, 66, 67, 68, 69, 70, 71, 72, 73, 74, 75, 76, 77, 78, 79, 80, 81, 82, 83, 84, 85, 86, 87, 88, 89, 90, 91, 92, 93, 94, 95, 96, 97, 98, 99, 100, 101, 102, 103, 104, 105, 106, 107, 108, 109, 110, 111, 112, 113, 114, 115, 116, 117, 118, 119, 120, 121, 122, 123, 124, 125, 126, 127, 128, 129, 130, 131, 132, 133, 134, 135, 136, 137, 138, 139, 140, 141, 142, 143, 144, 145, 146, 147, 148, 149, 150, 151, 152, 153, 154, 155, 156, 157, 158, 159, 160, 161, 162, 163, 164, 165, 166, 167, 168, 169, 170, 171, 172, 173, 174, 175, 176, 177, 178, 179, 180, 181, 182, 183, 184, 185, 186, 187, 188, 189, 190, 191, 192, 193, 194, 195, 196, 197, 198, 199, 200, 201, 202, 203, 204, 205, 206, 207, 208, 209, 210, 211, 212, 213, 214, 215, 216, 217, 218, 219, 220, 221, 222, 223, 224, 225, 226, 227, 228, 229, 230, 231, 232, 233, 234, 235, 236, 237, 238, 239, 240, 241, 242, 243, 244, 245, 246, 247, 248, 249, 250, 251, 252, 253, 254, 255, 256, 257, 258, 259, 260, 261, 262, 263, 264, 265, 266, 267, 268, 269, 270, 271, 272, 273, 274, 275, 276, 277, 278, 279, 280, 281, 282, 283, 284, 285, 286, 287, 288, 289, 290, 291, 292, 293, 294, 295, 296, 297, 298, 299, 300, 301, 302, 303, 304, 305, 306, 307, 308, 309, 310, 311, 312, 313, 314, 315, 316, 317, 318, 319, 320, 321, 322, 323, 324, 325, 326, 327, 328, 329, 330, 331, 332, 333, 334, 335, 336, 337, 338, 339, 340, 341, 342, 343, 344, 345, 346, 347, 348, 349, 350, 351, 352, 353, 354, 355, 356, 357, 358, 359, 360, 361, 362, 363, 364, 365, 366, 367, 368, 369, 370, 371, 372, 373, 374, 375, 376, 377, 378, 379, 380, 381, 382, 383, 384, 385, 386, 387, 388, 389, 390, 391, 392, 393, 394, 395, 396, 397, 398, 399, 400, 401, 402, 403, 404, 405, 406, 407, 408, 409, 410, 411, 412, 413, 414, 415, 416, 417, 418, 419, 420, 421, 422, 423, 424, 425, 426, 427, 428, 429, 430, 431, 432, 433, 434, 435, 436, 437, 438, 439, 440, 441, 442, 443, 444, 445, 446, 447, 448, 449, 450, 451, 452, 453, 454, 455, 456, 457, 458, 459, 460, 461, 462, 463, 464, 465, 466, 467, 468, 469, 470, 471, 472, 473, 474, 475, 476, 477, 478, 479, 480, 481, 482, 483, 484, 485, 486, 487, 488, 489, 490, 491, 492, 493, 494, 495, 496, 497, 498, 499, 500, 501, 502, 503, 504, 505, 506, 507, 508, 509, 510, 511, 512, 513, 514, 515, 516, 517, 518, 519, 520, 521, 522, 523, 524, 525, 526, 527, 528, 529, 530, 531, 532, 533, 534, 535, 536, 537, 538, 539, 540, 541, 542, 543, 544, 545, 546, 547, 548, 549, 550, 551, 552, 553, 554, 555, 556, 557, 558, 559, 560, 561, 562, 563, 564, 565, 566, 567, 568, 569, 570, 571, 572, 573, 574, 575, 576, 577, 578, 579, 580, 581, 582, 583, 584, 585, 586, 587, 588, 589, 590, 591, 592, 593, 594, 595, 596, 597, 598, 599, 600, 601, 602, 603, 604, 605, 606, 607, 608, 609, 610, 611, 612, 613, 614, 615, 616, 617, 618, 619, 620, 621, 622, 623, 624, 625, 626, 627, 628, 629, 630, 631, 632, 633, 634, 635, 636, 637, 638, 639, 640, 641, 642, 643, 644, 645, 646, 647, 648, 649, 650, 651, 652, 653, 654, 655, 656, 657, 658, 659, 660, 661, 662, 663, 664, 665, 666, 667, 668, 669, 670, 671, 672, 673, 674, 675, 676, 677, 678, 679, 680, 681, 682, 683, 684, 685, 686, 687, 688, 689, 690, 691, 692, 693, 694, 695, 696, 697, 698, 699, 700, 701, 702, 703, 704, 705, 706, 707, 708, 709, 710, 711, 712, 713, 714, 715, 716, 717, 718, 719, 720, 721, 722, 723, 724, 725, 726, 727, 728, 729, 730, 731, 732, 733, 734, 735, 736, 737, 738, 739, 740, 741, 742, 743, 744, 745, 746, 747, 748, 749, 750, 751, 752, 753, 754, 755, 756, 757, 758, 759, 760, 761, 762, 763, 764, 765, 766, 767, 768, 769, 770, 771, 772, 773, 774, 775, 776, 777, 778, 779, 780, 781, 782, 783, 784, 785, 786, 787, 788, 789, 790, 791, 792, 793, 794, 795, 796, 797, 798, 799, 800, 801, 802, 803, 804, 805, 806, 807, 808, 809, 810, 811, 812, 813, 814, 815, 816, 817, 818, 819, 820, 821, 822, 823, 824, 825, 826, 827, 828, 829, 830, 831, 832, 833, 834, 835, 836, 837, 838, 839, 840, 841, 842, 843, 844, 845, 846, 847, 848, 849, 850, 851, 852, 853, 854, 855, 856, 857, 858, 859, 860, 861, 862, 863, 864, 865, 866, 867, 868, 869, 870, 871, 872],
      "AcquisitionTime": ["125453.422500", "125453.882500", "125454.342500", "125454.802500", "125455.262500", "125455.722500", "125456.182500", "125456.642500", "125457.102500", "125457.562500", "125458.022500", "125458.482500", "125458.942500", "125459.402500", "125459.862500", "125500.322500", "125500.782500", "125501.242500", "125501.702500", "125502.162500", "125502.622500", "125503.082500", "125503.542500", "125504.002500", "125504.462500", "125504.922500", "125505.382500", "125505.842500", "125506.302500", "125506.762500", "125507.222500", "125507.682500", "125508.142500", "125508.602500", "125509.062500", "125509.522500", "125509.982500", "125510.442500", "125510.902500", "125511.362500", "125511.822500", "125512.282500", "125512.742500", "125513.202500", "125513.662500", "125514.122500", "125514.582500", "125515.042500", "125515.502500", "125515.962500", "125516.422500", "125516.882500", "125517.342500", "125517.802500", "125518.262500", "125518.722500", "125519.182500", "125519.642500", "125520.102500", "125520.562500", "125521.022500", "125521.482500", "125521.942500", "125522.402500", "125522.862500", "125523.322500", "125523.782500", "125524.242500", "125524.702500", "125525.162500", "125525.622500", "125526.082500", "125526.542500", "125527.002500", "125527.462500", "125527.922500", "125528.382500", "125528.842500", "125529.302500", "125529.762500", "125530.222500", "125530.682500", "125531.142500", "125531.602500", "125532.062500", "125532.522500", "125532.982500", "125533.442500", "125533.902500", "125534.362500", "125534.822500", "125535.282500", "125535.742500", "125536.202500", "125536.662500", "125537.122500", "125537.582500", "125538.042500", "125538.502500", "125538.962500", "125539.422500", "125539.882500", "125540.342500", "125540.802500", "125541.262500", "125541.722500", "125542.182500", "125542.642500", "125543.102500", "125543.562500", "125544.022500", "125544.482500", "125544.942500", "125545.402500", "125545.862500", "125546.322500", "125546.782500", "125547.242500", "125547.702500", "125548.162500", "125548.622500", "125549.082500", "125549.542500", "125550.002500", "125550.462500", "125550.922500", "125551.382500", "125551.842500", "125552.302500", "125552.762500", "125553.222500", "125553.682500", "125554.142500", "125554.602500", "125555.062500", "125555.522500", "125555.982500", "125556.442500", "125556.902500", "125557.362500", "125557.822500", "125558.282500", "125558.742500", "125559.202500", "125559.662500", "125600.122500", "125600.582500", "125601.042500", "125601.502500", "125601.962500", "125602.422500", "125602.882500", "125603.342500", "125603.802500", "125604.262500", "125604.722500", "125605.182500", "125605.642500", "125606.102500", "125606.562500", "125607.022500", "125607.482500", "125607.942500", "125608.402500", "125608.862500", "125609.322500", "125609.782500", "125610.242500", "125610.702500", "125611.162500", "125611.622500", "125612.082500", "125612.542500", "125613.002500", "125613.462500", "125613.922500", "125614.382500", "125614.842500", "125615.302500", "125615.762500", "125616.222500", "125616.682500", "125617.142500", "125617.602500", "125618.062500", "125618.522500", "125618.982500", "125619.442500", "125619.902500", "125620.362500", "125620.822500", "125621.282500", "125621.742500", "125622.202500", "125622.662500", "125623.122500", "125623.582500", "125624.042500", "125624.502500", "125624.962500", "125625.422500", "125625.882500", "125626.342500", "125626.802500", "125627.262500", "125627.722500", "125628.182500", "125628.642500", "125629.102500", "125629.562500", "125630.022500", "125630.482500", "125630.942500", "125631.402500", "125631.862500", "125632.322500", "125632.782500", "125633.242500", "125633.702500", "125634.162500", "125634.622500", "125635.082500", "125635.542500", "125636.002500", "125636.462500", "125636.922500", "125637.382500", "125637.842500", "125638.302500", "125638.762500", "125639.222500", "125639.682500", "125640.142500", "125640.602500", "125641.062500", "125641.522500", "125641.982500", "125642.442500", "125642.902500", "125643.362500", "125643.822500", "125644.282500", "125644.742500", "125645.202500", "125645.662500", "125646.122500", "125646.582500", "125647.042500", "125647.502500", "125647.962500", "125648.422500", "125648.882500", "125649.342500", "125649.802500", "125650.262500", "125650.722500", "125651.182500", "125651.642500", "125652.102500", "125652.562500", "125653.022500", "125653.482500", "125653.942500", "125654.402500", "125654.862500", "125655.322500", "125655.782500", "125656.242500", "125656.702500", "125657.162500", "125657.622500", "125658.082500", "125658.542500", "125659.002500", "125659.462500", "125659.922500", "125700.382500", "125700.842500", "125701.302500", "125701.762500", "125702.222500", "125702.682500", "125703.142500", "125703.602500", "125704.062500", "125704.522500", "125704.982500", "125705.442500", "125705.902500", "125706.362500", "125706.822500", "125707.282500", "125707.742500", "125708.202500", "125708.662500", "125709.122500", "125709.582500", "125710.042500", "125710.502500", "125710.962500", "125711.422500", "125711.882500", "125712.342500", "125712.802500", "125713.262500", "125713.722500", "125714.182500", "125714.642500", "125715.102500", "125715.562500", "125716.022500", "125716.482500", "125716.942500", "125717.402500", "125717.862500", "125718.322500", "125718.782500", "125719.242500", "125719.702500", "125720.162500", "125720.622500", "125721.082500", "125721.542500", "125722.002500", "125722.462500", "125722.922500", "125723.382500", "125723.842500", "125724.302500", "125724.762500", "125725.222500", "125725.682500", "125726.142500", "125726.602500", "125727.062500", "125727.522500", "125727.982500", "125728.442500", "125728.902500", "125729.362500", "125729.822500", "125730.282500", "125730.742500", "125731.202500", "125731.662500", "125732.122500", "125732.582500", "125733.042500", "125733.502500", "125733.962500", "125734.422500", "125734.882500", "125735.342500", "125735.802500", "125736.262500", "125736.722500", "125737.182500", "125737.642500", "125738.102500", "125738.562500", "125739.022500", "125739.482500", "125739.942500", "125740.402500", "125740.862500", "125741.322500", "125741.782500", "125742.242500", "125742.702500", "125743.162500", "125743.622500", "125744.082500", "125744.542500", "125745.002500", "125745.462500", "125745.922500", "125746.382500", "125746.842500", "125747.302500", "125747.762500", "125748.222500", "125748.682500", "125749.142500", "125749.602500", "125750.062500", "125750.522500", "125750.982500", "125751.442500", "125751.902500", "125752.362500", "125752.822500", "125753.282500", "125753.742500", "125754.202500", "125754.662500", "125755.122500", "125755.582500", "125756.042500", "125756.502500", "125756.962500", "125757.422500", "125757.882500", "125758.342500", "125758.802500", "125759.262500", "125759.722500", "125800.182500", "125800.642500", "125801.102500", "125801.562500", "125802.022500", "125802.482500", "125802.942500", "125803.402500", "125803.862500", "125804.322500", "125804.782500", "125805.242500", "125805.702500", "125806.162500", "125806.622500", "125807.082500", "125807.542500", "125808.002500", "125808.462500", "125808.922500", "125809.382500", "125809.842500", "125810.302500", "125810.762500", "125811.222500", "125811.682500", "125812.142500", "125812.602500", "125813.062500", "125813.522500", "125813.982500", "125814.442500", "125814.902500", "125815.362500", "125815.822500", "125816.282500", "125816.742500", "125817.202500", "125817.662500", "125818.122500", "125818.582500", "125819.042500", "125819.502500", "125819.962500", "125820.422500", "125820.882500", "125821.342500", "125821.802500", "125822.262500", "125822.722500", "125823.182500", "125823.642500", "125824.102500", "125824.562500", "125825.022500", "125825.482500", "125825.942500", "125826.402500", "125826.862500", "125827.322500", "125827.782500", "125828.242500", "125828.702500", "125829.162500", "125829.622500", "125830.082500", "125830.542500", "125831.002500", "125831.462500", "125831.922500", "125832.382500", "125832.842500", "125833.302500", "125833.762500", "125834.222500", "125834.682500", "125835.142500", "125835.602500", "125836.062500", "125836.522500", "125836.982500", "125837.442500", "125837.902500", "125838.362500", "125838.822500", "125839.282500", "125839.742500", "125840.202500", "125840.662500", "125841.122500", "125841.582500", "125842.042500", "125842.502500", "125842.962500", "125843.422500", "125843.882500", "125844.342500", "125844.802500", "125845.262500", "125845.722500", "125846.182500", "125846.642500", "125847.102500", "125847.562500", "125848.022500", "125848.482500", "125848.942500", "125849.402500", "125849.862500", "125850.322500", "125850.782500", "125851.242500", "125851.702500", "125852.162500", "125852.622500", "125853.082500", "125853.542500", "125854.002500", "125854.462500", "125854.922500", "125855.382500", "125855.842500", "125856.302500", "125856.762500", "125857.222500", "125857.682500", "125858.142500", "125858.602500", "125859.062500", "125859.522500", "125859.982500", "125900.442500", "125900.902500", "125901.362500", "125901.822500", "125902.282500", "125902.742500", "125903.202500", "125903.662500", "125904.122500", "125904.582500", "125905.042500", "125905.502500", "125905.962500", "125906.422500", "125906.882500", "125907.342500", "125907.802500", "125908.262500", "125908.722500", "125909.182500", "125909.642500", "125910.102500", "125910.562500", "125911.022500", "125911.482500", "125911.942500", "125912.402500", "125912.862500", "125913.322500", "125913.782500", "125914.242500", "125914.702500", "125915.162500", "125915.622500", "125916.082500", "125916.542500", "125917.002500", "125917.462500", "125917.922500", "125918.382500", "125918.842500", "125919.302500", "125919.762500", "125920.222500", "125920.682500", "125921.142500", "125921.602500", "125922.062500", "125922.522500", "125922.982500", "125923.442500", "125923.902500", "125924.362500", "125924.822500", "125925.282500", "125925.742500", "125926.202500", "125926.662500", "125927.122500", "125927.582500", "125928.042500", "125928.502500", "125928.962500", "125929.422500", "125929.882500", "125930.342500", "125930.802500", "125931.262500", "125931.722500", "125932.182500", "125932.642500", "125933.102500", "125933.562500", "125934.022500", "125934.482500", "125934.942500", "125935.402500", "125935.862500", "125936.322500", "125936.782500", "125937.242500", "125937.702500", "125938.162500", "125938.622500", "125939.082500", "125939.542500", "125940.002500", "125940.462500", "125940.922500", "125941.382500", "125941.842500", "125942.302500", "125942.762500", "125943.222500", "125943.682500", "125944.142500", "125944.602500", "125945.062500", "125945.522500", "125945.982500", "125946.442500", "125946.902500", "125947.362500", "125947.822500", "125948.282500", "125948.742500", "125949.202500", "125949.662500", "125950.122500", "125950.582500", "125951.042500", "125951.502500", "125951.962500", "125952.422500", "125952.882500", "125953.342500", "125953.802500", "125954.262500", "125954.722500", "125955.182500", "125955.642500", "125956.102500", "125956.562500", "125957.022500", "125957.482500", "125957.942500", "125958.402500", "125958.862500", "125959.322500", "125959.782500", "130000.242500", "130000.702500", "130001.162500", "130001.622500", "130002.082500", "130002.542500", "130003.002500", "130003.462500", "130003.922500", "130004.382500", "130004.842500", "130005.302500", "130005.762500", "130006.222500", "130006.682500", "130007.142500", "130007.602500", "130008.062500", "130008.522500", "130008.982500", "130009.442500", "130009.902500", "130010.362500", "130010.822500", "130011.282500", "130011.742500", "130012.202500", "130012.662500", "130013.122500", "130013.582500", "130014.042500", "130014.502500", "130014.962500", "130015.422500", "130015.882500", "130016.342500", "130016.802500", "130017.262500", "130017.722500", "130018.182500", "130018.642500", "130019.102500", "130019.562500", "130020.022500", "130020.482500", "130020.942500", "130021.402500", "130021.862500", "130022.322500", "130022.782500", "130023.242500", "130023.702500", "130024.162500", "130024.622500", "130025.082500", "130025.542500", "130026.002500", "130026.462500", "130026.922500", "130027.382500", "130027.842500", "130028.302500", "130028.762500", "130029.222500", "130029.682500", "130030.142500", "130030.602500", "130031.062500", "130031.522500", "130031.982500", "130032.442500", "130032.902500", "130033.362500", "130033.822500", "130034.282500", "130034.742500", "130035.202500", "130035.662500", "130036.122500", "130036.582500", "130037.042500", "130037.502500", "130037.962500", "130038.422500", "130038.882500", "130039.342500", "130039.802500", "130040.262500", "130040.722500", "130041.182500", "130041.642500", "130042.102500", "130042.562500", "130043.022500", "130043.482500", "130043.942500", "130044.402500", "130044.862500", "130045.322500", "130045.782500", "130046.242500", "130046.702500", "130047.162500", "130047.622500", "130048.082500", "130048.542500", "130049.002500", "130049.462500", "130049.922500", "130050.382500", "130050.842500", "130051.302500", "130051.762500", "130052.222500", "130052.682500", "130053.142500", "130053.602500", "130054.062500", "130054.522500", "130054.982500", "130055.442500", "130055.902500", "130056.362500", "130056.822500", "130057.282500", "130057.742500", "130058.202500", "130058.662500", "130059.122500", "130059.582500", "130100.042500", "130100.502500", "130100.962500", "130101.422500", "130101.882500", "130102.342500", "130102.802500", "130103.262500", "130103.722500", "130104.182500", "130104.642500", "130105.102500", "130105.562500", "130106.022500", "130106.482500", "130106.942500", "130107.402500", "130107.862500", "130108.322500", "130108.782500", "130109.242500", "130109.702500", "130110.162500", "130110.622500", "130111.082500", "130111.542500", "130112.002500", "130112.462500", "130112.922500", "130113.382500", "130113.842500", "130114.302500", "130114.762500", "130115.222500", "130115.682500", "130116.142500", "130116.602500", "130117.062500", "130117.522500", "130117.982500", "130118.442500", "130118.902500", "130119.362500", "130119.822500", "130120.282500", "130120.742500", "130121.202500", "130121.662500", "130122.122500", "130122.582500", "130123.042500", "130123.502500", "130123.962500", "130124.422500", "130124.882500", "130125.342500", "130125.802500", "130126.262500", "130126.722500", "130127.182500", "130127.642500", "130128.102500", "130128.562500", "130129.022500", "130129.482500", "130129.942500", "130130.402500", "130130.862500", "130131.322500", "130131.782500", "130132.242500", "130132.702500", "130133.162500", "130133.622500", "130134.082500"],
