{
  "AcquisitionMatrixPE": 82,
  "AcquisitionNumber": 1,
  "AcquisitionTime": "13:01:58.190000",
  "BandwidthPerPixelPhaseEncode": 24.888,
  "BaseResolution": 82,
  "BodyPartExamined": "BRAIN",
  "ConsistencyInfo": "N4_VE11C_LATEST_20160120",
  "ConversionSoftware": "dcm2niix",
  "ConversionSoftwareVersion": "v1.0.20201102",
  "DerivedVendorReportedEchoSpacing": 0.00049,
  "DeviceSerialNumber": "66112",
  "DwellTime": 2e-06,
  "EchoTime": 0.0272,
  "EchoTrainLength": 82,
  "EffectiveEchoSpacing": 0.00049,
  "FlipAngle": 44,
  "ImageComments": "Unaliased MB8/PE3",
  "ImageOrientationPatientDICOM": [0.999143, 0.0136312, 0.0390933, -0.0125563, 0.99954, -0.0276119],
  "ImageType": [
    "ORIGINAL",
    "PRIMARY",
    "M",
    "MB",
    "ND",
    "NORM",
    "MOSAIC"
],
  "ImagingFrequency": 123.252,
  "InPlanePhaseEncodingDirectionDICOM": "COL",
  "InstitutionAddress": "Maynard 3,Hanover,NH,US,03755",
  "InstitutionName": "dartmouth_brain_imaging_center",
  "InstitutionalDepartmentName": "Department",
  "MRAcquisitionType": "2D",
  "MagneticFieldStrength": 3,
  "Manufacturer": "Siemens",
  "ManufacturersModelName": "Prisma",
  "Modality": "MR",
  "MultibandAccelerationFactor": 8,
  "PartialFourier": 1,
  "PatientPosition": "HFS",
  "PercentPhaseFOV": 100,
  "PercentSampling": 100,
  "PhaseEncodingDirection": "j-",
  "PhaseEncodingSteps": 82,
  "PhaseResolution": 1,
  "PixelBandwidth": 3050,
  "ProcedureStepDescription": "Wager_Wager^1076_spacetop",
  "ProtocolName": "func_run-04_task-social_acq-ap-mb8",
  "PulseSequenceDetails": "%CustomerSeq%\\cmrr_mbep2d_bold",
  "ReceiveCoilActiveElements": "HEA;HEP",
  "ReceiveCoilName": "Head_32",
  "ReconMatrixPE": 82,
  "RepetitionTime": 0.46,
  "SAR": 0.100154,
  "ScanOptions": "FS",
  "ScanningSequence": "EP",
  "SequenceName": "epfid2d1_82",
  "SequenceVariant": "SK\\SS",
  "SeriesDescription": "func_run-04_task-social_acq-ap-mb8",
  "SeriesNumber": 18,
  "ShimSetting": [4171, -7739, -7203, 549, 34, -123, 76, 80],
  "SliceThickness": 2.7,
  "SliceTiming": [0, 0.25, 0.0625, 0.315, 0.125, 0.3775, 0.1875, 0, 0.25, 0.0625, 0.315, 0.125, 0.3775, 0.1875, 0, 0.25, 0.0625, 0.315, 0.125, 0.3775, 0.1875, 0, 0.25, 0.0625, 0.315, 0.125, 0.3775, 0.1875, 0, 0.25, 0.0625, 0.315, 0.125, 0.3775, 0.1875, 0, 0.25, 0.0625, 0.315, 0.125, 0.3775, 0.1875, 0, 0.25, 0.0625, 0.315, 0.125, 0.3775, 0.1875, 0, 0.25, 0.0625, 0.315, 0.125, 0.3775, 0.1875],
  "SoftwareVersions": "syngo MR E11",
  "SpacingBetweenSlices": 2.7,
  "StationName": "AWP66112",
  "TaskName": "social",
  "TotalReadoutTime": 0.03969,
  "TxRefAmp": 259.337,
  "WipMemBlock": "4c98db18-5433-445d-ba34-a60bd8d2e685||Sequence: R016 ve11c/master r/e634e98; Dec 19 2017 11:00:25 by eja",
  "dcmmeta_affine": [
    [-2.680626392364502, -0.03368763253092766, 0.10651962459087372, 113.94967651367188],
    [-0.03657164052128792, 2.681692361831665, -0.07316293567419052, -88.04350280761719],
    [0.10488451272249222, 0.07408078014850616, 2.6969056129455566, -51.83771896362305],
    [0.0, 0.0, 0.0, 1.0]
],
  "dcmmeta_reorient_transform": [
    [0.0, -1.0, 0.0, 81.0],
    [1.0, 0.0, 0.0, 0.0],
    [0.0, 0.0, 1.0, 0.0],
    [0.0, 0.0, 0.0, 1.0]
],
  "dcmmeta_shape": [82, 82, 56, 440],
  "dcmmeta_slice_dim": 2,
  "dcmmeta_version": 0.6,
  "global": {
    "const": {
      "AccessionNumber": "A003560",
      "AcquisitionMatrix": [82, 0, 0, 82],
      "AngioFlag": "N",
      "BitsAllocated": 16,
      "BitsStored": 16,
      "BodyPartExamined": "BRAIN",
      "Columns": 656,
      "EchoNumbers": 1,
      "EchoTime": 27.2,
      "EchoTrainLength": 82,
      "FlipAngle": 44.0,
      "HighBit": 15,
      "ImageOrientationPatient": [0.99914258326598, 0.01363124740763, 0.03909331654767, -0.0125562992959, 0.99953985459717, -0.0276119253196],
      "ImagePositionPatient": [-870.89243706614, -909.31534726224, -54.677847086306],
      "ImageType": [
        "ORIGINAL",
        "PRIMARY",
        "M",
        "MB",
        "ND",
        "NORM",
        "MOSAIC"
],
      "ImagedNucleus": "1H",
      "ImagingFrequency": 123.252122,
      "InPlanePhaseEncodingDirection": "COL",
      "MRAcquisitionType": "2D",
      "MagneticFieldStrength": 3.0,
      "Manufacturer": "SIEMENS",
      "ManufacturerModelName": "Prisma",
      "Modality": "MR",
      "NumberOfAverages": 1.0,
      "NumberOfPhaseEncodingSteps": 82,
      "PercentPhaseFieldOfView": 100.0,
      "PercentSampling": 100.0,
      "PerformedProcedureStepStartTime": "114256.827000",
      "PhotometricInterpretation": "MONOCHROME2",
      "PixelBandwidth": 3050.0,
      "PixelRepresentation": 0,
      "PixelSpacing": [2.6829268932343, 2.6829268932343],
      "ProtocolName": "func_run-04_task-social_acq-ap-mb8",
      "RepetitionTime": 460.0,
      "Rows": 656,
      "SAR": 0.10015407120511,
      "SamplesPerPixel": 1,
      "ScanOptions": "FS",
      "ScanningSequence": "EP",
      "SequenceName": "epfid2d1_82",
      "SequenceVariant": [
        "SK",
        "SS"
],
      "SeriesDescription": "func_run-04_task-social_acq-ap-mb8",
      "SeriesNumber": 18,
      "SeriesTime": "130208.405000",
      "SliceLocation": -44.89705357707,
      "SliceThickness": 2.7000000476837,
      "SmallestImagePixelValue": 0,
      "SoftwareVersions": "syngo MR E11",
      "SpacingBetweenSlices": 2.6999999516079,
      "SpecificCharacterSet": "ISO_IR 100",
      "StudyID": "1",
      "StudyTime": "114256.750000",
      "TransmitCoilName": "Body",
      "VariableFlipAngleFlag": "N",
      "WindowCenterWidthExplanation": "Algo1",
      "dBdt": 0.0},
    "slices": {}
  },
  "time": {
    "samples": {
      "AcquisitionNumber": [1, 2, 3, 4, 5, 6, 7, 8, 9, 10, 11, 12, 13, 14, 15, 16, 17, 18, 19, 20, 21, 22, 23, 24, 25, 26, 27, 28, 29, 30, 31, 32, 33, 34, 35, 36, 37, 38, 39, 40, 41, 42, 43, 44, 45, 46, 47, 48, 49, 50, 51, 52, 53, 54, 55, 56, 57, 58, 59, 60, 61, 62, 63, 64, 65, 66, 67, 68, 69, 70, 71, 72, 73, 74, 75, 76, 77, 78, 79, 80, 81, 82, 83, 84, 85, 86, 87, 88, 89, 90, 91, 92, 93, 94, 95, 96, 97, 98, 99, 100, 101, 102, 103, 104, 105, 106, 107, 108, 109, 110, 111, 112, 113, 114, 115, 116, 117, 118, 119, 120, 121, 122, 123, 124, 125, 126, 127, 128, 129, 130, 131, 132, 133, 134, 135, 136, 137, 138, 139, 140, 141, 142, 143, 144, 145, 146, 147, 148, 149, 150, 151, 152, 153, 154, 155, 156, 157, 158, 159, 160, 161, 162, 163, 164, 165, 166, 167, 168, 169, 170, 171, 172, 173, 174, 175, 176, 177, 178, 179, 180, 181, 182, 183, 184, 185, 186, 187, 188, 189, 190, 191, 192, 193, 194, 195, 196, 197, 198, 199, 200, 201, 202, 203, 204, 205, 206, 207, 208, 209, 210, 211, 212, 213, 214, 215, 216, 217, 218, 219, 220, 221, 222, 223, 224, 225, 226, 227, 228, 229, 230, 231, 232, 233, 234, 235, 236, 237, 238, 239, 240, 241, 242, 243, 244, 245, 246, 247, 248, 249, 250, 251, 252, 253, 254, 255, 256, 257, 258, 259, 260, 261, 262, 263, 264, 265, 266, 267, 268, 269, 270, 271, 272, 273, 274, 275, 276, 277, 278, 279, 280, 281, 282, 283, 284, 285, 286, 287, 288, 289, 290, 291, 292, 293, 294, 295, 296, 297, 298, 299, 300, 301, 302, 303, 304, 305, 306, 307, 308, 309, 310, 311, 312, 313, 314, 315, 316, 317, 318, 319, 320, 321, 322, 323, 324, 325, 326, 327, 328, 329, 330, 331, 332, 333, 334, 335, 336, 337, 338, 339, 340, 341, 342, 343, 344, 345, 346, 347, 348, 349, 350, 351, 352, 353, 354, 355, 356, 357, 358, 359, 360, 361, 362, 363, 364, 365, 366, 367, 368, 369, 370, 371, 372, 373, 374, 375, 376, 377, 378, 379, 380, 381, 382, 383, 384, 385, 386, 387, 388, 389, 390, 391, 392, 393, 394, 395, 396, 397, 398, 399, 400, 401, 402, 403, 404, 405, 406, 407, 408, 409, 410, 411, 412, 413, 414, 415, 416, 417, 418, 419, 420, 421, 422, 423, 424, 425, 426, 427, 428, 429, 430, 431, 432, 433, 434, 435, 436, 437, 438, 439, 440],
      "AcquisitionTime": ["130158.190000", "130158.650000", "130159.110000", "130159.570000", "130200.030000", "130200.490000", "130200.950000", "130201.410000", "130201.870000", "130202.330000", "130202.790000", "130203.250000", "130203.710000", "130204.170000", "130204.630000", "130205.090000", "130205.550000", "130206.010000", "130206.470000", "130206.930000", "130207.390000", "130207.850000", "130208.310000", "130208.770000", "130209.230000", "130209.690000", "130210.150000", "130210.610000", "130211.070000", "130211.530000", "130211.990000", "130212.450000", "130212.910000", "130213.370000", "130213.830000", "130214.290000", "130214.750000", "130215.210000", "130215.670000", "130216.130000", "130216.590000", "130217.050000", "130217.510000", "130217.970000", "130218.430000", "130218.890000", "130219.350000", "130219.810000", "130220.270000", "130220.730000", "130221.190000", "130221.650000", "130222.110000", "130222.570000", "130223.030000", "130223.490000", "130223.950000", "130224.410000", "130224.870000", "130225.330000", "130225.790000", "130226.250000", "130226.710000", "130227.170000", "130227.630000", "130228.090000", "130228.550000", "130229.010000", "130229.470000", "130229.930000", "130230.390000", "130230.850000", "130231.310000", "130231.770000", "130232.230000", "130232.690000", "130233.150000", "130233.610000", "130234.070000", "130234.530000", "130234.990000", "130235.450000", "130235.910000", "130236.370000", "130236.830000", "130237.290000", "130237.750000", "130238.210000", "130238.670000", "130239.130000", "130239.590000", "130240.050000", "130240.510000", "130240.970000", "130241.430000", "130241.890000", "130242.350000", "130242.810000", "130243.270000", "130243.730000", "130244.190000", "130244.650000", "130245.110000", "130245.570000", "130246.030000", "130246.490000", "130246.950000", "130247.410000", "130247.870000", "130248.330000", "130248.790000", "130249.250000", "130249.710000", "130250.170000", "130250.630000", "130251.090000", "130251.550000", "130252.010000", "130252.470000", "130252.930000", "130253.390000", "130253.850000", "130254.310000", "130254.770000", "130255.230000", "130255.690000", "130256.150000", "130256.610000", "130257.070000", "130257.530000", "130257.990000", "130258.450000", "130258.910000", "130259.370000", "130259.830000", "130300.290000", "130300.750000", "130301.210000", "130301.670000", "130302.130000", "130302.590000", "130303.050000", "130303.510000", "130303.970000", "130304.430000", "130304.890000", "130305.350000", "130305.810000", "130306.270000", "130306.730000", "130307.190000", "130307.650000", "130308.110000", "130308.570000", "130309.030000", "130309.490000", "130309.950000", "130310.410000", "130310.870000", "130311.330000", "130311.790000", "130312.250000", "130312.710000", "130313.170000", "130313.630000", "130314.090000", "130314.550000", "130315.010000", "130315.470000", "130315.930000", "130316.390000", "130316.850000", "130317.310000", "130317.770000", "130318.230000", "130318.690000", "130319.150000", "130319.610000", "130320.070000", "130320.530000", "130320.990000", "130321.450000", "130321.910000", "130322.370000", "130322.830000", "130323.290000", "130323.750000", "130324.210000", "130324.670000", "130325.130000", "130325.590000", "130326.050000", "130326.510000", "130326.970000", "130327.430000", "130327.890000", "130328.350000", "130328.810000", "130329.270000", "130329.730000", "130330.190000", "130330.650000", "130331.110000", "130331.570000", "130332.030000", "130332.490000", "130332.950000", "130333.410000", "130333.870000", "130334.330000", "130334.790000", "130335.250000", "130335.710000", "130336.170000", "130336.630000", "130337.090000", "130337.550000", "130338.010000", "130338.470000", "130338.930000", "130339.390000", "130339.850000", "130340.310000", "130340.770000", "130341.230000", "130341.690000", "130342.150000", "130342.610000", "130343.070000", "130343.530000", "130343.990000", "130344.450000", "130344.910000", "130345.370000", "130345.830000", "130346.290000", "130346.750000", "130347.210000", "130347.670000", "130348.130000", "130348.590000", "130349.050000", "130349.510000", "130349.970000", "130350.430000", "130350.890000", "130351.350000", "130351.810000", "130352.270000", "130352.730000", "130353.190000", "130353.650000", "130354.110000", "130354.570000", "130355.030000", "130355.490000", "130355.950000", "130356.410000", "130356.870000", "130357.330000", "130357.790000", "130358.250000", "130358.710000", "130359.170000", "130359.630000", "130400.090000", "130400.550000", "130401.010000", "130401.470000", "130401.930000", "130402.390000", "130402.850000", "130403.310000", "130403.770000", "130404.230000", "130404.690000", "130405.150000", "130405.610000", "130406.070000", "130406.530000", "130406.990000", "130407.450000", "130407.910000", "130408.370000", "130408.830000", "130409.290000", "130409.750000", "130410.210000", "130410.670000", "130411.130000", "130411.590000", "130412.050000", "130412.510000", "130412.970000", "130413.430000", "130413.890000", "130414.350000", "130414.810000", "130415.270000", "130415.730000", "130416.190000", "130416.650000", "130417.110000", "130417.570000", "130418.030000", "130418.490000", "130418.950000", "130419.410000", "130419.870000", "130420.330000", "130420.790000", "130421.250000", "130421.710000", "130422.170000", "130422.630000", "130423.090000", "130423.550000", "130424.010000", "130424.470000", "130424.930000", "130425.390000", "130425.850000", "130426.310000", "130426.770000", "130427.230000", "130427.690000", "130428.150000", "130428.610000", "130429.070000", "130429.530000", "130429.990000", "130430.450000", "130430.910000", "130431.370000", "130431.830000", "130432.290000", "130432.750000", "130433.210000", "130433.670000", "130434.130000", "130434.590000", "130435.050000", "130435.510000", "130435.970000", "130436.430000", "130436.890000", "130437.350000", "130437.810000", "130438.270000", "130438.730000", "130439.190000", "130439.650000", "130440.110000", "130440.570000", "130441.030000", "130441.490000", "130441.950000", "130442.410000", "130442.870000", "130443.330000", "130443.790000", "130444.250000", "130444.710000", "130445.170000", "130445.630000", "130446.090000", "130446.550000", "130447.010000", "130447.470000", "130447.930000", "130448.390000", "130448.850000", "130449.310000", "130449.770000", "130450.230000", "130450.690000", "130451.150000", "130451.610000", "130452.070000", "130452.530000", "130452.990000", "130453.450000", "130453.910000", "130454.370000", "130454.830000", "130455.290000", "130455.750000", "130456.210000", "130456.670000", "130457.130000", "130457.590000", "130458.050000", "130458.510000", "130458.970000", "130459.430000", "130459.890000", "130500.350000", "130500.810000", "130501.270000", "130501.730000", "130502.190000", "130502.650000", "130503.110000", "130503.570000", "130504.030000", "130504.490000", "130504.950000", "130505.410000", "130505.870000", "130506.330000", "130506.790000", "130507.250000", "130507.710000", "130508.170000", "130508.630000", "130509.090000", "130509.550000", "130510.010000", "130510.470000", "130510.930000", "130511.390000", "130511.850000", "130512.310000", "130512.770000", "130513.230000", "130513.690000", "130514.150000", "130514.610000", "130515.070000", "130515.530000", "130515.990000", "130516.450000", "130516.910000", "130517.370000", "130517.830000", "130518.290000", "130518.750000", "130519.210000", "130519.670000", "130520.130000"],
      "ContentTime": ["130208.407000", "130208.411000", "130208.417000", "130208.420000", "130208.423000", "130208.425000", "130208.429000", "130208.432000", "130208.435000", "130208.438000", "130208.441000", "130208.443000", "130208.451000", "130208.454000", "130208.457000", "130208.460000", "130208.463000", "130208.466000", "130208.470000", "130208.472000", "130228.378000", "130228.381000", "130228.384000", "130228.387000", "130228.390000", "130228.393000", "130228.396000", "130228.398000", "130228.401000", "130228.404000", "130228.417000", "130228.419000", "130228.422000", "130228.425000", "130228.428000", "130228.431000", "130228.433000", "130228.436000", "130228.439000", "130228.442000", "130228.445000", "130228.448000", "130228.450000", "130228.453000", "130228.456000", "130228.459000", "130228.462000", "130228.464000", "130228.467000", "130228.470000", "130228.473000", "130228.476000", "130228.478000", "130228.481000", "130228.484000", "130228.487000", "130228.490000", "130228.493000", "130228.496000", "130228.498000", "130228.501000", "130228.504000", "130228.507000", "130248.379000", "130248.382000", "130248.385000", "130248.387000", "130248.390000", "130248.393000", "130248.396000", "130248.399000", "130248.402000", "130248.404000", "130248.407000", "130248.410000", "130248.413000", "130248.416000", "130248.418000", "130248.421000", "130248.424000", "130248.429000", "130248.432000", "130248.435000", "130248.438000", "130248.440000", "130248.443000", "130248.446000", "130248.449000", "130248.452000", "130248.455000", "130248.457000", "130248.460000", "130248.463000", "130248.466000", "130248.469000", "130248.472000", "130248.474000", "130248.477000", "130248.491000", "130248.494000", "130248.496000", "130248.499000", "130248.502000", "130248.505000", "130248.508000", "130248.510000", "130248.513000", "130308.379000", "130308.382000", "130308.385000", "130308.388000", "130308.391000", "130308.394000", "130308.397000", "130308.399000", "130308.402000", "130308.405000", "130308.408000", "130308.411000", "130308.414000", "130308.417000", "130308.420000", "130308.422000", "130308.425000", "130308.428000", "130308.431000", "130308.434000", "130308.437000", "130308.439000", "130308.442000", "130308.445000", "130308.448000", "130308.451000", "130308.454000", "130308.456000", "130308.459000", "130308.462000", "130308.465000", "130308.468000", "130308.471000", "130308.473000", "130308.476000", "130308.479000", "130308.482000", "130308.485000", "130308.488000", "130308.490000", "130308.493000", "130308.496000", "130308.499000", "130328.379000", "130328.382000", "130328.385000", "130328.388000", "130328.390000", "130328.393000", "130328.396000", "130328.399000", "130328.402000", "130328.404000", "130328.407000", "130328.410000", "130328.413000", "130328.416000", "130328.418000", "130328.421000", "130328.424000", "130328.427000", "130328.430000", "130328.433000", "130328.435000", "130328.438000", "130328.441000", "130328.444000", "130328.447000", "130328.449000", "130328.452000", "130328.455000", "130328.458000", "130328.461000", "130328.464000", "130328.466000", "130328.469000", "130328.472000", "130328.475000", "130328.478000", "130328.481000", "130328.483000", "130328.486000", "130328.489000", "130328.492000", "130328.495000", "130328.498000", "130328.501000", "130348.378000", "130348.381000", "130348.384000", "130348.387000", "130348.390000", "130348.393000", "130348.395000", "130348.398000", "130348.401000", "130348.404000", "130348.407000", "130348.409000", "130348.412000", "130348.415000", "130348.418000", "130348.421000", "130348.423000", "130348.427000", "130348.429000", "130348.438000", "130348.440000", "130348.443000", "130348.446000", "130348.449000", "130348.452000", "130348.454000", "130348.457000", "130348.460000", "130348.463000", "130348.466000", "130348.469000", "130348.472000", "130348.474000", "130348.477000", "130348.480000", "130348.483000", "130348.486000", "130348.488000", "130348.491000", "130348.494000", "130348.497000", "130348.500000", "130348.503000", "130408.378000", "130408.381000", "130408.384000", "130408.387000", "130408.389000", "130408.392000", "130408.395000", "130408.398000", "130408.401000", "130408.403000", "130408.406000", "130408.409000", "130408.412000", "130408.415000", "130408.418000", "130408.420000", "130408.423000", "130408.426000", "130408.429000", "130408.432000", "130408.435000", "130408.438000", "130408.440000", "130408.443000", "130408.446000", "130408.449000", "130408.452000", "130408.455000", "130408.457000", "130408.460000", "130408.463000", "130408.466000", "130408.469000", "130408.472000", "130408.475000", "130408.477000", "130408.480000", "130408.483000", "130408.486000", "130408.489000", "130408.491000", "130408.494000", "130408.497000", "130408.500000", "130428.379000", "130428.382000", "130428.385000", "130428.388000", "130428.391000", "130428.394000", "130428.396000", "130428.399000", "130428.402000", "130428.405000", "130428.408000", "130428.410000", "130428.413000", "130428.416000", "130428.419000", "130428.422000", "130428.425000", "130428.428000", "130428.431000", "130428.433000", "130428.436000", "130428.439000", "130428.442000", "130428.445000", "130428.448000", "130428.451000", "130428.454000", "130428.457000", "130428.460000", "130428.462000", "130428.480000", "130428.483000", "130428.486000", "130428.488000", "130428.491000", "130428.494000", "130428.497000", "130428.500000", "130428.503000", "130428.506000", "130428.508000", "130428.511000", "130428.514000", "130448.378000", "130448.381000", "130448.384000", "130448.387000", "130448.390000", "130448.392000", "130448.395000", "130448.398000", "130448.401000", "130448.404000", "130448.407000", "130448.410000", "130448.412000", "130448.415000", "130448.418000", "130448.421000", "130448.424000", "130448.427000", "130448.430000", "130448.433000", "130448.435000", "130448.438000", "130448.441000", "130448.444000", "130448.447000", "130448.450000", "130448.452000", "130448.455000", "130448.458000", "130448.461000", "130448.464000", "130448.467000", "130448.470000", "130448.472000", "130448.475000", "130448.478000", "130448.481000", "130448.484000", "130448.486000", "130448.489000", "130448.492000", "130448.495000", "130448.498000", "130448.501000", "130508.379000", "130508.382000", "130508.385000", "130508.388000", "130508.391000", "130508.393000", "130508.396000", "130508.399000", "130508.402000", "130508.405000", "130508.407000", "130508.410000", "130508.413000", "130508.416000", "130508.419000", "130508.422000", "130508.425000", "130508.428000", "130508.430000", "130508.433000", "130508.436000", "130508.439000", "130508.442000", "130508.445000", "130508.447000", "130508.450000", "130508.453000", "130508.456000", "130508.459000", "130508.462000", "130508.466000", "130508.470000", "130508.473000", "130508.476000", "130508.479000", "130508.481000", "130508.484000", "130508.487000", "130508.490000", "130508.493000", "130508.496000", "130508.498000", "130508.501000", "130522.082000", "130522.086000", "130522.089000", "130522.092000", "130522.097000", "130522.100000", "130522.105000", "130522.108000", "130522.111000", "130522.114000", "130522.119000", "130522.123000", "130522.127000", "130522.130000", "130522.133000", "130522.136000", "130522.139000", "130522.142000", "130522.145000", "130522.148000", "130522.151000", "130522.154000", "130522.157000", "130522.159000", "130522.163000", "130522.166000", "130522.169000", "130522.171000", "130522.174000"],
