{
  "AcquisitionMatrixPE": 82,
  "AcquisitionNumber": 1,
  "AcquisitionTime": "12:40:23.172500",
  "BandwidthPerPixelPhaseEncode": 24.888,
  "BaseResolution": 82,
  "BodyPartExamined": "BRAIN",
  "ConsistencyInfo": "N4_VE11C_LATEST_20160120",
  "ConversionSoftware": "dcm2niix",
  "ConversionSoftwareVersion": "v1.0.20201102",
  "DerivedVendorReportedEchoSpacing": 0.00049,
  "DeviceSerialNumber": "66112",
  "DwellTime": 2e-06,
  "EchoTime": 0.0272,
  "EchoTrainLength": 82,
  "EffectiveEchoSpacing": 0.00049,
  "FlipAngle": 44,
  "ImageComments": "Unaliased MB8/PE3",
  "ImageOrientationPatientDICOM": [0.999143, 0.0136312, 0.0390933, -0.0125563, 0.99954, -0.0276119],
  "ImageType": [
    "ORIGINAL",
    "PRIMARY",
    "M",
    "MB",
    "ND",
    "NORM",
    "MOSAIC"
],
  "ImagingFrequency": 123.252,
  "InPlanePhaseEncodingDirectionDICOM": "COL",
  "InstitutionAddress": "Maynard 3,Hanover,NH,US,03755",
  "InstitutionName": "dartmouth_brain_imaging_center",
  "InstitutionalDepartmentName": "Department",
  "MRAcquisitionType": "2D",
  "MagneticFieldStrength": 3,
  "Manufacturer": "Siemens",
  "ManufacturersModelName": "Prisma",
  "Modality": "MR",
  "MultibandAccelerationFactor": 8,
  "PartialFourier": 1,
  "PatientPosition": "HFS",
  "PercentPhaseFOV": 100,
  "PercentSampling": 100,
  "PhaseEncodingDirection": "j-",
  "PhaseEncodingSteps": 82,
  "PhaseResolution": 1,
  "PixelBandwidth": 3050,
  "ProcedureStepDescription": "Wager_Wager^1076_spacetop",
  "ProtocolName": "func_run-01_task-social_acq-ap-mb8",
  "PulseSequenceDetails": "%CustomerSeq%\\cmrr_mbep2d_bold",
  "ReceiveCoilActiveElements": "HEA;HEP",
  "ReceiveCoilName": "Head_32",
  "ReconMatrixPE": 82,
  "RepetitionTime": 0.46,
  "SAR": 0.100154,
  "ScanOptions": "FS",
  "ScanningSequence": "EP",
  "SequenceName": "epfid2d1_82",
  "SequenceVariant": "SK\\SS",
  "SeriesDescription": "func_run-01_task-social_acq-ap-mb8",
  "SeriesNumber": 12,
  "ShimSetting": [4171, -7739, -7203, 549, 34, -123, 76, 80],
  "SliceThickness": 2.7,
  "SliceTiming": [0, 0.25, 0.0625, 0.3125, 0.125, 0.3775, 0.1875, 0, 0.25, 0.0625, 0.3125, 0.125, 0.3775, 0.1875, 0, 0.25, 0.0625, 0.3125, 0.125, 0.3775, 0.1875, 0, 0.25, 0.0625, 0.3125, 0.125, 0.3775, 0.1875, 0, 0.25, 0.0625, 0.3125, 0.125, 0.3775, 0.1875, 0, 0.25, 0.0625, 0.3125, 0.125, 0.3775, 0.1875, 0, 0.25, 0.0625, 0.3125, 0.125, 0.3775, 0.1875, 0, 0.25, 0.0625, 0.3125, 0.125, 0.3775, 0.1875],
  "SoftwareVersions": "syngo MR E11",
  "SpacingBetweenSlices": 2.7,
  "StationName": "AWP66112",
  "TaskName": "social",
  "TotalReadoutTime": 0.03969,
  "TxRefAmp": 259.337,
  "WipMemBlock": "4be96576-8e76-455c-909e-b0fb781a7e6a||Sequence: R016 ve11c/master r/e634e98; Dec 19 2017 11:00:25 by eja",
  "dcmmeta_affine": [
    [-2.680626392364502, -0.03368763253092766, 0.10651962459087372, 113.94967651367188],
    [-0.03657164052128792, 2.681692361831665, -0.07316293567419052, -88.04350280761719],
    [0.10488451272249222, 0.07408078014850616, 2.6969056129455566, -51.83771896362305],
    [0.0, 0.0, 0.0, 1.0]
],
  "dcmmeta_reorient_transform": [
    [0.0, -1.0, 0.0, 81.0],
    [1.0, 0.0, 0.0, 0.0],
    [0.0, 0.0, 1.0, 0.0],
    [0.0, 0.0, 0.0, 1.0]
],
  "dcmmeta_shape": [82, 82, 56, 872],
  "dcmmeta_slice_dim": 2,
  "dcmmeta_version": 0.6,
  "global": {
    "const": {
      "AccessionNumber": "A003560",
      "AcquisitionMatrix": [82, 0, 0, 82],
      "AngioFlag": "N",
      "BitsAllocated": 16,
      "BitsStored": 16,
      "BodyPartExamined": "BRAIN",
      "Columns": 656,
      "EchoNumbers": 1,
      "EchoTime": 27.2,
      "EchoTrainLength": 82,
      "FlipAngle": 44.0,
      "HighBit": 15,
      "ImageOrientationPatient": [0.99914258326598, 0.01363124740763, 0.03909331654767, -0.0125562992959, 0.99953985459717, -0.0276119253196],
      "ImagePositionPatient": [-870.89243706614, -909.31534726224, -54.677847086306],
      "ImageType": [
        "ORIGINAL",
        "PRIMARY",
        "M",
        "MB",
        "ND",
        "NORM",
        "MOSAIC"
],
      "ImagedNucleus": "1H",
      "ImagingFrequency": 123.25211,
      "InPlanePhaseEncodingDirection": "COL",
      "MRAcquisitionType": "2D",
      "MagneticFieldStrength": 3.0,
      "Manufacturer": "SIEMENS",
      "ManufacturerModelName": "Prisma",
      "Modality": "MR",
      "NumberOfAverages": 1.0,
      "NumberOfPhaseEncodingSteps": 82,
      "PercentPhaseFieldOfView": 100.0,
      "PercentSampling": 100.0,
      "PerformedProcedureStepStartTime": "114256.827000",
      "PhotometricInterpretation": "MONOCHROME2",
      "PixelBandwidth": 3050.0,
      "PixelRepresentation": 0,
      "PixelSpacing": [2.6829268932343, 2.6829268932343],
      "ProtocolName": "func_run-01_task-social_acq-ap-mb8",
      "RepetitionTime": 460.0,
      "Rows": 656,
      "SAR": 0.10015407120511,
      "SamplesPerPixel": 1,
      "ScanOptions": "FS",
      "ScanningSequence": "EP",
      "SequenceName": "epfid2d1_82",
      "SequenceVariant": [
        "SK",
        "SS"
],
      "SeriesDescription": "func_run-01_task-social_acq-ap-mb8",
      "SeriesNumber": 12,
      "SeriesTime": "124048.416000",
      "SliceLocation": -44.89705357707,
      "SliceThickness": 2.7000000476837,
      "SmallestImagePixelValue": 0,
      "SoftwareVersions": "syngo MR E11",
      "SpacingBetweenSlices": 2.6999999516079,
      "SpecificCharacterSet": "ISO_IR 100",
      "StudyID": "1",
      "StudyTime": "114256.750000",
      "TransmitCoilName": "Body",
      "VariableFlipAngleFlag": "N",
      "WindowCenterWidthExplanation": "Algo1",
      "dBdt": 0.0},
    "slices": {}
  },
  "time": {
    "samples": {
      "AcquisitionNumber": [1, 2, 3, 4, 5, 6, 7, 8, 9, 10, 11, 12, 13, 14, 15, 16, 17, 18, 19, 20, 21, 22, 23, 24, 25, 26, 27, 28, 29, 30, 31, 32, 33, 34, 35, 36, 37, 38, 39, 40, 41, 42, 43, 44, 45, 46, 47, 48, 49, 50, 51, 52, 53, 54, 55, 56, 57, 58, 59, 60, 61, 62, 63, 64, 65, 66, 67, 68, 69, 70, 71, 72, 73, 74, 75, 76, 77, 78, 79, 80, 81, 82, 83, 84, 85, 86, 87, 88, 89, 90, 91, 92, 93, 94, 95, 96, 97, 98, 99, 100, 101, 102, 103, 104, 105, 106, 107, 108, 109, 110, 111, 112, 113, 114, 115, 116, 117, 118, 119, 120, 121, 122, 123, 124, 125, 126, 127, 128, 129, 130, 131, 132, 133, 134, 135, 136, 137, 138, 139, 140, 141, 142, 143, 144, 145, 146, 147, 148, 149, 150, 151, 152, 153, 154, 155, 156, 157, 158, 159, 160, 161, 162, 163, 164, 165, 166, 167, 168, 169, 170, 171, 172, 173, 174, 175, 176, 177, 178, 179, 180, 181, 182, 183, 184, 185, 186, 187, 188, 189, 190, 191, 192, 193, 194, 195, 196, 197, 198, 199, 200, 201, 202, 203, 204, 205, 206, 207, 208, 209, 210, 211, 212, 213, 214, 215, 216, 217, 218, 219, 220, 221, 222, 223, 224, 225, 226, 227, 228, 229, 230, 231, 232, 233, 234, 235, 236, 237, 238, 239, 240, 241, 242, 243, 244, 245, 246, 247, 248, 249, 250, 251, 252, 253, 254, 255, 256, 257, 258, 259, 260, 261, 262, 263, 264, 265, 266, 267, 268, 269, 270, 271, 272, 273, 274, 275, 276, 277, 278, 279, 280, 281, 282, 283, 284, 285, 286, 287, 288, 289, 290, 291, 292, 293, 294, 295, 296, 297, 298, 299, 300, 301, 302, 303, 304, 305, 306, 307, 308, 309, 310, 311, 312, 313, 314, 315, 316, 317, 318, 319, 320, 321, 322, 323, 324, 325, 326, 327, 328, 329, 330, 331, 332, 333, 334, 335, 336, 337, 338, 339, 340, 341, 342, 343, 344, 345, 346, 347, 348, 349, 350, 351, 352, 353, 354, 355, 356, 357, 358, 359, 360, 361, 362, 363, 364, 365, 366, 367, 368, 369, 370, 371, 372, 373, 374, 375, 376, 377, 378, 379, 380, 381, 382, 383, 384, 385, 386, 387, 388, 389, 390, 391, 392, 393, 394, 395, 396, 397, 398, 399, 400, 401, 402, 403, 404, 405, 406, 407, 408, 409, 410, 411, 412, 413, 414, 415, 416, 417, 418, 419, 420, 421, 422, 423, 424, 425, 426, 427, 428, 429, 430, 431, 432, 433, 434, 435, 436, 437, 438, 439, 440, 441, 442, 443, 444, 445, 446, 447, 448, 449, 450, 451, 452, 453, 454, 455, 456, 457, 458, 459, 460, 461, 462, 463, 464, 465, 466, 467, 468, 469, 470, 471, 472, 473, 474, 475, 476, 477, 478, 479, 480, 481, 482, 483, 484, 485, 486, 487, 488, 489, 490, 491, 492, 493, 494, 495, 496, 497, 498, 499, 500, 501, 502, 503, 504, 505, 506, 507, 508, 509, 510, 511, 512, 513, 514, 515, 516, 517, 518, 519, 520, 521, 522, 523, 524, 525, 526, 527, 528, 529, 530, 531, 532, 533, 534, 535, 536, 537, 538, 539, 540, 541, 542, 543, 544, 545, 546, 547, 548, 549, 550, 551, 552, 553, 554, 555, 556, 557, 558, 559, 560, 561, 562, 563, 564, 565, 566, 567, 568, 569, 570, 571, 572, 573, 574, 575, 576, 577, 578, 579, 580, 581, 582, 583, 584, 585, 586, 587, 588, 589, 590, 591, 592, 593, 594, 595, 596, 597, 598, 599, 600, 601, 602, 603, 604, 605, 606, 607, 608, 609, 610, 611, 612, 613, 614, 615, 616, 617, 618, 619, 620, 621, 622, 623, 624, 625, 626, 627, 628, 629, 630, 631, 632, 633, 634, 635, 636, 637, 638, 639, 640, 641, 642, 643, 644, 645, 646, 647, 648, 649, 650, 651, 652, 653, 654, 655, 656, 657, 658, 659, 660, 661, 662, 663, 664, 665, 666, 667, 668, 669, 670, 671, 672, 673, 674, 675, 676, 677, 678, 679, 680, 681, 682, 683, 684, 685, 686, 687, 688, 689, 690, 691, 692, 693, 694, 695, 696, 697, 698, 699, 700, 701, 702, 703, 704, 705, 706, 707, 708, 709, 710, 711, 712, 713, 714, 715, 716, 717, 718, 719, 720, 721, 722, 723, 724, 725, 726, 727, 728, 729, 730, 731, 732, 733, 734, 735, 736, 737, 738, 739, 740, 741, 742, 743, 744, 745, 746, 747, 748, 749, 750, 751, 752, 753, 754, 755, 756, 757, 758, 759, 760, 761, 762, 763, 764, 765, 766, 767, 768, 769, 770, 771, 772, 773, 774, 775, 776, 777, 778, 779, 780, 781, 782, 783, 784, 785, 786, 787, 788, 789, 790, 791, 792, 793, 794, 795, 796, 797, 798, 799, 800, 801, 802, 803, 804, 805, 806, 807, 808, 809, 810, 811, 812, 813, 814, 815, 816, 817, 818, 819, 820, 821, 822, 823, 824, 825, 826, 827, 828, 829, 830, 831, 832, 833, 834, 835, 836, 837, 838, 839, 840, 841, 842, 843, 844, 845, 846, 847, 848, 849, 850, 851, 852, 853, 854, 855, 856, 857, 858, 859, 860, 861, 862, 863, 864, 865, 866, 867, 868, 869, 870, 871, 872],
      "AcquisitionTime": ["124023.172500", "124023.632500", "124024.092500", "124024.552500", "124025.012500", "124025.472500", "124025.932500", "124026.392500", "124026.852500", "124027.312500", "124027.772500", "124028.232500", "124028.692500", "124029.152500", "124029.612500", "124030.072500", "124030.532500", "124030.992500", "124031.452500", "124031.912500", "124032.372500", "124032.832500", "124033.292500", "124033.752500", "124034.212500", "124034.672500", "124035.132500", "124035.592500", "124036.052500", "124036.512500", "124036.972500", "124037.432500", "124037.892500", "124038.352500", "124038.812500", "124039.272500", "124039.732500", "124040.192500", "124040.652500", "124041.112500", "124041.572500", "124042.032500", "124042.492500", "124042.952500", "124043.412500", "124043.872500", "124044.332500", "124044.792500", "124045.252500", "124045.712500", "124046.172500", "124046.632500", "124047.092500", "124047.552500", "124048.012500", "124048.472500", "124048.932500", "124049.392500", "124049.852500", "124050.312500", "124050.772500", "124051.232500", "124051.692500", "124052.152500", "124052.612500", "124053.072500", "124053.532500", "124053.992500", "124054.452500", "124054.912500", "124055.372500", "124055.832500", "124056.292500", "124056.752500", "124057.212500", "124057.672500", "124058.132500", "124058.592500", "124059.052500", "124059.512500", "124059.972500", "124100.432500", "124100.892500", "124101.352500", "124101.812500", "124102.272500", "124102.732500", "124103.192500", "124103.652500", "124104.112500", "124104.572500", "124105.032500", "124105.492500", "124105.952500", "124106.412500", "124106.872500", "124107.332500", "124107.792500", "124108.252500", "124108.712500", "124109.172500", "124109.632500", "124110.092500", "124110.552500", "124111.012500", "124111.472500", "124111.932500", "124112.392500", "124112.852500", "124113.312500", "124113.772500", "124114.232500", "124114.692500", "124115.152500", "124115.612500", "124116.072500", "124116.532500", "124116.992500", "124117.452500", "124117.912500", "124118.372500", "124118.832500", "124119.292500", "124119.752500", "124120.212500", "124120.672500", "124121.132500", "124121.592500", "124122.052500", "124122.512500", "124122.972500", "124123.432500", "124123.892500", "124124.352500", "124124.812500", "124125.272500", "124125.732500", "124126.192500", "124126.652500", "124127.112500", "124127.572500", "124128.032500", "124128.492500", "124128.952500", "124129.412500", "124129.872500", "124130.332500", "124130.792500", "124131.252500", "124131.712500", "124132.172500", "124132.632500", "124133.092500", "124133.552500", "124134.012500", "124134.472500", "124134.932500", "124135.392500", "124135.852500", "124136.312500", "124136.772500", "124137.232500", "124137.692500", "124138.152500", "124138.612500", "124139.072500", "124139.532500", "124139.992500", "124140.452500", "124140.912500", "124141.372500", "124141.832500", "124142.292500", "124142.752500", "124143.212500", "124143.672500", "124144.132500", "124144.592500", "124145.052500", "124145.512500", "124145.972500", "124146.432500", "124146.892500", "124147.352500", "124147.812500", "124148.272500", "124148.732500", "124149.192500", "124149.652500", "124150.112500", "124150.572500", "124151.032500", "124151.492500", "124151.952500", "124152.412500", "124152.872500", "124153.332500", "124153.792500", "124154.252500", "124154.712500", "124155.172500", "124155.632500", "124156.092500", "124156.552500", "124157.012500", "124157.472500", "124157.932500", "124158.392500", "124158.852500", "124159.312500", "124159.772500", "124200.232500", "124200.692500", "124201.152500", "124201.612500", "124202.072500", "124202.532500", "124202.992500", "124203.452500", "124203.912500", "124204.372500", "124204.832500", "124205.292500", "124205.752500", "124206.212500", "124206.672500", "124207.132500", "124207.592500", "124208.052500", "124208.512500", "124208.972500", "124209.432500", "124209.892500", "124210.352500", "124210.812500", "124211.272500", "124211.732500", "124212.192500", "124212.652500", "124213.112500", "124213.572500", "124214.032500", "124214.492500", "124214.952500", "124215.412500", "124215.872500", "124216.332500", "124216.792500", "124217.252500", "124217.712500", "124218.172500", "124218.632500", "124219.092500", "124219.552500", "124220.012500", "124220.472500", "124220.932500", "124221.392500", "124221.852500", "124222.312500", "124222.772500", "124223.232500", "124223.692500", "124224.152500", "124224.612500", "124225.072500", "124225.532500", "124225.992500", "124226.452500", "124226.912500", "124227.372500", "124227.832500", "124228.292500", "124228.752500", "124229.212500", "124229.672500", "124230.132500", "124230.592500", "124231.052500", "124231.512500", "124231.972500", "124232.432500", "124232.892500", "124233.352500", "124233.812500", "124234.272500", "124234.732500", "124235.192500", "124235.652500", "124236.112500", "124236.572500", "124237.032500", "124237.492500", "124237.952500", "124238.412500", "124238.872500", "124239.332500", "124239.792500", "124240.252500", "124240.712500", "124241.172500", "124241.632500", "124242.092500", "124242.552500", "124243.012500", "124243.472500", "124243.932500", "124244.392500", "124244.852500", "124245.312500", "124245.772500", "124246.232500", "124246.692500", "124247.152500", "124247.612500", "124248.072500", "124248.532500", "124248.992500", "124249.452500", "124249.912500", "124250.372500", "124250.832500", "124251.292500", "124251.752500", "124252.212500", "124252.672500", "124253.132500", "124253.592500", "124254.052500", "124254.512500", "124254.972500", "124255.432500", "124255.892500", "124256.352500", "124256.812500", "124257.272500", "124257.732500", "124258.192500", "124258.652500", "124259.112500", "124259.572500", "124300.032500", "124300.492500", "124300.952500", "124301.412500", "124301.872500", "124302.332500", "124302.792500", "124303.252500", "124303.712500", "124304.172500", "124304.632500", "124305.092500", "124305.552500", "124306.012500", "124306.472500", "124306.932500", "124307.392500", "124307.852500", "124308.312500", "124308.772500", "124309.232500", "124309.692500", "124310.152500", "124310.612500", "124311.072500", "124311.532500", "124311.992500", "124312.452500", "124312.912500", "124313.372500", "124313.832500", "124314.292500", "124314.752500", "124315.212500", "124315.672500", "124316.132500", "124316.592500", "124317.052500", "124317.512500", "124317.972500", "124318.432500", "124318.892500", "124319.352500", "124319.812500", "124320.272500", "124320.732500", "124321.192500", "124321.652500", "124322.112500", "124322.572500", "124323.032500", "124323.492500", "124323.952500", "124324.412500", "124324.872500", "124325.332500", "124325.792500", "124326.252500", "124326.712500", "124327.172500", "124327.632500", "124328.092500", "124328.552500", "124329.012500", "124329.472500", "124329.932500", "124330.392500", "124330.852500", "124331.312500", "124331.772500", "124332.232500", "124332.692500", "124333.152500", "124333.612500", "124334.072500", "124334.532500", "124334.992500", "124335.452500", "124335.912500", "124336.372500", "124336.832500", "124337.292500", "124337.752500", "124338.212500", "124338.672500", "124339.132500", "124339.592500", "124340.052500", "124340.512500", "124340.972500", "124341.432500", "124341.892500", "124342.352500", "124342.812500", "124343.272500", "124343.732500", "124344.192500", "124344.652500", "124345.112500", "124345.572500", "124346.032500", "124346.492500", "124346.952500", "124347.412500", "124347.872500", "124348.332500", "124348.792500", "124349.252500", "124349.712500", "124350.172500", "124350.632500", "124351.092500", "124351.552500", "124352.012500", "124352.472500", "124352.932500", "124353.392500", "124353.852500", "124354.312500", "124354.772500", "124355.232500", "124355.692500", "124356.152500", "124356.612500", "124357.072500", "124357.532500", "124357.992500", "124358.452500", "124358.912500", "124359.372500", "124359.832500", "124400.292500", "124400.752500", "124401.212500", "124401.672500", "124402.132500", "124402.592500", "124403.052500", "124403.512500", "124403.972500", "124404.432500", "124404.892500", "124405.352500", "124405.812500", "124406.272500", "124406.732500", "124407.192500", "124407.652500", "124408.112500", "124408.572500", "124409.032500", "124409.492500", "124409.952500", "124410.412500", "124410.872500", "124411.332500", "124411.792500", "124412.252500", "124412.712500", "124413.172500", "124413.632500", "124414.092500", "124414.552500", "124415.012500", "124415.472500", "124415.932500", "124416.392500", "124416.852500", "124417.312500", "124417.772500", "124418.232500", "124418.692500", "124419.152500", "124419.612500", "124420.072500", "124420.532500", "124420.992500", "124421.452500", "124421.912500", "124422.372500", "124422.832500", "124423.292500", "124423.752500", "124424.212500", "124424.672500", "124425.132500", "124425.592500", "124426.052500", "124426.512500", "124426.972500", "124427.432500", "124427.892500", "124428.352500", "124428.812500", "124429.272500", "124429.732500", "124430.192500", "124430.652500", "124431.112500", "124431.572500", "124432.032500", "124432.492500", "124432.952500", "124433.412500", "124433.872500", "124434.332500", "124434.792500", "124435.252500", "124435.712500", "124436.172500", "124436.632500", "124437.092500", "124437.552500", "124438.012500", "124438.472500", "124438.932500", "124439.392500", "124439.852500", "124440.312500", "124440.772500", "124441.232500", "124441.692500", "124442.152500", "124442.612500", "124443.072500", "124443.532500", "124443.992500", "124444.452500", "124444.912500", "124445.372500", "124445.832500", "124446.292500", "124446.752500", "124447.212500", "124447.672500", "124448.132500", "124448.592500", "124449.052500", "124449.512500", "124449.972500", "124450.432500", "124450.892500", "124451.352500", "124451.812500", "124452.272500", "124452.732500", "124453.192500", "124453.652500", "124454.112500", "124454.572500", "124455.032500", "124455.492500", "124455.952500", "124456.412500", "124456.872500", "124457.332500", "124457.792500", "124458.252500", "124458.712500", "124459.172500", "124459.632500", "124500.092500", "124500.552500", "124501.012500", "124501.472500", "124501.932500", "124502.392500", "124502.852500", "124503.312500", "124503.772500", "124504.232500", "124504.692500", "124505.152500", "124505.612500", "124506.072500", "124506.532500", "124506.992500", "124507.452500", "124507.912500", "124508.372500", "124508.832500", "124509.292500", "124509.752500", "124510.212500", "124510.672500", "124511.132500", "124511.592500", "124512.052500", "124512.512500", "124512.972500", "124513.432500", "124513.892500", "124514.352500", "124514.812500", "124515.272500", "124515.732500", "124516.192500", "124516.652500", "124517.112500", "124517.572500", "124518.032500", "124518.492500", "124518.952500", "124519.412500", "124519.872500", "124520.332500", "124520.792500", "124521.252500", "124521.712500", "124522.172500", "124522.632500", "124523.092500", "124523.552500", "124524.012500", "124524.472500", "124524.932500", "124525.392500", "124525.852500", "124526.312500", "124526.772500", "124527.232500", "124527.692500", "124528.152500", "124528.612500", "124529.072500", "124529.532500", "124529.992500", "124530.452500", "124530.912500", "124531.372500", "124531.832500", "124532.292500", "124532.752500", "124533.212500", "124533.672500", "124534.132500", "124534.592500", "124535.052500", "124535.512500", "124535.972500", "124536.432500", "124536.892500", "124537.352500", "124537.812500", "124538.272500", "124538.732500", "124539.192500", "124539.652500", "124540.112500", "124540.572500", "124541.032500", "124541.492500", "124541.952500", "124542.412500", "124542.872500", "124543.332500", "124543.792500", "124544.252500", "124544.712500", "124545.172500", "124545.632500", "124546.092500", "124546.552500", "124547.012500", "124547.472500", "124547.932500", "124548.392500", "124548.852500", "124549.312500", "124549.772500", "124550.232500", "124550.692500", "124551.152500", "124551.612500", "124552.072500", "124552.532500", "124552.992500", "124553.452500", "124553.912500", "124554.372500", "124554.832500", "124555.292500", "124555.752500", "124556.212500", "124556.672500", "124557.132500", "124557.592500", "124558.052500", "124558.512500", "124558.972500", "124559.432500", "124559.892500", "124600.352500", "124600.812500", "124601.272500", "124601.732500", "124602.192500", "124602.652500", "124603.112500", "124603.572500", "124604.032500", "124604.492500", "124604.952500", "124605.412500", "124605.872500", "124606.332500", "124606.792500", "124607.252500", "124607.712500", "124608.172500", "124608.632500", "124609.092500", "124609.552500", "124610.012500", "124610.472500", "124610.932500", "124611.392500", "124611.852500", "124612.312500", "124612.772500", "124613.232500", "124613.692500", "124614.152500", "124614.612500", "124615.072500", "124615.532500", "124615.992500", "124616.452500", "124616.912500", "124617.372500", "124617.832500", "124618.292500", "124618.752500", "124619.212500", "124619.672500", "124620.132500", "124620.592500", "124621.052500", "124621.512500", "124621.972500", "124622.432500", "124622.892500", "124623.352500", "124623.812500", "124624.272500", "124624.732500", "124625.192500", "124625.652500", "124626.112500", "124626.572500", "124627.032500", "124627.492500", "124627.952500", "124628.412500", "124628.872500", "124629.332500", "124629.792500", "124630.252500", "124630.712500", "124631.172500", "124631.632500", "124632.092500", "124632.552500", "124633.012500", "124633.472500", "124633.932500", "124634.392500", "124634.852500", "124635.312500", "124635.772500", "124636.232500", "124636.692500", "124637.152500", "124637.612500", "124638.072500", "124638.532500", "124638.992500", "124639.452500", "124639.912500", "124640.372500", "124640.832500", "124641.292500", "124641.752500", "124642.212500", "124642.672500", "124643.132500", "124643.592500", "124644.052500", "124644.512500", "124644.972500", "124645.432500", "124645.892500", "124646.352500", "124646.812500", "124647.272500", "124647.732500", "124648.192500", "124648.652500", "124649.112500", "124649.572500", "124650.032500", "124650.492500", "124650.952500", "124651.412500", "124651.872500", "124652.332500", "124652.792500", "124653.252500", "124653.712500", "124654.172500", "124654.632500", "124655.092500", "124655.552500", "124656.012500", "124656.472500", "124656.932500", "124657.392500", "124657.852500", "124658.312500", "124658.772500", "124659.232500", "124659.692500", "124700.152500", "124700.612500", "124701.072500", "124701.532500", "124701.992500", "124702.452500", "124702.912500", "124703.372500", "124703.832500"],
