{
  "AcquisitionMatrixPE": 82,
  "AcquisitionNumber": 1,
  "AcquisitionTime": "13:09:42.797500",
  "BandwidthPerPixelPhaseEncode": 24.888,
  "BaseResolution": 82,
  "BodyPartExamined": "BRAIN",
  "ConsistencyInfo": "N4_VE11C_LATEST_20160120",
  "ConversionSoftware": "dcm2niix",
  "ConversionSoftwareVersion": "v1.0.20201102",
  "DerivedVendorReportedEchoSpacing": 0.00049,
  "DeviceSerialNumber": "66112",
  "DwellTime": 2e-06,
  "EchoTime": 0.0272,
  "EchoTrainLength": 82,
  "EffectiveEchoSpacing": 0.00049,
  "FlipAngle": 44,
  "ImageComments": "Unaliased MB8/PE3",
  "ImageOrientationPatientDICOM": [0.999143, 0.0136312, 0.0390933, -0.0125563, 0.99954, -0.0276119],
  "ImageType": [
    "ORIGINAL",
    "PRIMARY",
    "M",
    "MB",
    "ND",
    "NORM",
    "MOSAIC"
],
  "ImagingFrequency": 123.252,
  "InPlanePhaseEncodingDirectionDICOM": "COL",
  "InstitutionAddress": "Maynard 3,Hanover,NH,US,03755",
  "InstitutionName": "dartmouth_brain_imaging_center",
  "InstitutionalDepartmentName": "Department",
  "MRAcquisitionType": "2D",
  "MagneticFieldStrength": 3,
  "Manufacturer": "Siemens",
  "ManufacturersModelName": "Prisma",
  "Modality": "MR",
  "MultibandAccelerationFactor": 8,
  "PartialFourier": 1,
  "PatientPosition": "HFS",
  "PercentPhaseFOV": 100,
  "PercentSampling": 100,
  "PhaseEncodingDirection": "j-",
  "PhaseEncodingSteps": 82,
  "PhaseResolution": 1,
  "PixelBandwidth": 3050,
  "ProcedureStepDescription": "Wager_Wager^1076_spacetop",
  "ProtocolName": "func_run-05_task-social_acq-ap-mb8",
  "PulseSequenceDetails": "%CustomerSeq%\\cmrr_mbep2d_bold",
  "ReceiveCoilActiveElements": "HEA;HEP",
  "ReceiveCoilName": "Head_32",
  "ReconMatrixPE": 82,
  "RepetitionTime": 0.46,
  "SAR": 0.100154,
  "ScanOptions": "FS",
  "ScanningSequence": "EP",
  "SequenceName": "epfid2d1_82",
  "SequenceVariant": "SK\\SS",
  "SeriesDescription": "func_run-05_task-social_acq-ap-mb8",
  "SeriesNumber": 20,
  "ShimSetting": [4171, -7739, -7203, 549, 34, -123, 76, 80],
  "SliceThickness": 2.7,
  "SliceTiming": [0, 0.2525, 0.065, 0.315, 0.1275, 0.3775, 0.19, 0, 0.2525, 0.065, 0.315, 0.1275, 0.3775, 0.19, 0, 0.2525, 0.065, 0.315, 0.1275, 0.3775, 0.19, 0, 0.2525, 0.065, 0.315, 0.1275, 0.3775, 0.19, 0, 0.2525, 0.065, 0.315, 0.1275, 0.3775, 0.19, 0, 0.2525, 0.065, 0.315, 0.1275, 0.3775, 0.19, 0, 0.2525, 0.065, 0.315, 0.1275, 0.3775, 0.19, 0, 0.2525, 0.065, 0.315, 0.1275, 0.3775, 0.19],
  "SoftwareVersions": "syngo MR E11",
  "SpacingBetweenSlices": 2.7,
  "StationName": "AWP66112",
  "TaskName": "social",
  "TotalReadoutTime": 0.03969,
  "TxRefAmp": 259.337,
  "WipMemBlock": "9d5778f9-d5d3-4676-85ce-6dd1c181d873||Sequence: R016 ve11c/master r/e634e98; Dec 19 2017 11:00:25 by eja",
  "dcmmeta_affine": [
    [-2.680626392364502, -0.03368763253092766, 0.10651962459087372, 113.94967651367188],
    [-0.03657164052128792, 2.681692361831665, -0.07316293567419052, -88.04350280761719],
    [0.10488451272249222, 0.07408078014850616, 2.6969056129455566, -51.83771896362305],
    [0.0, 0.0, 0.0, 1.0]
],
  "dcmmeta_reorient_transform": [
    [0.0, -1.0, 0.0, 81.0],
    [1.0, 0.0, 0.0, 0.0],
    [0.0, 0.0, 1.0, 0.0],
    [0.0, 0.0, 0.0, 1.0]
],
  "dcmmeta_shape": [82, 82, 56, 872],
  "dcmmeta_slice_dim": 2,
  "dcmmeta_version": 0.6,
  "global": {
    "const": {
      "AccessionNumber": "A003560",
      "AcquisitionMatrix": [82, 0, 0, 82],
      "AngioFlag": "N",
      "BitsAllocated": 16,
      "BitsStored": 16,
      "BodyPartExamined": "BRAIN",
      "Columns": 656,
      "EchoNumbers": 1,
      "EchoTime": 27.2,
      "EchoTrainLength": 82,
      "FlipAngle": 44.0,
      "HighBit": 15,
      "ImageOrientationPatient": [0.99914258326598, 0.01363124740763, 0.03909331654767, -0.0125562992959, 0.99953985459717, -0.0276119253196],
      "ImagePositionPatient": [-870.89243706614, -909.31534726224, -54.677847086306],
      "ImageType": [
        "ORIGINAL",
        "PRIMARY",
        "M",
        "MB",
        "ND",
        "NORM",
        "MOSAIC"
],
      "ImagedNucleus": "1H",
      "ImagingFrequency": 123.252122,
      "InPlanePhaseEncodingDirection": "COL",
      "MRAcquisitionType": "2D",
      "MagneticFieldStrength": 3.0,
      "Manufacturer": "SIEMENS",
      "ManufacturerModelName": "Prisma",
      "Modality": "MR",
      "NumberOfAverages": 1.0,
      "NumberOfPhaseEncodingSteps": 82,
      "PercentPhaseFieldOfView": 100.0,
      "PercentSampling": 100.0,
      "PerformedProcedureStepStartTime": "114256.827000",
      "PhotometricInterpretation": "MONOCHROME2",
      "PixelBandwidth": 3050.0,
      "PixelRepresentation": 0,
      "PixelSpacing": [2.6829268932343, 2.6829268932343],
      "ProtocolName": "func_run-05_task-social_acq-ap-mb8",
      "RepetitionTime": 460.0,
      "Rows": 656,
      "SAR": 0.10015407120511,
      "SamplesPerPixel": 1,
      "ScanOptions": "FS",
      "ScanningSequence": "EP",
      "SequenceName": "epfid2d1_82",
      "SequenceVariant": [
        "SK",
        "SS"
],
      "SeriesDescription": "func_run-05_task-social_acq-ap-mb8",
      "SeriesNumber": 20,
      "SeriesTime": "131008.266000",
      "SliceLocation": -44.89705357707,
      "SliceThickness": 2.7000000476837,
      "SmallestImagePixelValue": 0,
      "SoftwareVersions": "syngo MR E11",
      "SpacingBetweenSlices": 2.6999999516079,
      "SpecificCharacterSet": "ISO_IR 100",
      "StudyID": "1",
      "StudyTime": "114256.750000",
      "TransmitCoilName": "Body",
      "VariableFlipAngleFlag": "N",
      "WindowCenterWidthExplanation": "Algo1",
      "dBdt": 0.0},
    "slices": {}
  },
  "time": {
    "samples": {
      "AcquisitionNumber": [1, 2, 3, 4, 5, 6, 7, 8, 9, 10, 11, 12, 13, 14, 15, 16, 17, 18, 19, 20, 21, 22, 23, 24, 25, 26, 27, 28, 29, 30, 31, 32, 33, 34, 35, 36, 37, 38, 39, 40, 41, 42, 43, 44, 45, 46, 47, 48, 49, 50, 51, 52, 53, 54, 55, 56, 57, 58, 59, 60, 61, 62, 63, 64, 65, 66, 67, 68, 69, 70, 71, 72, 73, 74, 75, 76, 77, 78, 79, 80, 81, 82, 83, 84, 85, 86, 87, 88, 89, 90, 91, 92, 93, 94, 95, 96, 97, 98, 99, 100, 101, 102, 103, 104, 105, 106, 107, 108, 109, 110, 111, 112, 113, 114, 115, 116, 117, 118, 119, 120, 121, 122, 123, 124, 125, 126, 127, 128, 129, 130, 131, 132, 133, 134, 135, 136, 137, 138, 139, 140, 141, 142, 143, 144, 145, 146, 147, 148, 149, 150, 151, 152, 153, 154, 155, 156, 157, 158, 159, 160, 161, 162, 163, 164, 165, 166, 167, 168, 169, 170, 171, 172, 173, 174, 175, 176, 177, 178, 179, 180, 181, 182, 183, 184, 185, 186, 187, 188, 189, 190, 191, 192, 193, 194, 195, 196, 197, 198, 199, 200, 201, 202, 203, 204, 205, 206, 207, 208, 209, 210, 211, 212, 213, 214, 215, 216, 217, 218, 219, 220, 221, 222, 223, 224, 225, 226, 227, 228, 229, 230, 231, 232, 233, 234, 235, 236, 237, 238, 239, 240, 241, 242, 243, 244, 245, 246, 247, 248, 249, 250, 251, 252, 253, 254, 255, 256, 257, 258, 259, 260, 261, 262, 263, 264, 265, 266, 267, 268, 269, 270, 271, 272, 273, 274, 275, 276, 277, 278, 279, 280, 281, 282, 283, 284, 285, 286, 287, 288, 289, 290, 291, 292, 293, 294, 295, 296, 297, 298, 299, 300, 301, 302, 303, 304, 305, 306, 307, 308, 309, 310, 311, 312, 313, 314, 315, 316, 317, 318, 319, 320, 321, 322, 323, 324, 325, 326, 327, 328, 329, 330, 331, 332, 333, 334, 335, 336, 337, 338, 339, 340, 341, 342, 343, 344, 345, 346, 347, 348, 349, 350, 351, 352, 353, 354, 355, 356, 357, 358, 359, 360, 361, 362, 363, 364, 365, 366, 367, 368, 369, 370, 371, 372, 373, 374, 375, 376, 377, 378, 379, 380, 381, 382, 383, 384, 385, 386, 387, 388, 389, 390, 391, 392, 393, 394, 395, 396, 397, 398, 399, 400, 401, 402, 403, 404, 405, 406, 407, 408, 409, 410, 411, 412, 413, 414, 415, 416, 417, 418, 419, 420, 421, 422, 423, 424, 425, 426, 427, 428, 429, 430, 431, 432, 433, 434, 435, 436, 437, 438, 439, 440, 441, 442, 443, 444, 445, 446, 447, 448, 449, 450, 451, 452, 453, 454, 455, 456, 457, 458, 459, 460, 461, 462, 463, 464, 465, 466, 467, 468, 469, 470, 471, 472, 473, 474, 475, 476, 477, 478, 479, 480, 481, 482, 483, 484, 485, 486, 487, 488, 489, 490, 491, 492, 493, 494, 495, 496, 497, 498, 499, 500, 501, 502, 503, 504, 505, 506, 507, 508, 509, 510, 511, 512, 513, 514, 515, 516, 517, 518, 519, 520, 521, 522, 523, 524, 525, 526, 527, 528, 529, 530, 531, 532, 533, 534, 535, 536, 537, 538, 539, 540, 541, 542, 543, 544, 545, 546, 547, 548, 549, 550, 551, 552, 553, 554, 555, 556, 557, 558, 559, 560, 561, 562, 563, 564, 565, 566, 567, 568, 569, 570, 571, 572, 573, 574, 575, 576, 577, 578, 579, 580, 581, 582, 583, 584, 585, 586, 587, 588, 589, 590, 591, 592, 593, 594, 595, 596, 597, 598, 599, 600, 601, 602, 603, 604, 605, 606, 607, 608, 609, 610, 611, 612, 613, 614, 615, 616, 617, 618, 619, 620, 621, 622, 623, 624, 625, 626, 627, 628, 629, 630, 631, 632, 633, 634, 635, 636, 637, 638, 639, 640, 641, 642, 643, 644, 645, 646, 647, 648, 649, 650, 651, 652, 653, 654, 655, 656, 657, 658, 659, 660, 661, 662, 663, 664, 665, 666, 667, 668, 669, 670, 671, 672, 673, 674, 675, 676, 677, 678, 679, 680, 681, 682, 683, 684, 685, 686, 687, 688, 689, 690, 691, 692, 693, 694, 695, 696, 697, 698, 699, 700, 701, 702, 703, 704, 705, 706, 707, 708, 709, 710, 711, 712, 713, 714, 715, 716, 717, 718, 719, 720, 721, 722, 723, 724, 725, 726, 727, 728, 729, 730, 731, 732, 733, 734, 735, 736, 737, 738, 739, 740, 741, 742, 743, 744, 745, 746, 747, 748, 749, 750, 751, 752, 753, 754, 755, 756, 757, 758, 759, 760, 761, 762, 763, 764, 765, 766, 767, 768, 769, 770, 771, 772, 773, 774, 775, 776, 777, 778, 779, 780, 781, 782, 783, 784, 785, 786, 787, 788, 789, 790, 791, 792, 793, 794, 795, 796, 797, 798, 799, 800, 801, 802, 803, 804, 805, 806, 807, 808, 809, 810, 811, 812, 813, 814, 815, 816, 817, 818, 819, 820, 821, 822, 823, 824, 825, 826, 827, 828, 829, 830, 831, 832, 833, 834, 835, 836, 837, 838, 839, 840, 841, 842, 843, 844, 845, 846, 847, 848, 849, 850, 851, 852, 853, 854, 855, 856, 857, 858, 859, 860, 861, 862, 863, 864, 865, 866, 867, 868, 869, 870, 871, 872],
      "AcquisitionTime": ["130942.797500", "130943.257500", "130943.717500", "130944.177500", "130944.637500", "130945.097500", "130945.557500", "130946.017500", "130946.477500", "130946.937500", "130947.397500", "130947.857500", "130948.317500", "130948.777500", "130949.237500", "130949.697500", "130950.157500", "130950.617500", "130951.077500", "130951.537500", "130951.997500", "130952.457500", "130952.917500", "130953.377500", "130953.837500", "130954.297500", "130954.757500", "130955.217500", "130955.677500", "130956.137500", "130956.597500", "130957.057500", "130957.517500", "130957.977500", "130958.437500", "130958.897500", "130959.357500", "130959.817500", "131000.277500", "131000.737500", "131001.197500", "131001.657500", "131002.117500", "131002.577500", "131003.037500", "131003.497500", "131003.957500", "131004.417500", "131004.877500", "131005.337500", "131005.797500", "131006.257500", "131006.717500", "131007.177500", "131007.637500", "131008.097500", "131008.557500", "131009.017500", "131009.477500", "131009.937500", "131010.397500", "131010.857500", "131011.317500", "131011.777500", "131012.237500", "131012.697500", "131013.157500", "131013.617500", "131014.077500", "131014.537500", "131014.997500", "131015.457500", "131015.917500", "131016.377500", "131016.837500", "131017.297500", "131017.757500", "131018.217500", "131018.677500", "131019.137500", "131019.597500", "131020.057500", "131020.517500", "131020.977500", "131021.437500", "131021.897500", "131022.357500", "131022.817500", "131023.277500", "131023.737500", "131024.197500", "131024.657500", "131025.117500", "131025.577500", "131026.037500", "131026.497500", "131026.957500", "131027.417500", "131027.877500", "131028.337500", "131028.797500", "131029.257500", "131029.717500", "131030.177500", "131030.637500", "131031.097500", "131031.557500", "131032.017500", "131032.477500", "131032.937500", "131033.397500", "131033.857500", "131034.317500", "131034.777500", "131035.237500", "131035.697500", "131036.157500", "131036.617500", "131037.077500", "131037.537500", "131037.997500", "131038.457500", "131038.917500", "131039.377500", "131039.837500", "131040.297500", "131040.757500", "131041.217500", "131041.677500", "131042.137500", "131042.597500", "131043.057500", "131043.517500", "131043.977500", "131044.437500", "131044.897500", "131045.357500", "131045.817500", "131046.277500", "131046.737500", "131047.197500", "131047.657500", "131048.117500", "131048.577500", "131049.037500", "131049.497500", "131049.957500", "131050.417500", "131050.877500", "131051.337500", "131051.797500", "131052.257500", "131052.717500", "131053.177500", "131053.637500", "131054.097500", "131054.557500", "131055.017500", "131055.477500", "131055.937500", "131056.397500", "131056.857500", "131057.317500", "131057.777500", "131058.237500", "131058.697500", "131059.157500", "131059.617500", "131100.077500", "131100.537500", "131100.997500", "131101.457500", "131101.917500", "131102.377500", "131102.837500", "131103.297500", "131103.757500", "131104.217500", "131104.677500", "131105.137500", "131105.597500", "131106.057500", "131106.517500", "131106.977500", "131107.437500", "131107.897500", "131108.357500", "131108.817500", "131109.277500", "131109.737500", "131110.197500", "131110.657500", "131111.117500", "131111.577500", "131112.037500", "131112.497500", "131112.957500", "131113.417500", "131113.877500", "131114.337500", "131114.797500", "131115.257500", "131115.717500", "131116.177500", "131116.637500", "131117.097500", "131117.557500", "131118.017500", "131118.477500", "131118.937500", "131119.397500", "131119.857500", "131120.317500", "131120.777500", "131121.237500", "131121.697500", "131122.157500", "131122.617500", "131123.077500", "131123.537500", "131123.997500", "131124.457500", "131124.917500", "131125.377500", "131125.837500", "131126.297500", "131126.757500", "131127.217500", "131127.677500", "131128.137500", "131128.597500", "131129.057500", "131129.517500", "131129.977500", "131130.437500", "131130.897500", "131131.357500", "131131.817500", "131132.277500", "131132.737500", "131133.197500", "131133.657500", "131134.117500", "131134.577500", "131135.037500", "131135.497500", "131135.957500", "131136.417500", "131136.877500", "131137.337500", "131137.797500", "131138.257500", "131138.717500", "131139.177500", "131139.637500", "131140.097500", "131140.557500", "131141.017500", "131141.477500", "131141.937500", "131142.397500", "131142.857500", "131143.317500", "131143.777500", "131144.237500", "131144.697500", "131145.157500", "131145.617500", "131146.077500", "131146.537500", "131146.997500", "131147.457500", "131147.917500", "131148.377500", "131148.837500", "131149.297500", "131149.757500", "131150.217500", "131150.677500", "131151.137500", "131151.597500", "131152.057500", "131152.517500", "131152.977500", "131153.437500", "131153.897500", "131154.357500", "131154.817500", "131155.277500", "131155.737500", "131156.197500", "131156.657500", "131157.117500", "131157.577500", "131158.037500", "131158.497500", "131158.957500", "131159.417500", "131159.877500", "131200.337500", "131200.797500", "131201.257500", "131201.717500", "131202.177500", "131202.637500", "131203.097500", "131203.557500", "131204.017500", "131204.477500", "131204.937500", "131205.397500", "131205.857500", "131206.317500", "131206.777500", "131207.237500", "131207.697500", "131208.157500", "131208.617500", "131209.077500", "131209.537500", "131209.997500", "131210.457500", "131210.917500", "131211.377500", "131211.837500", "131212.297500", "131212.757500", "131213.217500", "131213.677500", "131214.137500", "131214.597500", "131215.057500", "131215.517500", "131215.977500", "131216.437500", "131216.897500", "131217.357500", "131217.817500", "131218.277500", "131218.737500", "131219.197500", "131219.657500", "131220.117500", "131220.577500", "131221.037500", "131221.497500", "131221.957500", "131222.417500", "131222.877500", "131223.337500", "131223.797500", "131224.257500", "131224.717500", "131225.177500", "131225.637500", "131226.097500", "131226.557500", "131227.017500", "131227.477500", "131227.937500", "131228.397500", "131228.857500", "131229.317500", "131229.777500", "131230.237500", "131230.697500", "131231.157500", "131231.617500", "131232.077500", "131232.537500", "131232.997500", "131233.457500", "131233.917500", "131234.377500", "131234.837500", "131235.297500", "131235.757500", "131236.217500", "131236.677500", "131237.137500", "131237.597500", "131238.057500", "131238.517500", "131238.977500", "131239.437500", "131239.897500", "131240.357500", "131240.817500", "131241.277500", "131241.737500", "131242.197500", "131242.657500", "131243.117500", "131243.577500", "131244.037500", "131244.497500", "131244.957500", "131245.417500", "131245.877500", "131246.337500", "131246.797500", "131247.257500", "131247.717500", "131248.177500", "131248.637500", "131249.097500", "131249.557500", "131250.017500", "131250.477500", "131250.937500", "131251.397500", "131251.857500", "131252.317500", "131252.777500", "131253.237500", "131253.697500", "131254.157500", "131254.617500", "131255.077500", "131255.537500", "131255.997500", "131256.457500", "131256.917500", "131257.377500", "131257.837500", "131258.297500", "131258.757500", "131259.217500", "131259.677500", "131300.137500", "131300.597500", "131301.057500", "131301.517500", "131301.977500", "131302.437500", "131302.897500", "131303.357500", "131303.817500", "131304.277500", "131304.737500", "131305.197500", "131305.657500", "131306.117500", "131306.577500", "131307.037500", "131307.497500", "131307.957500", "131308.417500", "131308.877500", "131309.337500", "131309.797500", "131310.257500", "131310.717500", "131311.177500", "131311.637500", "131312.097500", "131312.557500", "131313.017500", "131313.477500", "131313.937500", "131314.397500", "131314.857500", "131315.317500", "131315.777500", "131316.237500", "131316.697500", "131317.157500", "131317.617500", "131318.077500", "131318.537500", "131318.997500", "131319.457500", "131319.917500", "131320.377500", "131320.837500", "131321.297500", "131321.757500", "131322.217500", "131322.677500", "131323.137500", "131323.597500", "131324.057500", "131324.517500", "131324.977500", "131325.437500", "131325.897500", "131326.357500", "131326.817500", "131327.277500", "131327.737500", "131328.197500", "131328.657500", "131329.117500", "131329.577500", "131330.037500", "131330.497500", "131330.957500", "131331.417500", "131331.877500", "131332.337500", "131332.797500", "131333.257500", "131333.717500", "131334.177500", "131334.637500", "131335.097500", "131335.557500", "131336.017500", "131336.477500", "131336.937500", "131337.397500", "131337.857500", "131338.317500", "131338.777500", "131339.237500", "131339.697500", "131340.157500", "131340.617500", "131341.077500", "131341.537500", "131341.997500", "131342.457500", "131342.917500", "131343.377500", "131343.837500", "131344.297500", "131344.757500", "131345.217500", "131345.677500", "131346.137500", "131346.597500", "131347.057500", "131347.517500", "131347.977500", "131348.437500", "131348.897500", "131349.357500", "131349.817500", "131350.277500", "131350.737500", "131351.197500", "131351.657500", "131352.117500", "131352.577500", "131353.037500", "131353.497500", "131353.957500", "131354.417500", "131354.877500", "131355.337500", "131355.797500", "131356.257500", "131356.717500", "131357.177500", "131357.637500", "131358.097500", "131358.557500", "131359.017500", "131359.477500", "131359.937500", "131400.397500", "131400.857500", "131401.317500", "131401.777500", "131402.237500", "131402.697500", "131403.157500", "131403.617500", "131404.077500", "131404.537500", "131404.997500", "131405.457500", "131405.917500", "131406.377500", "131406.837500", "131407.297500", "131407.757500", "131408.217500", "131408.677500", "131409.137500", "131409.597500", "131410.057500", "131410.517500", "131410.977500", "131411.437500", "131411.897500", "131412.357500", "131412.817500", "131413.277500", "131413.737500", "131414.197500", "131414.657500", "131415.117500", "131415.577500", "131416.037500", "131416.497500", "131416.957500", "131417.417500", "131417.877500", "131418.337500", "131418.797500", "131419.257500", "131419.717500", "131420.177500", "131420.637500", "131421.097500", "131421.557500", "131422.017500", "131422.477500", "131422.937500", "131423.397500", "131423.857500", "131424.317500", "131424.777500", "131425.237500", "131425.697500", "131426.157500", "131426.617500", "131427.077500", "131427.537500", "131427.997500", "131428.457500", "131428.917500", "131429.377500", "131429.837500", "131430.297500", "131430.757500", "131431.217500", "131431.677500", "131432.137500", "131432.597500", "131433.057500", "131433.517500", "131433.977500", "131434.437500", "131434.897500", "131435.357500", "131435.817500", "131436.277500", "131436.737500", "131437.197500", "131437.657500", "131438.117500", "131438.577500", "131439.037500", "131439.497500", "131439.957500", "131440.417500", "131440.877500", "131441.337500", "131441.797500", "131442.257500", "131442.717500", "131443.177500", "131443.637500", "131444.097500", "131444.557500", "131445.017500", "131445.477500", "131445.937500", "131446.397500", "131446.857500", "131447.317500", "131447.777500", "131448.237500", "131448.697500", "131449.157500", "131449.617500", "131450.077500", "131450.537500", "131450.997500", "131451.457500", "131451.917500", "131452.377500", "131452.837500", "131453.297500", "131453.757500", "131454.217500", "131454.677500", "131455.137500", "131455.597500", "131456.057500", "131456.517500", "131456.977500", "131457.437500", "131457.897500", "131458.357500", "131458.817500", "131459.277500", "131459.737500", "131500.197500", "131500.657500", "131501.117500", "131501.577500", "131502.037500", "131502.497500", "131502.957500", "131503.417500", "131503.877500", "131504.337500", "131504.797500", "131505.257500", "131505.717500", "131506.177500", "131506.637500", "131507.097500", "131507.557500", "131508.017500", "131508.477500", "131508.937500", "131509.397500", "131509.857500", "131510.317500", "131510.777500", "131511.237500", "131511.697500", "131512.157500", "131512.617500", "131513.077500", "131513.537500", "131513.997500", "131514.457500", "131514.917500", "131515.377500", "131515.837500", "131516.297500", "131516.757500", "131517.217500", "131517.677500", "131518.137500", "131518.597500", "131519.057500", "131519.517500", "131519.977500", "131520.437500", "131520.897500", "131521.357500", "131521.817500", "131522.277500", "131522.737500", "131523.197500", "131523.657500", "131524.117500", "131524.577500", "131525.037500", "131525.497500", "131525.957500", "131526.417500", "131526.877500", "131527.337500", "131527.797500", "131528.257500", "131528.717500", "131529.177500", "131529.637500", "131530.097500", "131530.557500", "131531.017500", "131531.477500", "131531.937500", "131532.397500", "131532.857500", "131533.317500", "131533.777500", "131534.237500", "131534.697500", "131535.157500", "131535.617500", "131536.077500", "131536.537500", "131536.997500", "131537.457500", "131537.917500", "131538.377500", "131538.837500", "131539.297500", "131539.757500", "131540.217500", "131540.677500", "131541.137500", "131541.597500", "131542.057500", "131542.517500", "131542.977500", "131543.437500", "131543.897500", "131544.357500", "131544.817500", "131545.277500", "131545.737500", "131546.197500", "131546.657500", "131547.117500", "131547.577500", "131548.037500", "131548.497500", "131548.957500", "131549.417500", "131549.877500", "131550.337500", "131550.797500", "131551.257500", "131551.717500", "131552.177500", "131552.637500", "131553.097500", "131553.557500", "131554.017500", "131554.477500", "131554.937500", "131555.397500", "131555.857500", "131556.317500", "131556.777500", "131557.237500", "131557.697500", "131558.157500", "131558.617500", "131559.077500", "131559.537500", "131559.997500", "131600.457500", "131600.917500", "131601.377500", "131601.837500", "131602.297500", "131602.757500", "131603.217500", "131603.677500", "131604.137500", "131604.597500", "131605.057500", "131605.517500", "131605.977500", "131606.437500", "131606.897500", "131607.357500", "131607.817500", "131608.277500", "131608.737500", "131609.197500", "131609.657500", "131610.117500", "131610.577500", "131611.037500", "131611.497500", "131611.957500", "131612.417500", "131612.877500", "131613.337500", "131613.797500", "131614.257500", "131614.717500", "131615.177500", "131615.637500", "131616.097500", "131616.557500", "131617.017500", "131617.477500", "131617.937500", "131618.397500", "131618.857500", "131619.317500", "131619.777500", "131620.237500", "131620.697500", "131621.157500", "131621.617500", "131622.077500", "131622.537500", "131622.997500", "131623.457500"],
