{
  "AcquisitionMatrixPE": 82,
  "AcquisitionNumber": 1,
  "AcquisitionTime": "14:03:27.202500",
  "BandwidthPerPixelPhaseEncode": 24.888,
  "BaseResolution": 82,
  "BodyPartExamined": "BRAIN",
  "ConsistencyInfo": "N4_VE11E_LATEST_20181129",
  "ConversionSoftware": "dcm2niix",
  "ConversionSoftwareVersion": "v1.0.20201102",
  "DerivedVendorReportedEchoSpacing": 0.00049,
  "DeviceSerialNumber": "66112",
  "DwellTime": 2e-06,
  "EchoTime": 0.0272,
  "EchoTrainLength": 82,
  "EffectiveEchoSpacing": 0.00049,
  "FlipAngle": 44,
  "ImageComments": "Unaliased MB8/PE3",
  "ImageOrientationPatientDICOM": [0.995865, 0.0903364, 0.00961124, -0.0883531, 0.987715, -0.128894],
  "ImageType": [
    "ORIGINAL",
    "PRIMARY",
    "M",
    "MB",
    "ND",
    "NORM",
    "MOSAIC"
],
  "ImagingFrequency": 123.259,
  "InPlanePhaseEncodingDirectionDICOM": "COL",
  "InstitutionAddress": "Maynard 3,Hanover,NH,US,03755",
  "InstitutionName": "Dartmouth College - PBS",
  "InstitutionalDepartmentName": "Department",
  "MRAcquisitionType": "2D",
  "MagneticFieldStrength": 3,
  "Manufacturer": "Siemens",
  "ManufacturersModelName": "Prisma",
  "Modality": "MR",
  "MultibandAccelerationFactor": 8,
  "PartialFourier": 1,
  "PatientPosition": "HFS",
  "PercentPhaseFOV": 100,
  "PercentSampling": 100,
  "PhaseEncodingDirection": "j-",
  "PhaseEncodingSteps": 82,
  "PhaseResolution": 1,
  "PixelBandwidth": 3050,
  "ProcedureStepDescription": "Wager_Wager^1076_spacetop",
  "ProtocolName": "func_run-06_task-social_acq-ap-mb8",
  "PulseSequenceDetails": "%CustomerSeq%\\cmrr_mbep2d_bold",
  "ReceiveCoilActiveElements": "HEA;HEP",
  "ReceiveCoilName": "Head_32",
  "ReconMatrixPE": 82,
  "RepetitionTime": 0.46,
  "SAR": 0.0833881,
  "ScanOptions": "FS",
  "ScanningSequence": "EP",
  "SequenceName": "epfid2d1_82",
  "SequenceVariant": "SK\\SS",
  "SeriesDescription": "func_run-06_task-social_acq-ap-mb8",
  "SeriesNumber": 22,
  "ShimSetting": [4220, -7722, -7260, 289, -207, -16, -23, 127],
  "SliceThickness": 2.7,
  "SliceTiming": [0, 0.25, 0.0625, 0.315, 0.125, 0.3775, 0.1875, 0, 0.25, 0.0625, 0.315, 0.125, 0.3775, 0.1875, 0, 0.25, 0.0625, 0.315, 0.125, 0.3775, 0.1875, 0, 0.25, 0.0625, 0.315, 0.125, 0.3775, 0.1875, 0, 0.25, 0.0625, 0.315, 0.125, 0.3775, 0.1875, 0, 0.25, 0.0625, 0.315, 0.125, 0.3775, 0.1875, 0, 0.25, 0.0625, 0.315, 0.125, 0.3775, 0.1875, 0, 0.25, 0.0625, 0.315, 0.125, 0.3775, 0.1875],
  "SoftwareVersions": "syngo MR E11",
  "SpacingBetweenSlices": 2.7,
  "StationName": "AWP66112",
  "TaskName": "social",
  "TotalReadoutTime": 0.03969,
  "TxRefAmp": 228.948,
  "WipMemBlock": "ee8a4fef-5a76-4807-9730-791a7eabddc3||Sequence: R016 ve11e/master r/434b28f1; Aug  7 2019 18:53:46 by eja",
  "dcmmeta_affine": [
    [-2.671832799911499, -0.2370448261499405, 0.05706977844238281, 117.84999084472656],
    [-0.24236588180065155, 2.64996600151062, -0.3442813456058502, -87.31549835205078],
    [0.025786247104406357, 0.34581258893013, 2.677351951599121, -105.10308837890625],
    [0.0, 0.0, 0.0, 1.0]
],
  "dcmmeta_reorient_transform": [
    [0.0, -1.0, 0.0, 81.0],
    [1.0, 0.0, 0.0, 0.0],
    [0.0, 0.0, 1.0, 0.0],
    [0.0, 0.0, 0.0, 1.0]
],
  "dcmmeta_shape": [82, 82, 56, 872],
  "dcmmeta_slice_dim": 2,
  "dcmmeta_version": 0.6,
  "global": {
    "const": {
      "AccessionNumber": "A004527",
      "AcquisitionMatrix": [82, 0, 0, 82],
      "AngioFlag": "N",
      "BitsAllocated": 16,
      "BitsStored": 16,
      "BodyPartExamined": "BRAIN",
      "Columns": 656,
      "EchoNumbers": 1,
      "EchoTime": 27.2,
      "EchoTrainLength": 82,
      "FlipAngle": 44.0,
      "HighBit": 15,
      "ImageOrientationPatient": [0.99586493264432, 0.09033637169528, 0.00961123708205, -0.0883530703774, 0.98771459893966, -0.1288937779582],
      "ImagePositionPatient": [-797.43351369863, -957.43101916455, 14.755290085027],
      "ImageType": [
        "ORIGINAL",
        "PRIMARY",
        "M",
        "MB",
        "ND",
        "NORM",
        "MOSAIC"
],
      "ImagedNucleus": "1H",
      "ImagingFrequency": 123.259141,
      "InPlanePhaseEncodingDirection": "COL",
      "MRAcquisitionType": "2D",
      "MagneticFieldStrength": 3.0,
      "Manufacturer": "SIEMENS",
      "ManufacturerModelName": "Prisma",
      "Modality": "MR",
      "NumberOfAverages": 1.0,
      "NumberOfPhaseEncodingSteps": 82,
      "PercentPhaseFieldOfView": 100.0,
      "PercentSampling": 100.0,
      "PerformedProcedureStepStartTime": "125042.586000",
      "PhotometricInterpretation": "MONOCHROME2",
      "PixelBandwidth": 3050.0,
      "PixelRepresentation": 0,
      "PixelSpacing": [2.6829268932343, 2.6829268932343],
      "ProtocolName": "func_run-06_task-social_acq-ap-mb8",
      "RepetitionTime": 460.0,
      "Rows": 656,
      "SAR": 0.08338805493411,
      "SamplesPerPixel": 1,
      "ScanOptions": "FS",
      "ScanningSequence": "EP",
      "SequenceName": "epfid2d1_82",
      "SequenceVariant": [
        "SK",
        "SS"
],
      "SeriesDescription": "func_run-06_task-social_acq-ap-mb8",
      "SeriesNumber": 22,
      "SeriesTime": "140344.839000",
      "SliceLocation": -90.596735060675,
      "SliceThickness": 2.7000000476837,
      "SmallestImagePixelValue": 0,
      "SoftwareVersions": "syngo MR E11",
      "SpacingBetweenSlices": 2.6999999977395,
      "SpecificCharacterSet": "ISO_IR 100",
      "StudyID": "1",
      "StudyTime": "125042.500000",
      "TransmitCoilName": "Body",
      "VariableFlipAngleFlag": "N",
      "WindowCenterWidthExplanation": "Algo1"
    },
    "slices": {}
  },
  "time": {
    "samples": {
      "AcquisitionNumber": [1, 2, 3, 4, 5, 6, 7, 8, 9, 10, 11, 12, 13, 14, 15, 16, 17, 18, 19, 20, 21, 22, 23, 24, 25, 26, 27, 28, 29, 30, 31, 32, 33, 34, 35, 36, 37, 38, 39, 40, 41, 42, 43, 44, 45, 46, 47, 48, 49, 50, 51, 52, 53, 54, 55, 56, 57, 58, 59, 60, 61, 62, 63, 64, 65, 66, 67, 68, 69, 70, 71, 72, 73, 74, 75, 76, 77, 78, 79, 80, 81, 82, 83, 84, 85, 86, 87, 88, 89, 90, 91, 92, 93, 94, 95, 96, 97, 98, 99, 100, 101, 102, 103, 104, 105, 106, 107, 108, 109, 110, 111, 112, 113, 114, 115, 116, 117, 118, 119, 120, 121, 122, 123, 124, 125, 126, 127, 128, 129, 130, 131, 132, 133, 134, 135, 136, 137, 138, 139, 140, 141, 142, 143, 144, 145, 146, 147, 148, 149, 150, 151, 152, 153, 154, 155, 156, 157, 158, 159, 160, 161, 162, 163, 164, 165, 166, 167, 168, 169, 170, 171, 172, 173, 174, 175, 176, 177, 178, 179, 180, 181, 182, 183, 184, 185, 186, 187, 188, 189, 190, 191, 192, 193, 194, 195, 196, 197, 198, 199, 200, 201, 202, 203, 204, 205, 206, 207, 208, 209, 210, 211, 212, 213, 214, 215, 216, 217, 218, 219, 220, 221, 222, 223, 224, 225, 226, 227, 228, 229, 230, 231, 232, 233, 234, 235, 236, 237, 238, 239, 240, 241, 242, 243, 244, 245, 246, 247, 248, 249, 250, 251, 252, 253, 254, 255, 256, 257, 258, 259, 260, 261, 262, 263, 264, 265, 266, 267, 268, 269, 270, 271, 272, 273, 274, 275, 276, 277, 278, 279, 280, 281, 282, 283, 284, 285, 286, 287, 288, 289, 290, 291, 292, 293, 294, 295, 296, 297, 298, 299, 300, 301, 302, 303, 304, 305, 306, 307, 308, 309, 310, 311, 312, 313, 314, 315, 316, 317, 318, 319, 320, 321, 322, 323, 324, 325, 326, 327, 328, 329, 330, 331, 332, 333, 334, 335, 336, 337, 338, 339, 340, 341, 342, 343, 344, 345, 346, 347, 348, 349, 350, 351, 352, 353, 354, 355, 356, 357, 358, 359, 360, 361, 362, 363, 364, 365, 366, 367, 368, 369, 370, 371, 372, 373, 374, 375, 376, 377, 378, 379, 380, 381, 382, 383, 384, 385, 386, 387, 388, 389, 390, 391, 392, 393, 394, 395, 396, 397, 398, 399, 400, 401, 402, 403, 404, 405, 406, 407, 408, 409, 410, 411, 412, 413, 414, 415, 416, 417, 418, 419, 420, 421, 422, 423, 424, 425, 426, 427, 428, 429, 430, 431, 432, 433, 434, 435, 436, 437, 438, 439, 440, 441, 442, 443, 444, 445, 446, 447, 448, 449, 450, 451, 452, 453, 454, 455, 456, 457, 458, 459, 460, 461, 462, 463, 464, 465, 466, 467, 468, 469, 470, 471, 472, 473, 474, 475, 476, 477, 478, 479, 480, 481, 482, 483, 484, 485, 486, 487, 488, 489, 490, 491, 492, 493, 494, 495, 496, 497, 498, 499, 500, 501, 502, 503, 504, 505, 506, 507, 508, 509, 510, 511, 512, 513, 514, 515, 516, 517, 518, 519, 520, 521, 522, 523, 524, 525, 526, 527, 528, 529, 530, 531, 532, 533, 534, 535, 536, 537, 538, 539, 540, 541, 542, 543, 544, 545, 546, 547, 548, 549, 550, 551, 552, 553, 554, 555, 556, 557, 558, 559, 560, 561, 562, 563, 564, 565, 566, 567, 568, 569, 570, 571, 572, 573, 574, 575, 576, 577, 578, 579, 580, 581, 582, 583, 584, 585, 586, 587, 588, 589, 590, 591, 592, 593, 594, 595, 596, 597, 598, 599, 600, 601, 602, 603, 604, 605, 606, 607, 608, 609, 610, 611, 612, 613, 614, 615, 616, 617, 618, 619, 620, 621, 622, 623, 624, 625, 626, 627, 628, 629, 630, 631, 632, 633, 634, 635, 636, 637, 638, 639, 640, 641, 642, 643, 644, 645, 646, 647, 648, 649, 650, 651, 652, 653, 654, 655, 656, 657, 658, 659, 660, 661, 662, 663, 664, 665, 666, 667, 668, 669, 670, 671, 672, 673, 674, 675, 676, 677, 678, 679, 680, 681, 682, 683, 684, 685, 686, 687, 688, 689, 690, 691, 692, 693, 694, 695, 696, 697, 698, 699, 700, 701, 702, 703, 704, 705, 706, 707, 708, 709, 710, 711, 712, 713, 714, 715, 716, 717, 718, 719, 720, 721, 722, 723, 724, 725, 726, 727, 728, 729, 730, 731, 732, 733, 734, 735, 736, 737, 738, 739, 740, 741, 742, 743, 744, 745, 746, 747, 748, 749, 750, 751, 752, 753, 754, 755, 756, 757, 758, 759, 760, 761, 762, 763, 764, 765, 766, 767, 768, 769, 770, 771, 772, 773, 774, 775, 776, 777, 778, 779, 780, 781, 782, 783, 784, 785, 786, 787, 788, 789, 790, 791, 792, 793, 794, 795, 796, 797, 798, 799, 800, 801, 802, 803, 804, 805, 806, 807, 808, 809, 810, 811, 812, 813, 814, 815, 816, 817, 818, 819, 820, 821, 822, 823, 824, 825, 826, 827, 828, 829, 830, 831, 832, 833, 834, 835, 836, 837, 838, 839, 840, 841, 842, 843, 844, 845, 846, 847, 848, 849, 850, 851, 852, 853, 854, 855, 856, 857, 858, 859, 860, 861, 862, 863, 864, 865, 866, 867, 868, 869, 870, 871, 872],
      "AcquisitionTime": ["140327.202500", "140327.662500", "140328.122500", "140328.582500", "140329.042500", "140329.502500", "140329.962500", "140330.422500", "140330.882500", "140331.342500", "140331.802500", "140332.262500", "140332.722500", "140333.182500", "140333.642500", "140334.102500", "140334.562500", "140335.022500", "140335.482500", "140335.942500", "140336.402500", "140336.862500", "140337.322500", "140337.782500", "140338.242500", "140338.702500", "140339.162500", "140339.622500", "140340.082500", "140340.542500", "140341.002500", "140341.462500", "140341.922500", "140342.382500", "140342.842500", "140343.302500", "140343.762500", "140344.222500", "140344.682500", "140345.142500", "140345.602500", "140346.062500", "140346.522500", "140346.982500", "140347.442500", "140347.902500", "140348.362500", "140348.822500", "140349.282500", "140349.742500", "140350.202500", "140350.662500", "140351.122500", "140351.582500", "140352.042500", "140352.502500", "140352.962500", "140353.422500", "140353.882500", "140354.342500", "140354.802500", "140355.262500", "140355.722500", "140356.182500", "140356.642500", "140357.102500", "140357.562500", "140358.022500", "140358.482500", "140358.942500", "140359.402500", "140359.862500", "140400.322500", "140400.782500", "140401.242500", "140401.702500", "140402.162500", "140402.622500", "140403.082500", "140403.542500", "140404.002500", "140404.462500", "140404.922500", "140405.382500", "140405.842500", "140406.302500", "140406.762500", "140407.222500", "140407.682500", "140408.142500", "140408.602500", "140409.062500", "140409.522500", "140409.982500", "140410.442500", "140410.902500", "140411.362500", "140411.822500", "140412.282500", "140412.742500", "140413.202500", "140413.662500", "140414.122500", "140414.582500", "140415.042500", "140415.502500", "140415.962500", "140416.422500", "140416.882500", "140417.342500", "140417.802500", "140418.262500", "140418.722500", "140419.182500", "140419.642500", "140420.102500", "140420.562500", "140421.022500", "140421.482500", "140421.942500", "140422.402500", "140422.862500", "140423.322500", "140423.782500", "140424.242500", "140424.702500", "140425.162500", "140425.622500", "140426.082500", "140426.542500", "140427.002500", "140427.462500", "140427.922500", "140428.382500", "140428.842500", "140429.302500", "140429.762500", "140430.222500", "140430.682500", "140431.142500", "140431.602500", "140432.062500", "140432.522500", "140432.982500", "140433.442500", "140433.902500", "140434.362500", "140434.822500", "140435.282500", "140435.742500", "140436.202500", "140436.662500", "140437.122500", "140437.582500", "140438.042500", "140438.502500", "140438.962500", "140439.422500", "140439.882500", "140440.342500", "140440.802500", "140441.262500", "140441.722500", "140442.182500", "140442.642500", "140443.102500", "140443.562500", "140444.022500", "140444.482500", "140444.942500", "140445.402500", "140445.862500", "140446.322500", "140446.782500", "140447.242500", "140447.702500", "140448.162500", "140448.622500", "140449.082500", "140449.542500", "140450.002500", "140450.462500", "140450.922500", "140451.382500", "140451.842500", "140452.302500", "140452.762500", "140453.222500", "140453.682500", "140454.142500", "140454.602500", "140455.062500", "140455.522500", "140455.982500", "140456.442500", "140456.902500", "140457.362500", "140457.822500", "140458.282500", "140458.742500", "140459.202500", "140459.662500", "140500.122500", "140500.582500", "140501.042500", "140501.502500", "140501.962500", "140502.422500", "140502.882500", "140503.342500", "140503.802500", "140504.262500", "140504.722500", "140505.182500", "140505.642500", "140506.102500", "140506.562500", "140507.022500", "140507.482500", "140507.942500", "140508.402500", "140508.862500", "140509.322500", "140509.782500", "140510.242500", "140510.702500", "140511.162500", "140511.622500", "140512.082500", "140512.542500", "140513.002500", "140513.462500", "140513.922500", "140514.382500", "140514.842500", "140515.302500", "140515.762500", "140516.222500", "140516.682500", "140517.142500", "140517.602500", "140518.062500", "140518.522500", "140518.982500", "140519.442500", "140519.902500", "140520.362500", "140520.822500", "140521.282500", "140521.742500", "140522.202500", "140522.662500", "140523.122500", "140523.582500", "140524.042500", "140524.502500", "140524.962500", "140525.422500", "140525.882500", "140526.342500", "140526.802500", "140527.262500", "140527.722500", "140528.182500", "140528.642500", "140529.102500", "140529.562500", "140530.022500", "140530.482500", "140530.942500", "140531.402500", "140531.862500", "140532.322500", "140532.782500", "140533.242500", "140533.702500", "140534.162500", "140534.622500", "140535.082500", "140535.542500", "140536.002500", "140536.462500", "140536.922500", "140537.382500", "140537.842500", "140538.302500", "140538.762500", "140539.222500", "140539.682500", "140540.142500", "140540.602500", "140541.062500", "140541.522500", "140541.982500", "140542.442500", "140542.902500", "140543.362500", "140543.822500", "140544.282500", "140544.742500", "140545.202500", "140545.662500", "140546.122500", "140546.582500", "140547.042500", "140547.502500", "140547.962500", "140548.422500", "140548.882500", "140549.342500", "140549.802500", "140550.262500", "140550.722500", "140551.182500", "140551.642500", "140552.102500", "140552.562500", "140553.022500", "140553.482500", "140553.942500", "140554.402500", "140554.862500", "140555.322500", "140555.782500", "140556.242500", "140556.702500", "140557.162500", "140557.622500", "140558.082500", "140558.542500", "140559.002500", "140559.462500", "140559.922500", "140600.382500", "140600.842500", "140601.302500", "140601.762500", "140602.222500", "140602.682500", "140603.142500", "140603.602500", "140604.062500", "140604.522500", "140604.982500", "140605.442500", "140605.902500", "140606.362500", "140606.822500", "140607.282500", "140607.742500", "140608.202500", "140608.662500", "140609.122500", "140609.582500", "140610.042500", "140610.502500", "140610.962500", "140611.422500", "140611.882500", "140612.342500", "140612.802500", "140613.262500", "140613.722500", "140614.182500", "140614.642500", "140615.102500", "140615.562500", "140616.022500", "140616.482500", "140616.942500", "140617.402500", "140617.862500", "140618.322500", "140618.782500", "140619.242500", "140619.702500", "140620.162500", "140620.622500", "140621.082500", "140621.542500", "140622.002500", "140622.462500", "140622.922500", "140623.382500", "140623.842500", "140624.302500", "140624.762500", "140625.222500", "140625.682500", "140626.142500", "140626.602500", "140627.062500", "140627.522500", "140627.982500", "140628.442500", "140628.902500", "140629.362500", "140629.822500", "140630.282500", "140630.742500", "140631.202500", "140631.662500", "140632.122500", "140632.582500", "140633.042500", "140633.502500", "140633.962500", "140634.422500", "140634.882500", "140635.342500", "140635.802500", "140636.262500", "140636.722500", "140637.182500", "140637.642500", "140638.102500", "140638.562500", "140639.022500", "140639.482500", "140639.942500", "140640.402500", "140640.862500", "140641.322500", "140641.782500", "140642.242500", "140642.702500", "140643.162500", "140643.622500", "140644.082500", "140644.542500", "140645.002500", "140645.462500", "140645.922500", "140646.382500", "140646.842500", "140647.302500", "140647.762500", "140648.222500", "140648.682500", "140649.142500", "140649.602500", "140650.062500", "140650.522500", "140650.982500", "140651.442500", "140651.902500", "140652.362500", "140652.822500", "140653.282500", "140653.742500", "140654.202500", "140654.662500", "140655.122500", "140655.582500", "140656.042500", "140656.502500", "140656.962500", "140657.422500", "140657.882500", "140658.342500", "140658.802500", "140659.262500", "140659.722500", "140700.182500", "140700.642500", "140701.102500", "140701.562500", "140702.022500", "140702.482500", "140702.942500", "140703.402500", "140703.862500", "140704.322500", "140704.782500", "140705.242500", "140705.702500", "140706.162500", "140706.622500", "140707.082500", "140707.542500", "140708.002500", "140708.462500", "140708.922500", "140709.382500", "140709.842500", "140710.302500", "140710.762500", "140711.222500", "140711.682500", "140712.142500", "140712.602500", "140713.062500", "140713.522500", "140713.982500", "140714.442500", "140714.902500", "140715.362500", "140715.822500", "140716.282500", "140716.742500", "140717.202500", "140717.662500", "140718.122500", "140718.582500", "140719.042500", "140719.502500", "140719.962500", "140720.422500", "140720.882500", "140721.342500", "140721.802500", "140722.262500", "140722.722500", "140723.182500", "140723.642500", "140724.102500", "140724.562500", "140725.022500", "140725.482500", "140725.942500", "140726.402500", "140726.862500", "140727.322500", "140727.782500", "140728.242500", "140728.702500", "140729.162500", "140729.622500", "140730.082500", "140730.542500", "140731.002500", "140731.462500", "140731.922500", "140732.382500", "140732.842500", "140733.302500", "140733.762500", "140734.222500", "140734.682500", "140735.142500", "140735.602500", "140736.062500", "140736.522500", "140736.982500", "140737.442500", "140737.902500", "140738.362500", "140738.822500", "140739.282500", "140739.742500", "140740.202500", "140740.662500", "140741.122500", "140741.582500", "140742.042500", "140742.502500", "140742.962500", "140743.422500", "140743.882500", "140744.342500", "140744.802500", "140745.262500", "140745.722500", "140746.182500", "140746.642500", "140747.102500", "140747.562500", "140748.022500", "140748.482500", "140748.942500", "140749.402500", "140749.862500", "140750.322500", "140750.782500", "140751.242500", "140751.702500", "140752.162500", "140752.622500", "140753.082500", "140753.542500", "140754.002500", "140754.462500", "140754.922500", "140755.382500", "140755.842500", "140756.302500", "140756.762500", "140757.222500", "140757.682500", "140758.142500", "140758.602500", "140759.062500", "140759.522500", "140759.982500", "140800.442500", "140800.902500", "140801.362500", "140801.822500", "140802.282500", "140802.742500", "140803.202500", "140803.662500", "140804.122500", "140804.582500", "140805.042500", "140805.502500", "140805.962500", "140806.422500", "140806.882500", "140807.342500", "140807.802500", "140808.262500", "140808.722500", "140809.182500", "140809.642500", "140810.102500", "140810.562500", "140811.022500", "140811.482500", "140811.942500", "140812.402500", "140812.862500", "140813.322500", "140813.782500", "140814.242500", "140814.702500", "140815.162500", "140815.622500", "140816.082500", "140816.542500", "140817.002500", "140817.462500", "140817.922500", "140818.382500", "140818.842500", "140819.302500", "140819.762500", "140820.222500", "140820.682500", "140821.142500", "140821.602500", "140822.062500", "140822.522500", "140822.982500", "140823.442500", "140823.902500", "140824.362500", "140824.822500", "140825.282500", "140825.742500", "140826.202500", "140826.662500", "140827.122500", "140827.582500", "140828.042500", "140828.502500", "140828.962500", "140829.422500", "140829.882500", "140830.342500", "140830.802500", "140831.262500", "140831.722500", "140832.182500", "140832.642500", "140833.102500", "140833.562500", "140834.022500", "140834.482500", "140834.942500", "140835.402500", "140835.862500", "140836.322500", "140836.782500", "140837.242500", "140837.702500", "140838.162500", "140838.622500", "140839.082500", "140839.542500", "140840.002500", "140840.462500", "140840.922500", "140841.382500", "140841.842500", "140842.302500", "140842.762500", "140843.222500", "140843.682500", "140844.142500", "140844.602500", "140845.062500", "140845.522500", "140845.982500", "140846.442500", "140846.902500", "140847.362500", "140847.822500", "140848.282500", "140848.742500", "140849.202500", "140849.662500", "140850.122500", "140850.582500", "140851.042500", "140851.502500", "140851.962500", "140852.422500", "140852.882500", "140853.342500", "140853.802500", "140854.262500", "140854.722500", "140855.182500", "140855.642500", "140856.102500", "140856.562500", "140857.022500", "140857.482500", "140857.942500", "140858.402500", "140858.862500", "140859.322500", "140859.782500", "140900.242500", "140900.702500", "140901.162500", "140901.622500", "140902.082500", "140902.542500", "140903.002500", "140903.462500", "140903.922500", "140904.382500", "140904.842500", "140905.302500", "140905.762500", "140906.222500", "140906.682500", "140907.142500", "140907.602500", "140908.062500", "140908.522500", "140908.982500", "140909.442500", "140909.902500", "140910.362500", "140910.822500", "140911.282500", "140911.742500", "140912.202500", "140912.662500", "140913.122500", "140913.582500", "140914.042500", "140914.502500", "140914.962500", "140915.422500", "140915.882500", "140916.342500", "140916.802500", "140917.262500", "140917.722500", "140918.182500", "140918.642500", "140919.102500", "140919.562500", "140920.022500", "140920.482500", "140920.942500", "140921.402500", "140921.862500", "140922.322500", "140922.782500", "140923.242500", "140923.702500", "140924.162500", "140924.622500", "140925.082500", "140925.542500", "140926.002500", "140926.462500", "140926.922500", "140927.382500", "140927.842500", "140928.302500", "140928.762500", "140929.222500", "140929.682500", "140930.142500", "140930.602500", "140931.062500", "140931.522500", "140931.982500", "140932.442500", "140932.902500", "140933.362500", "140933.822500", "140934.282500", "140934.742500", "140935.202500", "140935.662500", "140936.122500", "140936.582500", "140937.042500", "140937.502500", "140937.962500", "140938.422500", "140938.882500", "140939.342500", "140939.802500", "140940.262500", "140940.722500", "140941.182500", "140941.642500", "140942.102500", "140942.562500", "140943.022500", "140943.482500", "140943.942500", "140944.402500", "140944.862500", "140945.322500", "140945.782500", "140946.242500", "140946.702500", "140947.162500", "140947.622500", "140948.082500", "140948.542500", "140949.002500", "140949.462500", "140949.922500", "140950.382500", "140950.842500", "140951.302500", "140951.762500", "140952.222500", "140952.682500", "140953.142500", "140953.602500", "140954.062500", "140954.522500", "140954.982500", "140955.442500", "140955.902500", "140956.362500", "140956.822500", "140957.282500", "140957.742500", "140958.202500", "140958.662500", "140959.122500", "140959.582500", "141000.042500", "141000.502500", "141000.962500", "141001.422500", "141001.882500", "141002.342500", "141002.802500", "141003.262500", "141003.722500", "141004.182500", "141004.642500", "141005.102500", "141005.562500", "141006.022500", "141006.482500", "141006.942500", "141007.402500", "141007.862500"],
