{
  "AcquisitionMatrixPE": 140,
  "AcquisitionNumber": 1,
  "AcquisitionTime": "12:43:8.812500",
  "BandwidthPerPixelPhaseEncode": 10.352,
  "BaseResolution": 140,
  "BodyPartExamined": "BRAIN",
  "ConsistencyInfo": "N4_VE11C_LATEST_20160120",
  "ConversionSoftware": "dcm2niix",
  "ConversionSoftwareVersion": "v1.0.20201102",
  "DerivedVendorReportedEchoSpacing": 0.000689998,
  "DeviceSerialNumber": "66112",
  "DiffusionScheme": "Monopolar",
  "DwellTime": 2.1e-06,
  "EchoTime": 0.088,
  "EchoTrainLength": 105,
  "EffectiveEchoSpacing": 0.000689998,
  "FlipAngle": 90,
  "ImageComments": "Unaliased MB3/PE3",
  "ImageOrientationPatientDICOM": [0.999621, -0.00598919, 0.0268716, -0.000872306, 0.96867, 0.248349],
  "ImageType": [
    "ORIGINAL",
    "PRIMARY",
    "DIFFUSION",
    "NONE",
    "MB",
    "ND"
],
  "ImagingFrequency": 123.252,
  "InPlanePhaseEncodingDirectionDICOM": "COL",
  "InstitutionAddress": "Maynard 3,Hanover,NH,US,03755",
  "InstitutionName": "Dartmouth College - PBS",
  "InstitutionalDepartmentName": "Department",
  "MRAcquisitionType": "2D",
  "MagneticFieldStrength": 3,
  "Manufacturer": "Siemens",
  "ManufacturersModelName": "Prisma",
  "Modality": "MR",
  "MultibandAccelerationFactor": 3,
  "PartialFourier": 0.75,
  "PatientPosition": "HFS",
  "PercentPhaseFOV": 100,
  "PercentSampling": 100,
  "PhaseEncodingDirection": "j",
  "PhaseEncodingSteps": 105,
  "PhaseResolution": 1,
  "PixelBandwidth": 1700,
  "ProcedureStepDescription": "Wager_Wager^1076_spacetop",
  "ProtocolName": "dwi_acq-discorr-PA",
  "PulseSequenceDetails": "%CustomerSeq%\\cmrr_mbep2d_diff",
  "ReceiveCoilActiveElements": "HEA;HEP",
  "ReceiveCoilName": "Head_32",
  "ReconMatrixPE": 140,
  "RepetitionTime": 4.1,
  "SAR": 0.168418,
  "ScanOptions": "PFP\\FS",
  "ScanningSequence": "EP",
  "SequenceName": "ep_b0",
  "SequenceVariant": "SK\\SS",
  "SeriesDescription": "dwi_acq-discorr-PA",
  "SeriesNumber": 6,
  "ShimSetting": [4157, -7753, -7285, 542, -9, 0, 54, 85],
  "SliceThickness": 1.7,
  "SliceTiming": [0, 2.11719, 0.14844, 2.26562, 0.29688, 2.41406, 0.45312, 2.57031, 0.60156, 2.71875, 0.75781, 2.86719, 0.90625, 3.02344, 1.05469, 3.17188, 1.21094, 3.32031, 1.35938, 3.47656, 1.50781, 3.625, 1.65625, 3.78125, 1.8125, 3.92969, 1.96094, 0, 2.11719, 0.14844, 2.26562, 0.29688, 2.41406, 0.45312, 2.57031, 0.60156, 2.71875, 0.75781, 2.86719, 0.90625, 3.02344, 1.05469, 3.17188, 1.21094, 3.32031, 1.35938, 3.47656, 1.50781, 3.625, 1.65625, 3.78125, 1.8125, 3.92969, 1.96094, 0, 2.11719, 0.14844, 2.26562, 0.29688, 2.41406, 0.45312, 2.57031, 0.60156, 2.71875, 0.75781, 2.86719, 0.90625, 3.02344, 1.05469, 3.17188, 1.21094, 3.32031, 1.35938, 3.47656, 1.50781, 3.625, 1.65625, 3.78125, 1.8125, 3.92969, 1.96094],
  "SoftwareVersions": "syngo MR E11",
  "SpacingBetweenSlices": 1.7,
  "StationName": "AWP66112",
  "TotalReadoutTime": 0.0959097,
  "TxRefAmp": 242.849,
  "WipMemBlock": "a2a0d305-0c0a-49f4-ab04-f393b8bb9f25||Sequence: R016 ve11c/master r/e634e98; Dec 19 2017 11:11:25 by eja",
  "dcmmeta_affine": [
    [-1.7136359214782715, -0.001495381467975676, 0.04677915573120117, 123.810546875],
    [0.010267183184623718, 1.6605775356292725, 0.4220733642578125, -101.34600067138672],
    [0.04606553912162781, -0.4257411062717438, 1.6461105346679688, -31.105165481567383],
    [0.0, 0.0, 0.0, 1.0]
],
  "dcmmeta_reorient_transform": [
    [0.0, -1.0, 0.0, 139.0],
    [1.0, 0.0, 0.0, 0.0],
    [0.0, 0.0, -1.0, 80.0],
    [0.0, 0.0, 0.0, 1.0]
],
  "dcmmeta_shape": [140, 140, 81],
  "dcmmeta_slice_dim": 2,
  "dcmmeta_version": 0.6,
  "global": {
    "const": {
      "AccessionNumber": "A003445",
      "AcquisitionMatrix": [140, 0, 0, 140],
      "AcquisitionNumber": 1,
      "AngioFlag": "N",
      "BitsAllocated": 16,
      "BitsStored": 16,
      "BodyPartExamined": "BRAIN",
      "Columns": 140,
      "EchoNumbers": 1,
      "EchoTime": 88.0,
      "EchoTrainLength": 105,
      "FlipAngle": 90.0,
      "HighBit": 15,
      "ImageOrientationPatient": [0.99962095245265, -0.0059891903072, 0.02687156521534, -0.0008723058792, 0.96867023630115, 0.2483489729931],
      "ImageType": [
        "ORIGINAL",
        "PRIMARY",
        "DIFFUSION",
        "NONE",
        "MB",
        "ND"
],
      "ImagedNucleus": "1H",
      "ImagingFrequency": 123.252151,
      "InPlanePhaseEncodingDirection": "COL",
      "MRAcquisitionType": "2D",
      "MagneticFieldStrength": 3.0,
      "Manufacturer": "SIEMENS",
      "ManufacturerModelName": "Prisma",
      "Modality": "MR",
      "NumberOfAverages": 1.0,
      "NumberOfPhaseEncodingSteps": 105,
      "PercentPhaseFieldOfView": 100.0,
      "PercentSampling": 100.0,
      "PerformedProcedureStepStartTime": "115319.472000",
      "PhotometricInterpretation": "MONOCHROME2",
      "PixelBandwidth": 1700.0,
      "PixelRepresentation": 0,
      "PixelSpacing": [1.7142857313156, 1.7142857313156],
      "ProtocolName": "dwi_acq-discorr-PA",
      "RepetitionTime": 4100.0,
      "Rows": 140,
      "SAR": 0.16841762756581,
      "SamplesPerPixel": 1,
      "ScanOptions": [
        "PFP",
        "FS"
],
      "ScanningSequence": "EP",
      "SequenceName": "ep_b0",
      "SequenceVariant": [
        "SK",
        "SS"
],
      "SeriesDescription": "dwi_acq-discorr-PA",
      "SeriesNumber": 6,
      "SeriesTime": "124313.716000",
      "SliceThickness": 1.7000000476837,
      "SmallestImagePixelValue": 0,
      "SoftwareVersions": "syngo MR E11",
      "SpacingBetweenSlices": 1.7,
      "SpecificCharacterSet": "ISO_IR 100",
      "StudyID": "1",
      "StudyTime": "115319.404000",
      "TransmitCoilName": "Body",
      "VariableFlipAngleFlag": "N",
      "WindowCenterWidthExplanation": "Algo1",
      "dBdt": 0.0},
    "slices": {
      "AcquisitionTime": ["124308.812500", "124310.927500", "124308.962500", "124311.077500", "124309.112500", "124311.230000", "124309.265000", "124311.380000", "124309.415000", "124311.532500", "124309.567500", "124311.682500", "124309.717500", "124311.832500", "124309.870000", "124311.985000", "124310.020000", "124312.135000", "124310.172500", "124312.287500", "124310.322500", "124312.437500", "124310.472500", "124312.590000", "124310.625000", "124312.740000", "124310.775000", "124308.812500", "124310.927500", "124308.962500", "124311.077500", "124309.112500", "124311.230000", "124309.265000", "124311.380000", "124309.415000", "124311.532500", "124309.567500", "124311.682500", "124309.717500", "124311.832500", "124309.870000", "124311.985000", "124310.020000", "124312.135000", "124310.172500", "124312.287500", "124310.322500", "124312.437500", "124310.472500", "124312.590000", "124310.625000", "124312.740000", "124310.775000", "124308.812500", "124310.927500", "124308.962500", "124311.077500", "124309.112500", "124311.230000", "124309.265000", "124311.380000", "124309.415000", "124311.532500", "124309.567500", "124311.682500", "124309.717500", "124311.832500", "124309.870000", "124311.985000", "124310.020000", "124312.135000", "124310.172500", "124312.287500", "124310.322500", "124312.437500", "124310.472500", "124312.590000", "124310.625000", "124312.740000", "124310.775000"],
      "ContentTime": ["124313.727000", "124313.844000", "124313.736000", "124313.852000", "124313.752000", "124313.858000", "124313.759000", "124313.865000", "124313.766000", "124313.871000", "124313.782000", "124313.878000", "124313.788000", "124313.884000", "124313.795000", "124313.890000", "124313.802000", "124313.897000", "124313.808000", "124313.903000", "124313.815000", "124313.910000", "124313.821000", "124313.916000", "124313.828000", "124313.923000", "124313.838000", "124313.731000", "124313.847000", "124313.738000", "124313.854000", "124313.754000", "124313.860000", "124313.761000", "124313.867000", "124313.768000", "124313.873000", "124313.784000", "124313.880000", "124313.791000", "124313.886000", "124313.798000", "124313.892000", "124313.804000", "124313.899000", "124313.810000", "124313.905000", "124313.817000", "124313.912000", "124313.823000", "124313.918000", "124313.833000", "124313.925000", "124313.840000", "124313.733000", "124313.849000", "124313.750000", "124313.856000", "124313.757000", "124313.862000", "124313.764000", "124313.869000", "124313.780000", "124313.875000", "124313.786000", "124313.882000", "124313.793000", "124313.888000", "124313.800000", "124313.895000", "124313.806000", "124313.901000", "124313.813000", "124313.907000", "124313.819000", "124313.914000", "124313.825000", "124313.920000", "124313.835000", "124313.927000", "124313.842000"],
      "CsaImage.ICE_Dims": [
        "X_1_1_1_1_1_1_1_1_1_1_1_92",
        "X_1_1_1_1_1_1_42_1_1_2_1_92",
        "X_1_1_1_1_1_1_2_1_1_3_1_92",
        "X_1_1_1_1_1_1_43_1_1_4_1_92",
        "X_1_1_1_1_1_1_3_1_1_5_1_92",
        "X_1_1_1_1_1_1_44_1_1_6_1_92",
        "X_1_1_1_1_1_1_4_1_1_7_1_92",
        "X_1_1_1_1_1_1_45_1_1_8_1_92",
        "X_1_1_1_1_1_1_5_1_1_9_1_92",
        "X_1_1_1_1_1_1_46_1_1_10_1_92",
        "X_1_1_1_1_1_1_6_1_1_11_1_92",
        "X_1_1_1_1_1_1_47_1_1_12_1_92",
        "X_1_1_1_1_1_1_7_1_1_13_1_92",
        "X_1_1_1_1_1_1_48_1_1_14_1_92",
        "X_1_1_1_1_1_1_8_1_1_15_1_92",
        "X_1_1_1_1_1_1_49_1_1_16_1_92",
        "X_1_1_1_1_1_1_9_1_1_17_1_92",
        "X_1_1_1_1_1_1_50_1_1_18_1_92",
        "X_1_1_1_1_1_1_10_1_1_19_1_92",
        "X_1_1_1_1_1_1_51_1_1_20_1_92",
        "X_1_1_1_1_1_1_11_1_1_21_1_92",
        "X_1_1_1_1_1_1_52_1_1_22_1_92",
        "X_1_1_1_1_1_1_12_1_1_23_1_92",
        "X_1_1_1_1_1_1_53_1_1_24_1_92",
        "X_1_1_1_1_1_1_13_1_1_25_1_92",
        "X_1_1_1_1_1_1_54_1_1_26_1_92",
        "X_1_1_1_1_1_1_14_1_1_27_1_92",
        "X_1_1_1_1_1_1_55_1_1_28_1_92",
        "X_1_1_1_1_1_1_15_1_1_29_1_92",
        "X_1_1_1_1_1_1_56_1_1_30_1_92",
        "X_1_1_1_1_1_1_16_1_1_31_1_92",
        "X_1_1_1_1_1_1_57_1_1_32_1_92",
        "X_1_1_1_1_1_1_17_1_1_33_1_92",
        "X_1_1_1_1_1_1_58_1_1_34_1_92",
        "X_1_1_1_1_1_1_18_1_1_35_1_92",
        "X_1_1_1_1_1_1_59_1_1_36_1_92",
        "X_1_1_1_1_1_1_19_1_1_37_1_92",
        "X_1_1_1_1_1_1_60_1_1_38_1_92",
        "X_1_1_1_1_1_1_20_1_1_39_1_92",
        "X_1_1_1_1_1_1_61_1_1_40_1_92",
        "X_1_1_1_1_1_1_21_1_1_41_1_92",
        "X_1_1_1_1_1_1_62_1_1_42_1_92",
        "X_1_1_1_1_1_1_22_1_1_43_1_92",
        "X_1_1_1_1_1_1_63_1_1_44_1_92",
        "X_1_1_1_1_1_1_23_1_1_45_1_92",
        "X_1_1_1_1_1_1_64_1_1_46_1_92",
        "X_1_1_1_1_1_1_24_1_1_47_1_92",
        "X_1_1_1_1_1_1_65_1_1_48_1_92",
        "X_1_1_1_1_1_1_25_1_1_49_1_92",
        "X_1_1_1_1_1_1_66_1_1_50_1_92",
        "X_1_1_1_1_1_1_26_1_1_51_1_92",
        "X_1_1_1_1_1_1_67_1_1_52_1_92",
        "X_1_1_1_1_1_1_27_1_1_53_1_92",
        "X_1_1_1_1_1_1_68_1_1_54_1_92",
        "X_1_1_1_1_1_1_28_1_1_55_1_92",
        "X_1_1_1_1_1_1_69_1_1_56_1_92",
        "X_1_1_1_1_1_1_29_1_1_57_1_92",
        "X_1_1_1_1_1_1_70_1_1_58_1_92",
        "X_1_1_1_1_1_1_30_1_1_59_1_92",
        "X_1_1_1_1_1_1_71_1_1_60_1_92",
        "X_1_1_1_1_1_1_31_1_1_61_1_92",
        "X_1_1_1_1_1_1_72_1_1_62_1_92",
        "X_1_1_1_1_1_1_32_1_1_63_1_92",
        "X_1_1_1_1_1_1_73_1_1_64_1_92",
        "X_1_1_1_1_1_1_33_1_1_65_1_92",
        "X_1_1_1_1_1_1_74_1_1_66_1_92",
        "X_1_1_1_1_1_1_34_1_1_67_1_92",
        "X_1_1_1_1_1_1_75_1_1_68_1_92",
        "X_1_1_1_1_1_1_35_1_1_69_1_92",
        "X_1_1_1_1_1_1_76_1_1_70_1_92",
        "X_1_1_1_1_1_1_36_1_1_71_1_92",
        "X_1_1_1_1_1_1_77_1_1_72_1_92",
        "X_1_1_1_1_1_1_37_1_1_73_1_92",
        "X_1_1_1_1_1_1_78_1_1_74_1_92",
        "X_1_1_1_1_1_1_38_1_1_75_1_92",
        "X_1_1_1_1_1_1_79_1_1_76_1_92",
        "X_1_1_1_1_1_1_39_1_1_77_1_92",
        "X_1_1_1_1_1_1_80_1_1_78_1_92",
        "X_1_1_1_1_1_1_40_1_1_79_1_92",
        "X_1_1_1_1_1_1_81_1_1_80_1_92",
        "X_1_1_1_1_1_1_41_1_1_81_1_92"
],
      "CsaImage.ProtocolSliceNumber": [0, 1, 2, 3, 4, 5, 6, 7, 8, 9, 10, 11, 12, 13, 14, 15, 16, 17, 18, 19, 20, 21, 22, 23, 24, 25, 26, 27, 28, 29, 30, 31, 32, 33, 34, 35, 36, 37, 38, 39, 40, 41, 42, 43, 44, 45, 46, 47, 48, 49, 50, 51, 52, 53, 54, 55, 56, 57, 58, 59, 60, 61, 62, 63, 64, 65, 66, 67, 68, 69, 70, 71, 72, 73, 74, 75, 76, 77, 78, 79, 80],
      "CsaImage.RFSWDDataType": [
        "predicted",
        "predicted",
        "predicted",
        "predicted",
        "predicted",
        "predicted",
        "predicted",
        "predicted",
        "predicted",
        "predicted",
        "predicted",
        "predicted",
        "predicted",
        "predicted",
        "predicted",
        "predicted",
        "predicted",
        "predicted",
        "predicted",
        "predicted",
        "predicted",
        "predicted",
        "predicted",
        "predicted",
        "predicted",
        "measured",
        "predicted",
        "predicted",
        "predicted",
        "predicted",
        "predicted",
        "predicted",
        "predicted",
        "predicted",
        "predicted",
        "predicted",
        "predicted",
        "predicted",
        "predicted",
        "predicted",
        "predicted",
        "predicted",
        "predicted",
        "predicted",
        "predicted",
        "predicted",
        "predicted",
        "predicted",
        "predicted",
        "predicted",
        "predicted",
        "predicted",
        "measured",
        "predicted",
        "predicted",
        "predicted",
        "predicted",
        "predicted",
        "predicted",
        "predicted",
        "predicted",
        "predicted",
        "predicted",
        "predicted",
        "predicted",
        "predicted",
        "predicted",
        "predicted",
        "predicted",
        "predicted",
        "predicted",
        "predicted",
        "predicted",
        "predicted",
        "predicted",
        "predicted",
        "predicted",
        "predicted",
        "predicted",
        "measured",
        "predicted"
],
      "CsaImage.SlicePosition_PCS": [
        [-123.6026998, -129.4743033, -90.28284309],
        [-123.64947896, -129.89637667, -88.63673637],
        [-123.69625811, -130.31845003, -86.99063346],
        [-123.74303703, -130.74052244, -85.34452674],
        [-123.78981619, -131.16259581, -83.69842002],
        [-123.8365951, -131.58466917, -82.0523133],
        [-123.88337426, -132.00674254, -80.40620658],
        [-123.93015342, -132.4288159, -78.76009986],
        [-123.97693257, -132.85088736, -77.11399314],
        [-124.02371125, -133.27296072, -75.46788642],
        [-124.07049041, -133.69503409, -73.8217797],
        [-124.11726956, -134.11710745, -72.17567298],
        [-124.16404872, -134.53918081, -70.52957008],
        [-124.21082787, -134.96125418, -68.88346336],
        [-124.25760655, -135.38332564, -67.23735664],
        [-124.30438571, -135.805399, -65.59124992],
        [-124.35116486, -136.22747236, -63.9451432],
        [-124.39794402, -136.64954573, -62.29903648],
        [-124.44472318, -137.07161909, -60.65292976],
        [-124.49150233, -137.49369246, -59.00682494],
        [-124.53828101, -137.91576391, -57.36071822],
        [-124.58506017, -138.33783728, -55.7146115],
        [-124.63183932, -138.75991064, -54.06850478],
        [-124.67861848, -139.18198401, -52.42239806],
        [-124.72539763, -139.60405737, -50.77629325],
        [-124.77217631, -140.02613073, -49.13018653],
        [-124.81895547, -140.4482041, -47.48407981],
        [-124.86573462, -140.87027556, -45.83797309],
        [-124.91251378, -141.29234892, -44.19186733],
        [-124.95929293, -141.71442228, -42.54576061],
        [-125.00607161, -142.13649565, -40.89965436],
        [-125.05285077, -142.55856901, -39.25354812],
        [-125.09962992, -142.98064238, -37.60744188],
        [-125.14640908, -143.40271383, -35.96133539],
        [-125.19318824, -143.8247872, -34.31522915],
        [-125.23996692, -144.24686056, -32.66912282],
        [-125.28674607, -144.66893393, -31.02301643],
        [-125.33352523, -145.09100729, -29.37691018],
        [-125.38030438, -145.51308066, -27.73080394],
        [-125.42708354, -145.93515402, -26.0846977],
        [-125.47386222, -146.35722548, -24.43859145],
        [-125.52064137, -146.77929884, -22.79248473],
        [-125.56742053, -147.20137221, -21.14637897],
        [-125.61419968, -147.62344557, -19.50027225],
        [-125.66097884, -148.04551893, -17.85416553],
        [-125.70775752, -148.4675923, -16.20805976],
        [-125.75453667, -148.88966566, -14.56195304],
        [-125.80131583, -149.31173903, -12.91584632],
        [-125.84809499, -149.73381239, -11.2697396],
        [-125.89487414, -150.15588576, -9.62363479],
        [-125.94165282, -150.5779553, -7.97752807],
        [-125.98843198, -151.00002867, -6.33142135],
        [-126.03521113, -151.42210203, -4.68531463],
        [-126.08199029, -151.8441754, -3.03920982],
        [-126.12876944, -152.26624876, -1.3931031],
        [-126.17554812, -152.68832213, 0.25300362],
        [-126.22232728, -153.11039549, 1.89911034],
        [-126.26910643, -153.53246885, 3.54521706],
        [-126.31588559, -153.95454222, 5.19132378],
        [-126.36266475, -154.37661558, 6.8374305],
        [-126.40944342, -154.79868895, 8.48353722],
        [-126.45622258, -155.22076231, 10.12964013],
        [-126.50300174, -155.64283186, 11.77574685],
        [-126.54978089, -156.06490523, 13.42185357],
        [-126.59656005, -156.48697859, 15.06796029],
        [-126.6433392, -156.90905195, 16.71406701],
        [-126.69011788, -157.33112532, 18.36017373],
        [-126.73689704, -157.75319868, 20.00628045],
        [-126.78367619, -158.17527205, 21.65238717],
        [-126.83045535, -158.59734541, 23.29849389],
        [-126.8772345, -159.01941878, 24.94459679],
        [-126.92401318, -159.44149214, 26.59070351],
        [-126.97079234, -159.8635655, 28.23681023],
        [-127.0175715, -160.28563887, 29.88291695],
        [-127.06435065, -160.70771223, 31.52902367],
        [-127.11112981, -161.12978178, 33.17512658],
        [-127.15790849, -161.55185515, 34.82123711],
        [-127.20468764, -161.97392851, 36.46734002],
        [-127.2514668, -162.39600187, 38.11345055],
        [-127.29824595, -162.81807524, 39.75955346],
        [-127.34502511, -163.2401486, 41.40566399]
],
      "CsaImage.TimeAfterStart": [16.4, 18.5175, 16.5525, 18.6675, 16.7025, 18.8175, 16.855, 18.97, 17.005, 19.12, 17.1575, 19.2725, 17.3075, 19.4225, 17.4575, 19.575, 17.61, 19.725, 17.76, 19.8775, 17.9125, 20.0275, 18.0625, 20.1775, 18.215, 20.33, 18.365, 16.4, 18.5175, 16.5525, 18.6675, 16.7025, 18.8175, 16.855, 18.97, 17.005, 19.12, 17.1575, 19.2725, 17.3075, 19.4225, 17.4575, 19.575, 17.61, 19.725, 17.76, 19.8775, 17.9125, 20.0275, 18.0625, 20.1775, 18.215, 20.33, 18.365, 16.4, 18.5175, 16.5525, 18.6675, 16.7025, 18.8175, 16.855, 18.97, 17.005, 19.12, 17.1575, 19.2725, 17.3075, 19.4225, 17.4575, 19.575, 17.61, 19.725, 17.76, 19.8775, 17.9125, 20.0275, 18.0625, 20.1775, 18.215, 20.33, 18.365],
      "ImagePositionPatient": [
        [-123.60269980237, -129.47430330414, -90.282843086929],
        [-123.6494789581, -129.8963766684, -88.636736366958],
        [-123.69625811383, -130.31845003266, -86.990633461685],
        [-123.74303703114, -130.74052244324, -85.344526741714],
        [-123.78981618687, -131.1625958075, -83.698420021744],
        [-123.83659510418, -131.58466917176, -82.052313301773],
        [-123.88337425992, -132.00674253602, -80.406206581802],
        [-123.93015341565, -132.42881590027, -78.760099861831],
        [-123.97693257138, -132.85088735718, -77.113993141861],
        [-124.02371125027, -133.27296072144, -75.46788642189],
        [-124.070490406, -133.6950340857, -73.821779701919],
        [-124.11726956173, -134.11710744996, -72.175672981949],
        [-124.16404871747, -134.53918081421, -70.529570076675],
        [-124.2108278732, -134.96125417847, -68.883463356705],
        [-124.25760655209, -135.38332563538, -67.237356636734],
        [-124.30438570782, -135.80539899964, -65.591249916763],
        [-124.35116486355, -136.2274723639, -63.945143196792],
        [-124.39794401928, -136.64954572815, -62.299036476822],
        [-124.44472317502, -137.07161909241, -60.652929756851],
        [-124.49150233075, -137.49369245667, -59.006824944229],
        [-124.53828100964, -137.91576391358, -57.360718224258],
        [-124.58506016537, -138.33783727784, -55.714611504288],
        [-124.6318393211, -138.7599106421, -54.068504784317],
        [-124.67861847683, -139.18198400635, -52.422398064346],
        [-124.72539763257, -139.60405737061, -50.776293251724],
        [-124.77217631146, -140.02613073487, -49.130186531753],
        [-124.81895546719, -140.44820409913, -47.484079811783],
        [-124.86573462292, -140.87027555604, -45.837973091812],
        [-124.91251377865, -141.29234892029, -44.191867325516],
        [-124.95929293438, -141.71442228455, -42.545760605545],
        [-125.00607161328, -142.13649564881, -40.899654362411],
        [-125.05285076901, -142.55856901307, -39.253548119278],
        [-125.09962992474, -142.98064237732, -37.607441876144],
        [-125.14640908047, -143.40271383423, -35.961335394592],
        [-125.1931882362, -143.82478719849, -34.315229151459],
        [-125.2399669151, -144.24686056275, -32.669122818918],
        [-125.28674607083, -144.66893392701, -31.023016426773],
        [-125.33352522656, -145.09100729127, -29.376910183639],
        [-125.38030438229, -145.51308065552, -27.730803940506],
        [-125.42708353802, -145.93515401978, -26.084697697372],
        [-125.47386221692, -146.35722547669, -24.438591454239],
        [-125.52064137265, -146.77929884095, -22.792484734268],
        [-125.56742052838, -147.20137220521, -21.146378967972],
        [-125.61419968411, -147.62344556946, -19.500272248001],
        [-125.66097883984, -148.04551893372, -17.85416552803],
        [-125.70775751873, -148.46759229798, -16.208059761734],
        [-125.75453667447, -148.88966566224, -14.561953041763],
        [-125.8013158302, -149.31173902649, -12.915846321792],
        [-125.84809498593, -149.73381239075, -11.269739601822],
        [-125.89487414166, -150.15588575501, -9.6236347891996],
        [-125.94165282055, -150.57795530457, -7.9775280692289],
        [-125.98843197628, -151.00002866883, -6.3314213492582],
        [-126.03521113202, -151.42210203309, -4.6853146292875],
        [-126.08199028775, -151.84417539734, -3.0392098166655],
        [-126.12876944348, -152.2662487616, -1.3931030966948],
        [-126.17554812237, -152.68832212586, 0.25300362327594],
        [-126.2223272781, -153.11039549012, 1.8991103432466],
        [-126.26910643383, -153.53246885438, 3.5452170632174],
        [-126.31588558957, -153.95454221863, 5.1913237831881],
        [-126.3626647453, -154.37661558289, 6.8374305031588],
        [-126.40944342419, -154.79868894715, 8.4835372231295],
        [-126.45622257992, -155.22076231141, 10.129640128403],
        [-126.50300173565, -155.64283186097, 11.775746848374],
        [-126.54978089139, -156.06490522523, 13.421853568344],
        [-126.59656004712, -156.48697858948, 15.067960288315],
        [-126.64333920285, -156.90905195374, 16.714067008286],
        [-126.69011788174, -157.331125318, 18.360173728256],
        [-126.73689703747, -157.75319868226, 20.006280448227],
        [-126.7836761932, -158.17527204651, 21.652387168198],
        [-126.83045534894, -158.59734541077, 23.298493888169],
        [-126.87723450467, -159.01941877503, 24.944596793442],
        [-126.92401318356, -159.44149213929, 26.590703513413],
        [-126.97079233929, -159.86356550355, 28.236810233383],
        [-127.01757149502, -160.2856388678, 29.882916953354],
        [-127.06435065075, -160.70771223206, 31.529023673325],
        [-127.11112980649, -161.12978178162, 33.175126578598],
        [-127.15790848538, -161.55185514588, 34.821237113266],
        [-127.20468764111, -161.97392851014, 36.46734001854],
        [-127.25146679684, -162.3960018744, 38.113450553208],
        [-127.29824595257, -162.81807523865, 39.759553458481],
        [-127.3450251083, -163.24014860291, 41.405663993149]
],
      "InstanceCreationTime": ["124313.727000", "124313.844000", "124313.736000", "124313.852000", "124313.752000", "124313.858000", "124313.759000", "124313.865000", "124313.766000", "124313.871000", "124313.782000", "124313.878000", "124313.788000", "124313.884000", "124313.795000", "124313.890000", "124313.802000", "124313.897000", "124313.808000", "124313.903000", "124313.815000", "124313.910000", "124313.821000", "124313.916000", "124313.828000", "124313.923000", "124313.838000", "124313.731000", "124313.847000", "124313.738000", "124313.854000", "124313.754000", "124313.860000", "124313.761000", "124313.867000", "124313.768000", "124313.873000", "124313.784000", "124313.880000", "124313.791000", "124313.886000", "124313.798000", "124313.892000", "124313.804000", "124313.899000", "124313.810000", "124313.905000", "124313.817000", "124313.912000", "124313.823000", "124313.918000", "124313.833000", "124313.925000", "124313.840000", "124313.733000", "124313.849000", "124313.750000", "124313.856000", "124313.757000", "124313.862000", "124313.764000", "124313.869000", "124313.780000", "124313.875000", "124313.786000", "124313.882000", "124313.793000", "124313.888000", "124313.800000", "124313.895000", "124313.806000", "124313.901000", "124313.813000", "124313.907000", "124313.819000", "124313.914000", "124313.825000", "124313.920000", "124313.835000", "124313.927000", "124313.842000"],
      "InstanceNumber": [1, 2, 3, 4, 5, 6, 7, 8, 9, 10, 11, 12, 13, 14, 15, 16, 17, 18, 19, 20, 21, 22, 23, 24, 25, 26, 27, 28, 29, 30, 31, 32, 33, 34, 35, 36, 37, 38, 39, 40, 41, 42, 43, 44, 45, 46, 47, 48, 49, 50, 51, 52, 53, 54, 55, 56, 57, 58, 59, 60, 61, 62, 63, 64, 65, 66, 67, 68, 69, 70, 71, 72, 73, 74, 75, 76, 77, 78, 79, 80, 81],
      "LargestImagePixelValue": [43418, 46534, 41639, 52869, 54449, 47076, 48438, 40308, 34032, 32277, 32756, 41976, 41443, 53457, 63285, 65535, 65535, 54140, 43533, 54108, 65535, 65535, 65535, 65535, 65535, 65535, 65535, 65535, 65535, 65535, 55479, 40730, 41623, 40094, 43904, 49667, 50816, 45557, 46771, 45028, 40673, 47903, 46337, 43594, 43736, 47607, 47046, 45514, 48917, 48587, 49175, 51908, 52814, 55907, 50778, 45219, 46527, 48038, 45666, 45519, 46636, 53458, 59981, 58825, 61130, 54607, 65535, 65535, 56582, 52753, 61147, 55575, 65535, 65535, 39153, 30383, 29737, 18366, 18703, 18039, 4901],
      "SliceLocation": [-51.873837780115, -50.173837324892, -48.473840563432, -46.773840351546, -45.073839896322, -43.37383944766, -41.673838992436, -39.973838537213, -38.273838555543, -36.573838113441, -34.873837658218, -33.173837202994, -31.473840441534, -29.773839986311, -28.073840017762, -26.373839562538, -24.673839107315, -22.973838652092, -21.273838196868, -19.573839588527, -17.873839619978, -16.173839164754, -14.473838709531, -12.773838254308, -11.073839645966, -9.3738392038639, -7.6738387486406, -5.9738387669705, -4.273839235188, -2.5738387799647, -0.8738387995829, 0.82616119392002, 2.5261611874229, 4.2261609382328, 5.9261609317358, 7.6261609986901, 9.3261611364807, 11.026161129984, 12.726161123487, 14.426161116989, 16.126160623818, 17.826161079041, 19.526160610824, 21.226161066047, 22.92616152127, 24.626161039932, 26.326161495155, 28.026161950378, 29.726162405602, 31.426161013944, 33.126160508939, 34.826160964163, 36.526161419386, 38.226160027728, 39.926160482951, 41.626160925053, 43.326161380276, 45.0261618355, 46.726162290723, 48.426162745946, 50.126163188049, 51.826159949509, 53.526159457626, 55.226159912849, 56.926160368072, 58.626160823296, 60.326161265398, 62.026161720621, 63.726162175844, 65.426162631068, 67.126159392528, 68.82615983463, 70.526160289853, 72.226160745077, 73.9261612003, 75.626157014654, 77.326161150519, 79.026157911979, 80.726162060966, 82.426158822426, 84.126162971412],
      "WindowCenter": [7425.0, 7421.0, 7306.0, 7867.0, 7877.0, 7875.0, 7844.0, 7940.0, 7739.0, 7595.0, 7620.0, 7974.0, 8325.0, 8694.0, 9009.0, 9058.0, 8896.0, 8594.0, 8514.0, 8629.0, 9039.0, 9263.0, 9422.0, 9476.0, 9731.0, 9866.0, 9925.0, 10171.0, 9960.0, 9997.0, 9799.0, 9367.0, 9046.0, 9131.0, 9571.0, 9946.0, 10000.0, 10021.0, 10019.0, 9883.0, 9882.0, 9940.0, 9982.0, 10059.0, 10175.0, 10278.0, 10543.0, 10714.0, 11031.0, 11265.0, 11261.0, 11513.0, 11801.0, 11912.0, 11383.0, 11248.0, 11275.0, 11456.0, 11548.0, 11587.0, 11685.0, 11946.0, 11933.0, 11764.0, 11719.0, 11612.0, 11673.0, 11557.0, 11364.0, 11142.0, 10824.0, 10559.0, 10544.0, 9364.0, 6920.0, 6218.0, 6297.0, 5596.0, 5709.0, 5769.0, 1315.0],
      "WindowWidth": [16223.0, 16228.0, 16083.0, 17279.0, 17288.0, 17340.0, 16935.0, 17134.0, 16603.0, 16381.0, 16366.0, 17186.0, 18097.0, 19091.0, 20107.0, 20496.0, 20466.0, 19339.0, 18633.0, 18947.0, 20980.0, 21324.0, 21533.0, 22220.0, 22806.0, 23236.0, 22560.0, 23999.0, 22782.0, 22562.0, 21493.0, 20276.0, 19723.0, 19870.0, 20749.0, 21524.0, 21703.0, 21666.0, 21732.0, 21559.0, 21546.0, 21563.0, 21691.0, 21871.0, 22208.0, 22458.0, 23061.0, 23481.0, 24224.0, 24897.0, 24931.0, 25688.0, 26363.0, 26724.0, 25355.0, 25042.0, 25319.0, 25835.0, 25997.0, 26067.0, 26552.0, 27682.0, 27933.0, 27524.0, 27730.0, 27607.0, 28996.0, 29418.0, 29125.0, 28713.0, 29164.0, 29167.0, 27873.0, 21015.0, 14747.0, 12821.0, 12990.0, 11721.0, 11739.0, 11548.0, 3524.0]
    }
  }
}