{
  "AcquisitionMatrixPE": 82,
  "AcquisitionNumber": 1,
  "AcquisitionTime": "12:56:37.627500",
  "BandwidthPerPixelPhaseEncode": 24.888,
  "BaseResolution": 82,
  "BodyPartExamined": "BRAIN",
  "ConsistencyInfo": "N4_VE11C_LATEST_20160120",
  "ConversionSoftware": "dcm2niix",
  "ConversionSoftwareVersion": "v1.0.20201102",
  "DerivedVendorReportedEchoSpacing": 0.00049,
  "DeviceSerialNumber": "66112",
  "DwellTime": 2e-06,
  "EchoTime": 0.0272,
  "EchoTrainLength": 82,
  "EffectiveEchoSpacing": 0.00049,
  "FlipAngle": 44,
  "ImageComments": "Unaliased MB8/PE3",
  "ImageOrientationPatientDICOM": [0.999852, 0.00550332, 0.0163178, -0.00785301, 0.989011, 0.147631],
  "ImageType": [
    "ORIGINAL",
    "PRIMARY",
    "M",
    "MB",
    "ND",
    "NORM",
    "MOSAIC"
],
  "ImagingFrequency": 123.252,
  "InPlanePhaseEncodingDirectionDICOM": "COL",
  "InstitutionAddress": "Maynard 3,Hanover,NH,US,03755",
  "InstitutionName": "Dartmouth College - PBS",
  "InstitutionalDepartmentName": "Department",
  "MRAcquisitionType": "2D",
  "MagneticFieldStrength": 3,
  "Manufacturer": "Siemens",
  "ManufacturersModelName": "Prisma",
  "Modality": "MR",
  "MultibandAccelerationFactor": 8,
  "PartialFourier": 1,
  "PatientPosition": "HFS",
  "PercentPhaseFOV": 100,
  "PercentSampling": 100,
  "PhaseEncodingDirection": "j-",
  "PhaseEncodingSteps": 82,
  "PhaseResolution": 1,
  "PixelBandwidth": 3050,
  "ProcedureStepDescription": "Wager_Wager^1076_spacetop",
  "ProtocolName": "func_run-05_task-social_acq-ap-mb8",
  "PulseSequenceDetails": "%CustomerSeq%\\cmrr_mbep2d_bold",
  "ReceiveCoilActiveElements": "HEA;HEP",
  "ReceiveCoilName": "Head_32",
  "ReconMatrixPE": 82,
  "RepetitionTime": 0.46,
  "SAR": 0.117658,
  "ScanOptions": "FS",
  "ScanningSequence": "EP",
  "SequenceName": "epfid2d1_82",
  "SequenceVariant": "SK\\SS",
  "SeriesDescription": "func_run-05_task-social_acq-ap-mb8",
  "SeriesNumber": 16,
  "ShimSetting": [4141, -7798, -7165, 479, -91, -193, 84, 56],
  "SliceThickness": 2.7,
  "SliceTiming": [0, 0.2525, 0.0625, 0.315, 0.1275, 0.3775, 0.19, 0, 0.2525, 0.0625, 0.315, 0.1275, 0.3775, 0.19, 0, 0.2525, 0.0625, 0.315, 0.1275, 0.3775, 0.19, 0, 0.2525, 0.0625, 0.315, 0.1275, 0.3775, 0.19, 0, 0.2525, 0.0625, 0.315, 0.1275, 0.3775, 0.19, 0, 0.2525, 0.0625, 0.315, 0.1275, 0.3775, 0.19, 0, 0.2525, 0.0625, 0.315, 0.1275, 0.3775, 0.19, 0, 0.2525, 0.0625, 0.315, 0.1275, 0.3775, 0.19],
  "SoftwareVersions": "syngo MR E11",
  "SpacingBetweenSlices": 2.7,
  "StationName": "AWP66112",
  "TaskName": "social",
  "TotalReadoutTime": 0.03969,
  "TxRefAmp": 279.13,
  "WipMemBlock": "1d97e58e-cd36-4d07-b2c7-860dd449487d||Sequence: R016 ve11c/master r/e634e98; Dec 19 2017 11:00:25 by eja",
  "dcmmeta_affine": [
    [-2.6825289726257324, -0.021069053560495377, 0.04138023406267166, 111.2491455078125],
    [-0.014764993451535702, 2.653445243835449, 0.39888960123062134, -96.43854522705078],
    [0.0437794104218483, -0.39608219265937805, 2.6700515747070312, -7.356716156005859],
    [0.0, 0.0, 0.0, 1.0]
],
  "dcmmeta_reorient_transform": [
    [0.0, -1.0, 0.0, 81.0],
    [1.0, 0.0, 0.0, 0.0],
    [0.0, 0.0, 1.0, 0.0],
    [0.0, 0.0, 0.0, 1.0]
],
  "dcmmeta_shape": [82, 82, 56, 872],
  "dcmmeta_slice_dim": 2,
  "dcmmeta_version": 0.6,
  "global": {
    "const": {
      "AccessionNumber": "A003586",
      "AcquisitionMatrix": [82, 0, 0, 82],
      "AngioFlag": "N",
      "BitsAllocated": 16,
      "BitsStored": 16,
      "BodyPartExamined": "BRAIN",
      "Columns": 656,
      "EchoNumbers": 1,
      "EchoTime": 27.2,
      "EchoTrainLength": 82,
      "FlipAngle": 44.0,
      "HighBit": 15,
      "ImageOrientationPatient": [0.99985171078297, 0.00550331562412, 0.0163177805326, -0.0078530106306, 0.9890113882439, 0.14763063417841],
      "ImagePositionPatient": [-873.38157189838, -884.26686190382, -165.67965675583],
      "ImageType": [
        "ORIGINAL",
        "PRIMARY",
        "M",
        "MB",
        "ND",
        "NORM",
        "MOSAIC"
],
      "ImagedNucleus": "1H",
      "ImagingFrequency": 123.252064,
      "InPlanePhaseEncodingDirection": "COL",
      "MRAcquisitionType": "2D",
      "MagneticFieldStrength": 3.0,
      "Manufacturer": "SIEMENS",
      "ManufacturerModelName": "Prisma",
      "Modality": "MR",
      "NumberOfAverages": 1.0,
      "NumberOfPhaseEncodingSteps": 82,
      "PercentPhaseFieldOfView": 100.0,
      "PercentSampling": 100.0,
      "PerformedProcedureStepStartTime": "120712.889000",
      "PhotometricInterpretation": "MONOCHROME2",
      "PixelBandwidth": 3050.0,
      "PixelRepresentation": 0,
      "PixelSpacing": [2.6829268932343, 2.6829268932343],
      "ProtocolName": "func_run-05_task-social_acq-ap-mb8",
      "RepetitionTime": 460.0,
      "Rows": 656,
      "SAR": 0.11765760202313,
      "SamplesPerPixel": 1,
      "ScanOptions": "FS",
      "ScanningSequence": "EP",
      "SequenceName": "epfid2d1_82",
      "SequenceVariant": [
        "SK",
        "SS"
],
      "SeriesDescription": "func_run-05_task-social_acq-ap-mb8",
      "SeriesNumber": 16,
      "SeriesTime": "125655.621000",
      "SliceLocation": -19.817639484528,
      "SliceThickness": 2.7000000476837,
      "SmallestImagePixelValue": 0,
      "SoftwareVersions": "syngo MR E11",
      "SpacingBetweenSlices": 2.7000000506978,
      "SpecificCharacterSet": "ISO_IR 100",
      "StudyID": "1",
      "StudyTime": "120712.794000",
      "TransmitCoilName": "Body",
      "VariableFlipAngleFlag": "N",
      "WindowCenterWidthExplanation": "Algo1",
      "dBdt": 0.0},
    "slices": {}
  },
  "time": {
    "samples": {
      "AcquisitionNumber": [1, 2, 3, 4, 5, 6, 7, 8, 9, 10, 11, 12, 13, 14, 15, 16, 17, 18, 19, 20, 21, 22, 23, 24, 25, 26, 27, 28, 29, 30, 31, 32, 33, 34, 35, 36, 37, 38, 39, 40, 41, 42, 43, 44, 45, 46, 47, 48, 49, 50, 51, 52, 53, 54, 55, 56, 57, 58, 59, 60, 61, 62, 63, 64, 65, 66, 67, 68, 69, 70, 71, 72, 73, 74, 75, 76, 77, 78, 79, 80, 81, 82, 83, 84, 85, 86, 87, 88, 89, 90, 91, 92, 93, 94, 95, 96, 97, 98, 99, 100, 101, 102, 103, 104, 105, 106, 107, 108, 109, 110, 111, 112, 113, 114, 115, 116, 117, 118, 119, 120, 121, 122, 123, 124, 125, 126, 127, 128, 129, 130, 131, 132, 133, 134, 135, 136, 137, 138, 139, 140, 141, 142, 143, 144, 145, 146, 147, 148, 149, 150, 151, 152, 153, 154, 155, 156, 157, 158, 159, 160, 161, 162, 163, 164, 165, 166, 167, 168, 169, 170, 171, 172, 173, 174, 175, 176, 177, 178, 179, 180, 181, 182, 183, 184, 185, 186, 187, 188, 189, 190, 191, 192, 193, 194, 195, 196, 197, 198, 199, 200, 201, 202, 203, 204, 205, 206, 207, 208, 209, 210, 211, 212, 213, 214, 215, 216, 217, 218, 219, 220, 221, 222, 223, 224, 225, 226, 227, 228, 229, 230, 231, 232, 233, 234, 235, 236, 237, 238, 239, 240, 241, 242, 243, 244, 245, 246, 247, 248, 249, 250, 251, 252, 253, 254, 255, 256, 257, 258, 259, 260, 261, 262, 263, 264, 265, 266, 267, 268, 269, 270, 271, 272, 273, 274, 275, 276, 277, 278, 279, 280, 281, 282, 283, 284, 285, 286, 287, 288, 289, 290, 291, 292, 293, 294, 295, 296, 297, 298, 299, 300, 301, 302, 303, 304, 305, 306, 307, 308, 309, 310, 311, 312, 313, 314, 315, 316, 317, 318, 319, 320, 321, 322, 323, 324, 325, 326, 327, 328, 329, 330, 331, 332, 333, 334, 335, 336, 337, 338, 339, 340, 341, 342, 343, 344, 345, 346, 347, 348, 349, 350, 351, 352, 353, 354, 355, 356, 357, 358, 359, 360, 361, 362, 363, 364, 365, 366, 367, 368, 369, 370, 371, 372, 373, 374, 375, 376, 377, 378, 379, 380, 381, 382, 383, 384, 385, 386, 387, 388, 389, 390, 391, 392, 393, 394, 395, 396, 397, 398, 399, 400, 401, 402, 403, 404, 405, 406, 407, 408, 409, 410, 411, 412, 413, 414, 415, 416, 417, 418, 419, 420, 421, 422, 423, 424, 425, 426, 427, 428, 429, 430, 431, 432, 433, 434, 435, 436, 437, 438, 439, 440, 441, 442, 443, 444, 445, 446, 447, 448, 449, 450, 451, 452, 453, 454, 455, 456, 457, 458, 459, 460, 461, 462, 463, 464, 465, 466, 467, 468, 469, 470, 471, 472, 473, 474, 475, 476, 477, 478, 479, 480, 481, 482, 483, 484, 485, 486, 487, 488, 489, 490, 491, 492, 493, 494, 495, 496, 497, 498, 499, 500, 501, 502, 503, 504, 505, 506, 507, 508, 509, 510, 511, 512, 513, 514, 515, 516, 517, 518, 519, 520, 521, 522, 523, 524, 525, 526, 527, 528, 529, 530, 531, 532, 533, 534, 535, 536, 537, 538, 539, 540, 541, 542, 543, 544, 545, 546, 547, 548, 549, 550, 551, 552, 553, 554, 555, 556, 557, 558, 559, 560, 561, 562, 563, 564, 565, 566, 567, 568, 569, 570, 571, 572, 573, 574, 575, 576, 577, 578, 579, 580, 581, 582, 583, 584, 585, 586, 587, 588, 589, 590, 591, 592, 593, 594, 595, 596, 597, 598, 599, 600, 601, 602, 603, 604, 605, 606, 607, 608, 609, 610, 611, 612, 613, 614, 615, 616, 617, 618, 619, 620, 621, 622, 623, 624, 625, 626, 627, 628, 629, 630, 631, 632, 633, 634, 635, 636, 637, 638, 639, 640, 641, 642, 643, 644, 645, 646, 647, 648, 649, 650, 651, 652, 653, 654, 655, 656, 657, 658, 659, 660, 661, 662, 663, 664, 665, 666, 667, 668, 669, 670, 671, 672, 673, 674, 675, 676, 677, 678, 679, 680, 681, 682, 683, 684, 685, 686, 687, 688, 689, 690, 691, 692, 693, 694, 695, 696, 697, 698, 699, 700, 701, 702, 703, 704, 705, 706, 707, 708, 709, 710, 711, 712, 713, 714, 715, 716, 717, 718, 719, 720, 721, 722, 723, 724, 725, 726, 727, 728, 729, 730, 731, 732, 733, 734, 735, 736, 737, 738, 739, 740, 741, 742, 743, 744, 745, 746, 747, 748, 749, 750, 751, 752, 753, 754, 755, 756, 757, 758, 759, 760, 761, 762, 763, 764, 765, 766, 767, 768, 769, 770, 771, 772, 773, 774, 775, 776, 777, 778, 779, 780, 781, 782, 783, 784, 785, 786, 787, 788, 789, 790, 791, 792, 793, 794, 795, 796, 797, 798, 799, 800, 801, 802, 803, 804, 805, 806, 807, 808, 809, 810, 811, 812, 813, 814, 815, 816, 817, 818, 819, 820, 821, 822, 823, 824, 825, 826, 827, 828, 829, 830, 831, 832, 833, 834, 835, 836, 837, 838, 839, 840, 841, 842, 843, 844, 845, 846, 847, 848, 849, 850, 851, 852, 853, 854, 855, 856, 857, 858, 859, 860, 861, 862, 863, 864, 865, 866, 867, 868, 869, 870, 871, 872],
      "AcquisitionTime": ["125637.627500", "125638.087500", "125638.547500", "125639.007500", "125639.467500", "125639.927500", "125640.387500", "125640.847500", "125641.307500", "125641.767500", "125642.227500", "125642.687500", "125643.147500", "125643.607500", "125644.067500", "125644.527500", "125644.987500", "125645.447500", "125645.907500", "125646.367500", "125646.827500", "125647.287500", "125647.747500", "125648.207500", "125648.667500", "125649.127500", "125649.587500", "125650.047500", "125650.507500", "125650.967500", "125651.427500", "125651.887500", "125652.347500", "125652.807500", "125653.267500", "125653.727500", "125654.187500", "125654.647500", "125655.107500", "125655.567500", "125656.027500", "125656.487500", "125656.947500", "125657.407500", "125657.867500", "125658.327500", "125658.787500", "125659.247500", "125659.707500", "125700.167500", "125700.627500", "125701.087500", "125701.547500", "125702.007500", "125702.467500", "125702.927500", "125703.387500", "125703.847500", "125704.307500", "125704.767500", "125705.227500", "125705.687500", "125706.147500", "125706.607500", "125707.067500", "125707.527500", "125707.987500", "125708.447500", "125708.907500", "125709.367500", "125709.827500", "125710.287500", "125710.747500", "125711.207500", "125711.667500", "125712.127500", "125712.587500", "125713.047500", "125713.507500", "125713.967500", "125714.427500", "125714.887500", "125715.347500", "125715.807500", "125716.267500", "125716.727500", "125717.187500", "125717.647500", "125718.107500", "125718.567500", "125719.027500", "125719.487500", "125719.947500", "125720.407500", "125720.867500", "125721.327500", "125721.787500", "125722.247500", "125722.707500", "125723.167500", "125723.627500", "125724.087500", "125724.547500", "125725.007500", "125725.467500", "125725.927500", "125726.387500", "125726.847500", "125727.307500", "125727.767500", "125728.227500", "125728.687500", "125729.147500", "125729.607500", "125730.067500", "125730.527500", "125730.987500", "125731.447500", "125731.907500", "125732.367500", "125732.827500", "125733.287500", "125733.747500", "125734.207500", "125734.667500", "125735.127500", "125735.587500", "125736.047500", "125736.507500", "125736.967500", "125737.427500", "125737.887500", "125738.347500", "125738.807500", "125739.267500", "125739.727500", "125740.187500", "125740.647500", "125741.107500", "125741.567500", "125742.027500", "125742.487500", "125742.947500", "125743.407500", "125743.867500", "125744.327500", "125744.787500", "125745.247500", "125745.707500", "125746.167500", "125746.627500", "125747.087500", "125747.547500", "125748.007500", "125748.467500", "125748.927500", "125749.387500", "125749.847500", "125750.307500", "125750.767500", "125751.227500", "125751.687500", "125752.147500", "125752.607500", "125753.067500", "125753.527500", "125753.987500", "125754.447500", "125754.907500", "125755.367500", "125755.827500", "125756.287500", "125756.747500", "125757.207500", "125757.667500", "125758.127500", "125758.587500", "125759.047500", "125759.507500", "125759.967500", "125800.427500", "125800.887500", "125801.347500", "125801.807500", "125802.267500", "125802.727500", "125803.187500", "125803.647500", "125804.107500", "125804.567500", "125805.027500", "125805.487500", "125805.947500", "125806.407500", "125806.867500", "125807.327500", "125807.787500", "125808.247500", "125808.707500", "125809.167500", "125809.627500", "125810.087500", "125810.547500", "125811.007500", "125811.467500", "125811.927500", "125812.387500", "125812.847500", "125813.307500", "125813.767500", "125814.227500", "125814.687500", "125815.147500", "125815.607500", "125816.067500", "125816.527500", "125816.987500", "125817.447500", "125817.907500", "125818.367500", "125818.827500", "125819.287500", "125819.747500", "125820.207500", "125820.667500", "125821.127500", "125821.587500", "125822.047500", "125822.507500", "125822.967500", "125823.427500", "125823.887500", "125824.347500", "125824.807500", "125825.267500", "125825.727500", "125826.187500", "125826.647500", "125827.107500", "125827.567500", "125828.027500", "125828.487500", "125828.947500", "125829.407500", "125829.867500", "125830.327500", "125830.787500", "125831.247500", "125831.707500", "125832.167500", "125832.627500", "125833.087500", "125833.547500", "125834.007500", "125834.467500", "125834.927500", "125835.387500", "125835.847500", "125836.307500", "125836.767500", "125837.227500", "125837.687500", "125838.147500", "125838.607500", "125839.067500", "125839.527500", "125839.987500", "125840.447500", "125840.907500", "125841.367500", "125841.827500", "125842.287500", "125842.747500", "125843.207500", "125843.667500", "125844.127500", "125844.587500", "125845.047500", "125845.507500", "125845.967500", "125846.427500", "125846.887500", "125847.347500", "125847.807500", "125848.267500", "125848.727500", "125849.187500", "125849.647500", "125850.107500", "125850.567500", "125851.027500", "125851.487500", "125851.947500", "125852.407500", "125852.867500", "125853.327500", "125853.787500", "125854.247500", "125854.707500", "125855.167500", "125855.627500", "125856.087500", "125856.547500", "125857.007500", "125857.467500", "125857.927500", "125858.387500", "125858.847500", "125859.307500", "125859.767500", "125900.227500", "125900.687500", "125901.147500", "125901.607500", "125902.067500", "125902.527500", "125902.987500", "125903.447500", "125903.907500", "125904.367500", "125904.827500", "125905.287500", "125905.747500", "125906.207500", "125906.667500", "125907.127500", "125907.587500", "125908.047500", "125908.507500", "125908.967500", "125909.427500", "125909.887500", "125910.347500", "125910.807500", "125911.267500", "125911.727500", "125912.187500", "125912.647500", "125913.107500", "125913.567500", "125914.027500", "125914.487500", "125914.947500", "125915.407500", "125915.867500", "125916.327500", "125916.787500", "125917.247500", "125917.707500", "125918.167500", "125918.627500", "125919.087500", "125919.547500", "125920.007500", "125920.467500", "125920.927500", "125921.387500", "125921.847500", "125922.307500", "125922.767500", "125923.227500", "125923.687500", "125924.147500", "125924.607500", "125925.067500", "125925.527500", "125925.987500", "125926.447500", "125926.907500", "125927.367500", "125927.827500", "125928.287500", "125928.747500", "125929.207500", "125929.667500", "125930.127500", "125930.587500", "125931.047500", "125931.507500", "125931.967500", "125932.427500", "125932.887500", "125933.347500", "125933.807500", "125934.267500", "125934.727500", "125935.187500", "125935.647500", "125936.107500", "125936.567500", "125937.027500", "125937.487500", "125937.947500", "125938.407500", "125938.867500", "125939.327500", "125939.787500", "125940.247500", "125940.707500", "125941.167500", "125941.627500", "125942.087500", "125942.547500", "125943.007500", "125943.467500", "125943.927500", "125944.387500", "125944.847500", "125945.307500", "125945.767500", "125946.227500", "125946.687500", "125947.147500", "125947.607500", "125948.067500", "125948.527500", "125948.987500", "125949.447500", "125949.907500", "125950.367500", "125950.827500", "125951.287500", "125951.747500", "125952.207500", "125952.667500", "125953.127500", "125953.587500", "125954.047500", "125954.507500", "125954.967500", "125955.427500", "125955.887500", "125956.347500", "125956.807500", "125957.267500", "125957.727500", "125958.187500", "125958.647500", "125959.107500", "125959.567500", "130000.027500", "130000.487500", "130000.947500", "130001.407500", "130001.867500", "130002.327500", "130002.787500", "130003.247500", "130003.707500", "130004.167500", "130004.627500", "130005.087500", "130005.547500", "130006.007500", "130006.467500", "130006.927500", "130007.387500", "130007.847500", "130008.307500", "130008.767500", "130009.227500", "130009.687500", "130010.147500", "130010.607500", "130011.067500", "130011.527500", "130011.987500", "130012.447500", "130012.907500", "130013.367500", "130013.827500", "130014.287500", "130014.747500", "130015.207500", "130015.667500", "130016.127500", "130016.587500", "130017.047500", "130017.507500", "130017.967500", "130018.427500", "130018.887500", "130019.347500", "130019.807500", "130020.267500", "130020.727500", "130021.187500", "130021.647500", "130022.107500", "130022.567500", "130023.027500", "130023.487500", "130023.947500", "130024.407500", "130024.867500", "130025.327500", "130025.787500", "130026.247500", "130026.707500", "130027.167500", "130027.627500", "130028.087500", "130028.547500", "130029.007500", "130029.467500", "130029.927500", "130030.387500", "130030.847500", "130031.307500", "130031.767500", "130032.227500", "130032.687500", "130033.147500", "130033.607500", "130034.067500", "130034.527500", "130034.987500", "130035.447500", "130035.907500", "130036.367500", "130036.827500", "130037.287500", "130037.747500", "130038.207500", "130038.667500", "130039.127500", "130039.587500", "130040.047500", "130040.507500", "130040.967500", "130041.427500", "130041.887500", "130042.347500", "130042.807500", "130043.267500", "130043.727500", "130044.187500", "130044.647500", "130045.107500", "130045.567500", "130046.027500", "130046.487500", "130046.947500", "130047.407500", "130047.867500", "130048.327500", "130048.787500", "130049.247500", "130049.707500", "130050.167500", "130050.627500", "130051.087500", "130051.547500", "130052.007500", "130052.467500", "130052.927500", "130053.387500", "130053.847500", "130054.307500", "130054.767500", "130055.227500", "130055.687500", "130056.147500", "130056.607500", "130057.067500", "130057.527500", "130057.987500", "130058.447500", "130058.907500", "130059.367500", "130059.827500", "130100.287500", "130100.747500", "130101.207500", "130101.667500", "130102.127500", "130102.587500", "130103.047500", "130103.507500", "130103.967500", "130104.427500", "130104.887500", "130105.347500", "130105.807500", "130106.267500", "130106.727500", "130107.187500", "130107.647500", "130108.107500", "130108.567500", "130109.027500", "130109.487500", "130109.947500", "130110.407500", "130110.867500", "130111.327500", "130111.787500", "130112.247500", "130112.707500", "130113.167500", "130113.627500", "130114.087500", "130114.547500", "130115.007500", "130115.467500", "130115.927500", "130116.387500", "130116.847500", "130117.307500", "130117.767500", "130118.227500", "130118.687500", "130119.147500", "130119.607500", "130120.067500", "130120.527500", "130120.987500", "130121.447500", "130121.907500", "130122.367500", "130122.827500", "130123.287500", "130123.747500", "130124.207500", "130124.667500", "130125.127500", "130125.587500", "130126.047500", "130126.507500", "130126.967500", "130127.427500", "130127.887500", "130128.347500", "130128.807500", "130129.267500", "130129.727500", "130130.187500", "130130.647500", "130131.107500", "130131.567500", "130132.027500", "130132.487500", "130132.947500", "130133.407500", "130133.867500", "130134.327500", "130134.787500", "130135.247500", "130135.707500", "130136.167500", "130136.627500", "130137.087500", "130137.547500", "130138.007500", "130138.467500", "130138.927500", "130139.387500", "130139.847500", "130140.307500", "130140.767500", "130141.227500", "130141.687500", "130142.147500", "130142.607500", "130143.067500", "130143.527500", "130143.987500", "130144.447500", "130144.907500", "130145.367500", "130145.827500", "130146.287500", "130146.747500", "130147.207500", "130147.667500", "130148.127500", "130148.587500", "130149.047500", "130149.507500", "130149.967500", "130150.427500", "130150.887500", "130151.347500", "130151.807500", "130152.267500", "130152.727500", "130153.187500", "130153.647500", "130154.107500", "130154.567500", "130155.027500", "130155.487500", "130155.947500", "130156.407500", "130156.867500", "130157.327500", "130157.787500", "130158.247500", "130158.707500", "130159.167500", "130159.627500", "130200.087500", "130200.547500", "130201.007500", "130201.467500", "130201.927500", "130202.387500", "130202.847500", "130203.307500", "130203.767500", "130204.227500", "130204.687500", "130205.147500", "130205.607500", "130206.067500", "130206.527500", "130206.987500", "130207.447500", "130207.907500", "130208.367500", "130208.827500", "130209.287500", "130209.747500", "130210.207500", "130210.667500", "130211.127500", "130211.587500", "130212.047500", "130212.507500", "130212.967500", "130213.427500", "130213.887500", "130214.347500", "130214.807500", "130215.267500", "130215.727500", "130216.187500", "130216.647500", "130217.107500", "130217.567500", "130218.027500", "130218.487500", "130218.947500", "130219.407500", "130219.867500", "130220.327500", "130220.787500", "130221.247500", "130221.707500", "130222.167500", "130222.627500", "130223.087500", "130223.547500", "130224.007500", "130224.467500", "130224.927500", "130225.387500", "130225.847500", "130226.307500", "130226.767500", "130227.227500", "130227.687500", "130228.147500", "130228.607500", "130229.067500", "130229.527500", "130229.987500", "130230.447500", "130230.907500", "130231.367500", "130231.827500", "130232.287500", "130232.747500", "130233.207500", "130233.667500", "130234.127500", "130234.587500", "130235.047500", "130235.507500", "130235.967500", "130236.427500", "130236.887500", "130237.347500", "130237.807500", "130238.267500", "130238.727500", "130239.187500", "130239.647500", "130240.107500", "130240.567500", "130241.027500", "130241.487500", "130241.947500", "130242.407500", "130242.867500", "130243.327500", "130243.787500", "130244.247500", "130244.707500", "130245.167500", "130245.627500", "130246.087500", "130246.547500", "130247.007500", "130247.467500", "130247.927500", "130248.387500", "130248.847500", "130249.307500", "130249.767500", "130250.227500", "130250.687500", "130251.147500", "130251.607500", "130252.067500", "130252.527500", "130252.987500", "130253.447500", "130253.907500", "130254.367500", "130254.827500", "130255.287500", "130255.747500", "130256.207500", "130256.667500", "130257.127500", "130257.587500", "130258.047500", "130258.507500", "130258.967500", "130259.427500", "130259.887500", "130300.347500", "130300.807500", "130301.267500", "130301.727500", "130302.187500", "130302.647500", "130303.107500", "130303.567500", "130304.027500", "130304.487500", "130304.947500", "130305.407500", "130305.867500", "130306.327500", "130306.787500", "130307.247500", "130307.707500", "130308.167500", "130308.627500", "130309.087500", "130309.547500", "130310.007500", "130310.467500", "130310.927500", "130311.387500", "130311.847500", "130312.307500", "130312.767500", "130313.227500", "130313.687500", "130314.147500", "130314.607500", "130315.067500", "130315.527500", "130315.987500", "130316.447500", "130316.907500", "130317.367500", "130317.827500", "130318.287500"],
