{
  "AcquisitionMatrixPE": 82,
  "AcquisitionNumber": 1,
  "AcquisitionTime": "13:47:36.202500",
  "BandwidthPerPixelPhaseEncode": 24.888,
  "BaseResolution": 82,
  "BodyPartExamined": "BRAIN",
  "ConsistencyInfo": "N4_VE11C_LATEST_20160120",
  "ConversionSoftware": "dcm2niix",
  "ConversionSoftwareVersion": "v1.0.20201102",
  "DerivedVendorReportedEchoSpacing": 0.00049,
  "DeviceSerialNumber": "66112",
  "DwellTime": 2e-06,
  "EchoTime": 0.0272,
  "EchoTrainLength": 82,
  "EffectiveEchoSpacing": 0.00049,
  "FlipAngle": 44,
  "ImageComments": "Unaliased MB8/PE3",
  "ImageOrientationPatientDICOM": [0.998585, 0.00777844, 0.0526088, -0.0169074, 0.984355, 0.175383],
  "ImageType": [
    "ORIGINAL",
    "PRIMARY",
    "M",
    "MB",
    "ND",
    "NORM",
    "MOSAIC"
],
  "ImagingFrequency": 123.252,
  "InPlanePhaseEncodingDirectionDICOM": "COL",
  "InstitutionAddress": "Maynard 3,Hanover,NH,US,03755",
  "InstitutionName": "Dartmouth College - PBS",
  "InstitutionalDepartmentName": "Department",
  "MRAcquisitionType": "2D",
  "MagneticFieldStrength": 3,
  "Manufacturer": "Siemens",
  "ManufacturersModelName": "Prisma",
  "Modality": "MR",
  "MultibandAccelerationFactor": 8,
  "PartialFourier": 1,
  "PatientPosition": "HFS",
  "PercentPhaseFOV": 100,
  "PercentSampling": 100,
  "PhaseEncodingDirection": "j-",
  "PhaseEncodingSteps": 82,
  "PhaseResolution": 1,
  "PixelBandwidth": 3050,
  "ProcedureStepDescription": "Wager_Wager^1076_spacetop",
  "ProtocolName": "func_run-03_task-alignvideo_acq-ap-mb8",
  "PulseSequenceDetails": "%CustomerSeq%\\cmrr_mbep2d_bold",
  "ReceiveCoilActiveElements": "HEA;HEP",
  "ReceiveCoilName": "Head_32",
  "ReconMatrixPE": 82,
  "RepetitionTime": 0.46,
  "SAR": 0.11779,
  "ScanOptions": "FS",
  "ScanningSequence": "EP",
  "SequenceName": "epfid2d1_82",
  "SequenceVariant": "SK\\SS",
  "SeriesDescription": "func_run-03_task-alignvideo_acq-ap-mb8",
  "SeriesNumber": 32,
  "ShimSetting": [4143, -7792, -7162, 481, -87, -173, 91, 58],
  "SliceThickness": 2.7,
  "SliceTiming": [0, 0.2525, 0.0625, 0.315, 0.125, 0.3775, 0.19, 0, 0.2525, 0.0625, 0.315, 0.125, 0.3775, 0.19, 0, 0.2525, 0.0625, 0.315, 0.125, 0.3775, 0.19, 0, 0.2525, 0.0625, 0.315, 0.125, 0.3775, 0.19, 0, 0.2525, 0.0625, 0.315, 0.125, 0.3775, 0.19, 0, 0.2525, 0.0625, 0.315, 0.125, 0.3775, 0.19, 0, 0.2525, 0.0625, 0.315, 0.125, 0.3775, 0.19, 0, 0.2525, 0.0625, 0.315, 0.125, 0.3775, 0.19],
  "SoftwareVersions": "syngo MR E11",
  "SpacingBetweenSlices": 2.7,
  "StationName": "AWP66112",
  "TaskName": "alignvideo",
  "TotalReadoutTime": 0.03969,
  "TxRefAmp": 279.13,
  "WipMemBlock": "133c1ca7-e183-48fc-b84a-83da53bb3a2a||Sequence: R016 ve11c/master r/e634e98; Dec 19 2017 11:00:25 by eja",
  "dcmmeta_affine": [
    [-2.6791303157806396, -0.045361198484897614, 0.13613814115524292, 110.83767700195312],
    [-0.020868998020887375, 2.6409528255462646, 0.4752650260925293, -96.65690612792969],
    [0.14114555716514587, -0.4705392122268677, 2.654352903366089, -3.5648577213287354],
    [0.0, 0.0, 0.0, 1.0]
],
  "dcmmeta_reorient_transform": [
    [0.0, -1.0, 0.0, 81.0],
    [1.0, 0.0, 0.0, 0.0],
    [0.0, 0.0, 1.0, 0.0],
    [0.0, 0.0, 0.0, 1.0]
],
  "dcmmeta_shape": [82, 82, 56, 1065],
  "dcmmeta_slice_dim": 2,
  "dcmmeta_version": 0.6,
  "global": {
    "const": {
      "AccessionNumber": "A003586",
      "AcquisitionMatrix": [82, 0, 0, 82],
      "AngioFlag": "N",
      "BitsAllocated": 16,
      "BitsStored": 16,
      "BodyPartExamined": "BRAIN",
      "Columns": 656,
      "EchoNumbers": 1,
      "EchoTime": 27.2,
      "EchoTrainLength": 82,
      "FlipAngle": 44.0,
      "HighBit": 15,
      "ImageOrientationPatient": [0.99858490393498, 0.00777844474886, 0.05260879613192, -0.0169073551843, 0.9843551273458, 0.1753827945059],
      "ImagePositionPatient": [-863.05515092385, -881.2031431394, -217.2320632392],
      "ImageType": [
        "ORIGINAL",
        "PRIMARY",
        "M",
        "MB",
        "ND",
        "NORM",
        "MOSAIC"
],
      "ImagedNucleus": "1H",
      "ImagingFrequency": 123.252076,
      "InPlanePhaseEncodingDirection": "COL",
      "MRAcquisitionType": "2D",
      "MagneticFieldStrength": 3.0,
      "Manufacturer": "SIEMENS",
      "ManufacturerModelName": "Prisma",
      "Modality": "MR",
      "NumberOfAverages": 1.0,
      "NumberOfPhaseEncodingSteps": 82,
      "PercentPhaseFieldOfView": 100.0,
      "PercentSampling": 100.0,
      "PerformedProcedureStepStartTime": "120712.889000",
      "PhotometricInterpretation": "MONOCHROME2",
      "PixelBandwidth": 3050.0,
      "PixelRepresentation": 0,
      "PixelSpacing": [2.6829268932343, 2.6829268932343],
      "ProtocolName": "func_run-03_task-alignvideo_acq-ap-mb8",
      "RepetitionTime": 460.0,
      "Rows": 656,
      "SAR": 0.11779032143915,
      "SamplesPerPixel": 1,
      "ScanOptions": "FS",
      "ScanningSequence": "EP",
      "SequenceName": "epfid2d1_82",
      "SequenceVariant": [
        "SK",
        "SS"
],
      "SeriesDescription": "func_run-03_task-alignvideo_acq-ap-mb8",
      "SeriesNumber": 32,
      "SeriesTime": "134755.774000",
      "SliceLocation": -14.929927141195,
      "SliceThickness": 2.7000000476837,
      "SmallestImagePixelValue": 0,
      "SoftwareVersions": "syngo MR E11",
      "SpacingBetweenSlices": 2.7000000066818,
      "SpecificCharacterSet": "ISO_IR 100",
      "StudyID": "1",
      "StudyTime": "120712.794000",
      "TransmitCoilName": "Body",
      "VariableFlipAngleFlag": "N",
      "WindowCenterWidthExplanation": "Algo1",
      "dBdt": 0.0},
    "slices": {}
  },
  "time": {
    "samples": {
      "AcquisitionNumber": [1, 2, 3, 4, 5, 6, 7, 8, 9, 10, 11, 12, 13, 14, 15, 16, 17, 18, 19, 20, 21, 22, 23, 24, 25, 26, 27, 28, 29, 30, 31, 32, 33, 34, 35, 36, 37, 38, 39, 40, 41, 42, 43, 44, 45, 46, 47, 48, 49, 50, 51, 52, 53, 54, 55, 56, 57, 58, 59, 60, 61, 62, 63, 64, 65, 66, 67, 68, 69, 70, 71, 72, 73, 74, 75, 76, 77, 78, 79, 80, 81, 82, 83, 84, 85, 86, 87, 88, 89, 90, 91, 92, 93, 94, 95, 96, 97, 98, 99, 100, 101, 102, 103, 104, 105, 106, 107, 108, 109, 110, 111, 112, 113, 114, 115, 116, 117, 118, 119, 120, 121, 122, 123, 124, 125, 126, 127, 128, 129, 130, 131, 132, 133, 134, 135, 136, 137, 138, 139, 140, 141, 142, 143, 144, 145, 146, 147, 148, 149, 150, 151, 152, 153, 154, 155, 156, 157, 158, 159, 160, 161, 162, 163, 164, 165, 166, 167, 168, 169, 170, 171, 172, 173, 174, 175, 176, 177, 178, 179, 180, 181, 182, 183, 184, 185, 186, 187, 188, 189, 190, 191, 192, 193, 194, 195, 196, 197, 198, 199, 200, 201, 202, 203, 204, 205, 206, 207, 208, 209, 210, 211, 212, 213, 214, 215, 216, 217, 218, 219, 220, 221, 222, 223, 224, 225, 226, 227, 228, 229, 230, 231, 232, 233, 234, 235, 236, 237, 238, 239, 240, 241, 242, 243, 244, 245, 246, 247, 248, 249, 250, 251, 252, 253, 254, 255, 256, 257, 258, 259, 260, 261, 262, 263, 264, 265, 266, 267, 268, 269, 270, 271, 272, 273, 274, 275, 276, 277, 278, 279, 280, 281, 282, 283, 284, 285, 286, 287, 288, 289, 290, 291, 292, 293, 294, 295, 296, 297, 298, 299, 300, 301, 302, 303, 304, 305, 306, 307, 308, 309, 310, 311, 312, 313, 314, 315, 316, 317, 318, 319, 320, 321, 322, 323, 324, 325, 326, 327, 328, 329, 330, 331, 332, 333, 334, 335, 336, 337, 338, 339, 340, 341, 342, 343, 344, 345, 346, 347, 348, 349, 350, 351, 352, 353, 354, 355, 356, 357, 358, 359, 360, 361, 362, 363, 364, 365, 366, 367, 368, 369, 370, 371, 372, 373, 374, 375, 376, 377, 378, 379, 380, 381, 382, 383, 384, 385, 386, 387, 388, 389, 390, 391, 392, 393, 394, 395, 396, 397, 398, 399, 400, 401, 402, 403, 404, 405, 406, 407, 408, 409, 410, 411, 412, 413, 414, 415, 416, 417, 418, 419, 420, 421, 422, 423, 424, 425, 426, 427, 428, 429, 430, 431, 432, 433, 434, 435, 436, 437, 438, 439, 440, 441, 442, 443, 444, 445, 446, 447, 448, 449, 450, 451, 452, 453, 454, 455, 456, 457, 458, 459, 460, 461, 462, 463, 464, 465, 466, 467, 468, 469, 470, 471, 472, 473, 474, 475, 476, 477, 478, 479, 480, 481, 482, 483, 484, 485, 486, 487, 488, 489, 490, 491, 492, 493, 494, 495, 496, 497, 498, 499, 500, 501, 502, 503, 504, 505, 506, 507, 508, 509, 510, 511, 512, 513, 514, 515, 516, 517, 518, 519, 520, 521, 522, 523, 524, 525, 526, 527, 528, 529, 530, 531, 532, 533, 534, 535, 536, 537, 538, 539, 540, 541, 542, 543, 544, 545, 546, 547, 548, 549, 550, 551, 552, 553, 554, 555, 556, 557, 558, 559, 560, 561, 562, 563, 564, 565, 566, 567, 568, 569, 570, 571, 572, 573, 574, 575, 576, 577, 578, 579, 580, 581, 582, 583, 584, 585, 586, 587, 588, 589, 590, 591, 592, 593, 594, 595, 596, 597, 598, 599, 600, 601, 602, 603, 604, 605, 606, 607, 608, 609, 610, 611, 612, 613, 614, 615, 616, 617, 618, 619, 620, 621, 622, 623, 624, 625, 626, 627, 628, 629, 630, 631, 632, 633, 634, 635, 636, 637, 638, 639, 640, 641, 642, 643, 644, 645, 646, 647, 648, 649, 650, 651, 652, 653, 654, 655, 656, 657, 658, 659, 660, 661, 662, 663, 664, 665, 666, 667, 668, 669, 670, 671, 672, 673, 674, 675, 676, 677, 678, 679, 680, 681, 682, 683, 684, 685, 686, 687, 688, 689, 690, 691, 692, 693, 694, 695, 696, 697, 698, 699, 700, 701, 702, 703, 704, 705, 706, 707, 708, 709, 710, 711, 712, 713, 714, 715, 716, 717, 718, 719, 720, 721, 722, 723, 724, 725, 726, 727, 728, 729, 730, 731, 732, 733, 734, 735, 736, 737, 738, 739, 740, 741, 742, 743, 744, 745, 746, 747, 748, 749, 750, 751, 752, 753, 754, 755, 756, 757, 758, 759, 760, 761, 762, 763, 764, 765, 766, 767, 768, 769, 770, 771, 772, 773, 774, 775, 776, 777, 778, 779, 780, 781, 782, 783, 784, 785, 786, 787, 788, 789, 790, 791, 792, 793, 794, 795, 796, 797, 798, 799, 800, 801, 802, 803, 804, 805, 806, 807, 808, 809, 810, 811, 812, 813, 814, 815, 816, 817, 818, 819, 820, 821, 822, 823, 824, 825, 826, 827, 828, 829, 830, 831, 832, 833, 834, 835, 836, 837, 838, 839, 840, 841, 842, 843, 844, 845, 846, 847, 848, 849, 850, 851, 852, 853, 854, 855, 856, 857, 858, 859, 860, 861, 862, 863, 864, 865, 866, 867, 868, 869, 870, 871, 872, 873, 874, 875, 876, 877, 878, 879, 880, 881, 882, 883, 884, 885, 886, 887, 888, 889, 890, 891, 892, 893, 894, 895, 896, 897, 898, 899, 900, 901, 902, 903, 904, 905, 906, 907, 908, 909, 910, 911, 912, 913, 914, 915, 916, 917, 918, 919, 920, 921, 922, 923, 924, 925, 926, 927, 928, 929, 930, 931, 932, 933, 934, 935, 936, 937, 938, 939, 940, 941, 942, 943, 944, 945, 946, 947, 948, 949, 950, 951, 952, 953, 954, 955, 956, 957, 958, 959, 960, 961, 962, 963, 964, 965, 966, 967, 968, 969, 970, 971, 972, 973, 974, 975, 976, 977, 978, 979, 980, 981, 982, 983, 984, 985, 986, 987, 988, 989, 990, 991, 992, 993, 994, 995, 996, 997, 998, 999, 1000, 1001, 1002, 1003, 1004, 1005, 1006, 1007, 1008, 1009, 1010, 1011, 1012, 1013, 1014, 1015, 1016, 1017, 1018, 1019, 1020, 1021, 1022, 1023, 1024, 1025, 1026, 1027, 1028, 1029, 1030, 1031, 1032, 1033, 1034, 1035, 1036, 1037, 1038, 1039, 1040, 1041, 1042, 1043, 1044, 1045, 1046, 1047, 1048, 1049, 1050, 1051, 1052, 1053, 1054, 1055, 1056, 1057, 1058, 1059, 1060, 1061, 1062, 1063, 1064, 1065],
      "AcquisitionTime": ["134736.202500", "134736.662500", "134737.122500", "134737.582500", "134738.042500", "134738.502500", "134738.962500", "134739.422500", "134739.882500", "134740.342500", "134740.802500", "134741.262500", "134741.722500", "134742.182500", "134742.642500", "134743.102500", "134743.562500", "134744.022500", "134744.482500", "134744.942500", "134745.402500", "134745.862500", "134746.322500", "134746.782500", "134747.242500", "134747.702500", "134748.162500", "134748.622500", "134749.082500", "134749.542500", "134750.002500", "134750.462500", "134750.922500", "134751.382500", "134751.842500", "134752.302500", "134752.762500", "134753.222500", "134753.682500", "134754.142500", "134754.602500", "134755.062500", "134755.522500", "134755.982500", "134756.442500", "134756.902500", "134757.362500", "134757.822500", "134758.282500", "134758.742500", "134759.202500", "134759.662500", "134800.122500", "134800.582500", "134801.042500", "134801.502500", "134801.962500", "134802.422500", "134802.882500", "134803.342500", "134803.802500", "134804.262500", "134804.722500", "134805.182500", "134805.642500", "134806.102500", "134806.562500", "134807.022500", "134807.482500", "134807.942500", "134808.402500", "134808.862500", "134809.322500", "134809.782500", "134810.242500", "134810.702500", "134811.162500", "134811.622500", "134812.082500", "134812.542500", "134813.002500", "134813.462500", "134813.922500", "134814.382500", "134814.842500", "134815.302500", "134815.762500", "134816.222500", "134816.682500", "134817.142500", "134817.602500", "134818.062500", "134818.522500", "134818.982500", "134819.442500", "134819.902500", "134820.362500", "134820.822500", "134821.282500", "134821.742500", "134822.202500", "134822.662500", "134823.122500", "134823.582500", "134824.042500", "134824.502500", "134824.962500", "134825.422500", "134825.882500", "134826.342500", "134826.802500", "134827.262500", "134827.722500", "134828.182500", "134828.642500", "134829.102500", "134829.562500", "134830.022500", "134830.482500", "134830.942500", "134831.402500", "134831.862500", "134832.322500", "134832.782500", "134833.242500", "134833.702500", "134834.162500", "134834.622500", "134835.082500", "134835.542500", "134836.002500", "134836.462500", "134836.922500", "134837.382500", "134837.842500", "134838.302500", "134838.762500", "134839.222500", "134839.682500", "134840.142500", "134840.602500", "134841.062500", "134841.522500", "134841.982500", "134842.442500", "134842.902500", "134843.362500", "134843.822500", "134844.282500", "134844.742500", "134845.202500", "134845.662500", "134846.122500", "134846.582500", "134847.042500", "134847.502500", "134847.962500", "134848.422500", "134848.882500", "134849.342500", "134849.802500", "134850.262500", "134850.722500", "134851.182500", "134851.642500", "134852.102500", "134852.562500", "134853.022500", "134853.482500", "134853.942500", "134854.402500", "134854.862500", "134855.322500", "134855.782500", "134856.242500", "134856.702500", "134857.162500", "134857.622500", "134858.082500", "134858.542500", "134859.002500", "134859.462500", "134859.922500", "134900.382500", "134900.842500", "134901.302500", "134901.762500", "134902.222500", "134902.682500", "134903.142500", "134903.602500", "134904.062500", "134904.522500", "134904.982500", "134905.442500", "134905.902500", "134906.362500", "134906.822500", "134907.282500", "134907.742500", "134908.202500", "134908.662500", "134909.122500", "134909.582500", "134910.042500", "134910.502500", "134910.962500", "134911.422500", "134911.882500", "134912.342500", "134912.802500", "134913.262500", "134913.722500", "134914.182500", "134914.642500", "134915.102500", "134915.562500", "134916.022500", "134916.482500", "134916.942500", "134917.402500", "134917.862500", "134918.322500", "134918.782500", "134919.242500", "134919.702500", "134920.162500", "134920.622500", "134921.082500", "134921.542500", "134922.002500", "134922.462500", "134922.922500", "134923.382500", "134923.842500", "134924.302500", "134924.762500", "134925.222500", "134925.682500", "134926.142500", "134926.602500", "134927.062500", "134927.522500", "134927.982500", "134928.442500", "134928.902500", "134929.362500", "134929.822500", "134930.282500", "134930.742500", "134931.202500", "134931.662500", "134932.122500", "134932.582500", "134933.042500", "134933.502500", "134933.962500", "134934.422500", "134934.882500", "134935.342500", "134935.802500", "134936.262500", "134936.722500", "134937.182500", "134937.642500", "134938.102500", "134938.562500", "134939.022500", "134939.482500", "134939.942500", "134940.402500", "134940.862500", "134941.322500", "134941.782500", "134942.242500", "134942.702500", "134943.162500", "134943.622500", "134944.082500", "134944.542500", "134945.002500", "134945.462500", "134945.922500", "134946.382500", "134946.842500", "134947.302500", "134947.762500", "134948.222500", "134948.682500", "134949.142500", "134949.602500", "134950.062500", "134950.522500", "134950.982500", "134951.442500", "134951.902500", "134952.362500", "134952.822500", "134953.282500", "134953.742500", "134954.202500", "134954.662500", "134955.122500", "134955.582500", "134956.042500", "134956.502500", "134956.962500", "134957.422500", "134957.882500", "134958.342500", "134958.802500", "134959.262500", "134959.722500", "135000.182500", "135000.642500", "135001.102500", "135001.562500", "135002.022500", "135002.482500", "135002.942500", "135003.402500", "135003.862500", "135004.322500", "135004.782500", "135005.242500", "135005.702500", "135006.162500", "135006.622500", "135007.082500", "135007.542500", "135008.002500", "135008.462500", "135008.922500", "135009.382500", "135009.842500", "135010.302500", "135010.762500", "135011.222500", "135011.682500", "135012.142500", "135012.602500", "135013.062500", "135013.522500", "135013.982500", "135014.442500", "135014.902500", "135015.362500", "135015.822500", "135016.282500", "135016.742500", "135017.202500", "135017.662500", "135018.122500", "135018.582500", "135019.042500", "135019.502500", "135019.962500", "135020.422500", "135020.882500", "135021.342500", "135021.802500", "135022.262500", "135022.722500", "135023.182500", "135023.642500", "135024.102500", "135024.562500", "135025.022500", "135025.482500", "135025.942500", "135026.402500", "135026.862500", "135027.322500", "135027.782500", "135028.242500", "135028.702500", "135029.162500", "135029.622500", "135030.082500", "135030.542500", "135031.002500", "135031.462500", "135031.922500", "135032.382500", "135032.842500", "135033.302500", "135033.762500", "135034.222500", "135034.682500", "135035.142500", "135035.602500", "135036.062500", "135036.522500", "135036.982500", "135037.442500", "135037.902500", "135038.362500", "135038.822500", "135039.282500", "135039.742500", "135040.202500", "135040.662500", "135041.122500", "135041.582500", "135042.042500", "135042.502500", "135042.962500", "135043.422500", "135043.882500", "135044.342500", "135044.802500", "135045.262500", "135045.722500", "135046.182500", "135046.642500", "135047.102500", "135047.562500", "135048.022500", "135048.482500", "135048.942500", "135049.402500", "135049.862500", "135050.322500", "135050.782500", "135051.242500", "135051.702500", "135052.162500", "135052.622500", "135053.082500", "135053.542500", "135054.002500", "135054.462500", "135054.922500", "135055.382500", "135055.842500", "135056.302500", "135056.762500", "135057.222500", "135057.682500", "135058.142500", "135058.602500", "135059.062500", "135059.522500", "135059.982500", "135100.442500", "135100.902500", "135101.362500", "135101.822500", "135102.282500", "135102.742500", "135103.202500", "135103.662500", "135104.122500", "135104.582500", "135105.042500", "135105.502500", "135105.962500", "135106.422500", "135106.882500", "135107.342500", "135107.802500", "135108.262500", "135108.722500", "135109.182500", "135109.642500", "135110.102500", "135110.562500", "135111.022500", "135111.482500", "135111.942500", "135112.402500", "135112.862500", "135113.322500", "135113.782500", "135114.242500", "135114.702500", "135115.162500", "135115.622500", "135116.082500", "135116.542500", "135117.002500", "135117.462500", "135117.922500", "135118.382500", "135118.842500", "135119.302500", "135119.762500", "135120.222500", "135120.682500", "135121.142500", "135121.602500", "135122.062500", "135122.522500", "135122.982500", "135123.442500", "135123.902500", "135124.362500", "135124.822500", "135125.282500", "135125.742500", "135126.202500", "135126.662500", "135127.122500", "135127.582500", "135128.042500", "135128.502500", "135128.962500", "135129.422500", "135129.882500", "135130.342500", "135130.802500", "135131.262500", "135131.722500", "135132.182500", "135132.642500", "135133.102500", "135133.562500", "135134.022500", "135134.482500", "135134.942500", "135135.402500", "135135.862500", "135136.322500", "135136.782500", "135137.242500", "135137.702500", "135138.162500", "135138.622500", "135139.082500", "135139.542500", "135140.002500", "135140.462500", "135140.922500", "135141.382500", "135141.842500", "135142.302500", "135142.762500", "135143.222500", "135143.682500", "135144.142500", "135144.602500", "135145.062500", "135145.522500", "135145.982500", "135146.442500", "135146.902500", "135147.362500", "135147.822500", "135148.282500", "135148.742500", "135149.202500", "135149.662500", "135150.122500", "135150.582500", "135151.042500", "135151.502500", "135151.962500", "135152.422500", "135152.882500", "135153.342500", "135153.802500", "135154.262500", "135154.722500", "135155.182500", "135155.642500", "135156.102500", "135156.562500", "135157.022500", "135157.482500", "135157.942500", "135158.402500", "135158.862500", "135159.322500", "135159.782500", "135200.242500", "135200.702500", "135201.162500", "135201.622500", "135202.082500", "135202.542500", "135203.002500", "135203.462500", "135203.922500", "135204.382500", "135204.842500", "135205.302500", "135205.762500", "135206.222500", "135206.682500", "135207.142500", "135207.602500", "135208.062500", "135208.522500", "135208.982500", "135209.442500", "135209.902500", "135210.362500", "135210.822500", "135211.282500", "135211.742500", "135212.202500", "135212.662500", "135213.122500", "135213.582500", "135214.042500", "135214.502500", "135214.962500", "135215.422500", "135215.882500", "135216.342500", "135216.802500", "135217.262500", "135217.722500", "135218.182500", "135218.642500", "135219.102500", "135219.562500", "135220.022500", "135220.482500", "135220.942500", "135221.402500", "135221.862500", "135222.322500", "135222.782500", "135223.242500", "135223.702500", "135224.162500", "135224.622500", "135225.082500", "135225.542500", "135226.002500", "135226.462500", "135226.922500", "135227.382500", "135227.842500", "135228.302500", "135228.762500", "135229.222500", "135229.682500", "135230.142500", "135230.602500", "135231.062500", "135231.522500", "135231.982500", "135232.442500", "135232.902500", "135233.362500", "135233.822500", "135234.282500", "135234.742500", "135235.202500", "135235.662500", "135236.122500", "135236.582500", "135237.042500", "135237.502500", "135237.962500", "135238.422500", "135238.882500", "135239.342500", "135239.802500", "135240.262500", "135240.722500", "135241.182500", "135241.642500", "135242.102500", "135242.562500", "135243.022500", "135243.482500", "135243.942500", "135244.402500", "135244.862500", "135245.322500", "135245.782500", "135246.242500", "135246.702500", "135247.162500", "135247.622500", "135248.082500", "135248.542500", "135249.002500", "135249.462500", "135249.922500", "135250.382500", "135250.842500", "135251.302500", "135251.762500", "135252.222500", "135252.682500", "135253.142500", "135253.602500", "135254.062500", "135254.522500", "135254.982500", "135255.442500", "135255.902500", "135256.362500", "135256.822500", "135257.282500", "135257.742500", "135258.202500", "135258.662500", "135259.122500", "135259.582500", "135300.042500", "135300.502500", "135300.962500", "135301.422500", "135301.882500", "135302.342500", "135302.802500", "135303.262500", "135303.722500", "135304.182500", "135304.642500", "135305.102500", "135305.562500", "135306.022500", "135306.482500", "135306.942500", "135307.402500", "135307.862500", "135308.322500", "135308.782500", "135309.242500", "135309.702500", "135310.162500", "135310.622500", "135311.082500", "135311.542500", "135312.002500", "135312.462500", "135312.922500", "135313.382500", "135313.842500", "135314.302500", "135314.762500", "135315.222500", "135315.682500", "135316.142500", "135316.602500", "135317.062500", "135317.522500", "135317.982500", "135318.442500", "135318.902500", "135319.362500", "135319.822500", "135320.282500", "135320.742500", "135321.202500", "135321.662500", "135322.122500", "135322.582500", "135323.042500", "135323.502500", "135323.962500", "135324.422500", "135324.882500", "135325.342500", "135325.802500", "135326.262500", "135326.722500", "135327.182500", "135327.642500", "135328.102500", "135328.562500", "135329.022500", "135329.482500", "135329.942500", "135330.402500", "135330.862500", "135331.322500", "135331.782500", "135332.242500", "135332.702500", "135333.162500", "135333.622500", "135334.082500", "135334.542500", "135335.002500", "135335.462500", "135335.922500", "135336.382500", "135336.842500", "135337.302500", "135337.762500", "135338.222500", "135338.682500", "135339.142500", "135339.602500", "135340.062500", "135340.522500", "135340.982500", "135341.442500", "135341.902500", "135342.362500", "135342.822500", "135343.282500", "135343.742500", "135344.202500", "135344.662500", "135345.122500", "135345.582500", "135346.042500", "135346.502500", "135346.962500", "135347.422500", "135347.882500", "135348.342500", "135348.802500", "135349.262500", "135349.722500", "135350.182500", "135350.642500", "135351.102500", "135351.562500", "135352.022500", "135352.482500", "135352.942500", "135353.402500", "135353.862500", "135354.322500", "135354.782500", "135355.242500", "135355.702500", "135356.162500", "135356.622500", "135357.082500", "135357.542500", "135358.002500", "135358.462500", "135358.922500", "135359.382500", "135359.842500", "135400.302500", "135400.762500", "135401.222500", "135401.682500", "135402.142500", "135402.602500", "135403.062500", "135403.522500", "135403.982500", "135404.442500", "135404.902500", "135405.362500", "135405.822500", "135406.282500", "135406.742500", "135407.202500", "135407.662500", "135408.122500", "135408.582500", "135409.042500", "135409.502500", "135409.962500", "135410.422500", "135410.882500", "135411.342500", "135411.802500", "135412.262500", "135412.722500", "135413.182500", "135413.642500", "135414.102500", "135414.562500", "135415.022500", "135415.482500", "135415.942500", "135416.402500", "135416.862500", "135417.322500", "135417.782500", "135418.242500", "135418.702500", "135419.162500", "135419.622500", "135420.082500", "135420.542500", "135421.002500", "135421.462500", "135421.922500", "135422.382500", "135422.842500", "135423.302500", "135423.762500", "135424.222500", "135424.682500", "135425.142500", "135425.602500", "135426.062500", "135426.522500", "135426.982500", "135427.442500", "135427.902500", "135428.362500", "135428.822500", "135429.282500", "135429.742500", "135430.202500", "135430.662500", "135431.122500", "135431.582500", "135432.042500", "135432.502500", "135432.962500", "135433.422500", "135433.882500", "135434.342500", "135434.802500", "135435.262500", "135435.722500", "135436.182500", "135436.642500", "135437.102500", "135437.562500", "135438.022500", "135438.482500", "135438.942500", "135439.402500", "135439.862500", "135440.322500", "135440.782500", "135441.242500", "135441.702500", "135442.162500", "135442.622500", "135443.082500", "135443.542500", "135444.002500", "135444.462500", "135444.922500", "135445.382500", "135445.842500", "135446.302500", "135446.762500", "135447.222500", "135447.682500", "135448.142500", "135448.602500", "135449.062500", "135449.522500", "135449.982500", "135450.442500", "135450.902500", "135451.362500", "135451.822500", "135452.282500", "135452.742500", "135453.202500", "135453.662500", "135454.122500", "135454.582500", "135455.042500", "135455.502500", "135455.962500", "135456.422500", "135456.882500", "135457.342500", "135457.802500", "135458.262500", "135458.722500", "135459.182500", "135459.642500", "135500.102500", "135500.562500", "135501.022500", "135501.482500", "135501.942500", "135502.402500", "135502.862500", "135503.322500", "135503.782500", "135504.242500", "135504.702500", "135505.162500", "135505.622500", "135506.082500", "135506.542500", "135507.002500", "135507.462500", "135507.922500", "135508.382500", "135508.842500", "135509.302500", "135509.762500", "135510.222500", "135510.682500", "135511.142500", "135511.602500", "135512.062500", "135512.522500", "135512.982500", "135513.442500", "135513.902500", "135514.362500", "135514.822500", "135515.282500", "135515.742500", "135516.202500", "135516.662500", "135517.122500", "135517.582500", "135518.042500", "135518.502500", "135518.962500", "135519.422500", "135519.882500", "135520.342500", "135520.802500", "135521.262500", "135521.722500", "135522.182500", "135522.642500", "135523.102500", "135523.562500", "135524.022500", "135524.482500", "135524.942500", "135525.402500", "135525.862500", "135526.322500", "135526.782500", "135527.242500", "135527.702500", "135528.162500", "135528.622500", "135529.082500", "135529.542500", "135530.002500", "135530.462500", "135530.922500", "135531.382500", "135531.842500", "135532.302500", "135532.762500", "135533.222500", "135533.682500", "135534.142500", "135534.602500", "135535.062500", "135535.522500", "135535.982500", "135536.442500", "135536.902500", "135537.362500", "135537.822500", "135538.282500", "135538.742500", "135539.202500", "135539.662500", "135540.122500", "135540.582500", "135541.042500", "135541.502500", "135541.962500", "135542.422500", "135542.882500", "135543.342500", "135543.802500", "135544.262500", "135544.722500", "135545.182500", "135545.642500"],
