{
  "AcquisitionMatrixPE": 82,
  "AcquisitionNumber": 1,
  "AcquisitionTime": "12:32:34.607500",
  "BandwidthPerPixelPhaseEncode": 24.888,
  "BaseResolution": 82,
  "BodyPartExamined": "BRAIN",
  "ConsistencyInfo": "N4_VE11C_LATEST_20160120",
  "ConversionSoftware": "dcm2niix",
  "ConversionSoftwareVersion": "v1.0.20201102",
  "DerivedVendorReportedEchoSpacing": 0.00049,
  "DeviceSerialNumber": "66112",
  "DwellTime": 2e-06,
  "EchoTime": 0.0272,
  "EchoTrainLength": 82,
  "EffectiveEchoSpacing": 0.00049,
  "FlipAngle": 44,
  "ImageComments": "Unaliased MB8/PE3",
  "ImageOrientationPatientDICOM": [0.999852, 0.00550332, 0.0163178, -0.00785301, 0.989011, 0.147631],
  "ImageType": [
    "ORIGINAL",
    "PRIMARY",
    "M",
    "MB",
    "ND",
    "NORM",
    "MOSAIC"
],
  "ImagingFrequency": 123.252,
  "InPlanePhaseEncodingDirectionDICOM": "COL",
  "InstitutionAddress": "Maynard 3,Hanover,NH,US,03755",
  "InstitutionName": "Dartmouth College - PBS",
  "InstitutionalDepartmentName": "Department",
  "MRAcquisitionType": "2D",
  "MagneticFieldStrength": 3,
  "Manufacturer": "Siemens",
  "ManufacturersModelName": "Prisma",
  "Modality": "MR",
  "MultibandAccelerationFactor": 8,
  "PartialFourier": 1,
  "PatientPosition": "HFS",
  "PercentPhaseFOV": 100,
  "PercentSampling": 100,
  "PhaseEncodingDirection": "j-",
  "PhaseEncodingSteps": 82,
  "PhaseResolution": 1,
  "PixelBandwidth": 3050,
  "ProcedureStepDescription": "Wager_Wager^1076_spacetop",
  "ProtocolName": "func_run-02_task-social_acq-ap-mb8",
  "PulseSequenceDetails": "%CustomerSeq%\\cmrr_mbep2d_bold",
  "ReceiveCoilActiveElements": "HEA;HEP",
  "ReceiveCoilName": "Head_32",
  "ReconMatrixPE": 82,
  "RepetitionTime": 0.46,
  "SAR": 0.117658,
  "ScanOptions": "FS",
  "ScanningSequence": "EP",
  "SequenceName": "epfid2d1_82",
  "SequenceVariant": "SK\\SS",
  "SeriesDescription": "func_run-02_task-social_acq-ap-mb8",
  "SeriesNumber": 10,
  "ShimSetting": [4141, -7798, -7165, 479, -91, -193, 84, 56],
  "SliceThickness": 2.7,
  "SliceTiming": [0, 0.2525, 0.0625, 0.315, 0.1275, 0.3775, 0.19, 0, 0.2525, 0.0625, 0.315, 0.1275, 0.3775, 0.19, 0, 0.2525, 0.0625, 0.315, 0.1275, 0.3775, 0.19, 0, 0.2525, 0.0625, 0.315, 0.1275, 0.3775, 0.19, 0, 0.2525, 0.0625, 0.315, 0.1275, 0.3775, 0.19, 0, 0.2525, 0.0625, 0.315, 0.1275, 0.3775, 0.19, 0, 0.2525, 0.0625, 0.315, 0.1275, 0.3775, 0.19, 0, 0.2525, 0.0625, 0.315, 0.1275, 0.3775, 0.19],
  "SoftwareVersions": "syngo MR E11",
  "SpacingBetweenSlices": 2.7,
  "StationName": "AWP66112",
  "TaskName": "social",
  "TotalReadoutTime": 0.03969,
  "TxRefAmp": 279.13,
  "WipMemBlock": "96b8e58e-a3d6-43b7-b744-63c35b36b304||Sequence: R016 ve11c/master r/e634e98; Dec 19 2017 11:00:25 by eja",
  "dcmmeta_affine": [
    [-2.6825289726257324, -0.021069053560495377, 0.04138023406267166, 111.2491455078125],
    [-0.014764993451535702, 2.653445243835449, 0.39888960123062134, -96.43854522705078],
    [0.0437794104218483, -0.39608219265937805, 2.6700515747070312, -7.356716156005859],
    [0.0, 0.0, 0.0, 1.0]
],
  "dcmmeta_reorient_transform": [
    [0.0, -1.0, 0.0, 81.0],
    [1.0, 0.0, 0.0, 0.0],
    [0.0, 0.0, 1.0, 0.0],
    [0.0, 0.0, 0.0, 1.0]
],
  "dcmmeta_shape": [82, 82, 56, 872],
  "dcmmeta_slice_dim": 2,
  "dcmmeta_version": 0.6,
  "global": {
    "const": {
      "AccessionNumber": "A003586",
      "AcquisitionMatrix": [82, 0, 0, 82],
      "AngioFlag": "N",
      "BitsAllocated": 16,
      "BitsStored": 16,
      "BodyPartExamined": "BRAIN",
      "Columns": 656,
      "EchoNumbers": 1,
      "EchoTime": 27.2,
      "EchoTrainLength": 82,
      "FlipAngle": 44.0,
      "HighBit": 15,
      "ImageOrientationPatient": [0.99985171078297, 0.00550331562412, 0.0163177805326, -0.0078530106306, 0.9890113882439, 0.14763063417841],
      "ImagePositionPatient": [-873.38157189838, -884.26686190382, -165.67965675583],
      "ImageType": [
        "ORIGINAL",
        "PRIMARY",
        "M",
        "MB",
        "ND",
        "NORM",
        "MOSAIC"
],
      "ImagedNucleus": "1H",
      "ImagingFrequency": 123.252056,
      "InPlanePhaseEncodingDirection": "COL",
      "MRAcquisitionType": "2D",
      "MagneticFieldStrength": 3.0,
      "Manufacturer": "SIEMENS",
      "ManufacturerModelName": "Prisma",
      "Modality": "MR",
      "NumberOfAverages": 1.0,
      "NumberOfPhaseEncodingSteps": 82,
      "PercentPhaseFieldOfView": 100.0,
      "PercentSampling": 100.0,
      "PerformedProcedureStepStartTime": "120712.889000",
      "PhotometricInterpretation": "MONOCHROME2",
      "PixelBandwidth": 3050.0,
      "PixelRepresentation": 0,
      "PixelSpacing": [2.6829268932343, 2.6829268932343],
      "ProtocolName": "func_run-02_task-social_acq-ap-mb8",
      "RepetitionTime": 460.0,
      "Rows": 656,
      "SAR": 0.11765760202313,
      "SamplesPerPixel": 1,
      "ScanOptions": "FS",
      "ScanningSequence": "EP",
      "SequenceName": "epfid2d1_82",
      "SequenceVariant": [
        "SK",
        "SS"
],
      "SeriesDescription": "func_run-02_task-social_acq-ap-mb8",
      "SeriesNumber": 10,
      "SeriesTime": "123255.622000",
      "SliceLocation": -19.817639484528,
      "SliceThickness": 2.7000000476837,
      "SmallestImagePixelValue": 0,
      "SoftwareVersions": "syngo MR E11",
      "SpacingBetweenSlices": 2.7000000506978,
      "SpecificCharacterSet": "ISO_IR 100",
      "StudyID": "1",
      "StudyTime": "120712.794000",
      "TransmitCoilName": "Body",
      "VariableFlipAngleFlag": "N",
      "WindowCenterWidthExplanation": "Algo1",
      "dBdt": 0.0},
    "slices": {}
  },
  "time": {
    "samples": {
      "AcquisitionNumber": [1, 2, 3, 4, 5, 6, 7, 8, 9, 10, 11, 12, 13, 14, 15, 16, 17, 18, 19, 20, 21, 22, 23, 24, 25, 26, 27, 28, 29, 30, 31, 32, 33, 34, 35, 36, 37, 38, 39, 40, 41, 42, 43, 44, 45, 46, 47, 48, 49, 50, 51, 52, 53, 54, 55, 56, 57, 58, 59, 60, 61, 62, 63, 64, 65, 66, 67, 68, 69, 70, 71, 72, 73, 74, 75, 76, 77, 78, 79, 80, 81, 82, 83, 84, 85, 86, 87, 88, 89, 90, 91, 92, 93, 94, 95, 96, 97, 98, 99, 100, 101, 102, 103, 104, 105, 106, 107, 108, 109, 110, 111, 112, 113, 114, 115, 116, 117, 118, 119, 120, 121, 122, 123, 124, 125, 126, 127, 128, 129, 130, 131, 132, 133, 134, 135, 136, 137, 138, 139, 140, 141, 142, 143, 144, 145, 146, 147, 148, 149, 150, 151, 152, 153, 154, 155, 156, 157, 158, 159, 160, 161, 162, 163, 164, 165, 166, 167, 168, 169, 170, 171, 172, 173, 174, 175, 176, 177, 178, 179, 180, 181, 182, 183, 184, 185, 186, 187, 188, 189, 190, 191, 192, 193, 194, 195, 196, 197, 198, 199, 200, 201, 202, 203, 204, 205, 206, 207, 208, 209, 210, 211, 212, 213, 214, 215, 216, 217, 218, 219, 220, 221, 222, 223, 224, 225, 226, 227, 228, 229, 230, 231, 232, 233, 234, 235, 236, 237, 238, 239, 240, 241, 242, 243, 244, 245, 246, 247, 248, 249, 250, 251, 252, 253, 254, 255, 256, 257, 258, 259, 260, 261, 262, 263, 264, 265, 266, 267, 268, 269, 270, 271, 272, 273, 274, 275, 276, 277, 278, 279, 280, 281, 282, 283, 284, 285, 286, 287, 288, 289, 290, 291, 292, 293, 294, 295, 296, 297, 298, 299, 300, 301, 302, 303, 304, 305, 306, 307, 308, 309, 310, 311, 312, 313, 314, 315, 316, 317, 318, 319, 320, 321, 322, 323, 324, 325, 326, 327, 328, 329, 330, 331, 332, 333, 334, 335, 336, 337, 338, 339, 340, 341, 342, 343, 344, 345, 346, 347, 348, 349, 350, 351, 352, 353, 354, 355, 356, 357, 358, 359, 360, 361, 362, 363, 364, 365, 366, 367, 368, 369, 370, 371, 372, 373, 374, 375, 376, 377, 378, 379, 380, 381, 382, 383, 384, 385, 386, 387, 388, 389, 390, 391, 392, 393, 394, 395, 396, 397, 398, 399, 400, 401, 402, 403, 404, 405, 406, 407, 408, 409, 410, 411, 412, 413, 414, 415, 416, 417, 418, 419, 420, 421, 422, 423, 424, 425, 426, 427, 428, 429, 430, 431, 432, 433, 434, 435, 436, 437, 438, 439, 440, 441, 442, 443, 444, 445, 446, 447, 448, 449, 450, 451, 452, 453, 454, 455, 456, 457, 458, 459, 460, 461, 462, 463, 464, 465, 466, 467, 468, 469, 470, 471, 472, 473, 474, 475, 476, 477, 478, 479, 480, 481, 482, 483, 484, 485, 486, 487, 488, 489, 490, 491, 492, 493, 494, 495, 496, 497, 498, 499, 500, 501, 502, 503, 504, 505, 506, 507, 508, 509, 510, 511, 512, 513, 514, 515, 516, 517, 518, 519, 520, 521, 522, 523, 524, 525, 526, 527, 528, 529, 530, 531, 532, 533, 534, 535, 536, 537, 538, 539, 540, 541, 542, 543, 544, 545, 546, 547, 548, 549, 550, 551, 552, 553, 554, 555, 556, 557, 558, 559, 560, 561, 562, 563, 564, 565, 566, 567, 568, 569, 570, 571, 572, 573, 574, 575, 576, 577, 578, 579, 580, 581, 582, 583, 584, 585, 586, 587, 588, 589, 590, 591, 592, 593, 594, 595, 596, 597, 598, 599, 600, 601, 602, 603, 604, 605, 606, 607, 608, 609, 610, 611, 612, 613, 614, 615, 616, 617, 618, 619, 620, 621, 622, 623, 624, 625, 626, 627, 628, 629, 630, 631, 632, 633, 634, 635, 636, 637, 638, 639, 640, 641, 642, 643, 644, 645, 646, 647, 648, 649, 650, 651, 652, 653, 654, 655, 656, 657, 658, 659, 660, 661, 662, 663, 664, 665, 666, 667, 668, 669, 670, 671, 672, 673, 674, 675, 676, 677, 678, 679, 680, 681, 682, 683, 684, 685, 686, 687, 688, 689, 690, 691, 692, 693, 694, 695, 696, 697, 698, 699, 700, 701, 702, 703, 704, 705, 706, 707, 708, 709, 710, 711, 712, 713, 714, 715, 716, 717, 718, 719, 720, 721, 722, 723, 724, 725, 726, 727, 728, 729, 730, 731, 732, 733, 734, 735, 736, 737, 738, 739, 740, 741, 742, 743, 744, 745, 746, 747, 748, 749, 750, 751, 752, 753, 754, 755, 756, 757, 758, 759, 760, 761, 762, 763, 764, 765, 766, 767, 768, 769, 770, 771, 772, 773, 774, 775, 776, 777, 778, 779, 780, 781, 782, 783, 784, 785, 786, 787, 788, 789, 790, 791, 792, 793, 794, 795, 796, 797, 798, 799, 800, 801, 802, 803, 804, 805, 806, 807, 808, 809, 810, 811, 812, 813, 814, 815, 816, 817, 818, 819, 820, 821, 822, 823, 824, 825, 826, 827, 828, 829, 830, 831, 832, 833, 834, 835, 836, 837, 838, 839, 840, 841, 842, 843, 844, 845, 846, 847, 848, 849, 850, 851, 852, 853, 854, 855, 856, 857, 858, 859, 860, 861, 862, 863, 864, 865, 866, 867, 868, 869, 870, 871, 872],
      "AcquisitionTime": ["123234.607500", "123235.067500", "123235.527500", "123235.987500", "123236.447500", "123236.907500", "123237.367500", "123237.827500", "123238.287500", "123238.747500", "123239.207500", "123239.667500", "123240.127500", "123240.587500", "123241.047500", "123241.507500", "123241.967500", "123242.427500", "123242.887500", "123243.347500", "123243.807500", "123244.267500", "123244.727500", "123245.187500", "123245.647500", "123246.107500", "123246.567500", "123247.027500", "123247.487500", "123247.947500", "123248.407500", "123248.867500", "123249.327500", "123249.787500", "123250.247500", "123250.707500", "123251.167500", "123251.627500", "123252.087500", "123252.547500", "123253.007500", "123253.467500", "123253.927500", "123254.387500", "123254.847500", "123255.307500", "123255.767500", "123256.227500", "123256.687500", "123257.147500", "123257.607500", "123258.067500", "123258.527500", "123258.987500", "123259.447500", "123259.907500", "123300.367500", "123300.827500", "123301.287500", "123301.747500", "123302.207500", "123302.667500", "123303.127500", "123303.587500", "123304.047500", "123304.507500", "123304.967500", "123305.427500", "123305.887500", "123306.347500", "123306.807500", "123307.267500", "123307.727500", "123308.187500", "123308.647500", "123309.107500", "123309.567500", "123310.027500", "123310.487500", "123310.947500", "123311.407500", "123311.867500", "123312.327500", "123312.787500", "123313.247500", "123313.707500", "123314.167500", "123314.627500", "123315.087500", "123315.547500", "123316.007500", "123316.467500", "123316.927500", "123317.387500", "123317.847500", "123318.307500", "123318.767500", "123319.227500", "123319.687500", "123320.147500", "123320.607500", "123321.067500", "123321.527500", "123321.987500", "123322.447500", "123322.907500", "123323.367500", "123323.827500", "123324.287500", "123324.747500", "123325.207500", "123325.667500", "123326.127500", "123326.587500", "123327.047500", "123327.507500", "123327.967500", "123328.427500", "123328.887500", "123329.347500", "123329.807500", "123330.267500", "123330.727500", "123331.187500", "123331.647500", "123332.107500", "123332.567500", "123333.027500", "123333.487500", "123333.947500", "123334.407500", "123334.867500", "123335.327500", "123335.787500", "123336.247500", "123336.707500", "123337.167500", "123337.627500", "123338.087500", "123338.547500", "123339.007500", "123339.467500", "123339.927500", "123340.387500", "123340.847500", "123341.307500", "123341.767500", "123342.227500", "123342.687500", "123343.147500", "123343.607500", "123344.067500", "123344.527500", "123344.987500", "123345.447500", "123345.907500", "123346.367500", "123346.827500", "123347.287500", "123347.747500", "123348.207500", "123348.667500", "123349.127500", "123349.587500", "123350.047500", "123350.507500", "123350.967500", "123351.427500", "123351.887500", "123352.347500", "123352.807500", "123353.267500", "123353.727500", "123354.187500", "123354.647500", "123355.107500", "123355.567500", "123356.027500", "123356.487500", "123356.947500", "123357.407500", "123357.867500", "123358.327500", "123358.787500", "123359.247500", "123359.707500", "123400.167500", "123400.627500", "123401.087500", "123401.547500", "123402.007500", "123402.467500", "123402.927500", "123403.387500", "123403.847500", "123404.307500", "123404.767500", "123405.227500", "123405.687500", "123406.147500", "123406.607500", "123407.067500", "123407.527500", "123407.987500", "123408.447500", "123408.907500", "123409.367500", "123409.827500", "123410.287500", "123410.747500", "123411.207500", "123411.667500", "123412.127500", "123412.587500", "123413.047500", "123413.507500", "123413.967500", "123414.427500", "123414.887500", "123415.347500", "123415.807500", "123416.267500", "123416.727500", "123417.187500", "123417.647500", "123418.107500", "123418.567500", "123419.027500", "123419.487500", "123419.947500", "123420.407500", "123420.867500", "123421.327500", "123421.787500", "123422.247500", "123422.707500", "123423.167500", "123423.627500", "123424.087500", "123424.547500", "123425.007500", "123425.467500", "123425.927500", "123426.387500", "123426.847500", "123427.307500", "123427.767500", "123428.227500", "123428.687500", "123429.147500", "123429.607500", "123430.067500", "123430.527500", "123430.987500", "123431.447500", "123431.907500", "123432.367500", "123432.827500", "123433.287500", "123433.747500", "123434.207500", "123434.667500", "123435.127500", "123435.587500", "123436.047500", "123436.507500", "123436.967500", "123437.427500", "123437.887500", "123438.347500", "123438.807500", "123439.267500", "123439.727500", "123440.187500", "123440.647500", "123441.107500", "123441.567500", "123442.027500", "123442.487500", "123442.947500", "123443.407500", "123443.867500", "123444.327500", "123444.787500", "123445.247500", "123445.707500", "123446.167500", "123446.627500", "123447.087500", "123447.547500", "123448.007500", "123448.467500", "123448.927500", "123449.387500", "123449.847500", "123450.307500", "123450.767500", "123451.227500", "123451.687500", "123452.147500", "123452.607500", "123453.067500", "123453.527500", "123453.987500", "123454.447500", "123454.907500", "123455.367500", "123455.827500", "123456.287500", "123456.747500", "123457.207500", "123457.667500", "123458.127500", "123458.587500", "123459.047500", "123459.507500", "123459.967500", "123500.427500", "123500.887500", "123501.347500", "123501.807500", "123502.267500", "123502.727500", "123503.187500", "123503.647500", "123504.107500", "123504.567500", "123505.027500", "123505.487500", "123505.947500", "123506.407500", "123506.867500", "123507.327500", "123507.787500", "123508.247500", "123508.707500", "123509.167500", "123509.627500", "123510.087500", "123510.547500", "123511.007500", "123511.467500", "123511.927500", "123512.387500", "123512.847500", "123513.307500", "123513.767500", "123514.227500", "123514.687500", "123515.147500", "123515.607500", "123516.067500", "123516.527500", "123516.987500", "123517.447500", "123517.907500", "123518.367500", "123518.827500", "123519.287500", "123519.747500", "123520.207500", "123520.667500", "123521.127500", "123521.587500", "123522.047500", "123522.507500", "123522.967500", "123523.427500", "123523.887500", "123524.347500", "123524.807500", "123525.267500", "123525.727500", "123526.187500", "123526.647500", "123527.107500", "123527.567500", "123528.027500", "123528.487500", "123528.947500", "123529.407500", "123529.867500", "123530.327500", "123530.787500", "123531.247500", "123531.707500", "123532.167500", "123532.627500", "123533.087500", "123533.547500", "123534.007500", "123534.467500", "123534.927500", "123535.387500", "123535.847500", "123536.307500", "123536.767500", "123537.227500", "123537.687500", "123538.147500", "123538.607500", "123539.067500", "123539.527500", "123539.987500", "123540.447500", "123540.907500", "123541.367500", "123541.827500", "123542.287500", "123542.747500", "123543.207500", "123543.667500", "123544.127500", "123544.587500", "123545.047500", "123545.507500", "123545.967500", "123546.427500", "123546.887500", "123547.347500", "123547.807500", "123548.267500", "123548.727500", "123549.187500", "123549.647500", "123550.107500", "123550.567500", "123551.027500", "123551.487500", "123551.947500", "123552.407500", "123552.867500", "123553.327500", "123553.787500", "123554.247500", "123554.707500", "123555.167500", "123555.627500", "123556.087500", "123556.547500", "123557.007500", "123557.467500", "123557.927500", "123558.387500", "123558.847500", "123559.307500", "123559.767500", "123600.227500", "123600.687500", "123601.147500", "123601.607500", "123602.067500", "123602.527500", "123602.987500", "123603.447500", "123603.907500", "123604.367500", "123604.827500", "123605.287500", "123605.747500", "123606.207500", "123606.667500", "123607.127500", "123607.587500", "123608.047500", "123608.507500", "123608.967500", "123609.427500", "123609.887500", "123610.347500", "123610.807500", "123611.267500", "123611.727500", "123612.187500", "123612.647500", "123613.107500", "123613.567500", "123614.027500", "123614.487500", "123614.947500", "123615.407500", "123615.867500", "123616.327500", "123616.787500", "123617.247500", "123617.707500", "123618.167500", "123618.627500", "123619.087500", "123619.547500", "123620.007500", "123620.467500", "123620.927500", "123621.387500", "123621.847500", "123622.307500", "123622.767500", "123623.227500", "123623.687500", "123624.147500", "123624.607500", "123625.067500", "123625.527500", "123625.987500", "123626.447500", "123626.907500", "123627.367500", "123627.827500", "123628.287500", "123628.747500", "123629.207500", "123629.667500", "123630.127500", "123630.587500", "123631.047500", "123631.507500", "123631.967500", "123632.427500", "123632.887500", "123633.347500", "123633.807500", "123634.267500", "123634.727500", "123635.187500", "123635.647500", "123636.107500", "123636.567500", "123637.027500", "123637.487500", "123637.947500", "123638.407500", "123638.867500", "123639.327500", "123639.787500", "123640.247500", "123640.707500", "123641.167500", "123641.627500", "123642.087500", "123642.547500", "123643.007500", "123643.467500", "123643.927500", "123644.387500", "123644.847500", "123645.307500", "123645.767500", "123646.227500", "123646.687500", "123647.147500", "123647.607500", "123648.067500", "123648.527500", "123648.987500", "123649.447500", "123649.907500", "123650.367500", "123650.827500", "123651.287500", "123651.747500", "123652.207500", "123652.667500", "123653.127500", "123653.587500", "123654.047500", "123654.507500", "123654.967500", "123655.427500", "123655.887500", "123656.347500", "123656.807500", "123657.267500", "123657.727500", "123658.187500", "123658.647500", "123659.107500", "123659.567500", "123700.027500", "123700.487500", "123700.947500", "123701.407500", "123701.867500", "123702.327500", "123702.787500", "123703.247500", "123703.707500", "123704.167500", "123704.627500", "123705.087500", "123705.547500", "123706.007500", "123706.467500", "123706.927500", "123707.387500", "123707.847500", "123708.307500", "123708.767500", "123709.227500", "123709.687500", "123710.147500", "123710.607500", "123711.067500", "123711.527500", "123711.987500", "123712.447500", "123712.907500", "123713.367500", "123713.827500", "123714.287500", "123714.747500", "123715.207500", "123715.667500", "123716.127500", "123716.587500", "123717.047500", "123717.507500", "123717.967500", "123718.427500", "123718.887500", "123719.347500", "123719.807500", "123720.267500", "123720.727500", "123721.187500", "123721.647500", "123722.107500", "123722.567500", "123723.027500", "123723.487500", "123723.947500", "123724.407500", "123724.867500", "123725.327500", "123725.787500", "123726.247500", "123726.707500", "123727.167500", "123727.627500", "123728.087500", "123728.547500", "123729.007500", "123729.467500", "123729.927500", "123730.387500", "123730.847500", "123731.307500", "123731.767500", "123732.227500", "123732.687500", "123733.147500", "123733.607500", "123734.067500", "123734.527500", "123734.987500", "123735.447500", "123735.907500", "123736.367500", "123736.827500", "123737.287500", "123737.747500", "123738.207500", "123738.667500", "123739.127500", "123739.587500", "123740.047500", "123740.507500", "123740.967500", "123741.427500", "123741.887500", "123742.347500", "123742.807500", "123743.267500", "123743.727500", "123744.187500", "123744.647500", "123745.107500", "123745.567500", "123746.027500", "123746.487500", "123746.947500", "123747.407500", "123747.867500", "123748.327500", "123748.787500", "123749.247500", "123749.707500", "123750.167500", "123750.627500", "123751.087500", "123751.547500", "123752.007500", "123752.467500", "123752.927500", "123753.387500", "123753.847500", "123754.307500", "123754.767500", "123755.227500", "123755.687500", "123756.147500", "123756.607500", "123757.067500", "123757.527500", "123757.987500", "123758.447500", "123758.907500", "123759.367500", "123759.827500", "123800.287500", "123800.747500", "123801.207500", "123801.667500", "123802.127500", "123802.587500", "123803.047500", "123803.507500", "123803.967500", "123804.427500", "123804.887500", "123805.347500", "123805.807500", "123806.267500", "123806.727500", "123807.187500", "123807.647500", "123808.107500", "123808.567500", "123809.027500", "123809.487500", "123809.947500", "123810.407500", "123810.867500", "123811.327500", "123811.787500", "123812.247500", "123812.707500", "123813.167500", "123813.627500", "123814.087500", "123814.547500", "123815.007500", "123815.467500", "123815.927500", "123816.387500", "123816.847500", "123817.307500", "123817.767500", "123818.227500", "123818.687500", "123819.147500", "123819.607500", "123820.067500", "123820.527500", "123820.987500", "123821.447500", "123821.907500", "123822.367500", "123822.827500", "123823.287500", "123823.747500", "123824.207500", "123824.667500", "123825.127500", "123825.587500", "123826.047500", "123826.507500", "123826.967500", "123827.427500", "123827.887500", "123828.347500", "123828.807500", "123829.267500", "123829.727500", "123830.187500", "123830.647500", "123831.107500", "123831.567500", "123832.027500", "123832.487500", "123832.947500", "123833.407500", "123833.867500", "123834.327500", "123834.787500", "123835.247500", "123835.707500", "123836.167500", "123836.627500", "123837.087500", "123837.547500", "123838.007500", "123838.467500", "123838.927500", "123839.387500", "123839.847500", "123840.307500", "123840.767500", "123841.227500", "123841.687500", "123842.147500", "123842.607500", "123843.067500", "123843.527500", "123843.987500", "123844.447500", "123844.907500", "123845.367500", "123845.827500", "123846.287500", "123846.747500", "123847.207500", "123847.667500", "123848.127500", "123848.587500", "123849.047500", "123849.507500", "123849.967500", "123850.427500", "123850.887500", "123851.347500", "123851.807500", "123852.267500", "123852.727500", "123853.187500", "123853.647500", "123854.107500", "123854.567500", "123855.027500", "123855.487500", "123855.947500", "123856.407500", "123856.867500", "123857.327500", "123857.787500", "123858.247500", "123858.707500", "123859.167500", "123859.627500", "123900.087500", "123900.547500", "123901.007500", "123901.467500", "123901.927500", "123902.387500", "123902.847500", "123903.307500", "123903.767500", "123904.227500", "123904.687500", "123905.147500", "123905.607500", "123906.067500", "123906.527500", "123906.987500", "123907.447500", "123907.907500", "123908.367500", "123908.827500", "123909.287500", "123909.747500", "123910.207500", "123910.667500", "123911.127500", "123911.587500", "123912.047500", "123912.507500", "123912.967500", "123913.427500", "123913.887500", "123914.347500", "123914.807500", "123915.267500"],
