{
  "AcquisitionMatrixPE": 82,
  "AcquisitionNumber": 1,
  "AcquisitionTime": "12:47:23.080000",
  "BandwidthPerPixelPhaseEncode": 24.888,
  "BaseResolution": 82,
  "BodyPartExamined": "BRAIN",
  "ConsistencyInfo": "N4_VE11C_LATEST_20160120",
  "ConversionSoftware": "dcm2niix",
  "ConversionSoftwareVersion": "v1.0.20201102",
  "DerivedVendorReportedEchoSpacing": 0.00049,
  "DeviceSerialNumber": "66112",
  "DwellTime": 2e-06,
  "EchoTime": 0.0272,
  "EchoTrainLength": 82,
  "EffectiveEchoSpacing": 0.00049,
  "FlipAngle": 44,
  "ImageComments": "Unaliased MB8/PE3",
  "ImageOrientationPatientDICOM": [0.999852, 0.00550332, 0.0163178, -0.00785301, 0.989011, 0.147631],
  "ImageType": [
    "ORIGINAL",
    "PRIMARY",
    "M",
    "MB",
    "ND",
    "NORM",
    "MOSAIC"
],
  "ImagingFrequency": 123.252,
  "InPlanePhaseEncodingDirectionDICOM": "COL",
  "InstitutionAddress": "Maynard 3,Hanover,NH,US,03755",
  "InstitutionName": "Dartmouth College - PBS",
  "InstitutionalDepartmentName": "Department",
  "MRAcquisitionType": "2D",
  "MagneticFieldStrength": 3,
  "Manufacturer": "Siemens",
  "ManufacturersModelName": "Prisma",
  "Modality": "MR",
  "MultibandAccelerationFactor": 8,
  "PartialFourier": 1,
  "PatientPosition": "HFS",
  "PercentPhaseFOV": 100,
  "PercentSampling": 100,
  "PhaseEncodingDirection": "j-",
  "PhaseEncodingSteps": 82,
  "PhaseResolution": 1,
  "PixelBandwidth": 3050,
  "ProcedureStepDescription": "Wager_Wager^1076_spacetop",
  "ProtocolName": "func_run-04_task-social_acq-ap-mb8",
  "PulseSequenceDetails": "%CustomerSeq%\\cmrr_mbep2d_bold",
  "ReceiveCoilActiveElements": "HEA;HEP",
  "ReceiveCoilName": "Head_32",
  "ReconMatrixPE": 82,
  "RepetitionTime": 0.46,
  "SAR": 0.117658,
  "ScanOptions": "FS",
  "ScanningSequence": "EP",
  "SequenceName": "epfid2d1_82",
  "SequenceVariant": "SK\\SS",
  "SeriesDescription": "func_run-04_task-social_acq-ap-mb8",
  "SeriesNumber": 14,
  "ShimSetting": [4141, -7798, -7165, 479, -91, -193, 84, 56],
  "SliceThickness": 2.7,
  "SliceTiming": [0, 0.2525, 0.0625, 0.315, 0.125, 0.3775, 0.1875, 0, 0.2525, 0.0625, 0.315, 0.125, 0.3775, 0.1875, 0, 0.2525, 0.0625, 0.315, 0.125, 0.3775, 0.1875, 0, 0.2525, 0.0625, 0.315, 0.125, 0.3775, 0.1875, 0, 0.2525, 0.0625, 0.315, 0.125, 0.3775, 0.1875, 0, 0.2525, 0.0625, 0.315, 0.125, 0.3775, 0.1875, 0, 0.2525, 0.0625, 0.315, 0.125, 0.3775, 0.1875, 0, 0.2525, 0.0625, 0.315, 0.125, 0.3775, 0.1875],
  "SoftwareVersions": "syngo MR E11",
  "SpacingBetweenSlices": 2.7,
  "StationName": "AWP66112",
  "TaskName": "social",
  "TotalReadoutTime": 0.03969,
  "TxRefAmp": 279.13,
  "WipMemBlock": "01074390-21a3-48ab-8f76-b05008ebecbe||Sequence: R016 ve11c/master r/e634e98; Dec 19 2017 11:00:25 by eja",
  "dcmmeta_affine": [
    [-2.6825289726257324, -0.021069053560495377, 0.04138023406267166, 111.2491455078125],
    [-0.014764993451535702, 2.653445243835449, 0.39888960123062134, -96.43854522705078],
    [0.0437794104218483, -0.39608219265937805, 2.6700515747070312, -7.356716156005859],
    [0.0, 0.0, 0.0, 1.0]
],
  "dcmmeta_reorient_transform": [
    [0.0, -1.0, 0.0, 81.0],
    [1.0, 0.0, 0.0, 0.0],
    [0.0, 0.0, 1.0, 0.0],
    [0.0, 0.0, 0.0, 1.0]
],
  "dcmmeta_shape": [82, 82, 56, 872],
  "dcmmeta_slice_dim": 2,
  "dcmmeta_version": 0.6,
  "global": {
    "const": {
      "AccessionNumber": "A003586",
      "AcquisitionMatrix": [82, 0, 0, 82],
      "AngioFlag": "N",
      "BitsAllocated": 16,
      "BitsStored": 16,
      "BodyPartExamined": "BRAIN",
      "Columns": 656,
      "EchoNumbers": 1,
      "EchoTime": 27.2,
      "EchoTrainLength": 82,
      "FlipAngle": 44.0,
      "HighBit": 15,
      "ImageOrientationPatient": [0.99985171078297, 0.00550331562412, 0.0163177805326, -0.0078530106306, 0.9890113882439, 0.14763063417841],
      "ImagePositionPatient": [-873.38157189838, -884.26686190382, -165.67965675583],
      "ImageType": [
        "ORIGINAL",
        "PRIMARY",
        "M",
        "MB",
        "ND",
        "NORM",
        "MOSAIC"
],
      "ImagedNucleus": "1H",
      "ImagingFrequency": 123.252062,
      "InPlanePhaseEncodingDirection": "COL",
      "MRAcquisitionType": "2D",
      "MagneticFieldStrength": 3.0,
      "Manufacturer": "SIEMENS",
      "ManufacturerModelName": "Prisma",
      "Modality": "MR",
      "NumberOfAverages": 1.0,
      "NumberOfPhaseEncodingSteps": 82,
      "PercentPhaseFieldOfView": 100.0,
      "PercentSampling": 100.0,
      "PerformedProcedureStepStartTime": "120712.889000",
      "PhotometricInterpretation": "MONOCHROME2",
      "PixelBandwidth": 3050.0,
      "PixelRepresentation": 0,
      "PixelSpacing": [2.6829268932343, 2.6829268932343],
      "ProtocolName": "func_run-04_task-social_acq-ap-mb8",
      "RepetitionTime": 460.0,
      "Rows": 656,
      "SAR": 0.11765760202313,
      "SamplesPerPixel": 1,
      "ScanOptions": "FS",
      "ScanningSequence": "EP",
      "SequenceName": "epfid2d1_82",
      "SequenceVariant": [
        "SK",
        "SS"
],
      "SeriesDescription": "func_run-04_task-social_acq-ap-mb8",
      "SeriesNumber": 14,
      "SeriesTime": "124735.775000",
      "SliceLocation": -19.817639484528,
      "SliceThickness": 2.7000000476837,
      "SmallestImagePixelValue": 0,
      "SoftwareVersions": "syngo MR E11",
      "SpacingBetweenSlices": 2.7000000506978,
      "SpecificCharacterSet": "ISO_IR 100",
      "StudyID": "1",
      "StudyTime": "120712.794000",
      "TransmitCoilName": "Body",
      "VariableFlipAngleFlag": "N",
      "WindowCenterWidthExplanation": "Algo1",
      "dBdt": 0.0},
    "slices": {}
  },
  "time": {
    "samples": {
      "AcquisitionNumber": [1, 2, 3, 4, 5, 6, 7, 8, 9, 10, 11, 12, 13, 14, 15, 16, 17, 18, 19, 20, 21, 22, 23, 24, 25, 26, 27, 28, 29, 30, 31, 32, 33, 34, 35, 36, 37, 38, 39, 40, 41, 42, 43, 44, 45, 46, 47, 48, 49, 50, 51, 52, 53, 54, 55, 56, 57, 58, 59, 60, 61, 62, 63, 64, 65, 66, 67, 68, 69, 70, 71, 72, 73, 74, 75, 76, 77, 78, 79, 80, 81, 82, 83, 84, 85, 86, 87, 88, 89, 90, 91, 92, 93, 94, 95, 96, 97, 98, 99, 100, 101, 102, 103, 104, 105, 106, 107, 108, 109, 110, 111, 112, 113, 114, 115, 116, 117, 118, 119, 120, 121, 122, 123, 124, 125, 126, 127, 128, 129, 130, 131, 132, 133, 134, 135, 136, 137, 138, 139, 140, 141, 142, 143, 144, 145, 146, 147, 148, 149, 150, 151, 152, 153, 154, 155, 156, 157, 158, 159, 160, 161, 162, 163, 164, 165, 166, 167, 168, 169, 170, 171, 172, 173, 174, 175, 176, 177, 178, 179, 180, 181, 182, 183, 184, 185, 186, 187, 188, 189, 190, 191, 192, 193, 194, 195, 196, 197, 198, 199, 200, 201, 202, 203, 204, 205, 206, 207, 208, 209, 210, 211, 212, 213, 214, 215, 216, 217, 218, 219, 220, 221, 222, 223, 224, 225, 226, 227, 228, 229, 230, 231, 232, 233, 234, 235, 236, 237, 238, 239, 240, 241, 242, 243, 244, 245, 246, 247, 248, 249, 250, 251, 252, 253, 254, 255, 256, 257, 258, 259, 260, 261, 262, 263, 264, 265, 266, 267, 268, 269, 270, 271, 272, 273, 274, 275, 276, 277, 278, 279, 280, 281, 282, 283, 284, 285, 286, 287, 288, 289, 290, 291, 292, 293, 294, 295, 296, 297, 298, 299, 300, 301, 302, 303, 304, 305, 306, 307, 308, 309, 310, 311, 312, 313, 314, 315, 316, 317, 318, 319, 320, 321, 322, 323, 324, 325, 326, 327, 328, 329, 330, 331, 332, 333, 334, 335, 336, 337, 338, 339, 340, 341, 342, 343, 344, 345, 346, 347, 348, 349, 350, 351, 352, 353, 354, 355, 356, 357, 358, 359, 360, 361, 362, 363, 364, 365, 366, 367, 368, 369, 370, 371, 372, 373, 374, 375, 376, 377, 378, 379, 380, 381, 382, 383, 384, 385, 386, 387, 388, 389, 390, 391, 392, 393, 394, 395, 396, 397, 398, 399, 400, 401, 402, 403, 404, 405, 406, 407, 408, 409, 410, 411, 412, 413, 414, 415, 416, 417, 418, 419, 420, 421, 422, 423, 424, 425, 426, 427, 428, 429, 430, 431, 432, 433, 434, 435, 436, 437, 438, 439, 440, 441, 442, 443, 444, 445, 446, 447, 448, 449, 450, 451, 452, 453, 454, 455, 456, 457, 458, 459, 460, 461, 462, 463, 464, 465, 466, 467, 468, 469, 470, 471, 472, 473, 474, 475, 476, 477, 478, 479, 480, 481, 482, 483, 484, 485, 486, 487, 488, 489, 490, 491, 492, 493, 494, 495, 496, 497, 498, 499, 500, 501, 502, 503, 504, 505, 506, 507, 508, 509, 510, 511, 512, 513, 514, 515, 516, 517, 518, 519, 520, 521, 522, 523, 524, 525, 526, 527, 528, 529, 530, 531, 532, 533, 534, 535, 536, 537, 538, 539, 540, 541, 542, 543, 544, 545, 546, 547, 548, 549, 550, 551, 552, 553, 554, 555, 556, 557, 558, 559, 560, 561, 562, 563, 564, 565, 566, 567, 568, 569, 570, 571, 572, 573, 574, 575, 576, 577, 578, 579, 580, 581, 582, 583, 584, 585, 586, 587, 588, 589, 590, 591, 592, 593, 594, 595, 596, 597, 598, 599, 600, 601, 602, 603, 604, 605, 606, 607, 608, 609, 610, 611, 612, 613, 614, 615, 616, 617, 618, 619, 620, 621, 622, 623, 624, 625, 626, 627, 628, 629, 630, 631, 632, 633, 634, 635, 636, 637, 638, 639, 640, 641, 642, 643, 644, 645, 646, 647, 648, 649, 650, 651, 652, 653, 654, 655, 656, 657, 658, 659, 660, 661, 662, 663, 664, 665, 666, 667, 668, 669, 670, 671, 672, 673, 674, 675, 676, 677, 678, 679, 680, 681, 682, 683, 684, 685, 686, 687, 688, 689, 690, 691, 692, 693, 694, 695, 696, 697, 698, 699, 700, 701, 702, 703, 704, 705, 706, 707, 708, 709, 710, 711, 712, 713, 714, 715, 716, 717, 718, 719, 720, 721, 722, 723, 724, 725, 726, 727, 728, 729, 730, 731, 732, 733, 734, 735, 736, 737, 738, 739, 740, 741, 742, 743, 744, 745, 746, 747, 748, 749, 750, 751, 752, 753, 754, 755, 756, 757, 758, 759, 760, 761, 762, 763, 764, 765, 766, 767, 768, 769, 770, 771, 772, 773, 774, 775, 776, 777, 778, 779, 780, 781, 782, 783, 784, 785, 786, 787, 788, 789, 790, 791, 792, 793, 794, 795, 796, 797, 798, 799, 800, 801, 802, 803, 804, 805, 806, 807, 808, 809, 810, 811, 812, 813, 814, 815, 816, 817, 818, 819, 820, 821, 822, 823, 824, 825, 826, 827, 828, 829, 830, 831, 832, 833, 834, 835, 836, 837, 838, 839, 840, 841, 842, 843, 844, 845, 846, 847, 848, 849, 850, 851, 852, 853, 854, 855, 856, 857, 858, 859, 860, 861, 862, 863, 864, 865, 866, 867, 868, 869, 870, 871, 872],
      "AcquisitionTime": ["124723.080000", "124723.540000", "124724.000000", "124724.460000", "124724.920000", "124725.380000", "124725.840000", "124726.300000", "124726.760000", "124727.220000", "124727.680000", "124728.140000", "124728.600000", "124729.060000", "124729.520000", "124729.980000", "124730.440000", "124730.900000", "124731.360000", "124731.820000", "124732.280000", "124732.740000", "124733.200000", "124733.660000", "124734.120000", "124734.580000", "124735.040000", "124735.500000", "124735.960000", "124736.420000", "124736.880000", "124737.340000", "124737.800000", "124738.260000", "124738.720000", "124739.180000", "124739.640000", "124740.100000", "124740.560000", "124741.020000", "124741.480000", "124741.940000", "124742.400000", "124742.860000", "124743.320000", "124743.780000", "124744.240000", "124744.700000", "124745.160000", "124745.620000", "124746.080000", "124746.540000", "124747.000000", "124747.460000", "124747.920000", "124748.380000", "124748.840000", "124749.300000", "124749.760000", "124750.220000", "124750.680000", "124751.140000", "124751.600000", "124752.060000", "124752.520000", "124752.980000", "124753.440000", "124753.900000", "124754.360000", "124754.820000", "124755.280000", "124755.740000", "124756.200000", "124756.660000", "124757.120000", "124757.580000", "124758.040000", "124758.500000", "124758.960000", "124759.420000", "124759.880000", "124800.340000", "124800.800000", "124801.260000", "124801.720000", "124802.180000", "124802.640000", "124803.100000", "124803.560000", "124804.020000", "124804.480000", "124804.940000", "124805.400000", "124805.860000", "124806.320000", "124806.780000", "124807.240000", "124807.700000", "124808.160000", "124808.620000", "124809.080000", "124809.540000", "124810.000000", "124810.460000", "124810.920000", "124811.380000", "124811.840000", "124812.300000", "124812.760000", "124813.220000", "124813.680000", "124814.140000", "124814.600000", "124815.060000", "124815.520000", "124815.980000", "124816.440000", "124816.900000", "124817.360000", "124817.820000", "124818.280000", "124818.740000", "124819.200000", "124819.660000", "124820.120000", "124820.580000", "124821.040000", "124821.500000", "124821.960000", "124822.420000", "124822.880000", "124823.340000", "124823.800000", "124824.260000", "124824.720000", "124825.180000", "124825.640000", "124826.100000", "124826.560000", "124827.020000", "124827.480000", "124827.940000", "124828.400000", "124828.860000", "124829.320000", "124829.780000", "124830.240000", "124830.700000", "124831.160000", "124831.620000", "124832.080000", "124832.540000", "124833.000000", "124833.460000", "124833.920000", "124834.380000", "124834.840000", "124835.300000", "124835.760000", "124836.220000", "124836.680000", "124837.140000", "124837.600000", "124838.060000", "124838.520000", "124838.980000", "124839.440000", "124839.900000", "124840.360000", "124840.820000", "124841.280000", "124841.740000", "124842.200000", "124842.660000", "124843.120000", "124843.580000", "124844.040000", "124844.500000", "124844.960000", "124845.420000", "124845.880000", "124846.340000", "124846.800000", "124847.260000", "124847.720000", "124848.180000", "124848.640000", "124849.100000", "124849.560000", "124850.020000", "124850.480000", "124850.940000", "124851.400000", "124851.860000", "124852.320000", "124852.780000", "124853.240000", "124853.700000", "124854.160000", "124854.620000", "124855.080000", "124855.540000", "124856.000000", "124856.460000", "124856.920000", "124857.380000", "124857.840000", "124858.300000", "124858.760000", "124859.220000", "124859.680000", "124900.140000", "124900.600000", "124901.060000", "124901.520000", "124901.980000", "124902.440000", "124902.900000", "124903.360000", "124903.820000", "124904.280000", "124904.740000", "124905.200000", "124905.660000", "124906.120000", "124906.580000", "124907.040000", "124907.500000", "124907.960000", "124908.420000", "124908.880000", "124909.340000", "124909.800000", "124910.260000", "124910.720000", "124911.180000", "124911.640000", "124912.100000", "124912.560000", "124913.020000", "124913.480000", "124913.940000", "124914.400000", "124914.860000", "124915.320000", "124915.780000", "124916.240000", "124916.700000", "124917.160000", "124917.620000", "124918.080000", "124918.540000", "124919.000000", "124919.460000", "124919.920000", "124920.380000", "124920.840000", "124921.300000", "124921.760000", "124922.220000", "124922.680000", "124923.140000", "124923.600000", "124924.060000", "124924.520000", "124924.980000", "124925.440000", "124925.900000", "124926.360000", "124926.820000", "124927.280000", "124927.740000", "124928.200000", "124928.660000", "124929.120000", "124929.580000", "124930.040000", "124930.500000", "124930.960000", "124931.420000", "124931.880000", "124932.340000", "124932.800000", "124933.260000", "124933.720000", "124934.180000", "124934.640000", "124935.100000", "124935.560000", "124936.020000", "124936.480000", "124936.940000", "124937.400000", "124937.860000", "124938.320000", "124938.780000", "124939.240000", "124939.700000", "124940.160000", "124940.620000", "124941.080000", "124941.540000", "124942.000000", "124942.460000", "124942.920000", "124943.380000", "124943.840000", "124944.300000", "124944.760000", "124945.220000", "124945.680000", "124946.140000", "124946.600000", "124947.060000", "124947.520000", "124947.980000", "124948.440000", "124948.900000", "124949.360000", "124949.820000", "124950.280000", "124950.740000", "124951.200000", "124951.660000", "124952.120000", "124952.580000", "124953.040000", "124953.500000", "124953.960000", "124954.420000", "124954.880000", "124955.340000", "124955.800000", "124956.260000", "124956.720000", "124957.180000", "124957.640000", "124958.100000", "124958.560000", "124959.020000", "124959.480000", "124959.940000", "125000.400000", "125000.860000", "125001.320000", "125001.780000", "125002.240000", "125002.700000", "125003.160000", "125003.620000", "125004.080000", "125004.540000", "125005.000000", "125005.460000", "125005.920000", "125006.380000", "125006.840000", "125007.300000", "125007.760000", "125008.220000", "125008.680000", "125009.140000", "125009.600000", "125010.060000", "125010.520000", "125010.980000", "125011.440000", "125011.900000", "125012.360000", "125012.820000", "125013.280000", "125013.740000", "125014.200000", "125014.660000", "125015.120000", "125015.580000", "125016.040000", "125016.500000", "125016.960000", "125017.420000", "125017.880000", "125018.340000", "125018.800000", "125019.260000", "125019.720000", "125020.180000", "125020.640000", "125021.100000", "125021.560000", "125022.020000", "125022.480000", "125022.940000", "125023.400000", "125023.860000", "125024.320000", "125024.780000", "125025.240000", "125025.700000", "125026.160000", "125026.620000", "125027.080000", "125027.540000", "125028.000000", "125028.460000", "125028.920000", "125029.380000", "125029.840000", "125030.300000", "125030.760000", "125031.220000", "125031.680000", "125032.140000", "125032.600000", "125033.060000", "125033.520000", "125033.980000", "125034.440000", "125034.900000", "125035.360000", "125035.820000", "125036.280000", "125036.740000", "125037.200000", "125037.660000", "125038.120000", "125038.580000", "125039.040000", "125039.500000", "125039.960000", "125040.420000", "125040.880000", "125041.340000", "125041.800000", "125042.260000", "125042.720000", "125043.180000", "125043.640000", "125044.100000", "125044.560000", "125045.020000", "125045.480000", "125045.940000", "125046.400000", "125046.860000", "125047.320000", "125047.780000", "125048.240000", "125048.700000", "125049.160000", "125049.620000", "125050.080000", "125050.540000", "125051.000000", "125051.460000", "125051.920000", "125052.380000", "125052.840000", "125053.300000", "125053.760000", "125054.220000", "125054.680000", "125055.140000", "125055.600000", "125056.060000", "125056.520000", "125056.980000", "125057.440000", "125057.900000", "125058.360000", "125058.820000", "125059.280000", "125059.740000", "125100.200000", "125100.660000", "125101.120000", "125101.580000", "125102.040000", "125102.500000", "125102.960000", "125103.420000", "125103.880000", "125104.340000", "125104.800000", "125105.260000", "125105.720000", "125106.180000", "125106.640000", "125107.100000", "125107.560000", "125108.020000", "125108.480000", "125108.940000", "125109.400000", "125109.860000", "125110.320000", "125110.780000", "125111.240000", "125111.700000", "125112.160000", "125112.620000", "125113.080000", "125113.540000", "125114.000000", "125114.460000", "125114.920000", "125115.380000", "125115.840000", "125116.300000", "125116.760000", "125117.220000", "125117.680000", "125118.140000", "125118.600000", "125119.060000", "125119.520000", "125119.980000", "125120.440000", "125120.900000", "125121.360000", "125121.820000", "125122.280000", "125122.740000", "125123.200000", "125123.660000", "125124.120000", "125124.580000", "125125.040000", "125125.500000", "125125.960000", "125126.420000", "125126.880000", "125127.340000", "125127.800000", "125128.260000", "125128.720000", "125129.180000", "125129.640000", "125130.100000", "125130.560000", "125131.020000", "125131.480000", "125131.940000", "125132.400000", "125132.860000", "125133.320000", "125133.780000", "125134.240000", "125134.700000", "125135.160000", "125135.620000", "125136.080000", "125136.540000", "125137.000000", "125137.460000", "125137.920000", "125138.380000", "125138.840000", "125139.300000", "125139.760000", "125140.220000", "125140.680000", "125141.140000", "125141.600000", "125142.060000", "125142.520000", "125142.980000", "125143.440000", "125143.900000", "125144.360000", "125144.820000", "125145.280000", "125145.740000", "125146.200000", "125146.660000", "125147.120000", "125147.580000", "125148.040000", "125148.500000", "125148.960000", "125149.420000", "125149.880000", "125150.340000", "125150.800000", "125151.260000", "125151.720000", "125152.180000", "125152.640000", "125153.100000", "125153.560000", "125154.020000", "125154.480000", "125154.940000", "125155.400000", "125155.860000", "125156.320000", "125156.780000", "125157.240000", "125157.700000", "125158.160000", "125158.620000", "125159.080000", "125159.540000", "125200.000000", "125200.460000", "125200.920000", "125201.380000", "125201.840000", "125202.300000", "125202.760000", "125203.220000", "125203.680000", "125204.140000", "125204.600000", "125205.060000", "125205.520000", "125205.980000", "125206.440000", "125206.900000", "125207.360000", "125207.820000", "125208.280000", "125208.740000", "125209.200000", "125209.660000", "125210.120000", "125210.580000", "125211.040000", "125211.500000", "125211.960000", "125212.420000", "125212.880000", "125213.340000", "125213.800000", "125214.260000", "125214.720000", "125215.180000", "125215.640000", "125216.100000", "125216.560000", "125217.020000", "125217.480000", "125217.940000", "125218.400000", "125218.860000", "125219.320000", "125219.780000", "125220.240000", "125220.700000", "125221.160000", "125221.620000", "125222.080000", "125222.540000", "125223.000000", "125223.460000", "125223.920000", "125224.380000", "125224.840000", "125225.300000", "125225.760000", "125226.220000", "125226.680000", "125227.140000", "125227.600000", "125228.060000", "125228.520000", "125228.980000", "125229.440000", "125229.900000", "125230.360000", "125230.820000", "125231.280000", "125231.740000", "125232.200000", "125232.660000", "125233.120000", "125233.580000", "125234.040000", "125234.500000", "125234.960000", "125235.420000", "125235.880000", "125236.340000", "125236.800000", "125237.260000", "125237.720000", "125238.180000", "125238.640000", "125239.100000", "125239.560000", "125240.020000", "125240.480000", "125240.940000", "125241.400000", "125241.860000", "125242.320000", "125242.780000", "125243.240000", "125243.700000", "125244.160000", "125244.620000", "125245.080000", "125245.540000", "125246.000000", "125246.460000", "125246.920000", "125247.380000", "125247.840000", "125248.300000", "125248.760000", "125249.220000", "125249.680000", "125250.140000", "125250.600000", "125251.060000", "125251.520000", "125251.980000", "125252.440000", "125252.900000", "125253.360000", "125253.820000", "125254.280000", "125254.740000", "125255.200000", "125255.660000", "125256.120000", "125256.580000", "125257.040000", "125257.500000", "125257.960000", "125258.420000", "125258.880000", "125259.340000", "125259.800000", "125300.260000", "125300.720000", "125301.180000", "125301.640000", "125302.100000", "125302.560000", "125303.020000", "125303.480000", "125303.940000", "125304.400000", "125304.860000", "125305.320000", "125305.780000", "125306.240000", "125306.700000", "125307.160000", "125307.620000", "125308.080000", "125308.540000", "125309.000000", "125309.460000", "125309.920000", "125310.380000", "125310.840000", "125311.300000", "125311.760000", "125312.220000", "125312.680000", "125313.140000", "125313.600000", "125314.060000", "125314.520000", "125314.980000", "125315.440000", "125315.900000", "125316.360000", "125316.820000", "125317.280000", "125317.740000", "125318.200000", "125318.660000", "125319.120000", "125319.580000", "125320.040000", "125320.500000", "125320.960000", "125321.420000", "125321.880000", "125322.340000", "125322.800000", "125323.260000", "125323.720000", "125324.180000", "125324.640000", "125325.100000", "125325.560000", "125326.020000", "125326.480000", "125326.940000", "125327.400000", "125327.860000", "125328.320000", "125328.780000", "125329.240000", "125329.700000", "125330.160000", "125330.620000", "125331.080000", "125331.540000", "125332.000000", "125332.460000", "125332.920000", "125333.380000", "125333.840000", "125334.300000", "125334.760000", "125335.220000", "125335.680000", "125336.140000", "125336.600000", "125337.060000", "125337.520000", "125337.980000", "125338.440000", "125338.900000", "125339.360000", "125339.820000", "125340.280000", "125340.740000", "125341.200000", "125341.660000", "125342.120000", "125342.580000", "125343.040000", "125343.500000", "125343.960000", "125344.420000", "125344.880000", "125345.340000", "125345.800000", "125346.260000", "125346.720000", "125347.180000", "125347.640000", "125348.100000", "125348.560000", "125349.020000", "125349.480000", "125349.940000", "125350.400000", "125350.860000", "125351.320000", "125351.780000", "125352.240000", "125352.700000", "125353.160000", "125353.620000", "125354.080000", "125354.540000", "125355.000000", "125355.460000", "125355.920000", "125356.380000", "125356.840000", "125357.300000", "125357.760000", "125358.220000", "125358.680000", "125359.140000", "125359.600000", "125400.060000", "125400.520000", "125400.980000", "125401.440000", "125401.900000", "125402.360000", "125402.820000", "125403.280000", "125403.740000"],
