{
  "AcquisitionMatrixPE": 140,
  "AcquisitionNumber": 1,
  "AcquisitionTime": "17:36:18.030000",
  "BandwidthPerPixelPhaseEncode": 10.352,
  "BaseResolution": 140,
  "BodyPartExamined": "BRAIN",
  "ConsistencyInfo": "N4_VE11E_LATEST_20181129",
  "ConversionSoftware": "dcm2niix",
  "ConversionSoftwareVersion": "v1.0.20201102",
  "DerivedVendorReportedEchoSpacing": 0.000689998,
  "DeviceSerialNumber": "66112",
  "DiffusionScheme": "Monopolar",
  "DwellTime": 2.1e-06,
  "EchoTime": 0.088,
  "EchoTrainLength": 105,
  "EffectiveEchoSpacing": 0.000689998,
  "FlipAngle": 90,
  "ImageComments": "Unaliased MB3/PE3",
  "ImageOrientationPatientDICOM": [0.9976, 0.0672004, -0.0167051, -0.0627636, 0.97942, 0.191824],
  "ImageType": [
    "ORIGINAL",
    "PRIMARY",
    "DIFFUSION",
    "NONE",
    "MB",
    "ND"
],
  "ImagingFrequency": 123.259,
  "InPlanePhaseEncodingDirectionDICOM": "COL",
  "InstitutionAddress": "Maynard 3,Hanover,NH,US,03755",
  "InstitutionName": "Dartmouth College - PBS",
  "InstitutionalDepartmentName": "Department",
  "IntendedFor": [
    "ses-01/dwi/sub-0131_ses-01_acq-96dirX6b0Xmb_dwi.nii.gz"
],
  "MRAcquisitionType": "2D",
  "MagneticFieldStrength": 3,
  "Manufacturer": "Siemens",
  "ManufacturersModelName": "Prisma",
  "Modality": "MR",
  "MultibandAccelerationFactor": 3,
  "PartialFourier": 0.75,
  "PatientPosition": "HFS",
  "PercentPhaseFOV": 100,
  "PercentSampling": 100,
  "PhaseEncodingDirection": "j-",
  "PhaseEncodingSteps": 105,
  "PhaseResolution": 1,
  "PixelBandwidth": 1700,
  "ProcedureStepDescription": "Wager_Wager^1076_spacetop",
  "ProtocolName": "dwi_acq-discorr-AP",
  "PulseSequenceDetails": "%CustomerSeq%\\cmrr_mbep2d_diff",
  "ReceiveCoilActiveElements": "HEA;HEP",
  "ReceiveCoilName": "Head_32",
  "ReconMatrixPE": 140,
  "RepetitionTime": 4.1,
  "SAR": 0.143212,
  "ScanOptions": "PFP\\FS",
  "ScanningSequence": "EP",
  "SequenceName": "ep_b0",
  "SequenceVariant": "SK\\SS",
  "SeriesDescription": "dwi_acq-discorr-AP",
  "SeriesNumber": 11,
  "ShimSetting": [4212, -8150, -7349, 567, -231, -1056, 791, 117],
  "SliceThickness": 1.7,
  "SliceTiming": [0, 2.10938, 0.15625, 2.26562, 0.29688, 2.42188, 0.45312, 2.5625, 0.60938, 2.71875, 0.75, 2.875, 0.90625, 3.01562, 1.0625, 3.17188, 1.20312, 3.32812, 1.35938, 3.46875, 1.51562, 3.625, 1.65625, 3.78125, 1.8125, 3.92188, 1.96875, 0, 2.10938, 0.15625, 2.26562, 0.29688, 2.42188, 0.45312, 2.5625, 0.60938, 2.71875, 0.75, 2.875, 0.90625, 3.01562, 1.0625, 3.17188, 1.20312, 3.32812, 1.35938, 3.46875, 1.51562, 3.625, 1.65625, 3.78125, 1.8125, 3.92188, 1.96875, 0, 2.10938, 0.15625, 2.26562, 0.29688, 2.42188, 0.45312, 2.5625, 0.60938, 2.71875, 0.75, 2.875, 0.90625, 3.01562, 1.0625, 3.17188, 1.20312, 3.32812, 1.35938, 3.46875, 1.51562, 3.625, 1.65625, 3.78125, 1.8125, 3.92188, 1.96875],
  "SoftwareVersions": "syngo MR E11",
  "SpacingBetweenSlices": 1.7,
  "StationName": "AWP66112",
  "TotalReadoutTime": 0.0959097,
  "TxRefAmp": 232.369,
  "WipMemBlock": "fe23a205-e606-4b13-9057-26bcb91b5e25||Sequence: R016 ve11e/master r/434b28f1; Aug  7 2019 19:06:17 by eja",
  "dcmmeta_affine": [
    [-1.710170865058899, -0.10759478062391281, -0.0497281551361084, 134.27224731445312],
    [-0.11520060896873474, 1.679006576538086, 0.3235340118408203, -106.86019897460938],
    [-0.028637323528528214, -0.328840434551239, 1.6681900024414062, -38.97438049316406],
    [0.0, 0.0, 0.0, 1.0]
],
  "dcmmeta_reorient_transform": [
    [0.0, -1.0, 0.0, 139.0],
    [1.0, 0.0, 0.0, 0.0],
    [0.0, 0.0, -1.0, 80.0],
    [0.0, 0.0, 0.0, 1.0]
],
  "dcmmeta_shape": [140, 140, 81],
  "dcmmeta_slice_dim": 2,
  "dcmmeta_version": 0.6,
  "global": {
    "const": {
      "AccessionNumber": "A004808",
      "AcquisitionMatrix": [140, 0, 0, 140],
      "AcquisitionNumber": 1,
      "AngioFlag": "N",
      "BitsAllocated": 16,
      "BitsStored": 16,
      "BodyPartExamined": "BRAIN",
      "Columns": 140,
      "EchoNumbers": 1,
      "EchoTime": 88.0,
      "EchoTrainLength": 105,
      "FlipAngle": 90.0,
      "HighBit": 15,
      "ImageOrientationPatient": [0.99759964513322, 0.06720035346604, -0.016705104732, -0.0627636229518, 0.97942046040866, 0.19182358918248],
      "ImageType": [
        "ORIGINAL",
        "PRIMARY",
        "DIFFUSION",
        "NONE",
        "MB",
        "ND"
],
      "ImagedNucleus": "1H",
      "ImagingFrequency": 123.259165,
      "InPlanePhaseEncodingDirection": "COL",
      "MRAcquisitionType": "2D",
      "MagneticFieldStrength": 3.0,
      "Manufacturer": "SIEMENS",
      "ManufacturerModelName": "Prisma",
      "Modality": "MR",
      "NumberOfAverages": 1.0,
      "NumberOfPhaseEncodingSteps": 105,
      "PercentPhaseFieldOfView": 100.0,
      "PercentSampling": 100.0,
      "PerformedProcedureStepStartTime": "170756.271000",
      "PhotometricInterpretation": "MONOCHROME2",
      "PixelBandwidth": 1700.0,
      "PixelRepresentation": 0,
      "PixelSpacing": [1.7142857313156, 1.7142857313156],
      "ProtocolName": "dwi_acq-discorr-AP",
      "RepetitionTime": 4100.0,
      "Rows": 140,
      "SAR": 0.14321158482841,
      "SamplesPerPixel": 1,
      "ScanOptions": [
        "PFP",
        "FS"
],
      "ScanningSequence": "EP",
      "SequenceName": "ep_b0",
      "SequenceVariant": [
        "SK",
        "SS"
],
      "SeriesDescription": "dwi_acq-discorr-AP",
      "SeriesNumber": 11,
      "SeriesTime": "173622.635000",
      "SliceThickness": 1.7000000476837,
      "SmallestImagePixelValue": 0,
      "SoftwareVersions": "syngo MR E11",
      "SpacingBetweenSlices": 1.7,
      "SpecificCharacterSet": "ISO_IR 100",
      "StudyID": "1",
      "StudyTime": "170756.166000",
      "TransmitCoilName": "Body",
      "VariableFlipAngleFlag": "N",
      "WindowCenterWidthExplanation": "Algo1"
    },
    "slices": {
      "AcquisitionTime": ["173618.030000", "173620.145000", "173618.180000", "173620.297500", "173618.332500", "173620.447500", "173618.482500", "173620.600000", "173618.635000", "173620.750000", "173618.785000", "173620.900000", "173618.937500", "173621.052500", "173619.087500", "173621.202500", "173619.240000", "173621.355000", "173619.390000", "173621.505000", "173619.540000", "173621.657500", "173619.692500", "173621.807500", "173619.842500", "173621.960000", "173619.995000", "173618.030000", "173620.145000", "173618.180000", "173620.297500", "173618.332500", "173620.447500", "173618.482500", "173620.600000", "173618.635000", "173620.750000", "173618.785000", "173620.900000", "173618.937500", "173621.052500", "173619.087500", "173621.202500", "173619.240000", "173621.355000", "173619.390000", "173621.505000", "173619.540000", "173621.657500", "173619.692500", "173621.807500", "173619.842500", "173621.960000", "173619.995000", "173618.030000", "173620.145000", "173618.180000", "173620.297500", "173618.332500", "173620.447500", "173618.482500", "173620.600000", "173618.635000", "173620.750000", "173618.785000", "173620.900000", "173618.937500", "173621.052500", "173619.087500", "173621.202500", "173619.240000", "173621.355000", "173619.390000", "173621.505000", "173619.540000", "173621.657500", "173619.692500", "173621.807500", "173619.842500", "173621.960000", "173619.995000"],
      "ContentTime": ["173622.638000", "173622.727000", "173622.650000", "173622.733000", "173622.656000", "173622.739000", "173622.662000", "173622.746000", "173622.668000", "173622.754000", "173622.674000", "173622.761000", "173622.680000", "173622.768000", "173622.686000", "173622.775000", "173622.692000", "173622.781000", "173622.698000", "173622.787000", "173622.703000", "173622.802000", "173622.709000", "173622.808000", "173622.715000", "173622.814000", "173622.721000", "173622.646000", "173622.729000", "173622.652000", "173622.735000", "173622.658000", "173622.741000", "173622.664000", "173622.748000", "173622.670000", "173622.756000", "173622.676000", "173622.764000", "173622.682000", "173622.771000", "173622.688000", "173622.777000", "173622.694000", "173622.783000", "173622.700000", "173622.797000", "173622.705000", "173622.804000", "173622.711000", "173622.810000", "173622.717000", "173622.816000", "173622.723000", "173622.648000", "173622.731000", "173622.654000", "173622.737000", "173622.660000", "173622.743000", "173622.666000", "173622.751000", "173622.672000", "173622.759000", "173622.678000", "173622.766000", "173622.684000", "173622.773000", "173622.690000", "173622.779000", "173622.696000", "173622.785000", "173622.701000", "173622.800000", "173622.707000", "173622.806000", "173622.713000", "173622.812000", "173622.719000", "173622.818000", "173622.725000"],
      "CsaImage.GSWDDataType": [
        "predicted",
        "predicted",
        "predicted",
        "predicted",
        "predicted",
        "predicted",
        "predicted",
        "predicted",
        "predicted",
        "predicted",
        "predicted",
        "predicted",
        "predicted",
        "predicted",
        "predicted",
        "predicted",
        "predicted",
        "predicted",
        "predicted",
        "predicted",
        "predicted",
        "predicted",
        "predicted",
        "measured",
        "predicted",
        "measured",
        "predicted",
        "predicted",
        "predicted",
        "predicted",
        "predicted",
        "predicted",
        "predicted",
        "predicted",
        "predicted",
        "predicted",
        "predicted",
        "predicted",
        "predicted",
        "predicted",
        "predicted",
        "predicted",
        "predicted",
        "predicted",
        "predicted",
        "predicted",
        "predicted",
        "predicted",
        "predicted",
        "predicted",
        "measured",
        "predicted",
        "measured",
        "predicted",
        "predicted",
        "predicted",
        "predicted",
        "predicted",
        "predicted",
        "predicted",
        "predicted",
        "predicted",
        "predicted",
        "predicted",
        "predicted",
        "predicted",
        "predicted",
        "predicted",
        "predicted",
        "predicted",
        "predicted",
        "predicted",
        "predicted",
        "predicted",
        "predicted",
        "predicted",
        "predicted",
        "measured",
        "predicted",
        "measured",
        "predicted"
],
      "CsaImage.ICE_Dims": [
        "X_1_1_1_1_1_1_1_1_1_1_1_148",
        "X_1_1_1_1_1_1_42_1_1_2_1_148",
        "X_1_1_1_1_1_1_2_1_1_3_1_148",
        "X_1_1_1_1_1_1_43_1_1_4_1_148",
        "X_1_1_1_1_1_1_3_1_1_5_1_148",
        "X_1_1_1_1_1_1_44_1_1_6_1_148",
        "X_1_1_1_1_1_1_4_1_1_7_1_148",
        "X_1_1_1_1_1_1_45_1_1_8_1_148",
        "X_1_1_1_1_1_1_5_1_1_9_1_148",
        "X_1_1_1_1_1_1_46_1_1_10_1_148",
        "X_1_1_1_1_1_1_6_1_1_11_1_148",
        "X_1_1_1_1_1_1_47_1_1_12_1_148",
        "X_1_1_1_1_1_1_7_1_1_13_1_148",
        "X_1_1_1_1_1_1_48_1_1_14_1_148",
        "X_1_1_1_1_1_1_8_1_1_15_1_148",
        "X_1_1_1_1_1_1_49_1_1_16_1_148",
        "X_1_1_1_1_1_1_9_1_1_17_1_148",
        "X_1_1_1_1_1_1_50_1_1_18_1_148",
        "X_1_1_1_1_1_1_10_1_1_19_1_148",
        "X_1_1_1_1_1_1_51_1_1_20_1_148",
        "X_1_1_1_1_1_1_11_1_1_21_1_148",
        "X_1_1_1_1_1_1_52_1_1_22_1_148",
        "X_1_1_1_1_1_1_12_1_1_23_1_148",
        "X_1_1_1_1_1_1_53_1_1_24_1_148",
        "X_1_1_1_1_1_1_13_1_1_25_1_148",
        "X_1_1_1_1_1_1_54_1_1_26_1_148",
        "X_1_1_1_1_1_1_14_1_1_27_1_148",
        "X_1_1_1_1_1_1_55_1_1_28_1_148",
        "X_1_1_1_1_1_1_15_1_1_29_1_148",
        "X_1_1_1_1_1_1_56_1_1_30_1_148",
        "X_1_1_1_1_1_1_16_1_1_31_1_148",
        "X_1_1_1_1_1_1_57_1_1_32_1_148",
        "X_1_1_1_1_1_1_17_1_1_33_1_148",
        "X_1_1_1_1_1_1_58_1_1_34_1_148",
        "X_1_1_1_1_1_1_18_1_1_35_1_148",
        "X_1_1_1_1_1_1_59_1_1_36_1_148",
        "X_1_1_1_1_1_1_19_1_1_37_1_148",
        "X_1_1_1_1_1_1_60_1_1_38_1_148",
        "X_1_1_1_1_1_1_20_1_1_39_1_148",
        "X_1_1_1_1_1_1_61_1_1_40_1_148",
        "X_1_1_1_1_1_1_21_1_1_41_1_148",
        "X_1_1_1_1_1_1_62_1_1_42_1_148",
        "X_1_1_1_1_1_1_22_1_1_43_1_148",
        "X_1_1_1_1_1_1_63_1_1_44_1_148",
        "X_1_1_1_1_1_1_23_1_1_45_1_148",
        "X_1_1_1_1_1_1_64_1_1_46_1_148",
        "X_1_1_1_1_1_1_24_1_1_47_1_148",
        "X_1_1_1_1_1_1_65_1_1_48_1_148",
        "X_1_1_1_1_1_1_25_1_1_49_1_148",
        "X_1_1_1_1_1_1_66_1_1_50_1_148",
        "X_1_1_1_1_1_1_26_1_1_51_1_148",
        "X_1_1_1_1_1_1_67_1_1_52_1_148",
        "X_1_1_1_1_1_1_27_1_1_53_1_148",
        "X_1_1_1_1_1_1_68_1_1_54_1_148",
        "X_1_1_1_1_1_1_28_1_1_55_1_148",
        "X_1_1_1_1_1_1_69_1_1_56_1_148",
        "X_1_1_1_1_1_1_29_1_1_57_1_148",
        "X_1_1_1_1_1_1_70_1_1_58_1_148",
        "X_1_1_1_1_1_1_30_1_1_59_1_148",
        "X_1_1_1_1_1_1_71_1_1_60_1_148",
        "X_1_1_1_1_1_1_31_1_1_61_1_148",
        "X_1_1_1_1_1_1_72_1_1_62_1_148",
        "X_1_1_1_1_1_1_32_1_1_63_1_148",
        "X_1_1_1_1_1_1_73_1_1_64_1_148",
        "X_1_1_1_1_1_1_33_1_1_65_1_148",
        "X_1_1_1_1_1_1_74_1_1_66_1_148",
        "X_1_1_1_1_1_1_34_1_1_67_1_148",
        "X_1_1_1_1_1_1_75_1_1_68_1_148",
        "X_1_1_1_1_1_1_35_1_1_69_1_148",
        "X_1_1_1_1_1_1_76_1_1_70_1_148",
        "X_1_1_1_1_1_1_36_1_1_71_1_148",
        "X_1_1_1_1_1_1_77_1_1_72_1_148",
        "X_1_1_1_1_1_1_37_1_1_73_1_148",
        "X_1_1_1_1_1_1_78_1_1_74_1_148",
        "X_1_1_1_1_1_1_38_1_1_75_1_148",
        "X_1_1_1_1_1_1_79_1_1_76_1_148",
        "X_1_1_1_1_1_1_39_1_1_77_1_148",
        "X_1_1_1_1_1_1_80_1_1_78_1_148",
        "X_1_1_1_1_1_1_40_1_1_79_1_148",
        "X_1_1_1_1_1_1_81_1_1_80_1_148",
        "X_1_1_1_1_1_1_41_1_1_81_1_148"
],
      "CsaImage.ProtocolSliceNumber": [0, 1, 2, 3, 4, 5, 6, 7, 8, 9, 10, 11, 12, 13, 14, 15, 16, 17, 18, 19, 20, 21, 22, 23, 24, 25, 26, 27, 28, 29, 30, 31, 32, 33, 34, 35, 36, 37, 38, 39, 40, 41, 42, 43, 44, 45, 46, 47, 48, 49, 50, 51, 52, 53, 54, 55, 56, 57, 58, 59, 60, 61, 62, 63, 64, 65, 66, 67, 68, 69, 70, 71, 72, 73, 74, 75, 76, 77, 78, 79, 80],
      "CsaImage.RFSWDDataType": [
        "predicted",
        "predicted",
        "predicted",
        "predicted",
        "predicted",
        "predicted",
        "predicted",
        "predicted",
        "predicted",
        "predicted",
        "predicted",
        "predicted",
        "predicted",
        "predicted",
        "predicted",
        "predicted",
        "predicted",
        "predicted",
        "predicted",
        "predicted",
        "predicted",
        "predicted",
        "predicted",
        "measured",
        "predicted",
        "measured",
        "predicted",
        "predicted",
        "predicted",
        "predicted",
        "predicted",
        "predicted",
        "predicted",
        "predicted",
        "predicted",
        "predicted",
        "predicted",
        "predicted",
        "predicted",
        "predicted",
        "predicted",
        "predicted",
        "predicted",
        "predicted",
        "predicted",
        "predicted",
        "predicted",
        "predicted",
        "predicted",
        "predicted",
        "measured",
        "predicted",
        "measured",
        "predicted",
        "predicted",
        "predicted",
        "predicted",
        "predicted",
        "predicted",
        "predicted",
        "predicted",
        "predicted",
        "predicted",
        "predicted",
        "predicted",
        "predicted",
        "predicted",
        "predicted",
        "predicted",
        "predicted",
        "predicted",
        "predicted",
        "predicted",
        "predicted",
        "predicted",
        "predicted",
        "predicted",
        "measured",
        "predicted",
        "measured",
        "predicted"
],
      "CsaImage.SlicePosition_PCS": [
        [-119.31658047, -126.52163146, -84.68306829],
        [-119.26685208, -126.84516637, -83.0148821],
        [-119.21712416, -127.16870133, -81.3466921],
        [-119.16739577, -127.4922363, -79.67850591],
        [-119.11766737, -127.81577114, -78.01031591],
        [-119.06793898, -128.13930611, -76.34212591],
        [-119.01821106, -128.46284107, -74.67393972],
        [-118.96848267, -128.78637604, -73.00574971],
        [-118.91875428, -129.109911, -71.33756353],
        [-118.86902588, -129.43344573, -69.66937352],
        [-118.81929749, -129.7569807, -68.00118734],
        [-118.76956957, -130.08051566, -66.33299733],
        [-118.71984118, -130.40405063, -64.66480733],
        [-118.67011279, -130.72758559, -62.99662114],
        [-118.62038439, -131.05112056, -61.32843114],
        [-118.570656, -131.37465553, -59.66024495],
        [-118.52092808, -131.69819049, -57.99205495],
        [-118.47119969, -132.02172546, -56.32386876],
        [-118.42147129, -132.34526042, -54.65567876],
        [-118.3717429, -132.66879539, -52.98749067],
        [-118.32201498, -132.99232988, -51.31930257],
        [-118.27228659, -133.31586484, -49.65111448],
        [-118.2225582, -133.63939981, -47.98292638],
        [-118.1728298, -133.96293477, -46.31473829],
        [-118.12310141, -134.28646974, -44.64655019],
        [-118.07337349, -134.6100047, -42.9783621],
        [-118.0236451, -134.93353967, -41.31017209],
        [-117.97391671, -135.25707463, -39.641984],
        [-117.92418831, -135.5806096, -37.9737959],
        [-117.87445992, -135.90414457, -36.30560781],
        [-117.824732, -136.22767953, -34.63741971],
        [-117.77500361, -136.5512145, -32.96923162],
        [-117.72527522, -136.87474946, -31.30104257],
        [-117.67554682, -137.19828443, -29.63285447],
        [-117.6258189, -137.52181939, -27.96466638],
        [-117.57609051, -137.84535436, -26.29647781],
        [-117.52636212, -138.16888932, -24.62828971],
        [-117.47663372, -138.49242429, -22.96010138],
        [-117.42690533, -138.81595926, -21.2919131],
        [-117.37717741, -139.13949422, -19.62372483],
        [-117.32744902, -139.46302919, -17.95553638],
        [-117.27772063, -139.7865632, -16.28734828],
        [-117.22799223, -140.11009816, -14.61915971],
        [-117.17826384, -140.43363313, -12.95097162],
        [-117.12853592, -140.75716809, -11.28278352],
        [-117.07880753, -141.08070306, -9.61459447],
        [-117.02907914, -141.40423803, -7.94640638],
        [-116.97935074, -141.72777299, -6.27821828],
        [-116.92962235, -142.05130891, -4.61003019],
        [-116.87989443, -142.37484292, -2.94184209],
        [-116.83016604, -142.69837884, -1.273654],
        [-116.78043764, -143.02191285, 0.3945341],
        [-116.73070925, -143.34544877, 2.0627241],
        [-116.68098133, -143.66898278, 3.7309122],
        [-116.63125294, -143.9925187, 5.39910029],
        [-116.58152455, -144.31605272, 7.06728839],
        [-116.53179615, -144.63958673, 8.73547648],
        [-116.48206776, -144.96312265, 10.40366458],
        [-116.43233984, -145.28665666, 12.07185267],
        [-116.38261145, -145.61019258, 13.74004267],
        [-116.33288306, -145.93372659, 15.40822886],
        [-116.28315466, -146.25726251, 17.07641886],
        [-116.23342627, -146.58079652, 18.74460505],
        [-116.18369835, -146.90433244, 20.41279505],
        [-116.13396996, -147.22786645, 22.08098124],
        [-116.08424157, -147.55140237, 23.74917124],
        [-116.03451341, -147.87493638, 25.41736125],
        [-115.98478502, -148.1984723, 27.08554743],
        [-115.93505662, -148.52200631, 28.75373744],
        [-115.88532847, -148.84554223, 30.42192362],
        [-115.83560007, -149.16907624, 32.09011363],
        [-115.78587192, -149.49261216, 33.75829982],
        [-115.73614353, -149.81614618, 35.42648982],
        [-115.68641537, -150.13968209, 37.09467601],
        [-115.63668698, -150.46321611, 38.76286601],
        [-115.58695858, -150.78675203, 40.43105601],
        [-115.53723043, -151.11028604, 42.0992422],
        [-115.48750204, -151.43382196, 43.76742839],
        [-115.43777388, -151.75735597, 45.43561839],
        [-115.38804549, -152.08089189, 47.10380839],
        [-115.33831733, -152.4044259, 48.77199839]
],
      "CsaImage.TimeAfterStart": [16.4, 18.515, 16.55, 18.6675, 16.7025, 18.8175, 16.8525, 18.9675, 17.005, 19.12, 17.155, 19.27, 17.3075, 19.4225, 17.4575, 19.5725, 17.6075, 19.725, 17.76, 19.875, 17.91, 20.025, 18.0625, 20.1775, 18.2125, 20.3275, 18.365, 16.4, 18.515, 16.55, 18.6675, 16.7025, 18.8175, 16.8525, 18.9675, 17.005, 19.12, 17.155, 19.27, 17.3075, 19.4225, 17.4575, 19.5725, 17.6075, 19.725, 17.76, 19.875, 17.91, 20.025, 18.0625, 20.1775, 18.2125, 20.3275, 18.365, 16.4, 18.515, 16.55, 18.6675, 16.7025, 18.8175, 16.8525, 18.9675, 17.005, 19.12, 17.155, 19.27, 17.3075, 19.4225, 17.4575, 19.5725, 17.6075, 19.725, 17.76, 19.875, 17.91, 20.025, 18.0625, 20.1775, 18.2125, 20.3275, 18.365],
      "ImagePositionPatient": [
        [-119.31658047098, -126.52163145953, -84.683068287878],
        [-119.26685207742, -126.84516636545, -83.014882100134],
        [-119.21712416071, -127.16870133096, -81.346692097692],
        [-119.16739576715, -127.49223629648, -79.678505909948],
        [-119.1176673736, -127.81577114278, -78.010315907507],
        [-119.06793898004, -128.1393061083, -76.342125905065],
        [-119.01821106333, -128.46284107381, -74.673939717321],
        [-118.96848266977, -128.78637603933, -73.00574971488],
        [-118.91875427622, -129.10991100484, -71.337563527136],
        [-118.86902588266, -129.43344573194, -69.669373524694],
        [-118.81929748911, -129.75698069745, -68.00118733695],
        [-118.76956957239, -130.08051566297, -66.332997334509],
        [-118.71984117883, -130.40405062848, -64.664807332067],
        [-118.67011278528, -130.727585594, -62.996621144323],
        [-118.62038439172, -131.05112055951, -61.328431141882],
        [-118.57065599817, -131.37465552503, -59.660244954137],
        [-118.52092808145, -131.69819049054, -57.992054951696],
        [-118.4711996879, -132.02172545606, -56.323868763952],
        [-118.42147129434, -132.34526042157, -54.655678761511],
        [-118.37174290079, -132.66879538709, -52.987490666418],
        [-118.32201498407, -132.99232987577, -51.319302571325],
        [-118.27228659052, -133.31586484128, -49.651114476232],
        [-118.22255819696, -133.6393998068, -47.982926381139],
        [-118.17282980341, -133.96293477231, -46.314738286047],
        [-118.12310140985, -134.28646973783, -44.646550190954],
        [-118.07337349313, -134.61000470334, -42.978362095861],
        [-118.02364509958, -134.93353966886, -41.31017209342],
        [-117.97391670603, -135.25707463437, -39.641983998327],
        [-117.92418831247, -135.58060959989, -37.973795903234],
        [-117.87445991892, -135.9041445654, -36.305607808141],
        [-117.8247320022, -136.22767953092, -34.637419713049],
        [-117.77500360864, -136.55121449643, -32.969231617956],
        [-117.72527521509, -136.87474946195, -31.301042569189],
        [-117.67554682153, -137.19828442746, -29.632854474096],
        [-117.62581890482, -137.52181939298, -27.964666379003],
        [-117.57609051126, -137.84535435849, -26.296477807073],
        [-117.52636211771, -138.16888932401, -24.62828971198],
        [-117.47663372415, -138.49242428953, -22.960101378469],
        [-117.4269053306, -138.81595925504, -21.291913104562],
        [-117.37717741388, -139.13949422056, -19.623724830656],
        [-117.32744902033, -139.46302918607, -17.955536377935],
        [-117.27772062677, -139.78656319791, -16.287348282842],
        [-117.22799223322, -140.11009816343, -14.619159710912],
        [-117.17826383966, -140.43363312894, -12.95097161582],
        [-117.12853592294, -140.75716809446, -11.282783520727],
        [-117.07880752939, -141.08070305997, -9.6145944719597],
        [-117.02907913583, -141.40423802549, -7.946406376867],
        [-116.97935074228, -141.727772991, -6.2782182817742],
        [-116.92962234873, -142.05130891019, -4.6100301866814],
        [-116.87989443201, -142.37484292203, -2.9418420915886],
        [-116.83016603845, -142.69837884122, -1.2736539964959],
        [-116.7804376449, -143.02191285306, 0.39453409859691],
        [-116.73070925134, -143.34544877225, 2.0627241010383],
        [-116.68098133463, -143.66898278409, 3.7309121961311],
        [-116.63125294107, -143.99251870328, 5.3991002912239],
        [-116.58152454752, -144.31605271512, 7.0672883863166],
        [-116.53179615396, -144.63958672696, 8.7354764814094],
        [-116.48206776041, -144.96312264615, 10.403664576502],
        [-116.43233984369, -145.28665665799, 12.071852671595],
        [-116.38261145014, -145.61019257718, 13.740042674036],
        [-116.33288305658, -145.93372658902, 15.408228861781],
        [-116.28315466303, -146.25726250821, 17.076418864222],
        [-116.23342626947, -146.58079652006, 18.744605051966],
        [-116.18369835275, -146.90433243924, 20.412795054407],
        [-116.1339699592, -147.22786645109, 22.080981242152],
        [-116.08424156564, -147.55140237027, 23.749171244593],
        [-116.03451341051, -147.87493638212, 25.417361247034],
        [-115.98478501695, -148.19847230131, 27.085547434779],
        [-115.9350566234, -148.52200631315, 28.75373743722],
        [-115.88532846826, -148.84554223234, 30.421923624964],
        [-115.83560007471, -149.16907624418, 32.090113627406],
        [-115.78587191957, -149.49261216337, 33.75829981515],
        [-115.73614352602, -149.81614617521, 35.426489817591],
        [-115.68641537088, -150.1396820944, 37.094676005335],
        [-115.63668697733, -150.46321610624, 38.762866007777],
        [-115.58695858377, -150.78675202543, 40.431056010218],
        [-115.53723042864, -151.11028603727, 42.099242197962],
        [-115.48750203508, -151.43382195646, 43.767428385706],
        [-115.43777387995, -151.7573559683, 45.435618388148],
        [-115.38804548639, -152.08089188749, 47.103808390589],
        [-115.33831733125, -152.40442589933, 48.771998393031]
],
      "InstanceCreationTime": ["173622.638000", "173622.727000", "173622.650000", "173622.733000", "173622.656000", "173622.739000", "173622.662000", "173622.746000", "173622.668000", "173622.754000", "173622.674000", "173622.761000", "173622.680000", "173622.768000", "173622.686000", "173622.775000", "173622.692000", "173622.781000", "173622.698000", "173622.787000", "173622.703000", "173622.802000", "173622.709000", "173622.808000", "173622.715000", "173622.814000", "173622.721000", "173622.646000", "173622.729000", "173622.652000", "173622.735000", "173622.658000", "173622.741000", "173622.664000", "173622.748000", "173622.670000", "173622.756000", "173622.676000", "173622.764000", "173622.682000", "173622.771000", "173622.688000", "173622.777000", "173622.694000", "173622.783000", "173622.700000", "173622.797000", "173622.705000", "173622.804000", "173622.711000", "173622.810000", "173622.717000", "173622.816000", "173622.723000", "173622.648000", "173622.731000", "173622.654000", "173622.737000", "173622.660000", "173622.743000", "173622.666000", "173622.751000", "173622.672000", "173622.759000", "173622.678000", "173622.766000", "173622.684000", "173622.773000", "173622.690000", "173622.779000", "173622.696000", "173622.785000", "173622.701000", "173622.800000", "173622.707000", "173622.806000", "173622.713000", "173622.812000", "173622.719000", "173622.818000", "173622.725000"],
      "InstanceNumber": [1, 2, 3, 4, 5, 6, 7, 8, 9, 10, 11, 12, 13, 14, 15, 16, 17, 18, 19, 20, 21, 22, 23, 24, 25, 26, 27, 28, 29, 30, 31, 32, 33, 34, 35, 36, 37, 38, 39, 40, 41, 42, 43, 44, 45, 46, 47, 48, 49, 50, 51, 52, 53, 54, 55, 56, 57, 58, 59, 60, 61, 62, 63, 64, 65, 66, 67, 68, 69, 70, 71, 72, 73, 74, 75, 76, 77, 78, 79, 80, 81],
      "LargestImagePixelValue": [12345, 8995, 11815, 17730, 16002, 15191, 17397, 12317, 21015, 20254, 24370, 23777, 17688, 20818, 22048, 26871, 28958, 54158, 65535, 65535, 65535, 52211, 43413, 52388, 57421, 60184, 63145, 52070, 45753, 43584, 59256, 65535, 65535, 65535, 59541, 57360, 49987, 51555, 48862, 47818, 58961, 65535, 51759, 47633, 37489, 45900, 45154, 50676, 50343, 46670, 53347, 57964, 50078, 65535, 52065, 58261, 50682, 56310, 55396, 46678, 53958, 49019, 51436, 54362, 49104, 53981, 52157, 45104, 42867, 48463, 47528, 46424, 65535, 59386, 65535, 62008, 62428, 59986, 65535, 65535, 60846],
      "SliceLocation": [-62.509732511129, -60.809734597763, -59.109732943689, -57.409735018979, -55.709733373643, -54.00973170562, -52.309733794859, -50.609732126836, -48.909734202126, -47.209732579478, -45.509734654768, -43.809733000693, -42.10973133267, -40.40973340796, -38.709731739937, -37.009733815228, -35.309732161153, -33.609734236443, -31.90973256842, -30.209732772054, -28.509733080385, -26.809733284019, -25.109733487652, -23.409733691286, -21.70973389492, -20.009734112502, -18.309732444478, -16.609732648112, -14.909732851746, -13.209733055379, -11.509733272961, -9.8097334765951, -8.1097327444003, -6.4097329480339, -4.709733165616, -3.0097329013354, -1.3097331049691, 0.39026692535441, 2.0902668971886, 3.7902668550744, 5.4902670023764, 7.1902666172445, 8.8902668815251, 10.590266677891, 12.290266460309, 13.990267192504, 15.690266988871, 17.390266785237, 19.090266763101, 20.790266364021, 22.490266341886, 24.190265956754, 25.890267806275, 27.590267407195, 29.29026738506, 30.990266999928, 32.690266614796, 34.390266592661, 36.09026619358, 37.790268043102, 39.490265786313, 41.190267635834, 42.890265379046, 44.590267214619, 46.29026495783, 47.990266807351, 49.690268286902, 51.39026639311, 53.090267879635, 54.790265978868, 56.490267465393, 58.190265564627, 59.890267051152, 61.590265150385, 63.29026663691, 64.990268486432, 66.690266222669, 68.390264328877, 70.090265808427, 71.790267657949, 73.4902691375],
