{
  "AcquisitionMatrixPE": 140,
  "AcquisitionNumber": 1,
  "AcquisitionTime": "10:48:37.012500",
  "BandwidthPerPixelPhaseEncode": 10.352,
  "BaseResolution": 140,
  "BodyPartExamined": "BRAIN",
  "ConsistencyInfo": "N4_VE11E_LATEST_20181129",
  "ConversionSoftware": "dcm2niix",
  "ConversionSoftwareVersion": "v1.0.20201102",
  "DerivedVendorReportedEchoSpacing": 0.000689998,
  "DeviceSerialNumber": "66112",
  "DiffusionScheme": "Monopolar",
  "DwellTime": 2.1e-06,
  "EchoTime": 0.088,
  "EchoTrainLength": 105,
  "EffectiveEchoSpacing": 0.000689998,
  "FlipAngle": 90,
  "ImageComments": "Unaliased MB3/PE3",
  "ImageOrientationPatientDICOM": [0.999072, -0.0239421, 0.0358103, 0.019532, 0.992727, 0.118794],
  "ImageType": [
    "ORIGINAL",
    "PRIMARY",
    "DIFFUSION",
    "NONE",
    "MB",
    "ND"
],
  "ImagingFrequency": 123.252,
  "InPlanePhaseEncodingDirectionDICOM": "COL",
  "InstitutionAddress": "Maynard 3,Hanover,NH,US,03755",
  "InstitutionName": "Dartmouth College - PBS",
  "InstitutionalDepartmentName": "Department",
  "IntendedFor": [
    "ses-01/dwi/sub-0059_ses-01_acq-96dirX6b0Xmb_dwi.nii.gz"
],
  "MRAcquisitionType": "2D",
  "MagneticFieldStrength": 3,
  "Manufacturer": "Siemens",
  "ManufacturersModelName": "Prisma",
  "Modality": "MR",
  "MultibandAccelerationFactor": 3,
  "PartialFourier": 0.75,
  "PatientPosition": "HFS",
  "PercentPhaseFOV": 100,
  "PercentSampling": 100,
  "PhaseEncodingDirection": "j",
  "PhaseEncodingSteps": 105,
  "PhaseResolution": 1,
  "PixelBandwidth": 1700,
  "ProcedureStepDescription": "Wager_Wager^1076_spacetop",
  "ProtocolName": "dwi_acq-discorr-PA",
  "PulseSequenceDetails": "%CustomerSeq%\\cmrr_mbep2d_diff",
  "ReceiveCoilActiveElements": "HEA;HEP",
  "ReceiveCoilName": "Head_32",
  "ReconMatrixPE": 140,
  "RepetitionTime": 4.1,
  "SAR": 0.157804,
  "ScanOptions": "PFP\\FS",
  "ScanningSequence": "EP",
  "SequenceName": "ep_b0",
  "SequenceVariant": "SK\\SS",
  "SeriesDescription": "dwi_acq-discorr-PA",
  "SeriesNumber": 6,
  "ShimSetting": [4158, -7753, -7260, 561, -73, -206, -5, 19],
  "SliceThickness": 1.7,
  "SliceTiming": [0, 2.10938, 0.14844, 2.26562, 0.29688, 2.41406, 0.45312, 2.57031, 0.60156, 2.71875, 0.75, 2.86719, 0.90625, 3.01562, 1.05469, 3.17188, 1.20312, 3.32031, 1.35938, 3.46875, 1.50781, 3.625, 1.65625, 3.77344, 1.8125, 3.92969, 1.96094, 0, 2.10938, 0.14844, 2.26562, 0.29688, 2.41406, 0.45312, 2.57031, 0.60156, 2.71875, 0.75, 2.86719, 0.90625, 3.01562, 1.05469, 3.17188, 1.20312, 3.32031, 1.35938, 3.46875, 1.50781, 3.625, 1.65625, 3.77344, 1.8125, 3.92969, 1.96094, 0, 2.10938, 0.14844, 2.26562, 0.29688, 2.41406, 0.45312, 2.57031, 0.60156, 2.71875, 0.75, 2.86719, 0.90625, 3.01562, 1.05469, 3.17188, 1.20312, 3.32031, 1.35938, 3.46875, 1.50781, 3.625, 1.65625, 3.77344, 1.8125, 3.92969, 1.96094],
  "SoftwareVersions": "syngo MR E11",
  "SpacingBetweenSlices": 1.7,
  "StationName": "AWP66112",
  "TotalReadoutTime": 0.0959097,
  "TxRefAmp": 246.974,
  "WipMemBlock": "dce70069-1464-45f7-a271-ca8097694f31||Sequence: R016 ve11e/master r/434b28f1; Aug  7 2019 19:06:17 by eja",
  "dcmmeta_affine": [
    [-1.712694525718689, 0.03348349407315254, 0.06526994705200195, 115.6980209350586],
    [0.04104360565543175, 1.7018173933029175, 0.20057296752929688, -104.75985717773438],
    [0.06138913333415985, -0.20364713668823242, 1.6868667602539062, -49.75264358520508],
    [0.0, 0.0, 0.0, 1.0]
],
  "dcmmeta_reorient_transform": [
    [0.0, -1.0, 0.0, 139.0],
    [1.0, 0.0, 0.0, 0.0],
    [0.0, 0.0, -1.0, 80.0],
    [0.0, 0.0, 0.0, 1.0]
],
  "dcmmeta_shape": [140, 140, 81],
  "dcmmeta_slice_dim": 2,
  "dcmmeta_version": 0.6,
  "global": {
    "const": {
      "AccessionNumber": "A003885",
      "AcquisitionMatrix": [140, 0, 0, 140],
      "AcquisitionNumber": 1,
      "AngioFlag": "N",
      "BitsAllocated": 16,
      "BitsStored": 16,
      "BodyPartExamined": "BRAIN",
      "Columns": 140,
      "EchoNumbers": 1,
      "EchoTime": 88.0,
      "EchoTrainLength": 105,
      "FlipAngle": 90.0,
      "HighBit": 15,
      "ImageOrientationPatient": [0.99907176730808, -0.0239421021216, 0.03581032691723, 0.01953203840534, 0.99272677373111, 0.11879415891848],
      "ImageType": [
        "ORIGINAL",
        "PRIMARY",
        "DIFFUSION",
        "NONE",
        "MB",
        "ND"
],
      "ImagedNucleus": "1H",
      "ImagingFrequency": 123.252145,
      "InPlanePhaseEncodingDirection": "COL",
      "MRAcquisitionType": "2D",
      "MagneticFieldStrength": 3.0,
      "Manufacturer": "SIEMENS",
      "ManufacturerModelName": "Prisma",
      "Modality": "MR",
      "NumberOfAverages": 1.0,
      "NumberOfPhaseEncodingSteps": 105,
      "PercentPhaseFieldOfView": 100.0,
      "PercentSampling": 100.0,
      "PerformedProcedureStepStartTime": "102705.344000",
      "PhotometricInterpretation": "MONOCHROME2",
      "PixelBandwidth": 1700.0,
      "PixelRepresentation": 0,
      "PixelSpacing": [1.7142857313156, 1.7142857313156],
      "ProtocolName": "dwi_acq-discorr-PA",
      "RepetitionTime": 4100.0,
      "Rows": 140,
      "SAR": 0.15780430769238,
      "SamplesPerPixel": 1,
      "ScanOptions": [
        "PFP",
        "FS"
],
      "ScanningSequence": "EP",
      "SequenceName": "ep_b0",
      "SequenceVariant": [
        "SK",
        "SS"
],
      "SeriesDescription": "dwi_acq-discorr-PA",
      "SeriesNumber": 6,
      "SeriesTime": "104841.633000",
      "SliceThickness": 1.7000000476837,
      "SmallestImagePixelValue": 0,
      "SoftwareVersions": "syngo MR E11",
      "SpacingBetweenSlices": 1.7,
      "SpecificCharacterSet": "ISO_IR 100",
      "StudyID": "1",
      "StudyTime": "102705.293000",
      "TransmitCoilName": "Body",
      "VariableFlipAngleFlag": "N",
      "WindowCenterWidthExplanation": "Algo1"
    },
    "slices": {
      "AcquisitionTime": ["104837.012500", "104839.127500", "104837.165000", "104839.280000", "104837.315000", "104839.430000", "104837.467500", "104839.582500", "104837.617500", "104839.732500", "104837.767500", "104839.885000", "104837.920000", "104840.035000", "104838.070000", "104840.187500", "104838.222500", "104840.337500", "104838.372500", "104840.487500", "104838.525000", "104840.640000", "104838.675000", "104840.790000", "104838.827500", "104840.942500", "104838.977500", "104837.012500", "104839.127500", "104837.165000", "104839.280000", "104837.315000", "104839.430000", "104837.467500", "104839.582500", "104837.617500", "104839.732500", "104837.767500", "104839.885000", "104837.920000", "104840.035000", "104838.070000", "104840.187500", "104838.222500", "104840.337500", "104838.372500", "104840.487500", "104838.525000", "104840.640000", "104838.675000", "104840.790000", "104838.827500", "104840.942500", "104838.977500", "104837.012500", "104839.127500", "104837.165000", "104839.280000", "104837.315000", "104839.430000", "104837.467500", "104839.582500", "104837.617500", "104839.732500", "104837.767500", "104839.885000", "104837.920000", "104840.035000", "104838.070000", "104840.187500", "104838.222500", "104840.337500", "104838.372500", "104840.487500", "104838.525000", "104840.640000", "104838.675000", "104840.790000", "104838.827500", "104840.942500", "104838.977500"],
      "ContentTime": ["104841.636000", "104841.724000", "104841.643000", "104841.731000", "104841.649000", "104841.737000", "104841.655000", "104841.743000", "104841.662000", "104841.749000", "104841.668000", "104841.756000", "104841.674000", "104841.762000", "104841.679000", "104841.768000", "104841.685000", "104841.774000", "104841.691000", "104841.781000", "104841.699000", "104841.787000", "104841.705000", "104841.792000", "104841.711000", "104841.798000", "104841.719000", "104841.639000", "104841.727000", "104841.645000", "104841.733000", "104841.651000", "104841.739000", "104841.657000", "104841.745000", "104841.664000", "104841.751000", "104841.670000", "104841.758000", "104841.675000", "104841.764000", "104841.681000", "104841.770000", "104841.687000", "104841.777000", "104841.693000", "104841.783000", "104841.701000", "104841.789000", "104841.707000", "104841.794000", "104841.713000", "104841.800000", "104841.721000", "104841.641000", "104841.729000", "104841.647000", "104841.735000", "104841.653000", "104841.741000", "104841.660000", "104841.747000", "104841.666000", "104841.753000", "104841.672000", "104841.760000", "104841.677000", "104841.766000", "104841.683000", "104841.772000", "104841.689000", "104841.779000", "104841.695000", "104841.785000", "104841.703000", "104841.791000", "104841.709000", "104841.796000", "104841.717000", "104841.802000", "104841.722000"],
      "CsaImage.GSWDDataType": [
        "predicted",
        "predicted",
        "predicted",
        "predicted",
        "predicted",
        "predicted",
        "predicted",
        "predicted",
        "predicted",
        "predicted",
        "predicted",
        "predicted",
        "predicted",
        "predicted",
        "predicted",
        "predicted",
        "predicted",
        "predicted",
        "predicted",
        "predicted",
        "predicted",
        "predicted",
        "predicted",
        "measured",
        "predicted",
        "measured",
        "predicted",
        "predicted",
        "predicted",
        "predicted",
        "predicted",
        "predicted",
        "predicted",
        "predicted",
        "predicted",
        "predicted",
        "predicted",
        "predicted",
        "predicted",
        "predicted",
        "predicted",
        "predicted",
        "predicted",
        "predicted",
        "predicted",
        "predicted",
        "predicted",
        "predicted",
        "predicted",
        "predicted",
        "measured",
        "predicted",
        "measured",
        "predicted",
        "predicted",
        "predicted",
        "predicted",
        "predicted",
        "predicted",
        "predicted",
        "predicted",
        "predicted",
        "predicted",
        "predicted",
        "predicted",
        "predicted",
        "predicted",
        "predicted",
        "predicted",
        "predicted",
        "predicted",
        "predicted",
        "predicted",
        "predicted",
        "predicted",
        "predicted",
        "predicted",
        "measured",
        "predicted",
        "measured",
        "predicted"
],
      "CsaImage.ICE_Dims": [
        "X_1_1_1_1_1_1_1_1_1_1_1_38",
        "X_1_1_1_1_1_1_42_1_1_2_1_38",
        "X_1_1_1_1_1_1_2_1_1_3_1_38",
        "X_1_1_1_1_1_1_43_1_1_4_1_38",
        "X_1_1_1_1_1_1_3_1_1_5_1_38",
        "X_1_1_1_1_1_1_44_1_1_6_1_38",
        "X_1_1_1_1_1_1_4_1_1_7_1_38",
        "X_1_1_1_1_1_1_45_1_1_8_1_38",
        "X_1_1_1_1_1_1_5_1_1_9_1_38",
        "X_1_1_1_1_1_1_46_1_1_10_1_38",
        "X_1_1_1_1_1_1_6_1_1_11_1_38",
        "X_1_1_1_1_1_1_47_1_1_12_1_38",
        "X_1_1_1_1_1_1_7_1_1_13_1_38",
        "X_1_1_1_1_1_1_48_1_1_14_1_38",
        "X_1_1_1_1_1_1_8_1_1_15_1_38",
        "X_1_1_1_1_1_1_49_1_1_16_1_38",
        "X_1_1_1_1_1_1_9_1_1_17_1_38",
        "X_1_1_1_1_1_1_50_1_1_18_1_38",
        "X_1_1_1_1_1_1_10_1_1_19_1_38",
        "X_1_1_1_1_1_1_51_1_1_20_1_38",
        "X_1_1_1_1_1_1_11_1_1_21_1_38",
        "X_1_1_1_1_1_1_52_1_1_22_1_38",
        "X_1_1_1_1_1_1_12_1_1_23_1_38",
        "X_1_1_1_1_1_1_53_1_1_24_1_38",
        "X_1_1_1_1_1_1_13_1_1_25_1_38",
        "X_1_1_1_1_1_1_54_1_1_26_1_38",
        "X_1_1_1_1_1_1_14_1_1_27_1_38",
        "X_1_1_1_1_1_1_55_1_1_28_1_38",
        "X_1_1_1_1_1_1_15_1_1_29_1_38",
        "X_1_1_1_1_1_1_56_1_1_30_1_38",
        "X_1_1_1_1_1_1_16_1_1_31_1_38",
        "X_1_1_1_1_1_1_57_1_1_32_1_38",
        "X_1_1_1_1_1_1_17_1_1_33_1_38",
        "X_1_1_1_1_1_1_58_1_1_34_1_38",
        "X_1_1_1_1_1_1_18_1_1_35_1_38",
        "X_1_1_1_1_1_1_59_1_1_36_1_38",
        "X_1_1_1_1_1_1_19_1_1_37_1_38",
        "X_1_1_1_1_1_1_60_1_1_38_1_38",
        "X_1_1_1_1_1_1_20_1_1_39_1_38",
        "X_1_1_1_1_1_1_61_1_1_40_1_38",
        "X_1_1_1_1_1_1_21_1_1_41_1_38",
        "X_1_1_1_1_1_1_62_1_1_42_1_38",
        "X_1_1_1_1_1_1_22_1_1_43_1_38",
        "X_1_1_1_1_1_1_63_1_1_44_1_38",
        "X_1_1_1_1_1_1_23_1_1_45_1_38",
        "X_1_1_1_1_1_1_64_1_1_46_1_38",
        "X_1_1_1_1_1_1_24_1_1_47_1_38",
        "X_1_1_1_1_1_1_65_1_1_48_1_38",
        "X_1_1_1_1_1_1_25_1_1_49_1_38",
        "X_1_1_1_1_1_1_66_1_1_50_1_38",
        "X_1_1_1_1_1_1_26_1_1_51_1_38",
        "X_1_1_1_1_1_1_67_1_1_52_1_38",
        "X_1_1_1_1_1_1_27_1_1_53_1_38",
        "X_1_1_1_1_1_1_68_1_1_54_1_38",
        "X_1_1_1_1_1_1_28_1_1_55_1_38",
        "X_1_1_1_1_1_1_69_1_1_56_1_38",
        "X_1_1_1_1_1_1_29_1_1_57_1_38",
        "X_1_1_1_1_1_1_70_1_1_58_1_38",
        "X_1_1_1_1_1_1_30_1_1_59_1_38",
        "X_1_1_1_1_1_1_71_1_1_60_1_38",
        "X_1_1_1_1_1_1_31_1_1_61_1_38",
        "X_1_1_1_1_1_1_72_1_1_62_1_38",
        "X_1_1_1_1_1_1_32_1_1_63_1_38",
        "X_1_1_1_1_1_1_73_1_1_64_1_38",
        "X_1_1_1_1_1_1_33_1_1_65_1_38",
        "X_1_1_1_1_1_1_74_1_1_66_1_38",
        "X_1_1_1_1_1_1_34_1_1_67_1_38",
        "X_1_1_1_1_1_1_75_1_1_68_1_38",
        "X_1_1_1_1_1_1_35_1_1_69_1_38",
        "X_1_1_1_1_1_1_76_1_1_70_1_38",
        "X_1_1_1_1_1_1_36_1_1_71_1_38",
        "X_1_1_1_1_1_1_77_1_1_72_1_38",
        "X_1_1_1_1_1_1_37_1_1_73_1_38",
        "X_1_1_1_1_1_1_78_1_1_74_1_38",
        "X_1_1_1_1_1_1_38_1_1_75_1_38",
        "X_1_1_1_1_1_1_79_1_1_76_1_38",
        "X_1_1_1_1_1_1_39_1_1_77_1_38",
        "X_1_1_1_1_1_1_80_1_1_78_1_38",
        "X_1_1_1_1_1_1_40_1_1_79_1_38",
        "X_1_1_1_1_1_1_81_1_1_80_1_38",
        "X_1_1_1_1_1_1_41_1_1_81_1_38"
],
      "CsaImage.ProtocolSliceNumber": [0, 1, 2, 3, 4, 5, 6, 7, 8, 9, 10, 11, 12, 13, 14, 15, 16, 17, 18, 19, 20, 21, 22, 23, 24, 25, 26, 27, 28, 29, 30, 31, 32, 33, 34, 35, 36, 37, 38, 39, 40, 41, 42, 43, 44, 45, 46, 47, 48, 49, 50, 51, 52, 53, 54, 55, 56, 57, 58, 59, 60, 61, 62, 63, 64, 65, 66, 67, 68, 69, 70, 71, 72, 73, 74, 75, 76, 77, 78, 79, 80],
      "CsaImage.RFSWDDataType": [
        "predicted",
        "predicted",
        "predicted",
        "predicted",
        "predicted",
        "predicted",
        "predicted",
        "predicted",
        "predicted",
        "predicted",
        "predicted",
        "predicted",
        "predicted",
        "predicted",
        "predicted",
        "predicted",
        "predicted",
        "predicted",
        "predicted",
        "predicted",
        "predicted",
        "predicted",
        "predicted",
        "measured",
        "predicted",
        "measured",
        "predicted",
        "predicted",
        "predicted",
        "predicted",
        "predicted",
        "predicted",
        "predicted",
        "predicted",
        "predicted",
        "predicted",
        "predicted",
        "predicted",
        "predicted",
        "predicted",
        "predicted",
        "predicted",
        "predicted",
        "predicted",
        "predicted",
        "predicted",
        "predicted",
        "predicted",
        "predicted",
        "predicted",
        "measured",
        "predicted",
        "measured",
        "predicted",
        "predicted",
        "predicted",
        "predicted",
        "predicted",
        "predicted",
        "predicted",
        "predicted",
        "predicted",
        "predicted",
        "predicted",
        "predicted",
        "predicted",
        "predicted",
        "predicted",
        "predicted",
        "predicted",
        "predicted",
        "predicted",
        "predicted",
        "predicted",
        "predicted",
        "predicted",
        "predicted",
        "measured",
        "predicted",
        "measured",
        "predicted"
],
      "CsaImage.SlicePosition_PCS": [
        [-120.35223045, -131.79270831, -78.05937061],
        [-120.41750028, -131.99328223, -76.37250766],
        [-120.48277023, -132.19385615, -74.68564472],
        [-120.54804006, -132.39443007, -72.99878177],
        [-120.61331, -132.59500304, -71.31191501],
        [-120.67857983, -132.79557601, -69.62505206],
        [-120.74384978, -132.99615088, -67.93818912],
        [-120.80911961, -133.19672385, -66.25132617],
        [-120.87438955, -133.39729682, -64.56445941],
        [-120.93965938, -133.59786979, -62.87759647],
        [-121.00492933, -133.79844466, -61.19073352],
        [-121.07019927, -133.99901763, -59.50386676],
        [-121.1354691, -134.1995906, -57.81700382],
        [-121.20073905, -134.40016547, -56.13014087],
        [-121.26600888, -134.60073844, -54.44327793],
        [-121.33127877, -134.80131141, -52.75641117],
        [-121.39654865, -135.00188628, -51.06954822],
        [-121.46181854, -135.20245925, -49.38268527],
        [-121.52708843, -135.40303222, -47.69582042],
        [-121.59235831, -135.60360709, -46.00895748],
        [-121.6576282, -135.80418006, -44.32209262],
        [-121.72289809, -136.00475303, -42.63522968],
        [-121.78816801, -136.20532599, -40.94836482],
        [-121.85343789, -136.40590087, -39.26149997],
        [-121.91870778, -136.60647384, -37.57463703],
        [-121.98397767, -136.8070468, -35.88777217],
        [-122.04924756, -137.00762168, -34.20090923],
        [-122.11451744, -137.20819465, -32.51404533],
        [-122.17978734, -137.40876761, -30.82718048],
        [-122.24505722, -137.60934249, -29.14031658],
        [-122.31032711, -137.80991546, -27.45345268],
        [-122.37559699, -138.01048842, -25.76658878],
        [-122.4408669, -138.2110633, -24.07972488],
        [-122.50613677, -138.41163627, -22.39286098],
        [-122.57140666, -138.61220923, -20.70599708],
        [-122.63667654, -138.8127822, -19.01913306],
        [-122.70194646, -139.01335708, -17.33226904],
        [-122.76721635, -139.21393004, -15.64540514],
        [-122.83248624, -139.41450301, -13.95854101],
        [-122.89775612, -139.61507789, -12.27167711],
        [-122.96302601, -139.81565085, -10.58481321],
        [-123.0282959, -140.01622382, -8.89794883],
        [-123.09356579, -140.2167987, -7.21108493],
        [-123.15883567, -140.41737166, -5.52422103],
        [-123.22410556, -140.61794463, -3.83735713],
        [-123.28937545, -140.81851951, -2.15049419],
        [-123.3546454, -141.01909247, -0.46362934],
        [-123.41991522, -141.21966544, 1.22323552],
        [-123.48518517, -141.42023841, 2.91009846],
        [-123.550455, -141.62081328, 4.59696332],
        [-123.61572494, -141.82138625, 6.28382626],
        [-123.68099477, -142.02195922, 7.97069111],
        [-123.74626472, -142.22253409, 9.65755406],
        [-123.81153455, -142.42310706, 11.34441891],
        [-123.87680449, -142.62368003, 13.03128186],
        [-123.94207432, -142.8242549, 14.7181448],
        [-124.00734427, -143.02482787, 16.40501156],
        [-124.0726141, -143.22540084, 18.09187451],
        [-124.13788404, -143.42597381, 19.77873746],
        [-124.20315387, -143.62654868, 21.46560422],
        [-124.26842382, -143.82712165, 23.15246716],
        [-124.33369377, -144.02769462, 24.83933011],
        [-124.39896348, -144.22826949, 26.52619305],
        [-124.46423342, -144.42884246, 28.21305981],
        [-124.52950337, -144.62941543, 29.89992276],
        [-124.59477332, -144.8299903, 31.5867857],
        [-124.66004302, -145.03056327, 33.27364865],
        [-124.72531297, -145.23113624, 34.96051541],
        [-124.79058292, -145.43171111, 36.64737836],
        [-124.85585287, -145.63228408, 38.3342413],
        [-124.92112257, -145.83285705, 40.02110806],
        [-124.98639252, -146.03343001, 41.70797101],
        [-125.05166247, -146.23400489, 43.39483395],
        [-125.11693242, -146.43457786, 45.0816969],
        [-125.18220212, -146.63515082, 46.76855984],
        [-125.24747207, -146.8357257, 48.4554266],
        [-125.31274202, -147.03629867, 50.14229336],
        [-125.37801197, -147.23687163, 51.82915249],
        [-125.44328167, -147.43744651, 53.51601925],
        [-125.50855162, -147.63801948, 55.20287839],
        [-125.57382157, -147.83859244, 56.88974515]
],
      "CsaImage.TimeAfterStart": [16.4, 18.515, 16.55, 18.6675, 16.7025, 18.8175, 16.8525, 18.97, 17.005, 19.12, 17.155, 19.27, 17.3075, 19.4225, 17.4575, 19.5725, 17.61, 19.725, 17.76, 19.875, 17.91, 20.0275, 18.0625, 20.1775, 18.2125, 20.33, 18.365, 16.4, 18.515, 16.55, 18.6675, 16.7025, 18.8175, 16.8525, 18.97, 17.005, 19.12, 17.155, 19.27, 17.3075, 19.4225, 17.4575, 19.5725, 17.61, 19.725, 17.76, 19.875, 17.91, 20.0275, 18.0625, 20.1775, 18.2125, 20.33, 18.365, 16.4, 18.515, 16.55, 18.6675, 16.7025, 18.8175, 16.8525, 18.97, 17.005, 19.12, 17.155, 19.27, 17.3075, 19.4225, 17.4575, 19.5725, 17.61, 19.725, 17.76, 19.875, 17.91, 20.0275, 18.0625, 20.1775, 18.2125, 20.33, 18.365],
      "ImagePositionPatient": [
        [-120.35223045332, -131.79270831022, -78.059370607391],
        [-120.41750028117, -131.99328223143, -76.372507661834],
        [-120.48277022822, -132.19385615263, -74.685644716277],
        [-120.54804005606, -132.39443007383, -72.998781770721],
        [-120.61331000311, -132.59500304136, -71.311915010467],
        [-120.67857983096, -132.79557600889, -69.62505206491],
        [-120.74384977801, -132.99615088377, -67.938189119354],
        [-120.80911960585, -133.1967238513, -66.251326173797],
        [-120.8743895529, -133.39729681883, -64.564459413543],
        [-120.93965938075, -133.59786978636, -62.877596467986],
        [-121.0049293278, -133.79844466123, -61.19073352243],
        [-121.07019927485, -133.99901762876, -59.503866762176],
        [-121.13546910269, -134.19959059629, -57.817003816619],
        [-121.20073904975, -134.40016547117, -56.130140871063],
        [-121.26600887759, -134.6007384387, -54.443277925506],
        [-121.33127876504, -134.80131140623, -52.756411165252],
        [-121.39654865248, -135.00188628111, -51.069548219695],
        [-121.46181853993, -135.20245924864, -49.382685274139],
        [-121.52708842738, -135.40303221617, -47.695820421233],
        [-121.59235831482, -135.60360709104, -46.008957475677],
        [-121.65762820227, -135.80418005857, -44.322092622772],
        [-121.72289808972, -136.0047530261, -42.635229677215],
        [-121.78816800697, -136.20532599363, -40.94836482431],
        [-121.85343789442, -136.40590086851, -39.261499971404],
        [-121.91870778186, -136.60647383604, -37.574637025848],
        [-121.98397766931, -136.80704680357, -35.887772172942],
        [-122.04924755676, -137.00762167845, -34.200909227386],
        [-122.11451744421, -137.20819464598, -32.514045328155],
        [-122.17978733538, -137.40876761351, -30.82718047525],
        [-122.24505722283, -137.60934248838, -29.140316576019],
        [-122.310327114, -137.80991545591, -27.453452676788],
        [-122.375596994, -138.01048842344, -25.766588777557],
        [-122.44086689634, -138.21106329832, -24.079724878326],
        [-122.50613676889, -138.41163626585, -22.392860979095],
        [-122.57140665634, -138.61220923338, -20.705997079864],
        [-122.63667654378, -138.81278220091, -19.019133061424],
        [-122.70194646103, -139.01335707579, -17.332269042983],
        [-122.76721634848, -139.21393004331, -15.645405143752],
        [-122.83248623593, -139.41450301084, -13.958541006103],
        [-122.89775612338, -139.61507788572, -12.271677106872],
        [-122.96302601082, -139.81565085325, -10.584813207641],
        [-123.02829589827, -140.01622382078, -8.8979488315729],
        [-123.09356578572, -140.21679869566, -7.2110849323419],
        [-123.15883567317, -140.41737166319, -5.5242210331109],
        [-123.22410556061, -140.61794463072, -3.83735713388],
        [-123.28937544806, -140.8185195056, -2.1504941883233],
        [-123.35464539511, -141.01909247312, -0.4636293354181],
        [-123.41991522296, -141.21966544065, 1.2232355174872],
        [-123.48518517001, -141.42023840818, 2.9100984630438],
        [-123.55045499785, -141.62081328306, 4.5969633159491],
        [-123.6157249449, -141.82138625059, 6.2838262615058],
        [-123.68099477274, -142.02195921812, 7.970691114411],
        [-123.7462647198, -142.222534093, 9.6575540599677],
        [-123.81153454764, -142.42310706053, 11.344418912873],
        [-123.87680449469, -142.62368002806, 13.03128185843],
        [-123.94207432253, -142.82425490293, 14.718144803986],
        [-124.00734426959, -143.02482787046, 16.40501156424],
        [-124.07261409743, -143.22540083799, 18.091874509797],
        [-124.13788404448, -143.42597380552, 19.778737455353],
        [-124.20315387232, -143.6265486804, 21.465604215607],
        [-124.26842381938, -143.82712164793, 23.152467161164],
        [-124.33369376643, -144.02769461546, 24.839330106721],
        [-124.39896347506, -144.22826949034, 26.526193052277],
        [-124.46423342211, -144.42884245787, 28.213059812531],
        [-124.52950336916, -144.62941542539, 29.899922758088],
        [-124.59477331622, -144.82999030027, 31.586785703644],
        [-124.66004302485, -145.0305632678, 33.273648649201],
        [-124.7253129719, -145.23113623533, 34.960515409455],
        [-124.79058291895, -145.43171111021, 36.647378355012],
        [-124.85585286601, -145.63228407774, 38.334241300568],
        [-124.92112257464, -145.83285704527, 40.021108060822],
        [-124.98639252169, -146.0334300128, 41.707971006379],
        [-125.05166246874, -146.23400488768, 43.394833951935],
        [-125.1169324158, -146.4345778552, 45.081696897492],
        [-125.18220212443, -146.63515082273, 46.768559843049],
        [-125.24747207148, -146.83572569761, 48.455426603303],
        [-125.31274201853, -147.03629866514, 50.142293363557],
        [-125.37801196559, -147.23687163267, 51.829152494416],
        [-125.44328167422, -147.43744650755, 53.51601925467],
        [-125.50855162127, -147.63801947508, 55.202878385529],
        [-125.57382156832, -147.83859244261, 56.889745145783]
],
      "InstanceCreationTime": ["104841.636000", "104841.724000", "104841.643000", "104841.731000", "104841.649000", "104841.737000", "104841.655000", "104841.743000", "104841.662000", "104841.749000", "104841.668000", "104841.756000", "104841.674000", "104841.762000", "104841.679000", "104841.768000", "104841.685000", "104841.774000", "104841.691000", "104841.781000", "104841.699000", "104841.787000", "104841.705000", "104841.792000", "104841.711000", "104841.798000", "104841.719000", "104841.639000", "104841.727000", "104841.645000", "104841.733000", "104841.651000", "104841.739000", "104841.657000", "104841.745000", "104841.664000", "104841.751000", "104841.670000", "104841.758000", "104841.675000", "104841.764000", "104841.681000", "104841.770000", "104841.687000", "104841.777000", "104841.693000", "104841.783000", "104841.701000", "104841.789000", "104841.707000", "104841.794000", "104841.713000", "104841.800000", "104841.721000", "104841.641000", "104841.729000", "104841.647000", "104841.735000", "104841.653000", "104841.741000", "104841.660000", "104841.747000", "104841.666000", "104841.753000", "104841.672000", "104841.760000", "104841.677000", "104841.766000", "104841.683000", "104841.772000", "104841.689000", "104841.779000", "104841.695000", "104841.785000", "104841.703000", "104841.791000", "104841.709000", "104841.796000", "104841.717000", "104841.802000", "104841.722000"],
      "InstanceNumber": [1, 2, 3, 4, 5, 6, 7, 8, 9, 10, 11, 12, 13, 14, 15, 16, 17, 18, 19, 20, 21, 22, 23, 24, 25, 26, 27, 28, 29, 30, 31, 32, 33, 34, 35, 36, 37, 38, 39, 40, 41, 42, 43, 44, 45, 46, 47, 48, 49, 50, 51, 52, 53, 54, 55, 56, 57, 58, 59, 60, 61, 62, 63, 64, 65, 66, 67, 68, 69, 70, 71, 72, 73, 74, 75, 76, 77, 78, 79, 80, 81],
      "LargestImagePixelValue": [35644, 26977, 25765, 28637, 27634, 22168, 27503, 38108, 40162, 41258, 61963, 65535, 56865, 45611, 38532, 49896, 62431, 62458, 65535, 65535, 65535, 65535, 65535, 65535, 65535, 53285, 44587, 51414, 47468, 48427, 35849, 39070, 43778, 52114, 44949, 35760, 36151, 36240, 42249, 42674, 43496, 53253, 51972, 50135, 53947, 57829, 59348, 63178, 59961, 59971, 52851, 52550, 54376, 65535, 65535, 65535, 61760, 65535, 63153, 49230, 53568, 54016, 58886, 54871, 57894, 43131, 50304, 45360, 39530, 42506, 58433, 37432, 40203, 47919, 37445, 25539, 19145, 23808, 25947, 15427, 14051],
      "SliceLocation": [-57.285901497017, -55.585902483668, -53.885903465743, -52.185904452395, -50.485901761767, -48.785902860938, -47.085903730494, -45.385904829664, -43.685902139037, -41.985903238207, -40.285904107763, -38.585901417135, -36.885902516306, -35.185903385862, -33.485904485032, -31.785901796693, -30.085902668538, -28.38590376542, -26.685902969691, -24.985903841536, -23.285903045807, -21.585904142689, -19.885903345816, -18.18590232505, -16.485903421932, -14.785902626204, -13.085903498048, -11.385903648625, -9.6859028527533, -7.9859027782925, -6.2859029287262, -4.5859030795889, -2.8859030045561, -1.1859031557049, 0.51409669371843, 2.2140966614299, 3.914096855323, 5.6140967047463, 7.3140967907459, 9.0140968652067, 10.71409671463, 12.414097037206, 14.114097111667, 15.81409696109, 17.514096810513, 19.214095938669, 20.914096736686, 22.614097530126, 24.314096435532, 26.01409745401, 27.714096359416, 29.414097152856, 31.114096283301, 32.814097076741, 34.514095982147, 36.214095108014, 37.914097798642, 39.614096699471, 41.314095604878, 43.014098515966, 44.714097421372, 46.414096326779, 48.114095448069, 49.814098138696, 51.514097044103, 53.214096174547, 54.9140950708, 56.614097761427, 58.314096891871, 60.014095797278, 61.714098478751, 63.414097384158, 65.114096514602, 66.814095420008, 68.514094316261, 70.214097231926, 71.914099922553, 73.614095042739, 75.31409794925, 77.014093069436, 78.714095760063],
