{
  "AcquisitionMatrixPE": 140,
  "AcquisitionNumber": 1,
  "AcquisitionTime": "11:19:32.067500",
  "BandwidthPerPixelPhaseEncode": 10.352,
  "BaseResolution": 140,
  "BodyPartExamined": "BRAIN",
  "ConsistencyInfo": "N4_VE11E_LATEST_20181129",
  "ConversionSoftware": "dcm2niix",
  "ConversionSoftwareVersion": "v1.0.20201102",
  "DerivedVendorReportedEchoSpacing": 0.000689998,
  "DeviceSerialNumber": "66112",
  "DiffusionScheme": "Monopolar",
  "DwellTime": 2.1e-06,
  "EchoTime": 0.0884,
  "EchoTrainLength": 105,
  "EffectiveEchoSpacing": 0.000689998,
  "FlipAngle": 90,
  "ImageComments": "Unaliased MB3/PE3 SENSE1",
  "ImageOrientationPatientDICOM": [0.996547, 0.078645, 0.0266101, -0.0828067, 0.964715, 0.249934],
  "ImageType": [
    "ORIGINAL",
    "PRIMARY",
    "DIFFUSION",
    "NONE",
    "MB",
    "ND",
    "MOSAIC"
],
  "ImagingFrequency": 123.252,
  "InPlanePhaseEncodingDirectionDICOM": "COL",
  "InstitutionAddress": "Maynard 3,Hanover,NH,US,03755",
  "InstitutionName": "Dartmouth College - PBS",
  "InstitutionalDepartmentName": "Department",
  "MRAcquisitionType": "2D",
  "MagneticFieldStrength": 3,
  "Manufacturer": "Siemens",
  "ManufacturersModelName": "Prisma",
  "Modality": "MR",
  "MultibandAccelerationFactor": 3,
  "PartialFourier": 0.75,
  "PatientPosition": "HFS",
  "PercentPhaseFOV": 100,
  "PercentSampling": 100,
  "PhaseEncodingDirection": "j-",
  "PhaseEncodingSteps": 105,
  "PhaseResolution": 1,
  "PixelBandwidth": 1700,
  "ProcedureStepDescription": "Wager_Wager^1076_spacetop",
  "ProtocolName": "dwi_acq-96dir-6b0-mb",
  "PulseSequenceDetails": "%CustomerSeq%\\cmrr_mbep2d_diff",
  "ReceiveCoilActiveElements": "HEA;HEP",
  "ReceiveCoilName": "Head_32",
  "ReconMatrixPE": 140,
  "RepetitionTime": 4.11,
  "SAR": 0.278801,
  "ScanOptions": "PFP\\FS",
  "ScanningSequence": "EP",
  "SequenceName": "ep_b5#1",
  "SequenceVariant": "SK\\SS",
  "SeriesDescription": "dwi_acq-96dir-6b0-mb",
  "SeriesNumber": 8,
  "ShimSetting": [4162, -7845, -7294, 697, -33, -626, 266, 15],
  "SliceThickness": 1.7,
  "SliceTiming": [0, 2.1225, 0.1525, 2.2725, 0.305, 2.425, 0.455, 2.575, 0.6075, 2.7275, 0.7575, 2.88, 0.91, 3.03, 1.06, 3.1825, 1.2125, 3.3325, 1.365, 3.485, 1.515, 3.6375, 1.6675, 3.7875, 1.8175, 3.94, 1.97, 0, 2.1225, 0.1525, 2.2725, 0.305, 2.425, 0.455, 2.575, 0.6075, 2.7275, 0.7575, 2.88, 0.91, 3.03, 1.06, 3.1825, 1.2125, 3.3325, 1.365, 3.485, 1.515, 3.6375, 1.6675, 3.7875, 1.8175, 3.94, 1.97, 0, 2.1225, 0.1525, 2.2725, 0.305, 2.425, 0.455, 2.575, 0.6075, 2.7275, 0.7575, 2.88, 0.91, 3.03, 1.06, 3.1825, 1.2125, 3.3325, 1.365, 3.485, 1.515, 3.6375, 1.6675, 3.7875, 1.8175, 3.94, 1.97],
  "SoftwareVersions": "syngo MR E11",
  "SpacingBetweenSlices": 1.7,
  "StationName": "AWP66112",
  "TotalReadoutTime": 0.0959097,
  "TxRefAmp": 232.532,
  "WipMemBlock": "139c5b5d-1a1c-4cf5-956a-e0b655b6b26b||Sequence: R016 ve11e/master r/434b28f1; Aug  7 2019 19:06:17 by eja",
  "dcmmeta_affine": [
    [-1.708367109298706, -0.14195431768894196, 0.010225613601505756, 131.6521759033203],
    [-0.13481996953487396, 1.65379798412323, 0.42716696858406067, -90.7371826171875],
    [0.0456172339618206, -0.42845848202705383, 1.6454250812530518, -33.638580322265625],
    [0.0, 0.0, 0.0, 1.0]
],
  "dcmmeta_reorient_transform": [
    [0.0, -1.0, 0.0, 139.0],
    [1.0, 0.0, 0.0, 0.0],
    [0.0, 0.0, 1.0, 0.0],
    [0.0, 0.0, 0.0, 1.0]
],
  "dcmmeta_shape": [140, 140, 81, 103],
  "dcmmeta_slice_dim": 2,
  "dcmmeta_version": 0.6,
  "global": {
    "const": {
      "AccessionNumber": "A004238",
      "AcquisitionMatrix": [140, 0, 0, 140],
      "AngioFlag": "N",
      "BitsAllocated": 16,
      "BitsStored": 16,
      "BodyPartExamined": "BRAIN",
      "Columns": 1260,
      "EchoNumbers": 1,
      "EchoTime": 88.4,
      "EchoTrainLength": 105,
      "FlipAngle": 90.0,
      "HighBit": 15,
      "ImageOrientationPatient": [0.99654747571099, 0.07864498527817, 0.02661005345063, -0.0828066882823, 0.96471549945735, 0.24993410628099],
      "ImagePositionPatient": [-989.11168979827, -1140.7668184959, -358.67670579209],
      "ImageType": [
        "ORIGINAL",
        "PRIMARY",
        "DIFFUSION",
        "NONE",
        "MB",
        "ND",
        "MOSAIC"
],
      "ImagedNucleus": "1H",
      "ImagingFrequency": 123.252223,
      "InPlanePhaseEncodingDirection": "COL",
      "MRAcquisitionType": "2D",
      "MagneticFieldStrength": 3.0,
      "Manufacturer": "SIEMENS",
      "ManufacturerModelName": "Prisma",
      "Modality": "MR",
      "NumberOfAverages": 1.0,
      "NumberOfPhaseEncodingSteps": 105,
      "PercentPhaseFieldOfView": 100.0,
      "PercentSampling": 100.0,
      "PerformedProcedureStepStartTime": "105453.153000",
      "PhotometricInterpretation": "MONOCHROME2",
      "PixelBandwidth": 1700.0,
      "PixelRepresentation": 0,
      "PixelSpacing": [1.7142857313156, 1.7142857313156],
      "ProtocolName": "dwi_acq-96dir-6b0-mb",
      "RepetitionTime": 4110.0,
      "Rows": 1260,
      "SAR": 0.27880113292822,
      "SamplesPerPixel": 1,
      "ScanOptions": [
        "PFP",
        "FS"
],
      "ScanningSequence": "EP",
      "SequenceVariant": [
        "SK",
        "SS"
],
      "SeriesDescription": "dwi_acq-96dir-6b0-mb",
      "SeriesNumber": 8,
      "SeriesTime": "112058.693000",
      "SliceLocation": -54.566747685332,
      "SliceThickness": 1.7000000476837,
      "SmallestImagePixelValue": 0,
      "SoftwareVersions": "syngo MR E11",
      "SpacingBetweenSlices": 1.7000000184256,
      "SpecificCharacterSet": "ISO_IR 100",
      "StudyID": "1",
      "StudyTime": "105452.947000",
      "TransmitCoilName": "Body",
      "VariableFlipAngleFlag": "N",
      "WindowCenterWidthExplanation": "Algo1"
    },
    "slices": {}
  },
  "time": {
    "samples": {
      "AcquisitionNumber": [1, 2, 3, 4, 5, 6, 7, 8, 9, 10, 11, 12, 13, 14, 15, 16, 17, 18, 19, 20, 21, 22, 23, 24, 25, 26, 27, 28, 29, 30, 31, 32, 33, 34, 35, 36, 37, 38, 39, 40, 41, 42, 43, 44, 45, 46, 47, 48, 49, 50, 51, 52, 53, 54, 55, 56, 57, 58, 59, 60, 61, 62, 63, 64, 65, 66, 67, 68, 69, 70, 71, 72, 73, 74, 75, 76, 77, 78, 79, 80, 81, 82, 83, 84, 85, 86, 87, 88, 89, 90, 91, 92, 93, 94, 95, 96, 97, 98, 99, 100, 101, 102, 103],
      "AcquisitionTime": ["111932.067500", "111936.177500", "111940.287500", "111944.397500", "111948.507500", "111952.617500", "111956.727500", "112000.837500", "112004.947500", "112009.057500", "112013.167500", "112017.277500", "112021.387500", "112025.497500", "112029.607500", "112033.717500", "112037.827500", "112041.937500", "112046.047500", "112050.157500", "112054.267500", "112058.377500", "112102.487500", "112106.597500", "112110.707500", "112114.817500", "112118.927500", "112123.037500", "112127.147500", "112131.257500", "112135.367500", "112139.477500", "112143.587500", "112147.697500", "112151.807500", "112155.917500", "112200.027500", "112204.137500", "112208.247500", "112212.357500", "112216.467500", "112220.577500", "112224.687500", "112228.797500", "112232.907500", "112237.017500", "112241.127500", "112245.237500", "112249.347500", "112253.457500", "112257.567500", "112301.677500", "112305.787500", "112309.897500", "112314.007500", "112318.117500", "112322.227500", "112326.337500", "112330.447500", "112334.557500", "112338.667500", "112342.777500", "112346.887500", "112350.997500", "112355.107500", "112359.217500", "112403.327500", "112407.437500", "112411.547500", "112415.657500", "112419.767500", "112423.877500", "112427.987500", "112432.097500", "112436.207500", "112440.317500", "112444.427500", "112448.537500", "112452.647500", "112456.757500", "112500.867500", "112504.977500", "112509.087500", "112513.197500", "112517.307500", "112521.417500", "112525.527500", "112529.637500", "112533.747500", "112537.857500", "112541.967500", "112546.077500", "112550.187500", "112554.297500", "112558.407500", "112602.517500", "112606.627500", "112610.737500", "112614.847500", "112618.957500", "112623.067500", "112627.177500", "112631.287500"],
      "ContentTime": ["112058.697000", "112058.701000", "112058.718000", "112058.721000", "112058.724000", "112058.733000", "112058.741000", "112058.744000", "112058.747000", "112058.750000", "112058.757000", "112058.760000", "112058.763000", "112058.766000", "112058.769000", "112058.772000", "112058.775000", "112058.778000", "112058.781000", "112058.784000", "112218.691000", "112218.695000", "112218.698000", "112218.701000", "112218.704000", "112218.707000", "112218.710000", "112218.713000", "112218.716000", "112218.719000", "112218.722000", "112218.725000", "112218.728000", "112218.731000", "112218.734000", "112218.737000", "112218.740000", "112218.743000", "112218.746000", "112218.749000", "112318.692000", "112318.695000", "112318.698000", "112318.702000", "112318.705000", "112318.708000", "112318.712000", "112318.716000", "112318.720000", "112318.724000", "112318.737000", "112318.743000", "112318.746000", "112318.749000", "112438.691000", "112438.694000", "112438.697000", "112438.701000", "112438.704000", "112438.707000", "112438.710000", "112438.713000", "112438.716000", "112438.719000", "112438.722000", "112438.725000", "112438.728000", "112438.731000", "112438.734000", "112438.746000", "112438.749000", "112438.752000", "112438.755000", "112438.759000", "112618.692000", "112618.695000", "112618.698000", "112618.701000", "112618.704000", "112618.707000", "112618.710000", "112618.714000", "112618.717000", "112618.720000", "112618.723000", "112618.726000", "112618.729000", "112618.732000", "112618.735000", "112618.738000", "112618.741000", "112618.744000", "112618.747000", "112618.750000", "112618.753000", "112618.756000", "112618.759000", "112618.762000", "112635.926000", "112635.954000", "112635.957000", "112635.971000", "112635.974000"],
      "InstanceCreationTime": ["112058.697000", "112058.701000", "112058.718000", "112058.721000", "112058.724000", "112058.733000", "112058.741000", "112058.744000", "112058.747000", "112058.750000", "112058.757000", "112058.760000", "112058.763000", "112058.766000", "112058.769000", "112058.772000", "112058.775000", "112058.778000", "112058.781000", "112058.784000", "112218.691000", "112218.695000", "112218.698000", "112218.701000", "112218.704000", "112218.707000", "112218.710000", "112218.713000", "112218.716000", "112218.719000", "112218.722000", "112218.725000", "112218.728000", "112218.731000", "112218.734000", "112218.737000", "112218.740000", "112218.743000", "112218.746000", "112218.749000", "112318.692000", "112318.695000", "112318.698000", "112318.702000", "112318.705000", "112318.708000", "112318.712000", "112318.716000", "112318.720000", "112318.724000", "112318.737000", "112318.743000", "112318.746000", "112318.749000", "112438.691000", "112438.694000", "112438.697000", "112438.701000", "112438.704000", "112438.707000", "112438.710000", "112438.713000", "112438.716000", "112438.719000", "112438.722000", "112438.725000", "112438.728000", "112438.731000", "112438.734000", "112438.746000", "112438.749000", "112438.752000", "112438.755000", "112438.759000", "112618.692000", "112618.695000", "112618.698000", "112618.701000", "112618.704000", "112618.707000", "112618.710000", "112618.714000", "112618.717000", "112618.720000", "112618.723000", "112618.726000", "112618.729000", "112618.732000", "112618.735000", "112618.738000", "112618.741000", "112618.744000", "112618.747000", "112618.750000", "112618.753000", "112618.756000", "112618.759000", "112618.762000", "112635.926000", "112635.954000", "112635.957000", "112635.971000", "112635.974000"],
      "InstanceNumber": [1, 2, 3, 4, 5, 6, 7, 8, 9, 10, 11, 12, 13, 14, 15, 16, 17, 18, 19, 20, 21, 22, 23, 24, 25, 26, 27, 28, 29, 30, 31, 32, 33, 34, 35, 36, 37, 38, 39, 40, 41, 42, 43, 44, 45, 46, 47, 48, 49, 50, 51, 52, 53, 54, 55, 56, 57, 58, 59, 60, 61, 62, 63, 64, 65, 66, 67, 68, 69, 70, 71, 72, 73, 74, 75, 76, 77, 78, 79, 80, 81, 82, 83, 84, 85, 86, 87, 88, 89, 90, 91, 92, 93, 94, 95, 96, 97, 98, 99, 100, 101, 102, 103],
      "LargestImagePixelValue": [65535, 65535, 60715, 58994, 63161, 65059, 62146, 62040, 65535, 39984, 41028, 42748, 39796, 42820, 41735, 40643, 39490, 42592, 39202, 39083, 39041, 38951, 39786, 39715, 65535, 19259, 18598, 22100, 19928, 19997, 22889, 19797, 22648, 19872, 21642, 20408, 17371, 20760, 20728, 20559, 65535, 9203, 12195, 13013, 12873, 10408, 11290, 12007, 10810, 9621, 11925, 13776, 9995, 11000, 11582, 9950, 11036, 10686, 11658, 13070, 10498, 12388, 11536, 10772, 11014, 11977, 10957, 10226, 11580, 10079, 10042, 11196, 12492, 65535, 11821, 10533, 10891, 10278, 10985, 11528, 11072, 13441, 10977, 10214, 9837, 10330, 12587, 11205, 11331, 12504, 11175, 10809, 13026, 10769, 12060, 12401, 10858, 9996, 11296, 9464, 10199, 11407, 65535],
      "SequenceName": [
 "ep_b5#1",
 "ep_b5#1",
 "ep_b500#2",
 "ep_b500#3",
 "ep_b500#4",
 "ep_b505#5",
 "ep_b495#6",
 "ep_b500#7",
 "ep_b5#8",
 "ep_b1000#9",
 "ep_b1005#10",
 "ep_b1000#11",
 "ep_b1005#12",
 "ep_b995#13",
 "ep_b995#14",
 "ep_b1005#15",
 "ep_b1000#16",
 "ep_b1000#17",
 "ep_b995#18",
 "ep_b1000#19",
 "ep_b995#20",
 "ep_b1000#21",
 "ep_b1005#22",
 "ep_b1005#23",
 "ep_b5#24",
 "ep_b2000#25",
 "ep_b2000#26",
 "ep_b1995#27",
 "ep_b1995#28",
 "ep_b2005#29",
 "ep_b2010#30",
 "ep_b2005#31",
 "ep_b2005#32",
 "ep_b1995#33",
 "ep_b1990#34",
 "ep_b1995#35",
 "ep_b2005#36",
 "ep_b2000#37",
 "ep_b2010#38",
 "ep_b2000#39",
 "ep_b5#40",
 "ep_b3000#41",
 "ep_b3005#42",
 "ep_b3010#43",
 "ep_b3010#44",
 "ep_b2995#45",
 "ep_b2995#46",
 "ep_b2990#47",
 "ep_b3000#48",
 "ep_b3000#49",
 "ep_b2990#50",
 "ep_b2990#51",
 "ep_b2995#52",
 "ep_b2995#53",
 "ep_b3010#54",
 "ep_b3000#55",
 "ep_b2995#56",
 "ep_b3000#57",
 "ep_b2990#58",
 "ep_b2990#59",
 "ep_b3000#60",
 "ep_b2990#61",
 "ep_b2990#62",
 "ep_b2995#63",
 "ep_b3005#64",
 "ep_b3010#65",
 "ep_b3000#66",
 "ep_b3005#67",
 "ep_b3010#68",
 "ep_b3005#69",
 "ep_b3005#70",
 "ep_b3010#71",
 "ep_b2990#72",
 "ep_b5#73",
 "ep_b3010#74",
 "ep_b3000#75",
 "ep_b3005#76",
 "ep_b3005#77",
 "ep_b2995#78",
 "ep_b3005#79",
 "ep_b3000#80",
 "ep_b3010#81",
 "ep_b3010#82",
 "ep_b3005#83",
 "ep_b3000#84",
 "ep_b3005#85",
 "ep_b3005#86",
 "ep_b3010#87",
 "ep_b2990#88",
 "ep_b3010#89",
 "ep_b2995#90",
 "ep_b2995#91",
 "ep_b2995#92",
 "ep_b2995#93",
 "ep_b3005#94",
 "ep_b3005#95",
 "ep_b2995#96",
 "ep_b3000#97",
 "ep_b2990#98",
 "ep_b3000#99",
 "ep_b3000#100",
 "ep_b2995#101",
 "ep_b5#102"
],
      "WindowCenter": [10887.0, 10864.0, 7288.0, 7335.0, 7332.0, 7264.0, 7413.0, 7340.0, 10920.0, 5394.0, 5353.0, 5439.0, 5348.0, 5428.0, 5416.0, 5361.0, 5445.0, 5438.0, 5431.0, 5389.0, 5446.0, 5383.0, 5349.0, 5407.0, 10893.0, 3406.0, 3424.0, 3454.0, 3526.0, 3412.0, 3422.0, 3413.0, 3442.0, 3444.0, 3497.0, 3475.0, 3345.0, 3452.0, 3438.0, 3438.0, 10891.0, 2334.0, 2416.0, 2450.0, 2439.0, 2392.0, 2443.0, 2482.0, 2383.0, 2327.0, 2419.0, 2470.0, 2368.0, 2422.0, 2417.0, 2335.0, 2399.0, 2385.0, 2444.0, 2461.0, 2402.0, 2438.0, 2473.0, 2432.0, 2423.0, 2443.0, 2388.0, 2394.0, 2420.0, 2388.0, 2359.0, 2434.0, 2464.0, 10880.0, 2412.0, 2404.0, 2337.0, 2362.0, 2392.0, 2392.0, 2367.0, 2430.0, 2420.0, 2334.0, 2372.0, 2353.0, 2414.0, 2344.0, 2396.0, 2420.0, 2429.0, 2398.0, 2445.0, 2436.0, 2409.0, 2429.0, 2450.0, 2349.0, 2442.0, 2322.0, 2383.0, 2443.0, 10865.0],
      "WindowWidth": [25209.0, 25123.0, 15371.0, 15469.0, 15450.0, 15352.0, 15620.0, 15472.0, 25318.0, 11565.0, 11527.0, 11651.0, 11516.0, 11652.0, 11629.0, 11536.0, 11671.0, 11644.0, 11649.0, 11571.0, 11686.0, 11557.0, 11497.0, 11601.0, 25223.0, 7735.0, 7782.0, 7810.0, 7955.0, 7756.0, 7764.0, 7739.0, 7798.0, 7816.0, 7909.0, 7873.0, 7630.0, 7814.0, 7804.0, 7786.0, 25191.0, 5697.0, 5791.0, 5869.0, 5844.0, 5788.0, 5881.0, 5937.0, 5748.0, 5666.0, 5789.0, 5879.0, 5750.0, 5852.0, 5828.0, 5670.0, 5821.0, 5757.0, 5868.0, 5876.0, 5799.0, 5846.0, 5938.0, 5868.0, 5863.0, 5875.0, 5768.0, 5796.0, 5838.0, 5807.0, 5742.0, 5874.0, 5895.0, 25152.0, 5792.0, 5809.0, 5643.0, 5724.0, 5747.0, 5753.0, 5707.0, 5810.0, 5844.0, 5660.0, 5764.0, 5718.0, 5775.0, 5639.0, 5762.0, 5797.0, 5848.0, 5775.0, 5843.0, 5884.0, 5795.0, 5849.0, 5911.0, 5697.0, 5860.0, 5642.0, 5779.0, 5880.0, 25089.0]
    },
    "slices": {}
  }
}