{
  "AcquisitionMatrixPE": 82,
  "AcquisitionNumber": 1,
  "AcquisitionTime": "15:52:18.772500",
  "BandwidthPerPixelPhaseEncode": 24.888,
  "BaseResolution": 82,
  "BodyPartExamined": "BRAIN",
  "ConsistencyInfo": "N4_VE11C_LATEST_20160120",
  "ConversionSoftware": "dcm2niix",
  "ConversionSoftwareVersion": "v1.0.20201102",
  "DerivedVendorReportedEchoSpacing": 0.00049,
  "DeviceSerialNumber": "66112",
  "DwellTime": 2e-06,
  "EchoTime": 0.0272,
  "EchoTrainLength": 82,
  "EffectiveEchoSpacing": 0.00049,
  "FlipAngle": 44,
  "ImageComments": "Unaliased MB8/PE3",
  "ImageOrientationPatientDICOM": [0.998353, 0.0458107, -0.034534, -0.0456842, 0.998946, 0.00444425],
  "ImageType": [
    "ORIGINAL",
    "PRIMARY",
    "M",
    "MB",
    "ND",
    "NORM",
    "MOSAIC"
],
  "ImagingFrequency": 123.252,
  "InPlanePhaseEncodingDirectionDICOM": "COL",
  "InstitutionAddress": "Maynard 3,Hanover,NH,US,03755",
  "InstitutionName": "Dartmouth College - PBS",
  "InstitutionalDepartmentName": "Department",
  "MRAcquisitionType": "2D",
  "MagneticFieldStrength": 3,
  "Manufacturer": "Siemens",
  "ManufacturersModelName": "Prisma",
  "Modality": "MR",
  "MultibandAccelerationFactor": 8,
  "PartialFourier": 1,
  "PatientPosition": "HFS",
  "PercentPhaseFOV": 100,
  "PercentSampling": 100,
  "PhaseEncodingDirection": "j-",
  "PhaseEncodingSteps": 82,
  "PhaseResolution": 1,
  "PixelBandwidth": 3050,
  "ProcedureStepDescription": "Wager_Wager^1076_spacetop",
  "ProtocolName": "func_run-06_task-social_acq-ap-mb8",
  "PulseSequenceDetails": "%CustomerSeq%\\cmrr_mbep2d_bold",
  "ReceiveCoilActiveElements": "HEA;HEP",
  "ReceiveCoilName": "Head_32",
  "ReconMatrixPE": 82,
  "RepetitionTime": 0.46,
  "SAR": 0.0921018,
  "ScanOptions": "FS",
  "ScanningSequence": "EP",
  "SequenceName": "epfid2d1_82",
  "SequenceVariant": "SK\\SS",
  "SeriesDescription": "func_run-06_task-social_acq-ap-mb8",
  "SeriesNumber": 24,
  "ShimSetting": [4131, -7765, -7209, 519, -60, 29, -87, 71],
  "SliceThickness": 2.7,
  "SliceTiming": [0, 0.2525, 0.0625, 0.315, 0.1275, 0.3775, 0.19, 0, 0.2525, 0.0625, 0.315, 0.1275, 0.3775, 0.19, 0, 0.2525, 0.0625, 0.315, 0.1275, 0.3775, 0.19, 0, 0.2525, 0.0625, 0.315, 0.1275, 0.3775, 0.19, 0, 0.2525, 0.0625, 0.315, 0.1275, 0.3775, 0.19, 0, 0.2525, 0.0625, 0.315, 0.1275, 0.3775, 0.19, 0, 0.2525, 0.0625, 0.315, 0.1275, 0.3775, 0.19, 0, 0.2525, 0.0625, 0.315, 0.1275, 0.3775, 0.19],
  "SoftwareVersions": "syngo MR E11",
  "SpacingBetweenSlices": 2.7,
  "StationName": "AWP66112",
  "TaskName": "social",
  "TotalReadoutTime": 0.03969,
  "TxRefAmp": 275.651,
  "WipMemBlock": "638ff92d-cebe-4a7a-bad8-ce676136d0ca||Sequence: R016 ve11c/master r/e634e98; Dec 19 2017 11:00:25 by eja",
  "dcmmeta_affine": [
    [-2.6785082817077637, -0.12256724387407303, -0.09369317442178726, 120.54108428955078],
    [-0.12290668487548828, 2.6800992488861084, 0.007720031775534153, -81.15885162353516],
    [-0.09265214204788208, -0.011923587881028652, 2.6983628273010254, -28.326190948486328],
    [0.0, 0.0, 0.0, 1.0]
],
  "dcmmeta_reorient_transform": [
    [0.0, -1.0, 0.0, 81.0],
    [1.0, 0.0, 0.0, 0.0],
    [0.0, 0.0, 1.0, 0.0],
    [0.0, 0.0, 0.0, 1.0]
],
  "dcmmeta_shape": [82, 82, 56, 872],
  "dcmmeta_slice_dim": 2,
  "dcmmeta_version": 0.6,
  "global": {
    "const": {
      "AccessionNumber": "A003457",
      "AcquisitionMatrix": [82, 0, 0, 82],
      "AngioFlag": "N",
      "BitsAllocated": 16,
      "BitsStored": 16,
      "BodyPartExamined": "BRAIN",
      "Columns": 656,
      "EchoNumbers": 1,
      "EchoTime": 27.2,
      "EchoTrainLength": 82,
      "FlipAngle": 44.0,
      "HighBit": 15,
      "ImageOrientationPatient": [0.9983530369962, 0.04581067242028, -0.0345339805535, -0.0456841527714, 0.99894604802354, 0.00444424613443],
      "ImagePositionPatient": [-844.16819577236, -940.39188111612, -6.1229045703856],
      "ImageType": [
        "ORIGINAL",
        "PRIMARY",
        "M",
        "MB",
        "ND",
        "NORM",
        "MOSAIC"
],
      "ImagedNucleus": "1H",
      "ImagingFrequency": 123.252103,
      "InPlanePhaseEncodingDirection": "COL",
      "MRAcquisitionType": "2D",
      "MagneticFieldStrength": 3.0,
      "Manufacturer": "SIEMENS",
      "ManufacturerModelName": "Prisma",
      "Modality": "MR",
      "NumberOfAverages": 1.0,
      "NumberOfPhaseEncodingSteps": 82,
      "PercentPhaseFieldOfView": 100.0,
      "PercentSampling": 100.0,
      "PerformedProcedureStepStartTime": "144128.898000",
      "PhotometricInterpretation": "MONOCHROME2",
      "PixelBandwidth": 3050.0,
      "PixelRepresentation": 0,
      "PixelSpacing": [2.6829268932343, 2.6829268932343],
      "ProtocolName": "func_run-06_task-social_acq-ap-mb8",
      "RepetitionTime": 460.0,
      "Rows": 656,
      "SAR": 0.09210177815734,
      "SamplesPerPixel": 1,
      "ScanOptions": "FS",
      "ScanningSequence": "EP",
      "SequenceName": "epfid2d1_82",
      "SequenceVariant": [
        "SK",
        "SS"
],
      "SeriesDescription": "func_run-06_task-social_acq-ap-mb8",
      "SeriesNumber": 24,
      "SeriesTime": "155238.723000",
      "SliceLocation": -32.723986917177,
      "SliceThickness": 2.7000000476837,
      "SmallestImagePixelValue": 0,
      "SoftwareVersions": "syngo MR E11",
      "SpacingBetweenSlices": 2.6999999662283,
      "SpecificCharacterSet": "ISO_IR 100",
      "StudyID": "3",
      "StudyTime": "144128.789000",
      "TransmitCoilName": "Body",
      "VariableFlipAngleFlag": "N",
      "WindowCenterWidthExplanation": "Algo1",
      "dBdt": 0.0},
    "slices": {}
  },
  "time": {
    "samples": {
      "AcquisitionNumber": [1, 2, 3, 4, 5, 6, 7, 8, 9, 10, 11, 12, 13, 14, 15, 16, 17, 18, 19, 20, 21, 22, 23, 24, 25, 26, 27, 28, 29, 30, 31, 32, 33, 34, 35, 36, 37, 38, 39, 40, 41, 42, 43, 44, 45, 46, 47, 48, 49, 50, 51, 52, 53, 54, 55, 56, 57, 58, 59, 60, 61, 62, 63, 64, 65, 66, 67, 68, 69, 70, 71, 72, 73, 74, 75, 76, 77, 78, 79, 80, 81, 82, 83, 84, 85, 86, 87, 88, 89, 90, 91, 92, 93, 94, 95, 96, 97, 98, 99, 100, 101, 102, 103, 104, 105, 106, 107, 108, 109, 110, 111, 112, 113, 114, 115, 116, 117, 118, 119, 120, 121, 122, 123, 124, 125, 126, 127, 128, 129, 130, 131, 132, 133, 134, 135, 136, 137, 138, 139, 140, 141, 142, 143, 144, 145, 146, 147, 148, 149, 150, 151, 152, 153, 154, 155, 156, 157, 158, 159, 160, 161, 162, 163, 164, 165, 166, 167, 168, 169, 170, 171, 172, 173, 174, 175, 176, 177, 178, 179, 180, 181, 182, 183, 184, 185, 186, 187, 188, 189, 190, 191, 192, 193, 194, 195, 196, 197, 198, 199, 200, 201, 202, 203, 204, 205, 206, 207, 208, 209, 210, 211, 212, 213, 214, 215, 216, 217, 218, 219, 220, 221, 222, 223, 224, 225, 226, 227, 228, 229, 230, 231, 232, 233, 234, 235, 236, 237, 238, 239, 240, 241, 242, 243, 244, 245, 246, 247, 248, 249, 250, 251, 252, 253, 254, 255, 256, 257, 258, 259, 260, 261, 262, 263, 264, 265, 266, 267, 268, 269, 270, 271, 272, 273, 274, 275, 276, 277, 278, 279, 280, 281, 282, 283, 284, 285, 286, 287, 288, 289, 290, 291, 292, 293, 294, 295, 296, 297, 298, 299, 300, 301, 302, 303, 304, 305, 306, 307, 308, 309, 310, 311, 312, 313, 314, 315, 316, 317, 318, 319, 320, 321, 322, 323, 324, 325, 326, 327, 328, 329, 330, 331, 332, 333, 334, 335, 336, 337, 338, 339, 340, 341, 342, 343, 344, 345, 346, 347, 348, 349, 350, 351, 352, 353, 354, 355, 356, 357, 358, 359, 360, 361, 362, 363, 364, 365, 366, 367, 368, 369, 370, 371, 372, 373, 374, 375, 376, 377, 378, 379, 380, 381, 382, 383, 384, 385, 386, 387, 388, 389, 390, 391, 392, 393, 394, 395, 396, 397, 398, 399, 400, 401, 402, 403, 404, 405, 406, 407, 408, 409, 410, 411, 412, 413, 414, 415, 416, 417, 418, 419, 420, 421, 422, 423, 424, 425, 426, 427, 428, 429, 430, 431, 432, 433, 434, 435, 436, 437, 438, 439, 440, 441, 442, 443, 444, 445, 446, 447, 448, 449, 450, 451, 452, 453, 454, 455, 456, 457, 458, 459, 460, 461, 462, 463, 464, 465, 466, 467, 468, 469, 470, 471, 472, 473, 474, 475, 476, 477, 478, 479, 480, 481, 482, 483, 484, 485, 486, 487, 488, 489, 490, 491, 492, 493, 494, 495, 496, 497, 498, 499, 500, 501, 502, 503, 504, 505, 506, 507, 508, 509, 510, 511, 512, 513, 514, 515, 516, 517, 518, 519, 520, 521, 522, 523, 524, 525, 526, 527, 528, 529, 530, 531, 532, 533, 534, 535, 536, 537, 538, 539, 540, 541, 542, 543, 544, 545, 546, 547, 548, 549, 550, 551, 552, 553, 554, 555, 556, 557, 558, 559, 560, 561, 562, 563, 564, 565, 566, 567, 568, 569, 570, 571, 572, 573, 574, 575, 576, 577, 578, 579, 580, 581, 582, 583, 584, 585, 586, 587, 588, 589, 590, 591, 592, 593, 594, 595, 596, 597, 598, 599, 600, 601, 602, 603, 604, 605, 606, 607, 608, 609, 610, 611, 612, 613, 614, 615, 616, 617, 618, 619, 620, 621, 622, 623, 624, 625, 626, 627, 628, 629, 630, 631, 632, 633, 634, 635, 636, 637, 638, 639, 640, 641, 642, 643, 644, 645, 646, 647, 648, 649, 650, 651, 652, 653, 654, 655, 656, 657, 658, 659, 660, 661, 662, 663, 664, 665, 666, 667, 668, 669, 670, 671, 672, 673, 674, 675, 676, 677, 678, 679, 680, 681, 682, 683, 684, 685, 686, 687, 688, 689, 690, 691, 692, 693, 694, 695, 696, 697, 698, 699, 700, 701, 702, 703, 704, 705, 706, 707, 708, 709, 710, 711, 712, 713, 714, 715, 716, 717, 718, 719, 720, 721, 722, 723, 724, 725, 726, 727, 728, 729, 730, 731, 732, 733, 734, 735, 736, 737, 738, 739, 740, 741, 742, 743, 744, 745, 746, 747, 748, 749, 750, 751, 752, 753, 754, 755, 756, 757, 758, 759, 760, 761, 762, 763, 764, 765, 766, 767, 768, 769, 770, 771, 772, 773, 774, 775, 776, 777, 778, 779, 780, 781, 782, 783, 784, 785, 786, 787, 788, 789, 790, 791, 792, 793, 794, 795, 796, 797, 798, 799, 800, 801, 802, 803, 804, 805, 806, 807, 808, 809, 810, 811, 812, 813, 814, 815, 816, 817, 818, 819, 820, 821, 822, 823, 824, 825, 826, 827, 828, 829, 830, 831, 832, 833, 834, 835, 836, 837, 838, 839, 840, 841, 842, 843, 844, 845, 846, 847, 848, 849, 850, 851, 852, 853, 854, 855, 856, 857, 858, 859, 860, 861, 862, 863, 864, 865, 866, 867, 868, 869, 870, 871, 872],
      "AcquisitionTime": ["155218.772500", "155219.232500", "155219.692500", "155220.152500", "155220.612500", "155221.072500", "155221.532500", "155221.992500", "155222.452500", "155222.912500", "155223.372500", "155223.832500", "155224.292500", "155224.752500", "155225.212500", "155225.672500", "155226.132500", "155226.592500", "155227.052500", "155227.512500", "155227.972500", "155228.432500", "155228.892500", "155229.352500", "155229.812500", "155230.272500", "155230.732500", "155231.192500", "155231.652500", "155232.112500", "155232.572500", "155233.032500", "155233.492500", "155233.952500", "155234.412500", "155234.872500", "155235.332500", "155235.792500", "155236.252500", "155236.712500", "155237.172500", "155237.632500", "155238.092500", "155238.552500", "155239.012500", "155239.472500", "155239.932500", "155240.392500", "155240.852500", "155241.312500", "155241.772500", "155242.232500", "155242.692500", "155243.152500", "155243.612500", "155244.072500", "155244.532500", "155244.992500", "155245.452500", "155245.912500", "155246.372500", "155246.832500", "155247.292500", "155247.752500", "155248.212500", "155248.672500", "155249.132500", "155249.592500", "155250.052500", "155250.512500", "155250.972500", "155251.432500", "155251.892500", "155252.352500", "155252.812500", "155253.272500", "155253.732500", "155254.192500", "155254.652500", "155255.112500", "155255.572500", "155256.032500", "155256.492500", "155256.952500", "155257.412500", "155257.872500", "155258.332500", "155258.792500", "155259.252500", "155259.712500", "155300.172500", "155300.632500", "155301.092500", "155301.552500", "155302.012500", "155302.472500", "155302.932500", "155303.392500", "155303.852500", "155304.312500", "155304.772500", "155305.232500", "155305.692500", "155306.152500", "155306.612500", "155307.072500", "155307.532500", "155307.992500", "155308.452500", "155308.912500", "155309.372500", "155309.832500", "155310.292500", "155310.752500", "155311.212500", "155311.672500", "155312.132500", "155312.592500", "155313.052500", "155313.512500", "155313.972500", "155314.432500", "155314.892500", "155315.352500", "155315.812500", "155316.272500", "155316.732500", "155317.192500", "155317.652500", "155318.112500", "155318.572500", "155319.032500", "155319.492500", "155319.952500", "155320.412500", "155320.872500", "155321.332500", "155321.792500", "155322.252500", "155322.712500", "155323.172500", "155323.632500", "155324.092500", "155324.552500", "155325.012500", "155325.472500", "155325.932500", "155326.392500", "155326.852500", "155327.312500", "155327.772500", "155328.232500", "155328.692500", "155329.152500", "155329.612500", "155330.072500", "155330.532500", "155330.992500", "155331.452500", "155331.912500", "155332.372500", "155332.832500", "155333.292500", "155333.752500", "155334.212500", "155334.672500", "155335.132500", "155335.592500", "155336.052500", "155336.512500", "155336.972500", "155337.432500", "155337.892500", "155338.352500", "155338.812500", "155339.272500", "155339.732500", "155340.192500", "155340.652500", "155341.112500", "155341.572500", "155342.032500", "155342.492500", "155342.952500", "155343.412500", "155343.872500", "155344.332500", "155344.792500", "155345.252500", "155345.712500", "155346.172500", "155346.632500", "155347.092500", "155347.552500", "155348.012500", "155348.472500", "155348.932500", "155349.392500", "155349.852500", "155350.312500", "155350.772500", "155351.232500", "155351.692500", "155352.152500", "155352.612500", "155353.072500", "155353.532500", "155353.992500", "155354.452500", "155354.912500", "155355.372500", "155355.832500", "155356.292500", "155356.752500", "155357.212500", "155357.672500", "155358.132500", "155358.592500", "155359.052500", "155359.512500", "155359.972500", "155400.432500", "155400.892500", "155401.352500", "155401.812500", "155402.272500", "155402.732500", "155403.192500", "155403.652500", "155404.112500", "155404.572500", "155405.032500", "155405.492500", "155405.952500", "155406.412500", "155406.872500", "155407.332500", "155407.792500", "155408.252500", "155408.712500", "155409.172500", "155409.632500", "155410.092500", "155410.552500", "155411.012500", "155411.472500", "155411.932500", "155412.392500", "155412.852500", "155413.312500", "155413.772500", "155414.232500", "155414.692500", "155415.152500", "155415.612500", "155416.072500", "155416.532500", "155416.992500", "155417.452500", "155417.912500", "155418.372500", "155418.832500", "155419.292500", "155419.752500", "155420.212500", "155420.672500", "155421.132500", "155421.592500", "155422.052500", "155422.512500", "155422.972500", "155423.432500", "155423.892500", "155424.352500", "155424.812500", "155425.272500", "155425.732500", "155426.192500", "155426.652500", "155427.112500", "155427.572500", "155428.032500", "155428.492500", "155428.952500", "155429.412500", "155429.872500", "155430.332500", "155430.792500", "155431.252500", "155431.712500", "155432.172500", "155432.632500", "155433.092500", "155433.552500", "155434.012500", "155434.472500", "155434.932500", "155435.392500", "155435.852500", "155436.312500", "155436.772500", "155437.232500", "155437.692500", "155438.152500", "155438.612500", "155439.072500", "155439.532500", "155439.992500", "155440.452500", "155440.912500", "155441.372500", "155441.832500", "155442.292500", "155442.752500", "155443.212500", "155443.672500", "155444.132500", "155444.592500", "155445.052500", "155445.512500", "155445.972500", "155446.432500", "155446.892500", "155447.352500", "155447.812500", "155448.272500", "155448.732500", "155449.192500", "155449.652500", "155450.112500", "155450.572500", "155451.032500", "155451.492500", "155451.952500", "155452.412500", "155452.872500", "155453.332500", "155453.792500", "155454.252500", "155454.712500", "155455.172500", "155455.632500", "155456.092500", "155456.552500", "155457.012500", "155457.472500", "155457.932500", "155458.392500", "155458.852500", "155459.312500", "155459.772500", "155500.232500", "155500.692500", "155501.152500", "155501.612500", "155502.072500", "155502.532500", "155502.992500", "155503.452500", "155503.912500", "155504.372500", "155504.832500", "155505.292500", "155505.752500", "155506.212500", "155506.672500", "155507.132500", "155507.592500", "155508.052500", "155508.512500", "155508.972500", "155509.432500", "155509.892500", "155510.352500", "155510.812500", "155511.272500", "155511.732500", "155512.192500", "155512.652500", "155513.112500", "155513.572500", "155514.032500", "155514.492500", "155514.952500", "155515.412500", "155515.872500", "155516.332500", "155516.792500", "155517.252500", "155517.712500", "155518.172500", "155518.632500", "155519.092500", "155519.552500", "155520.012500", "155520.472500", "155520.932500", "155521.392500", "155521.852500", "155522.312500", "155522.772500", "155523.232500", "155523.692500", "155524.152500", "155524.612500", "155525.072500", "155525.532500", "155525.992500", "155526.452500", "155526.912500", "155527.372500", "155527.832500", "155528.292500", "155528.752500", "155529.212500", "155529.672500", "155530.132500", "155530.592500", "155531.052500", "155531.512500", "155531.972500", "155532.432500", "155532.892500", "155533.352500", "155533.812500", "155534.272500", "155534.732500", "155535.192500", "155535.652500", "155536.112500", "155536.572500", "155537.032500", "155537.492500", "155537.952500", "155538.412500", "155538.872500", "155539.332500", "155539.792500", "155540.252500", "155540.712500", "155541.172500", "155541.632500", "155542.092500", "155542.552500", "155543.012500", "155543.472500", "155543.932500", "155544.392500", "155544.852500", "155545.312500", "155545.772500", "155546.232500", "155546.692500", "155547.152500", "155547.612500", "155548.072500", "155548.532500", "155548.992500", "155549.452500", "155549.912500", "155550.372500", "155550.832500", "155551.292500", "155551.752500", "155552.212500", "155552.672500", "155553.132500", "155553.592500", "155554.052500", "155554.512500", "155554.972500", "155555.432500", "155555.892500", "155556.352500", "155556.812500", "155557.272500", "155557.732500", "155558.192500", "155558.652500", "155559.112500", "155559.572500", "155600.032500", "155600.492500", "155600.952500", "155601.412500", "155601.872500", "155602.332500", "155602.792500", "155603.252500", "155603.712500", "155604.172500", "155604.632500", "155605.092500", "155605.552500", "155606.012500", "155606.472500", "155606.932500", "155607.392500", "155607.852500", "155608.312500", "155608.772500", "155609.232500", "155609.692500", "155610.152500", "155610.612500", "155611.072500", "155611.532500", "155611.992500", "155612.452500", "155612.912500", "155613.372500", "155613.832500", "155614.292500", "155614.752500", "155615.212500", "155615.672500", "155616.132500", "155616.592500", "155617.052500", "155617.512500", "155617.972500", "155618.432500", "155618.892500", "155619.352500", "155619.812500", "155620.272500", "155620.732500", "155621.192500", "155621.652500", "155622.112500", "155622.572500", "155623.032500", "155623.492500", "155623.952500", "155624.412500", "155624.872500", "155625.332500", "155625.792500", "155626.252500", "155626.712500", "155627.172500", "155627.632500", "155628.092500", "155628.552500", "155629.012500", "155629.472500", "155629.932500", "155630.392500", "155630.852500", "155631.312500", "155631.772500", "155632.232500", "155632.692500", "155633.152500", "155633.612500", "155634.072500", "155634.532500", "155634.992500", "155635.452500", "155635.912500", "155636.372500", "155636.832500", "155637.292500", "155637.752500", "155638.212500", "155638.672500", "155639.132500", "155639.592500", "155640.052500", "155640.512500", "155640.972500", "155641.432500", "155641.892500", "155642.352500", "155642.812500", "155643.272500", "155643.732500", "155644.192500", "155644.652500", "155645.112500", "155645.572500", "155646.032500", "155646.492500", "155646.952500", "155647.412500", "155647.872500", "155648.332500", "155648.792500", "155649.252500", "155649.712500", "155650.172500", "155650.632500", "155651.092500", "155651.552500", "155652.012500", "155652.472500", "155652.932500", "155653.392500", "155653.852500", "155654.312500", "155654.772500", "155655.232500", "155655.692500", "155656.152500", "155656.612500", "155657.072500", "155657.532500", "155657.992500", "155658.452500", "155658.912500", "155659.372500", "155659.832500", "155700.292500", "155700.752500", "155701.212500", "155701.672500", "155702.132500", "155702.592500", "155703.052500", "155703.512500", "155703.972500", "155704.432500", "155704.892500", "155705.352500", "155705.812500", "155706.272500", "155706.732500", "155707.192500", "155707.652500", "155708.112500", "155708.572500", "155709.032500", "155709.492500", "155709.952500", "155710.412500", "155710.872500", "155711.332500", "155711.792500", "155712.252500", "155712.712500", "155713.172500", "155713.632500", "155714.092500", "155714.552500", "155715.012500", "155715.472500", "155715.932500", "155716.392500", "155716.852500", "155717.312500", "155717.772500", "155718.232500", "155718.692500", "155719.152500", "155719.612500", "155720.072500", "155720.532500", "155720.992500", "155721.452500", "155721.912500", "155722.372500", "155722.832500", "155723.292500", "155723.752500", "155724.212500", "155724.672500", "155725.132500", "155725.592500", "155726.052500", "155726.512500", "155726.972500", "155727.432500", "155727.892500", "155728.352500", "155728.812500", "155729.272500", "155729.732500", "155730.192500", "155730.652500", "155731.112500", "155731.572500", "155732.032500", "155732.492500", "155732.952500", "155733.412500", "155733.872500", "155734.332500", "155734.792500", "155735.252500", "155735.712500", "155736.172500", "155736.632500", "155737.092500", "155737.552500", "155738.012500", "155738.472500", "155738.932500", "155739.392500", "155739.852500", "155740.312500", "155740.772500", "155741.232500", "155741.692500", "155742.152500", "155742.612500", "155743.072500", "155743.532500", "155743.992500", "155744.452500", "155744.912500", "155745.372500", "155745.832500", "155746.292500", "155746.752500", "155747.212500", "155747.672500", "155748.132500", "155748.592500", "155749.052500", "155749.512500", "155749.972500", "155750.432500", "155750.892500", "155751.352500", "155751.812500", "155752.272500", "155752.732500", "155753.192500", "155753.652500", "155754.112500", "155754.572500", "155755.032500", "155755.492500", "155755.952500", "155756.412500", "155756.872500", "155757.332500", "155757.792500", "155758.252500", "155758.712500", "155759.172500", "155759.632500", "155800.092500", "155800.552500", "155801.012500", "155801.472500", "155801.932500", "155802.392500", "155802.852500", "155803.312500", "155803.772500", "155804.232500", "155804.692500", "155805.152500", "155805.612500", "155806.072500", "155806.532500", "155806.992500", "155807.452500", "155807.912500", "155808.372500", "155808.832500", "155809.292500", "155809.752500", "155810.212500", "155810.672500", "155811.132500", "155811.592500", "155812.052500", "155812.512500", "155812.972500", "155813.432500", "155813.892500", "155814.352500", "155814.812500", "155815.272500", "155815.732500", "155816.192500", "155816.652500", "155817.112500", "155817.572500", "155818.032500", "155818.492500", "155818.952500", "155819.412500", "155819.872500", "155820.332500", "155820.792500", "155821.252500", "155821.712500", "155822.172500", "155822.632500", "155823.092500", "155823.552500", "155824.012500", "155824.472500", "155824.932500", "155825.392500", "155825.852500", "155826.312500", "155826.772500", "155827.232500", "155827.692500", "155828.152500", "155828.612500", "155829.072500", "155829.532500", "155829.992500", "155830.452500", "155830.912500", "155831.372500", "155831.832500", "155832.292500", "155832.752500", "155833.212500", "155833.672500", "155834.132500", "155834.592500", "155835.052500", "155835.512500", "155835.972500", "155836.432500", "155836.892500", "155837.352500", "155837.812500", "155838.272500", "155838.732500", "155839.192500", "155839.652500", "155840.112500", "155840.572500", "155841.032500", "155841.492500", "155841.952500", "155842.412500", "155842.872500", "155843.332500", "155843.792500", "155844.252500", "155844.712500", "155845.172500", "155845.632500", "155846.092500", "155846.552500", "155847.012500", "155847.472500", "155847.932500", "155848.392500", "155848.852500", "155849.312500", "155849.772500", "155850.232500", "155850.692500", "155851.152500", "155851.612500", "155852.072500", "155852.532500", "155852.992500", "155853.452500", "155853.912500", "155854.372500", "155854.832500", "155855.292500", "155855.752500", "155856.212500", "155856.672500", "155857.132500", "155857.592500", "155858.052500", "155858.512500", "155858.972500", "155859.432500"],
