{
  "AcquisitionMatrixPE": 82,
  "AcquisitionNumber": 1,
  "AcquisitionTime": "15:37:1.095000",
  "BandwidthPerPixelPhaseEncode": 24.888,
  "BaseResolution": 82,
  "BodyPartExamined": "BRAIN",
  "ConsistencyInfo": "N4_VE11C_LATEST_20160120",
  "ConversionSoftware": "dcm2niix",
  "ConversionSoftwareVersion": "v1.0.20201102",
  "DerivedVendorReportedEchoSpacing": 0.00049,
  "DeviceSerialNumber": "66112",
  "DwellTime": 2e-06,
  "EchoTime": 0.0272,
  "EchoTrainLength": 82,
  "EffectiveEchoSpacing": 0.00049,
  "FlipAngle": 44,
  "ImageComments": "Unaliased MB8/PE3",
  "ImageOrientationPatientDICOM": [0.998353, 0.0458107, -0.034534, -0.0456842, 0.998946, 0.00444425],
  "ImageType": [
    "ORIGINAL",
    "PRIMARY",
    "M",
    "MB",
    "ND",
    "NORM",
    "MOSAIC"
],
  "ImagingFrequency": 123.252,
  "InPlanePhaseEncodingDirectionDICOM": "COL",
  "InstitutionAddress": "Maynard 3,Hanover,NH,US,03755",
  "InstitutionName": "Dartmouth College - PBS",
  "InstitutionalDepartmentName": "Department",
  "MRAcquisitionType": "2D",
  "MagneticFieldStrength": 3,
  "Manufacturer": "Siemens",
  "ManufacturersModelName": "Prisma",
  "Modality": "MR",
  "MultibandAccelerationFactor": 8,
  "PartialFourier": 1,
  "PatientPosition": "HFS",
  "PercentPhaseFOV": 100,
  "PercentSampling": 100,
  "PhaseEncodingDirection": "j-",
  "PhaseEncodingSteps": 82,
  "PhaseResolution": 1,
  "PixelBandwidth": 3050,
  "ProcedureStepDescription": "Wager_Wager^1076_spacetop",
  "ProtocolName": "func_run-04_task-social_acq-ap-mb8",
  "PulseSequenceDetails": "%CustomerSeq%\\cmrr_mbep2d_bold",
  "ReceiveCoilActiveElements": "HEA;HEP",
  "ReceiveCoilName": "Head_32",
  "ReconMatrixPE": 82,
  "RepetitionTime": 0.46,
  "SAR": 0.0921018,
  "ScanOptions": "FS",
  "ScanningSequence": "EP",
  "SequenceName": "epfid2d1_82",
  "SequenceVariant": "SK\\SS",
  "SeriesDescription": "func_run-04_task-social_acq-ap-mb8",
  "SeriesNumber": 20,
  "ShimSetting": [4131, -7765, -7209, 519, -60, 29, -87, 71],
  "SliceThickness": 2.7,
  "SliceTiming": [0, 0.2525, 0.0625, 0.315, 0.1275, 0.3775, 0.19, 0, 0.2525, 0.0625, 0.315, 0.1275, 0.3775, 0.19, 0, 0.2525, 0.0625, 0.315, 0.1275, 0.3775, 0.19, 0, 0.2525, 0.0625, 0.315, 0.1275, 0.3775, 0.19, 0, 0.2525, 0.0625, 0.315, 0.1275, 0.3775, 0.19, 0, 0.2525, 0.0625, 0.315, 0.1275, 0.3775, 0.19, 0, 0.2525, 0.0625, 0.315, 0.1275, 0.3775, 0.19, 0, 0.2525, 0.0625, 0.315, 0.1275, 0.3775, 0.19],
  "SoftwareVersions": "syngo MR E11",
  "SpacingBetweenSlices": 2.7,
  "StationName": "AWP66112",
  "TaskName": "social",
  "TotalReadoutTime": 0.03969,
  "TxRefAmp": 275.651,
  "WipMemBlock": "25fa22be-e766-4aea-ba61-50c136c8eff7||Sequence: R016 ve11c/master r/e634e98; Dec 19 2017 11:00:25 by eja",
  "dcmmeta_affine": [
    [-2.6785082817077637, -0.12256724387407303, -0.09369317442178726, 120.54108428955078],
    [-0.12290668487548828, 2.6800992488861084, 0.007720031775534153, -81.15885162353516],
    [-0.09265214204788208, -0.011923587881028652, 2.6983628273010254, -28.326190948486328],
    [0.0, 0.0, 0.0, 1.0]
],
  "dcmmeta_reorient_transform": [
    [0.0, -1.0, 0.0, 81.0],
    [1.0, 0.0, 0.0, 0.0],
    [0.0, 0.0, 1.0, 0.0],
    [0.0, 0.0, 0.0, 1.0]
],
  "dcmmeta_shape": [82, 82, 56, 872],
  "dcmmeta_slice_dim": 2,
  "dcmmeta_version": 0.6,
  "global": {
    "const": {
      "AccessionNumber": "A003457",
      "AcquisitionMatrix": [82, 0, 0, 82],
      "AngioFlag": "N",
      "BitsAllocated": 16,
      "BitsStored": 16,
      "BodyPartExamined": "BRAIN",
      "Columns": 656,
      "EchoNumbers": 1,
      "EchoTime": 27.2,
      "EchoTrainLength": 82,
      "FlipAngle": 44.0,
      "HighBit": 15,
      "ImageOrientationPatient": [0.9983530369962, 0.04581067242028, -0.0345339805535, -0.0456841527714, 0.99894604802354, 0.00444424613443],
      "ImagePositionPatient": [-844.16819577236, -940.39188111612, -6.1229045703856],
      "ImageType": [
        "ORIGINAL",
        "PRIMARY",
        "M",
        "MB",
        "ND",
        "NORM",
        "MOSAIC"
],
      "ImagedNucleus": "1H",
      "ImagingFrequency": 123.252096,
      "InPlanePhaseEncodingDirection": "COL",
      "MRAcquisitionType": "2D",
      "MagneticFieldStrength": 3.0,
      "Manufacturer": "SIEMENS",
      "ManufacturerModelName": "Prisma",
      "Modality": "MR",
      "NumberOfAverages": 1.0,
      "NumberOfPhaseEncodingSteps": 82,
      "PercentPhaseFieldOfView": 100.0,
      "PercentSampling": 100.0,
      "PerformedProcedureStepStartTime": "144128.898000",
      "PhotometricInterpretation": "MONOCHROME2",
      "PixelBandwidth": 3050.0,
      "PixelRepresentation": 0,
      "PixelSpacing": [2.6829268932343, 2.6829268932343],
      "ProtocolName": "func_run-04_task-social_acq-ap-mb8",
      "RepetitionTime": 460.0,
      "Rows": 656,
      "SAR": 0.09210177815734,
      "SamplesPerPixel": 1,
      "ScanOptions": "FS",
      "ScanningSequence": "EP",
      "SequenceName": "epfid2d1_82",
      "SequenceVariant": [
        "SK",
        "SS"
],
      "SeriesDescription": "func_run-04_task-social_acq-ap-mb8",
      "SeriesNumber": 20,
      "SeriesTime": "153718.801000",
      "SliceLocation": -32.723986917177,
      "SliceThickness": 2.7000000476837,
      "SmallestImagePixelValue": 0,
      "SoftwareVersions": "syngo MR E11",
      "SpacingBetweenSlices": 2.6999999662283,
      "SpecificCharacterSet": "ISO_IR 100",
      "StudyID": "3",
      "StudyTime": "144128.789000",
      "TransmitCoilName": "Body",
      "VariableFlipAngleFlag": "N",
      "WindowCenterWidthExplanation": "Algo1",
      "dBdt": 0.0},
    "slices": {}
  },
  "time": {
    "samples": {
      "AcquisitionNumber": [1, 2, 3, 4, 5, 6, 7, 8, 9, 10, 11, 12, 13, 14, 15, 16, 17, 18, 19, 20, 21, 22, 23, 24, 25, 26, 27, 28, 29, 30, 31, 32, 33, 34, 35, 36, 37, 38, 39, 40, 41, 42, 43, 44, 45, 46, 47, 48, 49, 50, 51, 52, 53, 54, 55, 56, 57, 58, 59, 60, 61, 62, 63, 64, 65, 66, 67, 68, 69, 70, 71, 72, 73, 74, 75, 76, 77, 78, 79, 80, 81, 82, 83, 84, 85, 86, 87, 88, 89, 90, 91, 92, 93, 94, 95, 96, 97, 98, 99, 100, 101, 102, 103, 104, 105, 106, 107, 108, 109, 110, 111, 112, 113, 114, 115, 116, 117, 118, 119, 120, 121, 122, 123, 124, 125, 126, 127, 128, 129, 130, 131, 132, 133, 134, 135, 136, 137, 138, 139, 140, 141, 142, 143, 144, 145, 146, 147, 148, 149, 150, 151, 152, 153, 154, 155, 156, 157, 158, 159, 160, 161, 162, 163, 164, 165, 166, 167, 168, 169, 170, 171, 172, 173, 174, 175, 176, 177, 178, 179, 180, 181, 182, 183, 184, 185, 186, 187, 188, 189, 190, 191, 192, 193, 194, 195, 196, 197, 198, 199, 200, 201, 202, 203, 204, 205, 206, 207, 208, 209, 210, 211, 212, 213, 214, 215, 216, 217, 218, 219, 220, 221, 222, 223, 224, 225, 226, 227, 228, 229, 230, 231, 232, 233, 234, 235, 236, 237, 238, 239, 240, 241, 242, 243, 244, 245, 246, 247, 248, 249, 250, 251, 252, 253, 254, 255, 256, 257, 258, 259, 260, 261, 262, 263, 264, 265, 266, 267, 268, 269, 270, 271, 272, 273, 274, 275, 276, 277, 278, 279, 280, 281, 282, 283, 284, 285, 286, 287, 288, 289, 290, 291, 292, 293, 294, 295, 296, 297, 298, 299, 300, 301, 302, 303, 304, 305, 306, 307, 308, 309, 310, 311, 312, 313, 314, 315, 316, 317, 318, 319, 320, 321, 322, 323, 324, 325, 326, 327, 328, 329, 330, 331, 332, 333, 334, 335, 336, 337, 338, 339, 340, 341, 342, 343, 344, 345, 346, 347, 348, 349, 350, 351, 352, 353, 354, 355, 356, 357, 358, 359, 360, 361, 362, 363, 364, 365, 366, 367, 368, 369, 370, 371, 372, 373, 374, 375, 376, 377, 378, 379, 380, 381, 382, 383, 384, 385, 386, 387, 388, 389, 390, 391, 392, 393, 394, 395, 396, 397, 398, 399, 400, 401, 402, 403, 404, 405, 406, 407, 408, 409, 410, 411, 412, 413, 414, 415, 416, 417, 418, 419, 420, 421, 422, 423, 424, 425, 426, 427, 428, 429, 430, 431, 432, 433, 434, 435, 436, 437, 438, 439, 440, 441, 442, 443, 444, 445, 446, 447, 448, 449, 450, 451, 452, 453, 454, 455, 456, 457, 458, 459, 460, 461, 462, 463, 464, 465, 466, 467, 468, 469, 470, 471, 472, 473, 474, 475, 476, 477, 478, 479, 480, 481, 482, 483, 484, 485, 486, 487, 488, 489, 490, 491, 492, 493, 494, 495, 496, 497, 498, 499, 500, 501, 502, 503, 504, 505, 506, 507, 508, 509, 510, 511, 512, 513, 514, 515, 516, 517, 518, 519, 520, 521, 522, 523, 524, 525, 526, 527, 528, 529, 530, 531, 532, 533, 534, 535, 536, 537, 538, 539, 540, 541, 542, 543, 544, 545, 546, 547, 548, 549, 550, 551, 552, 553, 554, 555, 556, 557, 558, 559, 560, 561, 562, 563, 564, 565, 566, 567, 568, 569, 570, 571, 572, 573, 574, 575, 576, 577, 578, 579, 580, 581, 582, 583, 584, 585, 586, 587, 588, 589, 590, 591, 592, 593, 594, 595, 596, 597, 598, 599, 600, 601, 602, 603, 604, 605, 606, 607, 608, 609, 610, 611, 612, 613, 614, 615, 616, 617, 618, 619, 620, 621, 622, 623, 624, 625, 626, 627, 628, 629, 630, 631, 632, 633, 634, 635, 636, 637, 638, 639, 640, 641, 642, 643, 644, 645, 646, 647, 648, 649, 650, 651, 652, 653, 654, 655, 656, 657, 658, 659, 660, 661, 662, 663, 664, 665, 666, 667, 668, 669, 670, 671, 672, 673, 674, 675, 676, 677, 678, 679, 680, 681, 682, 683, 684, 685, 686, 687, 688, 689, 690, 691, 692, 693, 694, 695, 696, 697, 698, 699, 700, 701, 702, 703, 704, 705, 706, 707, 708, 709, 710, 711, 712, 713, 714, 715, 716, 717, 718, 719, 720, 721, 722, 723, 724, 725, 726, 727, 728, 729, 730, 731, 732, 733, 734, 735, 736, 737, 738, 739, 740, 741, 742, 743, 744, 745, 746, 747, 748, 749, 750, 751, 752, 753, 754, 755, 756, 757, 758, 759, 760, 761, 762, 763, 764, 765, 766, 767, 768, 769, 770, 771, 772, 773, 774, 775, 776, 777, 778, 779, 780, 781, 782, 783, 784, 785, 786, 787, 788, 789, 790, 791, 792, 793, 794, 795, 796, 797, 798, 799, 800, 801, 802, 803, 804, 805, 806, 807, 808, 809, 810, 811, 812, 813, 814, 815, 816, 817, 818, 819, 820, 821, 822, 823, 824, 825, 826, 827, 828, 829, 830, 831, 832, 833, 834, 835, 836, 837, 838, 839, 840, 841, 842, 843, 844, 845, 846, 847, 848, 849, 850, 851, 852, 853, 854, 855, 856, 857, 858, 859, 860, 861, 862, 863, 864, 865, 866, 867, 868, 869, 870, 871, 872],
      "AcquisitionTime": ["153701.095000", "153701.555000", "153702.015000", "153702.475000", "153702.935000", "153703.395000", "153703.855000", "153704.315000", "153704.775000", "153705.235000", "153705.695000", "153706.155000", "153706.615000", "153707.075000", "153707.535000", "153707.995000", "153708.455000", "153708.915000", "153709.375000", "153709.835000", "153710.295000", "153710.755000", "153711.215000", "153711.675000", "153712.135000", "153712.595000", "153713.055000", "153713.515000", "153713.975000", "153714.435000", "153714.895000", "153715.355000", "153715.815000", "153716.275000", "153716.735000", "153717.195000", "153717.655000", "153718.115000", "153718.575000", "153719.035000", "153719.495000", "153719.955000", "153720.415000", "153720.875000", "153721.335000", "153721.795000", "153722.255000", "153722.715000", "153723.175000", "153723.635000", "153724.095000", "153724.555000", "153725.015000", "153725.475000", "153725.935000", "153726.395000", "153726.855000", "153727.315000", "153727.775000", "153728.235000", "153728.695000", "153729.155000", "153729.615000", "153730.075000", "153730.535000", "153730.995000", "153731.455000", "153731.915000", "153732.375000", "153732.835000", "153733.295000", "153733.755000", "153734.215000", "153734.675000", "153735.135000", "153735.595000", "153736.055000", "153736.515000", "153736.975000", "153737.435000", "153737.895000", "153738.355000", "153738.815000", "153739.275000", "153739.735000", "153740.195000", "153740.655000", "153741.115000", "153741.575000", "153742.035000", "153742.495000", "153742.955000", "153743.415000", "153743.875000", "153744.335000", "153744.795000", "153745.255000", "153745.715000", "153746.175000", "153746.635000", "153747.095000", "153747.555000", "153748.015000", "153748.475000", "153748.935000", "153749.395000", "153749.855000", "153750.315000", "153750.775000", "153751.235000", "153751.695000", "153752.155000", "153752.615000", "153753.075000", "153753.535000", "153753.995000", "153754.455000", "153754.915000", "153755.375000", "153755.835000", "153756.295000", "153756.755000", "153757.215000", "153757.675000", "153758.135000", "153758.595000", "153759.055000", "153759.515000", "153759.975000", "153800.435000", "153800.895000", "153801.355000", "153801.815000", "153802.275000", "153802.735000", "153803.195000", "153803.655000", "153804.115000", "153804.575000", "153805.035000", "153805.495000", "153805.955000", "153806.415000", "153806.875000", "153807.335000", "153807.795000", "153808.255000", "153808.715000", "153809.175000", "153809.635000", "153810.095000", "153810.555000", "153811.015000", "153811.475000", "153811.935000", "153812.395000", "153812.855000", "153813.315000", "153813.775000", "153814.235000", "153814.695000", "153815.155000", "153815.615000", "153816.075000", "153816.535000", "153816.995000", "153817.455000", "153817.915000", "153818.375000", "153818.835000", "153819.295000", "153819.755000", "153820.215000", "153820.675000", "153821.135000", "153821.595000", "153822.055000", "153822.515000", "153822.975000", "153823.435000", "153823.895000", "153824.355000", "153824.815000", "153825.275000", "153825.735000", "153826.195000", "153826.655000", "153827.115000", "153827.575000", "153828.035000", "153828.495000", "153828.955000", "153829.415000", "153829.875000", "153830.335000", "153830.795000", "153831.255000", "153831.715000", "153832.175000", "153832.635000", "153833.095000", "153833.555000", "153834.015000", "153834.475000", "153834.935000", "153835.395000", "153835.855000", "153836.315000", "153836.775000", "153837.235000", "153837.695000", "153838.155000", "153838.615000", "153839.075000", "153839.535000", "153839.995000", "153840.455000", "153840.915000", "153841.375000", "153841.835000", "153842.295000", "153842.755000", "153843.215000", "153843.675000", "153844.135000", "153844.595000", "153845.055000", "153845.515000", "153845.975000", "153846.435000", "153846.895000", "153847.355000", "153847.815000", "153848.275000", "153848.735000", "153849.195000", "153849.655000", "153850.115000", "153850.575000", "153851.035000", "153851.495000", "153851.955000", "153852.415000", "153852.875000", "153853.335000", "153853.795000", "153854.255000", "153854.715000", "153855.175000", "153855.635000", "153856.095000", "153856.555000", "153857.015000", "153857.475000", "153857.935000", "153858.395000", "153858.855000", "153859.315000", "153859.775000", "153900.235000", "153900.695000", "153901.155000", "153901.615000", "153902.075000", "153902.535000", "153902.995000", "153903.455000", "153903.915000", "153904.375000", "153904.835000", "153905.295000", "153905.755000", "153906.215000", "153906.675000", "153907.135000", "153907.595000", "153908.055000", "153908.515000", "153908.975000", "153909.435000", "153909.895000", "153910.355000", "153910.815000", "153911.275000", "153911.735000", "153912.195000", "153912.655000", "153913.115000", "153913.575000", "153914.035000", "153914.495000", "153914.955000", "153915.415000", "153915.875000", "153916.335000", "153916.795000", "153917.255000", "153917.715000", "153918.175000", "153918.635000", "153919.095000", "153919.555000", "153920.015000", "153920.475000", "153920.935000", "153921.395000", "153921.855000", "153922.315000", "153922.775000", "153923.235000", "153923.695000", "153924.155000", "153924.615000", "153925.075000", "153925.535000", "153925.995000", "153926.455000", "153926.915000", "153927.375000", "153927.835000", "153928.295000", "153928.755000", "153929.215000", "153929.675000", "153930.135000", "153930.595000", "153931.055000", "153931.515000", "153931.975000", "153932.435000", "153932.895000", "153933.355000", "153933.815000", "153934.275000", "153934.735000", "153935.195000", "153935.655000", "153936.115000", "153936.575000", "153937.035000", "153937.495000", "153937.955000", "153938.415000", "153938.875000", "153939.335000", "153939.795000", "153940.255000", "153940.715000", "153941.175000", "153941.635000", "153942.095000", "153942.555000", "153943.015000", "153943.475000", "153943.935000", "153944.395000", "153944.855000", "153945.315000", "153945.775000", "153946.235000", "153946.695000", "153947.155000", "153947.615000", "153948.075000", "153948.535000", "153948.995000", "153949.455000", "153949.915000", "153950.375000", "153950.835000", "153951.295000", "153951.755000", "153952.215000", "153952.675000", "153953.135000", "153953.595000", "153954.055000", "153954.515000", "153954.975000", "153955.435000", "153955.895000", "153956.355000", "153956.815000", "153957.275000", "153957.735000", "153958.195000", "153958.655000", "153959.115000", "153959.575000", "154000.035000", "154000.495000", "154000.955000", "154001.415000", "154001.875000", "154002.335000", "154002.795000", "154003.255000", "154003.715000", "154004.175000", "154004.635000", "154005.095000", "154005.555000", "154006.015000", "154006.475000", "154006.935000", "154007.395000", "154007.855000", "154008.315000", "154008.775000", "154009.235000", "154009.695000", "154010.155000", "154010.615000", "154011.075000", "154011.535000", "154011.995000", "154012.455000", "154012.915000", "154013.375000", "154013.835000", "154014.295000", "154014.755000", "154015.215000", "154015.675000", "154016.135000", "154016.595000", "154017.055000", "154017.515000", "154017.975000", "154018.435000", "154018.895000", "154019.355000", "154019.815000", "154020.275000", "154020.735000", "154021.195000", "154021.655000", "154022.115000", "154022.575000", "154023.035000", "154023.495000", "154023.955000", "154024.415000", "154024.875000", "154025.335000", "154025.795000", "154026.255000", "154026.715000", "154027.175000", "154027.635000", "154028.095000", "154028.555000", "154029.015000", "154029.475000", "154029.935000", "154030.395000", "154030.855000", "154031.315000", "154031.775000", "154032.235000", "154032.695000", "154033.155000", "154033.615000", "154034.075000", "154034.535000", "154034.995000", "154035.455000", "154035.915000", "154036.375000", "154036.835000", "154037.295000", "154037.755000", "154038.215000", "154038.675000", "154039.135000", "154039.595000", "154040.055000", "154040.515000", "154040.975000", "154041.435000", "154041.895000", "154042.355000", "154042.815000", "154043.275000", "154043.735000", "154044.195000", "154044.655000", "154045.115000", "154045.575000", "154046.035000", "154046.495000", "154046.955000", "154047.415000", "154047.875000", "154048.335000", "154048.795000", "154049.255000", "154049.715000", "154050.175000", "154050.635000", "154051.095000", "154051.555000", "154052.015000", "154052.475000", "154052.935000", "154053.395000", "154053.855000", "154054.315000", "154054.775000", "154055.235000", "154055.695000", "154056.155000", "154056.615000", "154057.075000", "154057.535000", "154057.995000", "154058.455000", "154058.915000", "154059.375000", "154059.835000", "154100.295000", "154100.755000", "154101.215000", "154101.675000", "154102.135000", "154102.595000", "154103.055000", "154103.515000", "154103.975000", "154104.435000", "154104.895000", "154105.355000", "154105.815000", "154106.275000", "154106.735000", "154107.195000", "154107.655000", "154108.115000", "154108.575000", "154109.035000", "154109.495000", "154109.955000", "154110.415000", "154110.875000", "154111.335000", "154111.795000", "154112.255000", "154112.715000", "154113.175000", "154113.635000", "154114.095000", "154114.555000", "154115.015000", "154115.475000", "154115.935000", "154116.395000", "154116.855000", "154117.315000", "154117.775000", "154118.235000", "154118.695000", "154119.155000", "154119.615000", "154120.075000", "154120.535000", "154120.995000", "154121.455000", "154121.915000", "154122.375000", "154122.835000", "154123.295000", "154123.755000", "154124.215000", "154124.675000", "154125.135000", "154125.595000", "154126.055000", "154126.515000", "154126.975000", "154127.435000", "154127.895000", "154128.355000", "154128.815000", "154129.275000", "154129.735000", "154130.195000", "154130.655000", "154131.115000", "154131.575000", "154132.035000", "154132.495000", "154132.955000", "154133.415000", "154133.875000", "154134.335000", "154134.795000", "154135.255000", "154135.715000", "154136.175000", "154136.635000", "154137.095000", "154137.555000", "154138.015000", "154138.475000", "154138.935000", "154139.395000", "154139.855000", "154140.315000", "154140.775000", "154141.235000", "154141.695000", "154142.155000", "154142.615000", "154143.075000", "154143.535000", "154143.995000", "154144.455000", "154144.915000", "154145.375000", "154145.835000", "154146.295000", "154146.755000", "154147.215000", "154147.675000", "154148.135000", "154148.595000", "154149.055000", "154149.515000", "154149.975000", "154150.435000", "154150.895000", "154151.355000", "154151.815000", "154152.275000", "154152.735000", "154153.195000", "154153.655000", "154154.115000", "154154.575000", "154155.035000", "154155.495000", "154155.955000", "154156.415000", "154156.875000", "154157.335000", "154157.795000", "154158.255000", "154158.715000", "154159.175000", "154159.635000", "154200.095000", "154200.555000", "154201.015000", "154201.475000", "154201.935000", "154202.395000", "154202.855000", "154203.315000", "154203.775000", "154204.235000", "154204.695000", "154205.155000", "154205.615000", "154206.075000", "154206.535000", "154206.995000", "154207.455000", "154207.915000", "154208.375000", "154208.835000", "154209.295000", "154209.755000", "154210.215000", "154210.675000", "154211.135000", "154211.595000", "154212.055000", "154212.515000", "154212.975000", "154213.435000", "154213.895000", "154214.355000", "154214.815000", "154215.275000", "154215.735000", "154216.195000", "154216.655000", "154217.115000", "154217.575000", "154218.035000", "154218.495000", "154218.955000", "154219.415000", "154219.875000", "154220.335000", "154220.795000", "154221.255000", "154221.715000", "154222.175000", "154222.635000", "154223.095000", "154223.555000", "154224.015000", "154224.475000", "154224.935000", "154225.395000", "154225.855000", "154226.315000", "154226.775000", "154227.235000", "154227.695000", "154228.155000", "154228.615000", "154229.075000", "154229.535000", "154229.995000", "154230.455000", "154230.915000", "154231.375000", "154231.835000", "154232.295000", "154232.755000", "154233.215000", "154233.675000", "154234.135000", "154234.595000", "154235.055000", "154235.515000", "154235.975000", "154236.435000", "154236.895000", "154237.355000", "154237.815000", "154238.275000", "154238.735000", "154239.195000", "154239.655000", "154240.115000", "154240.575000", "154241.035000", "154241.495000", "154241.955000", "154242.415000", "154242.875000", "154243.335000", "154243.795000", "154244.255000", "154244.715000", "154245.175000", "154245.635000", "154246.095000", "154246.555000", "154247.015000", "154247.475000", "154247.935000", "154248.395000", "154248.855000", "154249.315000", "154249.775000", "154250.235000", "154250.695000", "154251.155000", "154251.615000", "154252.075000", "154252.535000", "154252.995000", "154253.455000", "154253.915000", "154254.375000", "154254.835000", "154255.295000", "154255.755000", "154256.215000", "154256.675000", "154257.135000", "154257.595000", "154258.055000", "154258.515000", "154258.975000", "154259.435000", "154259.895000", "154300.355000", "154300.815000", "154301.275000", "154301.735000", "154302.195000", "154302.655000", "154303.115000", "154303.575000", "154304.035000", "154304.495000", "154304.955000", "154305.415000", "154305.875000", "154306.335000", "154306.795000", "154307.255000", "154307.715000", "154308.175000", "154308.635000", "154309.095000", "154309.555000", "154310.015000", "154310.475000", "154310.935000", "154311.395000", "154311.855000", "154312.315000", "154312.775000", "154313.235000", "154313.695000", "154314.155000", "154314.615000", "154315.075000", "154315.535000", "154315.995000", "154316.455000", "154316.915000", "154317.375000", "154317.835000", "154318.295000", "154318.755000", "154319.215000", "154319.675000", "154320.135000", "154320.595000", "154321.055000", "154321.515000", "154321.975000", "154322.435000", "154322.895000", "154323.355000", "154323.815000", "154324.275000", "154324.735000", "154325.195000", "154325.655000", "154326.115000", "154326.575000", "154327.035000", "154327.495000", "154327.955000", "154328.415000", "154328.875000", "154329.335000", "154329.795000", "154330.255000", "154330.715000", "154331.175000", "154331.635000", "154332.095000", "154332.555000", "154333.015000", "154333.475000", "154333.935000", "154334.395000", "154334.855000", "154335.315000", "154335.775000", "154336.235000", "154336.695000", "154337.155000", "154337.615000", "154338.075000", "154338.535000", "154338.995000", "154339.455000", "154339.915000", "154340.375000", "154340.835000", "154341.295000", "154341.755000"],
