{
  "AcquisitionMatrixPE": 82,
  "AcquisitionNumber": 1,
  "AcquisitionTime": "15:43:57.387500",
  "BandwidthPerPixelPhaseEncode": 24.888,
  "BaseResolution": 82,
  "BodyPartExamined": "BRAIN",
  "ConsistencyInfo": "N4_VE11C_LATEST_20160120",
  "ConversionSoftware": "dcm2niix",
  "ConversionSoftwareVersion": "v1.0.20201102",
  "DerivedVendorReportedEchoSpacing": 0.00049,
  "DeviceSerialNumber": "66112",
  "DwellTime": 2e-06,
  "EchoTime": 0.0272,
  "EchoTrainLength": 82,
  "EffectiveEchoSpacing": 0.00049,
  "FlipAngle": 44,
  "ImageComments": "Unaliased MB8/PE3",
  "ImageOrientationPatientDICOM": [0.998353, 0.0458107, -0.034534, -0.0456842, 0.998946, 0.00444425],
  "ImageType": [
    "ORIGINAL",
    "PRIMARY",
    "M",
    "MB",
    "ND",
    "NORM",
    "MOSAIC"
],
  "ImagingFrequency": 123.252,
  "InPlanePhaseEncodingDirectionDICOM": "COL",
  "InstitutionAddress": "Maynard 3,Hanover,NH,US,03755",
  "InstitutionName": "Dartmouth College - PBS",
  "InstitutionalDepartmentName": "Department",
  "MRAcquisitionType": "2D",
  "MagneticFieldStrength": 3,
  "Manufacturer": "Siemens",
  "ManufacturersModelName": "Prisma",
  "Modality": "MR",
  "MultibandAccelerationFactor": 8,
  "PartialFourier": 1,
  "PatientPosition": "HFS",
  "PercentPhaseFOV": 100,
  "PercentSampling": 100,
  "PhaseEncodingDirection": "j-",
  "PhaseEncodingSteps": 82,
  "PhaseResolution": 1,
  "PixelBandwidth": 3050,
  "ProcedureStepDescription": "Wager_Wager^1076_spacetop",
  "ProtocolName": "func_run-05_task-social_acq-ap-mb8",
  "PulseSequenceDetails": "%CustomerSeq%\\cmrr_mbep2d_bold",
  "ReceiveCoilActiveElements": "HEA;HEP",
  "ReceiveCoilName": "Head_32",
  "ReconMatrixPE": 82,
  "RepetitionTime": 0.46,
  "SAR": 0.0921018,
  "ScanOptions": "FS",
  "ScanningSequence": "EP",
  "SequenceName": "epfid2d1_82",
  "SequenceVariant": "SK\\SS",
  "SeriesDescription": "func_run-05_task-social_acq-ap-mb8",
  "SeriesNumber": 22,
  "ShimSetting": [4131, -7765, -7209, 519, -60, 29, -87, 71],
  "SliceThickness": 2.7,
  "SliceTiming": [0, 0.25, 0.0625, 0.3125, 0.125, 0.375, 0.1875, 0, 0.25, 0.0625, 0.3125, 0.125, 0.375, 0.1875, 0, 0.25, 0.0625, 0.3125, 0.125, 0.375, 0.1875, 0, 0.25, 0.0625, 0.3125, 0.125, 0.375, 0.1875, 0, 0.25, 0.0625, 0.3125, 0.125, 0.375, 0.1875, 0, 0.25, 0.0625, 0.3125, 0.125, 0.375, 0.1875, 0, 0.25, 0.0625, 0.3125, 0.125, 0.375, 0.1875, 0, 0.25, 0.0625, 0.3125, 0.125, 0.375, 0.1875],
  "SoftwareVersions": "syngo MR E11",
  "SpacingBetweenSlices": 2.7,
  "StationName": "AWP66112",
  "TaskName": "social",
  "TotalReadoutTime": 0.03969,
  "TxRefAmp": 275.651,
  "WipMemBlock": "ecb1c8ee-0ea3-45e1-8f1b-5627b47bfe72||Sequence: R016 ve11c/master r/e634e98; Dec 19 2017 11:00:25 by eja",
  "dcmmeta_affine": [
    [-2.6785082817077637, -0.12256724387407303, -0.09369317442178726, 120.54108428955078],
    [-0.12290668487548828, 2.6800992488861084, 0.007720031775534153, -81.15885162353516],
    [-0.09265214204788208, -0.011923587881028652, 2.6983628273010254, -28.326190948486328],
    [0.0, 0.0, 0.0, 1.0]
],
  "dcmmeta_reorient_transform": [
    [0.0, -1.0, 0.0, 81.0],
    [1.0, 0.0, 0.0, 0.0],
    [0.0, 0.0, 1.0, 0.0],
    [0.0, 0.0, 0.0, 1.0]
],
  "dcmmeta_shape": [82, 82, 56, 872],
  "dcmmeta_slice_dim": 2,
  "dcmmeta_version": 0.6,
  "global": {
    "const": {
      "AccessionNumber": "A003457",
      "AcquisitionMatrix": [82, 0, 0, 82],
      "AngioFlag": "N",
      "BitsAllocated": 16,
      "BitsStored": 16,
      "BodyPartExamined": "BRAIN",
      "Columns": 656,
      "EchoNumbers": 1,
      "EchoTime": 27.2,
      "EchoTrainLength": 82,
      "FlipAngle": 44.0,
      "HighBit": 15,
      "ImageOrientationPatient": [0.9983530369962, 0.04581067242028, -0.0345339805535, -0.0456841527714, 0.99894604802354, 0.00444424613443],
      "ImagePositionPatient": [-844.16819577236, -940.39188111612, -6.1229045703856],
      "ImageType": [
        "ORIGINAL",
        "PRIMARY",
        "M",
        "MB",
        "ND",
        "NORM",
        "MOSAIC"
],
      "ImagedNucleus": "1H",
      "ImagingFrequency": 123.2521,
      "InPlanePhaseEncodingDirection": "COL",
      "MRAcquisitionType": "2D",
      "MagneticFieldStrength": 3.0,
      "Manufacturer": "SIEMENS",
      "ManufacturerModelName": "Prisma",
      "Modality": "MR",
      "NumberOfAverages": 1.0,
      "NumberOfPhaseEncodingSteps": 82,
      "PercentPhaseFieldOfView": 100.0,
      "PercentSampling": 100.0,
      "PerformedProcedureStepStartTime": "144128.898000",
      "PhotometricInterpretation": "MONOCHROME2",
      "PixelBandwidth": 3050.0,
      "PixelRepresentation": 0,
      "PixelSpacing": [2.6829268932343, 2.6829268932343],
      "ProtocolName": "func_run-05_task-social_acq-ap-mb8",
      "RepetitionTime": 460.0,
      "Rows": 656,
      "SAR": 0.09210177815734,
      "SamplesPerPixel": 1,
      "ScanOptions": "FS",
      "ScanningSequence": "EP",
      "SequenceName": "epfid2d1_82",
      "SequenceVariant": [
        "SK",
        "SS"
],
      "SeriesDescription": "func_run-05_task-social_acq-ap-mb8",
      "SeriesNumber": 22,
      "SeriesTime": "154418.864000",
      "SliceLocation": -32.723986917177,
      "SliceThickness": 2.7000000476837,
      "SmallestImagePixelValue": 0,
      "SoftwareVersions": "syngo MR E11",
      "SpacingBetweenSlices": 2.6999999662283,
      "SpecificCharacterSet": "ISO_IR 100",
      "StudyID": "3",
      "StudyTime": "144128.789000",
      "TransmitCoilName": "Body",
      "VariableFlipAngleFlag": "N",
      "WindowCenterWidthExplanation": "Algo1",
      "dBdt": 0.0},
    "slices": {}
  },
  "time": {
    "samples": {
      "AcquisitionNumber": [1, 2, 3, 4, 5, 6, 7, 8, 9, 10, 11, 12, 13, 14, 15, 16, 17, 18, 19, 20, 21, 22, 23, 24, 25, 26, 27, 28, 29, 30, 31, 32, 33, 34, 35, 36, 37, 38, 39, 40, 41, 42, 43, 44, 45, 46, 47, 48, 49, 50, 51, 52, 53, 54, 55, 56, 57, 58, 59, 60, 61, 62, 63, 64, 65, 66, 67, 68, 69, 70, 71, 72, 73, 74, 75, 76, 77, 78, 79, 80, 81, 82, 83, 84, 85, 86, 87, 88, 89, 90, 91, 92, 93, 94, 95, 96, 97, 98, 99, 100, 101, 102, 103, 104, 105, 106, 107, 108, 109, 110, 111, 112, 113, 114, 115, 116, 117, 118, 119, 120, 121, 122, 123, 124, 125, 126, 127, 128, 129, 130, 131, 132, 133, 134, 135, 136, 137, 138, 139, 140, 141, 142, 143, 144, 145, 146, 147, 148, 149, 150, 151, 152, 153, 154, 155, 156, 157, 158, 159, 160, 161, 162, 163, 164, 165, 166, 167, 168, 169, 170, 171, 172, 173, 174, 175, 176, 177, 178, 179, 180, 181, 182, 183, 184, 185, 186, 187, 188, 189, 190, 191, 192, 193, 194, 195, 196, 197, 198, 199, 200, 201, 202, 203, 204, 205, 206, 207, 208, 209, 210, 211, 212, 213, 214, 215, 216, 217, 218, 219, 220, 221, 222, 223, 224, 225, 226, 227, 228, 229, 230, 231, 232, 233, 234, 235, 236, 237, 238, 239, 240, 241, 242, 243, 244, 245, 246, 247, 248, 249, 250, 251, 252, 253, 254, 255, 256, 257, 258, 259, 260, 261, 262, 263, 264, 265, 266, 267, 268, 269, 270, 271, 272, 273, 274, 275, 276, 277, 278, 279, 280, 281, 282, 283, 284, 285, 286, 287, 288, 289, 290, 291, 292, 293, 294, 295, 296, 297, 298, 299, 300, 301, 302, 303, 304, 305, 306, 307, 308, 309, 310, 311, 312, 313, 314, 315, 316, 317, 318, 319, 320, 321, 322, 323, 324, 325, 326, 327, 328, 329, 330, 331, 332, 333, 334, 335, 336, 337, 338, 339, 340, 341, 342, 343, 344, 345, 346, 347, 348, 349, 350, 351, 352, 353, 354, 355, 356, 357, 358, 359, 360, 361, 362, 363, 364, 365, 366, 367, 368, 369, 370, 371, 372, 373, 374, 375, 376, 377, 378, 379, 380, 381, 382, 383, 384, 385, 386, 387, 388, 389, 390, 391, 392, 393, 394, 395, 396, 397, 398, 399, 400, 401, 402, 403, 404, 405, 406, 407, 408, 409, 410, 411, 412, 413, 414, 415, 416, 417, 418, 419, 420, 421, 422, 423, 424, 425, 426, 427, 428, 429, 430, 431, 432, 433, 434, 435, 436, 437, 438, 439, 440, 441, 442, 443, 444, 445, 446, 447, 448, 449, 450, 451, 452, 453, 454, 455, 456, 457, 458, 459, 460, 461, 462, 463, 464, 465, 466, 467, 468, 469, 470, 471, 472, 473, 474, 475, 476, 477, 478, 479, 480, 481, 482, 483, 484, 485, 486, 487, 488, 489, 490, 491, 492, 493, 494, 495, 496, 497, 498, 499, 500, 501, 502, 503, 504, 505, 506, 507, 508, 509, 510, 511, 512, 513, 514, 515, 516, 517, 518, 519, 520, 521, 522, 523, 524, 525, 526, 527, 528, 529, 530, 531, 532, 533, 534, 535, 536, 537, 538, 539, 540, 541, 542, 543, 544, 545, 546, 547, 548, 549, 550, 551, 552, 553, 554, 555, 556, 557, 558, 559, 560, 561, 562, 563, 564, 565, 566, 567, 568, 569, 570, 571, 572, 573, 574, 575, 576, 577, 578, 579, 580, 581, 582, 583, 584, 585, 586, 587, 588, 589, 590, 591, 592, 593, 594, 595, 596, 597, 598, 599, 600, 601, 602, 603, 604, 605, 606, 607, 608, 609, 610, 611, 612, 613, 614, 615, 616, 617, 618, 619, 620, 621, 622, 623, 624, 625, 626, 627, 628, 629, 630, 631, 632, 633, 634, 635, 636, 637, 638, 639, 640, 641, 642, 643, 644, 645, 646, 647, 648, 649, 650, 651, 652, 653, 654, 655, 656, 657, 658, 659, 660, 661, 662, 663, 664, 665, 666, 667, 668, 669, 670, 671, 672, 673, 674, 675, 676, 677, 678, 679, 680, 681, 682, 683, 684, 685, 686, 687, 688, 689, 690, 691, 692, 693, 694, 695, 696, 697, 698, 699, 700, 701, 702, 703, 704, 705, 706, 707, 708, 709, 710, 711, 712, 713, 714, 715, 716, 717, 718, 719, 720, 721, 722, 723, 724, 725, 726, 727, 728, 729, 730, 731, 732, 733, 734, 735, 736, 737, 738, 739, 740, 741, 742, 743, 744, 745, 746, 747, 748, 749, 750, 751, 752, 753, 754, 755, 756, 757, 758, 759, 760, 761, 762, 763, 764, 765, 766, 767, 768, 769, 770, 771, 772, 773, 774, 775, 776, 777, 778, 779, 780, 781, 782, 783, 784, 785, 786, 787, 788, 789, 790, 791, 792, 793, 794, 795, 796, 797, 798, 799, 800, 801, 802, 803, 804, 805, 806, 807, 808, 809, 810, 811, 812, 813, 814, 815, 816, 817, 818, 819, 820, 821, 822, 823, 824, 825, 826, 827, 828, 829, 830, 831, 832, 833, 834, 835, 836, 837, 838, 839, 840, 841, 842, 843, 844, 845, 846, 847, 848, 849, 850, 851, 852, 853, 854, 855, 856, 857, 858, 859, 860, 861, 862, 863, 864, 865, 866, 867, 868, 869, 870, 871, 872],
      "AcquisitionTime": ["154357.387500", "154357.847500", "154358.307500", "154358.767500", "154359.227500", "154359.687500", "154400.147500", "154400.607500", "154401.067500", "154401.527500", "154401.987500", "154402.447500", "154402.907500", "154403.367500", "154403.827500", "154404.287500", "154404.747500", "154405.207500", "154405.667500", "154406.127500", "154406.587500", "154407.047500", "154407.507500", "154407.967500", "154408.427500", "154408.887500", "154409.347500", "154409.807500", "154410.267500", "154410.727500", "154411.187500", "154411.647500", "154412.107500", "154412.567500", "154413.027500", "154413.487500", "154413.947500", "154414.407500", "154414.867500", "154415.327500", "154415.787500", "154416.247500", "154416.707500", "154417.167500", "154417.627500", "154418.087500", "154418.547500", "154419.007500", "154419.467500", "154419.927500", "154420.387500", "154420.847500", "154421.307500", "154421.767500", "154422.227500", "154422.687500", "154423.147500", "154423.607500", "154424.067500", "154424.527500", "154424.987500", "154425.447500", "154425.907500", "154426.367500", "154426.827500", "154427.287500", "154427.747500", "154428.207500", "154428.667500", "154429.127500", "154429.587500", "154430.047500", "154430.507500", "154430.967500", "154431.427500", "154431.887500", "154432.347500", "154432.807500", "154433.267500", "154433.727500", "154434.187500", "154434.647500", "154435.107500", "154435.567500", "154436.027500", "154436.487500", "154436.947500", "154437.407500", "154437.867500", "154438.327500", "154438.787500", "154439.247500", "154439.707500", "154440.167500", "154440.627500", "154441.087500", "154441.547500", "154442.007500", "154442.467500", "154442.927500", "154443.387500", "154443.847500", "154444.307500", "154444.767500", "154445.227500", "154445.687500", "154446.147500", "154446.607500", "154447.067500", "154447.527500", "154447.987500", "154448.447500", "154448.907500", "154449.367500", "154449.827500", "154450.287500", "154450.747500", "154451.207500", "154451.667500", "154452.127500", "154452.587500", "154453.047500", "154453.507500", "154453.967500", "154454.427500", "154454.887500", "154455.347500", "154455.807500", "154456.267500", "154456.727500", "154457.187500", "154457.647500", "154458.107500", "154458.567500", "154459.027500", "154459.487500", "154459.947500", "154500.407500", "154500.867500", "154501.327500", "154501.787500", "154502.247500", "154502.707500", "154503.167500", "154503.627500", "154504.087500", "154504.547500", "154505.007500", "154505.467500", "154505.927500", "154506.387500", "154506.847500", "154507.307500", "154507.767500", "154508.227500", "154508.687500", "154509.147500", "154509.607500", "154510.067500", "154510.527500", "154510.987500", "154511.447500", "154511.907500", "154512.367500", "154512.827500", "154513.287500", "154513.747500", "154514.207500", "154514.667500", "154515.127500", "154515.587500", "154516.047500", "154516.507500", "154516.967500", "154517.427500", "154517.887500", "154518.347500", "154518.807500", "154519.267500", "154519.727500", "154520.187500", "154520.647500", "154521.107500", "154521.567500", "154522.027500", "154522.487500", "154522.947500", "154523.407500", "154523.867500", "154524.327500", "154524.787500", "154525.247500", "154525.707500", "154526.167500", "154526.627500", "154527.087500", "154527.547500", "154528.007500", "154528.467500", "154528.927500", "154529.387500", "154529.847500", "154530.307500", "154530.767500", "154531.227500", "154531.687500", "154532.147500", "154532.607500", "154533.067500", "154533.527500", "154533.987500", "154534.447500", "154534.907500", "154535.367500", "154535.827500", "154536.287500", "154536.747500", "154537.207500", "154537.667500", "154538.127500", "154538.587500", "154539.047500", "154539.507500", "154539.967500", "154540.427500", "154540.887500", "154541.347500", "154541.807500", "154542.267500", "154542.727500", "154543.187500", "154543.647500", "154544.107500", "154544.567500", "154545.027500", "154545.487500", "154545.947500", "154546.407500", "154546.867500", "154547.327500", "154547.787500", "154548.247500", "154548.707500", "154549.167500", "154549.627500", "154550.087500", "154550.547500", "154551.007500", "154551.467500", "154551.927500", "154552.387500", "154552.847500", "154553.307500", "154553.767500", "154554.227500", "154554.687500", "154555.147500", "154555.607500", "154556.067500", "154556.527500", "154556.987500", "154557.447500", "154557.907500", "154558.367500", "154558.827500", "154559.287500", "154559.747500", "154600.207500", "154600.667500", "154601.127500", "154601.587500", "154602.047500", "154602.507500", "154602.967500", "154603.427500", "154603.887500", "154604.347500", "154604.807500", "154605.267500", "154605.727500", "154606.187500", "154606.647500", "154607.107500", "154607.567500", "154608.027500", "154608.487500", "154608.947500", "154609.407500", "154609.867500", "154610.327500", "154610.787500", "154611.247500", "154611.707500", "154612.167500", "154612.627500", "154613.087500", "154613.547500", "154614.007500", "154614.467500", "154614.927500", "154615.387500", "154615.847500", "154616.307500", "154616.767500", "154617.227500", "154617.687500", "154618.147500", "154618.607500", "154619.067500", "154619.527500", "154619.987500", "154620.447500", "154620.907500", "154621.367500", "154621.827500", "154622.287500", "154622.747500", "154623.207500", "154623.667500", "154624.127500", "154624.587500", "154625.047500", "154625.507500", "154625.967500", "154626.427500", "154626.887500", "154627.347500", "154627.807500", "154628.267500", "154628.727500", "154629.187500", "154629.647500", "154630.107500", "154630.567500", "154631.027500", "154631.487500", "154631.947500", "154632.407500", "154632.867500", "154633.327500", "154633.787500", "154634.247500", "154634.707500", "154635.167500", "154635.627500", "154636.087500", "154636.547500", "154637.007500", "154637.467500", "154637.927500", "154638.387500", "154638.847500", "154639.307500", "154639.767500", "154640.227500", "154640.687500", "154641.147500", "154641.607500", "154642.067500", "154642.527500", "154642.987500", "154643.447500", "154643.907500", "154644.367500", "154644.827500", "154645.287500", "154645.747500", "154646.207500", "154646.667500", "154647.127500", "154647.587500", "154648.047500", "154648.507500", "154648.967500", "154649.427500", "154649.887500", "154650.347500", "154650.807500", "154651.267500", "154651.727500", "154652.187500", "154652.647500", "154653.107500", "154653.567500", "154654.027500", "154654.487500", "154654.947500", "154655.407500", "154655.867500", "154656.327500", "154656.787500", "154657.247500", "154657.707500", "154658.167500", "154658.627500", "154659.087500", "154659.547500", "154700.007500", "154700.467500", "154700.927500", "154701.387500", "154701.847500", "154702.307500", "154702.767500", "154703.227500", "154703.687500", "154704.147500", "154704.607500", "154705.067500", "154705.527500", "154705.987500", "154706.447500", "154706.907500", "154707.367500", "154707.827500", "154708.287500", "154708.747500", "154709.207500", "154709.667500", "154710.127500", "154710.587500", "154711.047500", "154711.507500", "154711.967500", "154712.427500", "154712.887500", "154713.347500", "154713.807500", "154714.267500", "154714.727500", "154715.187500", "154715.647500", "154716.107500", "154716.567500", "154717.027500", "154717.487500", "154717.947500", "154718.407500", "154718.867500", "154719.327500", "154719.787500", "154720.247500", "154720.707500", "154721.167500", "154721.627500", "154722.087500", "154722.547500", "154723.007500", "154723.467500", "154723.927500", "154724.387500", "154724.847500", "154725.307500", "154725.767500", "154726.227500", "154726.687500", "154727.147500", "154727.607500", "154728.067500", "154728.527500", "154728.987500", "154729.447500", "154729.907500", "154730.367500", "154730.827500", "154731.287500", "154731.747500", "154732.207500", "154732.667500", "154733.127500", "154733.587500", "154734.047500", "154734.507500", "154734.967500", "154735.427500", "154735.887500", "154736.347500", "154736.807500", "154737.267500", "154737.727500", "154738.187500", "154738.647500", "154739.107500", "154739.567500", "154740.027500", "154740.487500", "154740.947500", "154741.407500", "154741.867500", "154742.327500", "154742.787500", "154743.247500", "154743.707500", "154744.167500", "154744.627500", "154745.087500", "154745.547500", "154746.007500", "154746.467500", "154746.927500", "154747.387500", "154747.847500", "154748.307500", "154748.767500", "154749.227500", "154749.687500", "154750.147500", "154750.607500", "154751.067500", "154751.527500", "154751.987500", "154752.447500", "154752.907500", "154753.367500", "154753.827500", "154754.287500", "154754.747500", "154755.207500", "154755.667500", "154756.127500", "154756.587500", "154757.047500", "154757.507500", "154757.967500", "154758.427500", "154758.887500", "154759.347500", "154759.807500", "154800.267500", "154800.727500", "154801.187500", "154801.647500", "154802.107500", "154802.567500", "154803.027500", "154803.487500", "154803.947500", "154804.407500", "154804.867500", "154805.327500", "154805.787500", "154806.247500", "154806.707500", "154807.167500", "154807.627500", "154808.087500", "154808.547500", "154809.007500", "154809.467500", "154809.927500", "154810.387500", "154810.847500", "154811.307500", "154811.767500", "154812.227500", "154812.687500", "154813.147500", "154813.607500", "154814.067500", "154814.527500", "154814.987500", "154815.447500", "154815.907500", "154816.367500", "154816.827500", "154817.287500", "154817.747500", "154818.207500", "154818.667500", "154819.127500", "154819.587500", "154820.047500", "154820.507500", "154820.967500", "154821.427500", "154821.887500", "154822.347500", "154822.807500", "154823.267500", "154823.727500", "154824.187500", "154824.647500", "154825.107500", "154825.567500", "154826.027500", "154826.487500", "154826.947500", "154827.407500", "154827.867500", "154828.327500", "154828.787500", "154829.247500", "154829.707500", "154830.167500", "154830.627500", "154831.087500", "154831.547500", "154832.007500", "154832.467500", "154832.927500", "154833.387500", "154833.847500", "154834.307500", "154834.767500", "154835.227500", "154835.687500", "154836.147500", "154836.607500", "154837.067500", "154837.527500", "154837.987500", "154838.447500", "154838.907500", "154839.367500", "154839.827500", "154840.287500", "154840.747500", "154841.207500", "154841.667500", "154842.127500", "154842.587500", "154843.047500", "154843.507500", "154843.967500", "154844.427500", "154844.887500", "154845.347500", "154845.807500", "154846.267500", "154846.727500", "154847.187500", "154847.647500", "154848.107500", "154848.567500", "154849.027500", "154849.487500", "154849.947500", "154850.407500", "154850.867500", "154851.327500", "154851.787500", "154852.247500", "154852.707500", "154853.167500", "154853.627500", "154854.087500", "154854.547500", "154855.007500", "154855.467500", "154855.927500", "154856.387500", "154856.847500", "154857.307500", "154857.767500", "154858.227500", "154858.687500", "154859.147500", "154859.607500", "154900.067500", "154900.527500", "154900.987500", "154901.447500", "154901.907500", "154902.367500", "154902.827500", "154903.287500", "154903.747500", "154904.207500", "154904.667500", "154905.127500", "154905.587500", "154906.047500", "154906.507500", "154906.967500", "154907.427500", "154907.887500", "154908.347500", "154908.807500", "154909.267500", "154909.727500", "154910.187500", "154910.647500", "154911.107500", "154911.567500", "154912.027500", "154912.487500", "154912.947500", "154913.407500", "154913.867500", "154914.327500", "154914.787500", "154915.247500", "154915.707500", "154916.167500", "154916.627500", "154917.087500", "154917.547500", "154918.007500", "154918.467500", "154918.927500", "154919.387500", "154919.847500", "154920.307500", "154920.767500", "154921.227500", "154921.687500", "154922.147500", "154922.607500", "154923.067500", "154923.527500", "154923.987500", "154924.447500", "154924.907500", "154925.367500", "154925.827500", "154926.287500", "154926.747500", "154927.207500", "154927.667500", "154928.127500", "154928.587500", "154929.047500", "154929.507500", "154929.967500", "154930.427500", "154930.887500", "154931.347500", "154931.807500", "154932.267500", "154932.727500", "154933.187500", "154933.647500", "154934.107500", "154934.567500", "154935.027500", "154935.487500", "154935.947500", "154936.407500", "154936.867500", "154937.327500", "154937.787500", "154938.247500", "154938.707500", "154939.167500", "154939.627500", "154940.087500", "154940.547500", "154941.007500", "154941.467500", "154941.927500", "154942.387500", "154942.847500", "154943.307500", "154943.767500", "154944.227500", "154944.687500", "154945.147500", "154945.607500", "154946.067500", "154946.527500", "154946.987500", "154947.447500", "154947.907500", "154948.367500", "154948.827500", "154949.287500", "154949.747500", "154950.207500", "154950.667500", "154951.127500", "154951.587500", "154952.047500", "154952.507500", "154952.967500", "154953.427500", "154953.887500", "154954.347500", "154954.807500", "154955.267500", "154955.727500", "154956.187500", "154956.647500", "154957.107500", "154957.567500", "154958.027500", "154958.487500", "154958.947500", "154959.407500", "154959.867500", "155000.327500", "155000.787500", "155001.247500", "155001.707500", "155002.167500", "155002.627500", "155003.087500", "155003.547500", "155004.007500", "155004.467500", "155004.927500", "155005.387500", "155005.847500", "155006.307500", "155006.767500", "155007.227500", "155007.687500", "155008.147500", "155008.607500", "155009.067500", "155009.527500", "155009.987500", "155010.447500", "155010.907500", "155011.367500", "155011.827500", "155012.287500", "155012.747500", "155013.207500", "155013.667500", "155014.127500", "155014.587500", "155015.047500", "155015.507500", "155015.967500", "155016.427500", "155016.887500", "155017.347500", "155017.807500", "155018.267500", "155018.727500", "155019.187500", "155019.647500", "155020.107500", "155020.567500", "155021.027500", "155021.487500", "155021.947500", "155022.407500", "155022.867500", "155023.327500", "155023.787500", "155024.247500", "155024.707500", "155025.167500", "155025.627500", "155026.087500", "155026.547500", "155027.007500", "155027.467500", "155027.927500", "155028.387500", "155028.847500", "155029.307500", "155029.767500", "155030.227500", "155030.687500", "155031.147500", "155031.607500", "155032.067500", "155032.527500", "155032.987500", "155033.447500", "155033.907500", "155034.367500", "155034.827500", "155035.287500", "155035.747500", "155036.207500", "155036.667500", "155037.127500", "155037.587500", "155038.047500"],
