{
  "AcquisitionMatrixPE": 82,
  "AcquisitionNumber": 1,
  "AcquisitionTime": "15:15:2.417500",
  "BandwidthPerPixelPhaseEncode": 24.888,
  "BaseResolution": 82,
  "BodyPartExamined": "BRAIN",
  "ConsistencyInfo": "N4_VE11C_LATEST_20160120",
  "ConversionSoftware": "dcm2niix",
  "ConversionSoftwareVersion": "v1.0.20201102",
  "DerivedVendorReportedEchoSpacing": 0.00049,
  "DeviceSerialNumber": "66112",
  "DwellTime": 2e-06,
  "EchoTime": 0.0272,
  "EchoTrainLength": 82,
  "EffectiveEchoSpacing": 0.00049,
  "FlipAngle": 44,
  "ImageComments": "Unaliased MB8/PE3",
  "ImageOrientationPatientDICOM": [0.998353, 0.0458107, -0.034534, -0.0456842, 0.998946, 0.00444425],
  "ImageType": [
    "ORIGINAL",
    "PRIMARY",
    "M",
    "MB",
    "ND",
    "NORM",
    "MOSAIC"
],
  "ImagingFrequency": 123.252,
  "InPlanePhaseEncodingDirectionDICOM": "COL",
  "InstitutionAddress": "Maynard 3,Hanover,NH,US,03755",
  "InstitutionName": "Dartmouth College - PBS",
  "InstitutionalDepartmentName": "Department",
  "MRAcquisitionType": "2D",
  "MagneticFieldStrength": 3,
  "Manufacturer": "Siemens",
  "ManufacturersModelName": "Prisma",
  "Modality": "MR",
  "MultibandAccelerationFactor": 8,
  "PartialFourier": 1,
  "PatientPosition": "HFS",
  "PercentPhaseFOV": 100,
  "PercentSampling": 100,
  "PhaseEncodingDirection": "j-",
  "PhaseEncodingSteps": 82,
  "PhaseResolution": 1,
  "PixelBandwidth": 3050,
  "ProcedureStepDescription": "Wager_Wager^1076_spacetop",
  "ProtocolName": "func_run-01_task-social_acq-ap-mb8",
  "PulseSequenceDetails": "%CustomerSeq%\\cmrr_mbep2d_bold",
  "ReceiveCoilActiveElements": "HEA;HEP",
  "ReceiveCoilName": "Head_32",
  "ReconMatrixPE": 82,
  "RepetitionTime": 0.46,
  "SAR": 0.0921018,
  "ScanOptions": "FS",
  "ScanningSequence": "EP",
  "SequenceName": "epfid2d1_82",
  "SequenceVariant": "SK\\SS",
  "SeriesDescription": "func_run-01_task-social_acq-ap-mb8",
  "SeriesNumber": 12,
  "ShimSetting": [4131, -7765, -7209, 519, -60, 29, -87, 71],
  "SliceThickness": 2.7,
  "SliceTiming": [0, 0.2525, 0.065, 0.315, 0.1275, 0.3775, 0.19, 0, 0.2525, 0.065, 0.315, 0.1275, 0.3775, 0.19, 0, 0.2525, 0.065, 0.315, 0.1275, 0.3775, 0.19, 0, 0.2525, 0.065, 0.315, 0.1275, 0.3775, 0.19, 0, 0.2525, 0.065, 0.315, 0.1275, 0.3775, 0.19, 0, 0.2525, 0.065, 0.315, 0.1275, 0.3775, 0.19, 0, 0.2525, 0.065, 0.315, 0.1275, 0.3775, 0.19, 0, 0.2525, 0.065, 0.315, 0.1275, 0.3775, 0.19],
  "SoftwareVersions": "syngo MR E11",
  "SpacingBetweenSlices": 2.7,
  "StationName": "AWP66112",
  "TaskName": "social",
  "TotalReadoutTime": 0.03969,
  "TxRefAmp": 275.651,
  "WipMemBlock": "37d5525f-e65a-4b8f-8532-be44b1614726||Sequence: R016 ve11c/master r/e634e98; Dec 19 2017 11:00:25 by eja",
  "dcmmeta_affine": [
    [-2.6785082817077637, -0.12256724387407303, -0.09369317442178726, 120.54108428955078],
    [-0.12290668487548828, 2.6800992488861084, 0.007720031775534153, -81.15885162353516],
    [-0.09265214204788208, -0.011923587881028652, 2.6983628273010254, -28.326190948486328],
    [0.0, 0.0, 0.0, 1.0]
],
  "dcmmeta_reorient_transform": [
    [0.0, -1.0, 0.0, 81.0],
    [1.0, 0.0, 0.0, 0.0],
    [0.0, 0.0, 1.0, 0.0],
    [0.0, 0.0, 0.0, 1.0]
],
  "dcmmeta_shape": [82, 82, 56, 872],
  "dcmmeta_slice_dim": 2,
  "dcmmeta_version": 0.6,
  "global": {
    "const": {
      "AccessionNumber": "A003457",
      "AcquisitionMatrix": [82, 0, 0, 82],
      "AngioFlag": "N",
      "BitsAllocated": 16,
      "BitsStored": 16,
      "BodyPartExamined": "BRAIN",
      "Columns": 656,
      "EchoNumbers": 1,
      "EchoTime": 27.2,
      "EchoTrainLength": 82,
      "FlipAngle": 44.0,
      "HighBit": 15,
      "ImageOrientationPatient": [0.9983530369962, 0.04581067242028, -0.0345339805535, -0.0456841527714, 0.99894604802354, 0.00444424613443],
      "ImagePositionPatient": [-844.16819577236, -940.39188111612, -6.1229045703856],
      "ImageType": [
        "ORIGINAL",
        "PRIMARY",
        "M",
        "MB",
        "ND",
        "NORM",
        "MOSAIC"
],
      "ImagedNucleus": "1H",
      "ImagingFrequency": 123.252086,
      "InPlanePhaseEncodingDirection": "COL",
      "MRAcquisitionType": "2D",
      "MagneticFieldStrength": 3.0,
      "Manufacturer": "SIEMENS",
      "ManufacturerModelName": "Prisma",
      "Modality": "MR",
      "NumberOfAverages": 1.0,
      "NumberOfPhaseEncodingSteps": 82,
      "PercentPhaseFieldOfView": 100.0,
      "PercentSampling": 100.0,
      "PerformedProcedureStepStartTime": "144128.898000",
      "PhotometricInterpretation": "MONOCHROME2",
      "PixelBandwidth": 3050.0,
      "PixelRepresentation": 0,
      "PixelSpacing": [2.6829268932343, 2.6829268932343],
      "ProtocolName": "func_run-01_task-social_acq-ap-mb8",
      "RepetitionTime": 460.0,
      "Rows": 656,
      "SAR": 0.09210177815734,
      "SamplesPerPixel": 1,
      "ScanOptions": "FS",
      "ScanningSequence": "EP",
      "SequenceName": "epfid2d1_82",
      "SequenceVariant": [
        "SK",
        "SS"
],
      "SeriesDescription": "func_run-01_task-social_acq-ap-mb8",
      "SeriesNumber": 12,
      "SeriesTime": "151518.720000",
      "SliceLocation": -32.723986917177,
      "SliceThickness": 2.7000000476837,
      "SmallestImagePixelValue": 0,
      "SoftwareVersions": "syngo MR E11",
      "SpacingBetweenSlices": 2.6999999662283,
      "SpecificCharacterSet": "ISO_IR 100",
      "StudyID": "3",
      "StudyTime": "144128.789000",
      "TransmitCoilName": "Body",
      "VariableFlipAngleFlag": "N",
      "WindowCenterWidthExplanation": "Algo1",
      "dBdt": 0.0},
    "slices": {}
  },
  "time": {
    "samples": {
      "AcquisitionNumber": [1, 2, 3, 4, 5, 6, 7, 8, 9, 10, 11, 12, 13, 14, 15, 16, 17, 18, 19, 20, 21, 22, 23, 24, 25, 26, 27, 28, 29, 30, 31, 32, 33, 34, 35, 36, 37, 38, 39, 40, 41, 42, 43, 44, 45, 46, 47, 48, 49, 50, 51, 52, 53, 54, 55, 56, 57, 58, 59, 60, 61, 62, 63, 64, 65, 66, 67, 68, 69, 70, 71, 72, 73, 74, 75, 76, 77, 78, 79, 80, 81, 82, 83, 84, 85, 86, 87, 88, 89, 90, 91, 92, 93, 94, 95, 96, 97, 98, 99, 100, 101, 102, 103, 104, 105, 106, 107, 108, 109, 110, 111, 112, 113, 114, 115, 116, 117, 118, 119, 120, 121, 122, 123, 124, 125, 126, 127, 128, 129, 130, 131, 132, 133, 134, 135, 136, 137, 138, 139, 140, 141, 142, 143, 144, 145, 146, 147, 148, 149, 150, 151, 152, 153, 154, 155, 156, 157, 158, 159, 160, 161, 162, 163, 164, 165, 166, 167, 168, 169, 170, 171, 172, 173, 174, 175, 176, 177, 178, 179, 180, 181, 182, 183, 184, 185, 186, 187, 188, 189, 190, 191, 192, 193, 194, 195, 196, 197, 198, 199, 200, 201, 202, 203, 204, 205, 206, 207, 208, 209, 210, 211, 212, 213, 214, 215, 216, 217, 218, 219, 220, 221, 222, 223, 224, 225, 226, 227, 228, 229, 230, 231, 232, 233, 234, 235, 236, 237, 238, 239, 240, 241, 242, 243, 244, 245, 246, 247, 248, 249, 250, 251, 252, 253, 254, 255, 256, 257, 258, 259, 260, 261, 262, 263, 264, 265, 266, 267, 268, 269, 270, 271, 272, 273, 274, 275, 276, 277, 278, 279, 280, 281, 282, 283, 284, 285, 286, 287, 288, 289, 290, 291, 292, 293, 294, 295, 296, 297, 298, 299, 300, 301, 302, 303, 304, 305, 306, 307, 308, 309, 310, 311, 312, 313, 314, 315, 316, 317, 318, 319, 320, 321, 322, 323, 324, 325, 326, 327, 328, 329, 330, 331, 332, 333, 334, 335, 336, 337, 338, 339, 340, 341, 342, 343, 344, 345, 346, 347, 348, 349, 350, 351, 352, 353, 354, 355, 356, 357, 358, 359, 360, 361, 362, 363, 364, 365, 366, 367, 368, 369, 370, 371, 372, 373, 374, 375, 376, 377, 378, 379, 380, 381, 382, 383, 384, 385, 386, 387, 388, 389, 390, 391, 392, 393, 394, 395, 396, 397, 398, 399, 400, 401, 402, 403, 404, 405, 406, 407, 408, 409, 410, 411, 412, 413, 414, 415, 416, 417, 418, 419, 420, 421, 422, 423, 424, 425, 426, 427, 428, 429, 430, 431, 432, 433, 434, 435, 436, 437, 438, 439, 440, 441, 442, 443, 444, 445, 446, 447, 448, 449, 450, 451, 452, 453, 454, 455, 456, 457, 458, 459, 460, 461, 462, 463, 464, 465, 466, 467, 468, 469, 470, 471, 472, 473, 474, 475, 476, 477, 478, 479, 480, 481, 482, 483, 484, 485, 486, 487, 488, 489, 490, 491, 492, 493, 494, 495, 496, 497, 498, 499, 500, 501, 502, 503, 504, 505, 506, 507, 508, 509, 510, 511, 512, 513, 514, 515, 516, 517, 518, 519, 520, 521, 522, 523, 524, 525, 526, 527, 528, 529, 530, 531, 532, 533, 534, 535, 536, 537, 538, 539, 540, 541, 542, 543, 544, 545, 546, 547, 548, 549, 550, 551, 552, 553, 554, 555, 556, 557, 558, 559, 560, 561, 562, 563, 564, 565, 566, 567, 568, 569, 570, 571, 572, 573, 574, 575, 576, 577, 578, 579, 580, 581, 582, 583, 584, 585, 586, 587, 588, 589, 590, 591, 592, 593, 594, 595, 596, 597, 598, 599, 600, 601, 602, 603, 604, 605, 606, 607, 608, 609, 610, 611, 612, 613, 614, 615, 616, 617, 618, 619, 620, 621, 622, 623, 624, 625, 626, 627, 628, 629, 630, 631, 632, 633, 634, 635, 636, 637, 638, 639, 640, 641, 642, 643, 644, 645, 646, 647, 648, 649, 650, 651, 652, 653, 654, 655, 656, 657, 658, 659, 660, 661, 662, 663, 664, 665, 666, 667, 668, 669, 670, 671, 672, 673, 674, 675, 676, 677, 678, 679, 680, 681, 682, 683, 684, 685, 686, 687, 688, 689, 690, 691, 692, 693, 694, 695, 696, 697, 698, 699, 700, 701, 702, 703, 704, 705, 706, 707, 708, 709, 710, 711, 712, 713, 714, 715, 716, 717, 718, 719, 720, 721, 722, 723, 724, 725, 726, 727, 728, 729, 730, 731, 732, 733, 734, 735, 736, 737, 738, 739, 740, 741, 742, 743, 744, 745, 746, 747, 748, 749, 750, 751, 752, 753, 754, 755, 756, 757, 758, 759, 760, 761, 762, 763, 764, 765, 766, 767, 768, 769, 770, 771, 772, 773, 774, 775, 776, 777, 778, 779, 780, 781, 782, 783, 784, 785, 786, 787, 788, 789, 790, 791, 792, 793, 794, 795, 796, 797, 798, 799, 800, 801, 802, 803, 804, 805, 806, 807, 808, 809, 810, 811, 812, 813, 814, 815, 816, 817, 818, 819, 820, 821, 822, 823, 824, 825, 826, 827, 828, 829, 830, 831, 832, 833, 834, 835, 836, 837, 838, 839, 840, 841, 842, 843, 844, 845, 846, 847, 848, 849, 850, 851, 852, 853, 854, 855, 856, 857, 858, 859, 860, 861, 862, 863, 864, 865, 866, 867, 868, 869, 870, 871, 872],
      "AcquisitionTime": ["151502.417500", "151502.877500", "151503.337500", "151503.797500", "151504.257500", "151504.717500", "151505.177500", "151505.637500", "151506.097500", "151506.557500", "151507.017500", "151507.477500", "151507.937500", "151508.397500", "151508.857500", "151509.317500", "151509.777500", "151510.237500", "151510.697500", "151511.157500", "151511.617500", "151512.077500", "151512.537500", "151512.997500", "151513.457500", "151513.917500", "151514.377500", "151514.837500", "151515.297500", "151515.757500", "151516.217500", "151516.677500", "151517.137500", "151517.597500", "151518.057500", "151518.517500", "151518.977500", "151519.437500", "151519.897500", "151520.357500", "151520.817500", "151521.277500", "151521.737500", "151522.197500", "151522.657500", "151523.117500", "151523.577500", "151524.037500", "151524.497500", "151524.957500", "151525.417500", "151525.877500", "151526.337500", "151526.797500", "151527.257500", "151527.717500", "151528.177500", "151528.637500", "151529.097500", "151529.557500", "151530.017500", "151530.477500", "151530.937500", "151531.397500", "151531.857500", "151532.317500", "151532.777500", "151533.237500", "151533.697500", "151534.157500", "151534.617500", "151535.077500", "151535.537500", "151535.997500", "151536.457500", "151536.917500", "151537.377500", "151537.837500", "151538.297500", "151538.757500", "151539.217500", "151539.677500", "151540.137500", "151540.597500", "151541.057500", "151541.517500", "151541.977500", "151542.437500", "151542.897500", "151543.357500", "151543.817500", "151544.277500", "151544.737500", "151545.197500", "151545.657500", "151546.117500", "151546.577500", "151547.037500", "151547.497500", "151547.957500", "151548.417500", "151548.877500", "151549.337500", "151549.797500", "151550.257500", "151550.717500", "151551.177500", "151551.637500", "151552.097500", "151552.557500", "151553.017500", "151553.477500", "151553.937500", "151554.397500", "151554.857500", "151555.317500", "151555.777500", "151556.237500", "151556.697500", "151557.157500", "151557.617500", "151558.077500", "151558.537500", "151558.997500", "151559.457500", "151559.917500", "151600.377500", "151600.837500", "151601.297500", "151601.757500", "151602.217500", "151602.677500", "151603.137500", "151603.597500", "151604.057500", "151604.517500", "151604.977500", "151605.437500", "151605.897500", "151606.357500", "151606.817500", "151607.277500", "151607.737500", "151608.197500", "151608.657500", "151609.117500", "151609.577500", "151610.037500", "151610.497500", "151610.957500", "151611.417500", "151611.877500", "151612.337500", "151612.797500", "151613.257500", "151613.717500", "151614.177500", "151614.637500", "151615.097500", "151615.557500", "151616.017500", "151616.477500", "151616.937500", "151617.397500", "151617.857500", "151618.317500", "151618.777500", "151619.237500", "151619.697500", "151620.157500", "151620.617500", "151621.077500", "151621.537500", "151621.997500", "151622.457500", "151622.917500", "151623.377500", "151623.837500", "151624.297500", "151624.757500", "151625.217500", "151625.677500", "151626.137500", "151626.597500", "151627.057500", "151627.517500", "151627.977500", "151628.437500", "151628.897500", "151629.357500", "151629.817500", "151630.277500", "151630.737500", "151631.197500", "151631.657500", "151632.117500", "151632.577500", "151633.037500", "151633.497500", "151633.957500", "151634.417500", "151634.877500", "151635.337500", "151635.797500", "151636.257500", "151636.717500", "151637.177500", "151637.637500", "151638.097500", "151638.557500", "151639.017500", "151639.477500", "151639.937500", "151640.397500", "151640.857500", "151641.317500", "151641.777500", "151642.237500", "151642.697500", "151643.157500", "151643.617500", "151644.077500", "151644.537500", "151644.997500", "151645.457500", "151645.917500", "151646.377500", "151646.837500", "151647.297500", "151647.757500", "151648.217500", "151648.677500", "151649.137500", "151649.597500", "151650.057500", "151650.517500", "151650.977500", "151651.437500", "151651.897500", "151652.357500", "151652.817500", "151653.277500", "151653.737500", "151654.197500", "151654.657500", "151655.117500", "151655.577500", "151656.037500", "151656.497500", "151656.957500", "151657.417500", "151657.877500", "151658.337500", "151658.797500", "151659.257500", "151659.717500", "151700.177500", "151700.637500", "151701.097500", "151701.557500", "151702.017500", "151702.477500", "151702.937500", "151703.397500", "151703.857500", "151704.317500", "151704.777500", "151705.237500", "151705.697500", "151706.157500", "151706.617500", "151707.077500", "151707.537500", "151707.997500", "151708.457500", "151708.917500", "151709.377500", "151709.837500", "151710.297500", "151710.757500", "151711.217500", "151711.677500", "151712.137500", "151712.597500", "151713.057500", "151713.517500", "151713.977500", "151714.437500", "151714.897500", "151715.357500", "151715.817500", "151716.277500", "151716.737500", "151717.197500", "151717.657500", "151718.117500", "151718.577500", "151719.037500", "151719.497500", "151719.957500", "151720.417500", "151720.877500", "151721.337500", "151721.797500", "151722.257500", "151722.717500", "151723.177500", "151723.637500", "151724.097500", "151724.557500", "151725.017500", "151725.477500", "151725.937500", "151726.397500", "151726.857500", "151727.317500", "151727.777500", "151728.237500", "151728.697500", "151729.157500", "151729.617500", "151730.077500", "151730.537500", "151730.997500", "151731.457500", "151731.917500", "151732.377500", "151732.837500", "151733.297500", "151733.757500", "151734.217500", "151734.677500", "151735.137500", "151735.597500", "151736.057500", "151736.517500", "151736.977500", "151737.437500", "151737.897500", "151738.357500", "151738.817500", "151739.277500", "151739.737500", "151740.197500", "151740.657500", "151741.117500", "151741.577500", "151742.037500", "151742.497500", "151742.957500", "151743.417500", "151743.877500", "151744.337500", "151744.797500", "151745.257500", "151745.717500", "151746.177500", "151746.637500", "151747.097500", "151747.557500", "151748.017500", "151748.477500", "151748.937500", "151749.397500", "151749.857500", "151750.317500", "151750.777500", "151751.237500", "151751.697500", "151752.157500", "151752.617500", "151753.077500", "151753.537500", "151753.997500", "151754.457500", "151754.917500", "151755.377500", "151755.837500", "151756.297500", "151756.757500", "151757.217500", "151757.677500", "151758.137500", "151758.597500", "151759.057500", "151759.517500", "151759.977500", "151800.437500", "151800.897500", "151801.357500", "151801.817500", "151802.277500", "151802.737500", "151803.197500", "151803.657500", "151804.117500", "151804.577500", "151805.037500", "151805.497500", "151805.957500", "151806.417500", "151806.877500", "151807.337500", "151807.797500", "151808.257500", "151808.717500", "151809.177500", "151809.637500", "151810.097500", "151810.557500", "151811.017500", "151811.477500", "151811.937500", "151812.397500", "151812.857500", "151813.317500", "151813.777500", "151814.237500", "151814.697500", "151815.157500", "151815.617500", "151816.077500", "151816.537500", "151816.997500", "151817.457500", "151817.917500", "151818.377500", "151818.837500", "151819.297500", "151819.757500", "151820.217500", "151820.677500", "151821.137500", "151821.597500", "151822.057500", "151822.517500", "151822.977500", "151823.437500", "151823.897500", "151824.357500", "151824.817500", "151825.277500", "151825.737500", "151826.197500", "151826.657500", "151827.117500", "151827.577500", "151828.037500", "151828.497500", "151828.957500", "151829.417500", "151829.877500", "151830.337500", "151830.797500", "151831.257500", "151831.717500", "151832.177500", "151832.637500", "151833.097500", "151833.557500", "151834.017500", "151834.477500", "151834.937500", "151835.397500", "151835.857500", "151836.317500", "151836.777500", "151837.237500", "151837.697500", "151838.157500", "151838.617500", "151839.077500", "151839.537500", "151839.997500", "151840.457500", "151840.917500", "151841.377500", "151841.837500", "151842.297500", "151842.757500", "151843.217500", "151843.677500", "151844.137500", "151844.597500", "151845.057500", "151845.517500", "151845.977500", "151846.437500", "151846.897500", "151847.357500", "151847.817500", "151848.277500", "151848.737500", "151849.197500", "151849.657500", "151850.117500", "151850.577500", "151851.037500", "151851.497500", "151851.957500", "151852.417500", "151852.877500", "151853.337500", "151853.797500", "151854.257500", "151854.717500", "151855.177500", "151855.637500", "151856.097500", "151856.557500", "151857.017500", "151857.477500", "151857.937500", "151858.397500", "151858.857500", "151859.317500", "151859.777500", "151900.237500", "151900.697500", "151901.157500", "151901.617500", "151902.077500", "151902.537500", "151902.997500", "151903.457500", "151903.917500", "151904.377500", "151904.837500", "151905.297500", "151905.757500", "151906.217500", "151906.677500", "151907.137500", "151907.597500", "151908.057500", "151908.517500", "151908.977500", "151909.437500", "151909.897500", "151910.357500", "151910.817500", "151911.277500", "151911.737500", "151912.197500", "151912.657500", "151913.117500", "151913.577500", "151914.037500", "151914.497500", "151914.957500", "151915.417500", "151915.877500", "151916.337500", "151916.797500", "151917.257500", "151917.717500", "151918.177500", "151918.637500", "151919.097500", "151919.557500", "151920.017500", "151920.477500", "151920.937500", "151921.397500", "151921.857500", "151922.317500", "151922.777500", "151923.237500", "151923.697500", "151924.157500", "151924.617500", "151925.077500", "151925.537500", "151925.997500", "151926.457500", "151926.917500", "151927.377500", "151927.837500", "151928.297500", "151928.757500", "151929.217500", "151929.677500", "151930.137500", "151930.597500", "151931.057500", "151931.517500", "151931.977500", "151932.437500", "151932.897500", "151933.357500", "151933.817500", "151934.277500", "151934.737500", "151935.197500", "151935.657500", "151936.117500", "151936.577500", "151937.037500", "151937.497500", "151937.957500", "151938.417500", "151938.877500", "151939.337500", "151939.797500", "151940.257500", "151940.717500", "151941.177500", "151941.637500", "151942.097500", "151942.557500", "151943.017500", "151943.477500", "151943.937500", "151944.397500", "151944.857500", "151945.317500", "151945.777500", "151946.237500", "151946.697500", "151947.157500", "151947.617500", "151948.077500", "151948.537500", "151948.997500", "151949.457500", "151949.917500", "151950.377500", "151950.837500", "151951.297500", "151951.757500", "151952.217500", "151952.677500", "151953.137500", "151953.597500", "151954.057500", "151954.517500", "151954.977500", "151955.437500", "151955.897500", "151956.357500", "151956.817500", "151957.277500", "151957.737500", "151958.197500", "151958.657500", "151959.117500", "151959.577500", "152000.037500", "152000.497500", "152000.957500", "152001.417500", "152001.877500", "152002.337500", "152002.797500", "152003.257500", "152003.717500", "152004.177500", "152004.637500", "152005.097500", "152005.557500", "152006.017500", "152006.477500", "152006.937500", "152007.397500", "152007.857500", "152008.317500", "152008.777500", "152009.237500", "152009.697500", "152010.157500", "152010.617500", "152011.077500", "152011.537500", "152011.997500", "152012.457500", "152012.917500", "152013.377500", "152013.837500", "152014.297500", "152014.757500", "152015.217500", "152015.677500", "152016.137500", "152016.597500", "152017.057500", "152017.517500", "152017.977500", "152018.437500", "152018.897500", "152019.357500", "152019.817500", "152020.277500", "152020.737500", "152021.197500", "152021.657500", "152022.117500", "152022.577500", "152023.037500", "152023.497500", "152023.957500", "152024.417500", "152024.877500", "152025.337500", "152025.797500", "152026.257500", "152026.717500", "152027.177500", "152027.637500", "152028.097500", "152028.557500", "152029.017500", "152029.477500", "152029.937500", "152030.397500", "152030.857500", "152031.317500", "152031.777500", "152032.237500", "152032.697500", "152033.157500", "152033.617500", "152034.077500", "152034.537500", "152034.997500", "152035.457500", "152035.917500", "152036.377500", "152036.837500", "152037.297500", "152037.757500", "152038.217500", "152038.677500", "152039.137500", "152039.597500", "152040.057500", "152040.517500", "152040.977500", "152041.437500", "152041.897500", "152042.357500", "152042.817500", "152043.277500", "152043.737500", "152044.197500", "152044.657500", "152045.117500", "152045.577500", "152046.037500", "152046.497500", "152046.957500", "152047.417500", "152047.877500", "152048.337500", "152048.797500", "152049.257500", "152049.717500", "152050.177500", "152050.637500", "152051.097500", "152051.557500", "152052.017500", "152052.477500", "152052.937500", "152053.397500", "152053.857500", "152054.317500", "152054.777500", "152055.237500", "152055.697500", "152056.157500", "152056.617500", "152057.077500", "152057.537500", "152057.997500", "152058.457500", "152058.917500", "152059.377500", "152059.837500", "152100.297500", "152100.757500", "152101.217500", "152101.677500", "152102.137500", "152102.597500", "152103.057500", "152103.517500", "152103.977500", "152104.437500", "152104.897500", "152105.357500", "152105.817500", "152106.277500", "152106.737500", "152107.197500", "152107.657500", "152108.117500", "152108.577500", "152109.037500", "152109.497500", "152109.957500", "152110.417500", "152110.877500", "152111.337500", "152111.797500", "152112.257500", "152112.717500", "152113.177500", "152113.637500", "152114.097500", "152114.557500", "152115.017500", "152115.477500", "152115.937500", "152116.397500", "152116.857500", "152117.317500", "152117.777500", "152118.237500", "152118.697500", "152119.157500", "152119.617500", "152120.077500", "152120.537500", "152120.997500", "152121.457500", "152121.917500", "152122.377500", "152122.837500", "152123.297500", "152123.757500", "152124.217500", "152124.677500", "152125.137500", "152125.597500", "152126.057500", "152126.517500", "152126.977500", "152127.437500", "152127.897500", "152128.357500", "152128.817500", "152129.277500", "152129.737500", "152130.197500", "152130.657500", "152131.117500", "152131.577500", "152132.037500", "152132.497500", "152132.957500", "152133.417500", "152133.877500", "152134.337500", "152134.797500", "152135.257500", "152135.717500", "152136.177500", "152136.637500", "152137.097500", "152137.557500", "152138.017500", "152138.477500", "152138.937500", "152139.397500", "152139.857500", "152140.317500", "152140.777500", "152141.237500", "152141.697500", "152142.157500", "152142.617500", "152143.077500"],
