{
  "AcquisitionMatrixPE": 82,
  "AcquisitionNumber": 1,
  "AcquisitionTime": "15:18:17.242500",
  "BandwidthPerPixelPhaseEncode": 24.888,
  "BaseResolution": 82,
  "BodyPartExamined": "BRAIN",
  "ConsistencyInfo": "N4_VE11E_LATEST_20181129",
  "ConversionSoftware": "dcm2niix",
  "ConversionSoftwareVersion": "v1.0.20201102",
  "DerivedVendorReportedEchoSpacing": 0.00049,
  "DeviceSerialNumber": "66112",
  "DwellTime": 2e-06,
  "EchoTime": 0.0272,
  "EchoTrainLength": 82,
  "EffectiveEchoSpacing": 0.00049,
  "FlipAngle": 44,
  "ImageComments": "Unaliased MB8/PE3",
  "ImageOrientationPatientDICOM": [0.992658, 0.0401057, -0.114115, -0.0518493, 0.993445, -0.101878],
  "ImageType": [
    "ORIGINAL",
    "PRIMARY",
    "M",
    "MB",
    "ND",
    "NORM",
    "MOSAIC"
],
  "ImagingFrequency": 123.252,
  "InPlanePhaseEncodingDirectionDICOM": "COL",
  "InstitutionAddress": "Maynard 3,Hanover,NH,US,03755",
  "InstitutionName": "Dartmouth College - PBS",
  "InstitutionalDepartmentName": "Department",
  "MRAcquisitionType": "2D",
  "MagneticFieldStrength": 3,
  "Manufacturer": "Siemens",
  "ManufacturersModelName": "Prisma",
  "Modality": "MR",
  "MultibandAccelerationFactor": 8,
  "PartialFourier": 1,
  "PatientPosition": "HFS",
  "PercentPhaseFOV": 100,
  "PercentSampling": 100,
  "PhaseEncodingDirection": "j-",
  "PhaseEncodingSteps": 82,
  "PhaseResolution": 1,
  "PixelBandwidth": 3050,
  "ProcedureStepDescription": "Wager_Wager^1076_spacetop",
  "ProtocolName": "func_run-05_task-social_acq-ap-mb8",
  "PulseSequenceDetails": "%CustomerSeq%\\cmrr_mbep2d_bold",
  "ReceiveCoilActiveElements": "HEA;HEP",
  "ReceiveCoilName": "Head_32",
  "ReconMatrixPE": 82,
  "RepetitionTime": 0.46,
  "SAR": 0.0894328,
  "ScanOptions": "FS",
  "ScanningSequence": "EP",
  "SequenceName": "epfid2d1_82",
  "SequenceVariant": "SK\\SS",
  "SeriesDescription": "func_run-05_task-social_acq-ap-mb8",
  "SeriesNumber": 20,
  "ShimSetting": [4117, -7708, -7309, 577, -49, -68, -132, 102],
  "SliceThickness": 2.7,
  "SliceTiming": [0, 0.2525, 0.0625, 0.315, 0.125, 0.3775, 0.19, 0, 0.2525, 0.0625, 0.315, 0.125, 0.3775, 0.19, 0, 0.2525, 0.0625, 0.315, 0.125, 0.3775, 0.19, 0, 0.2525, 0.0625, 0.315, 0.125, 0.3775, 0.19, 0, 0.2525, 0.0625, 0.315, 0.125, 0.3775, 0.19, 0, 0.2525, 0.0625, 0.315, 0.125, 0.3775, 0.19, 0, 0.2525, 0.0625, 0.315, 0.125, 0.3775, 0.19, 0, 0.2525, 0.0625, 0.315, 0.125, 0.3775, 0.19],
  "SoftwareVersions": "syngo MR E11",
  "SpacingBetweenSlices": 2.7,
  "StationName": "AWP66112",
  "TaskName": "social",
  "TotalReadoutTime": 0.03969,
  "TxRefAmp": 256.632,
  "WipMemBlock": "b5da1c4c-7695-495d-aa87-757e8f2556ab||Sequence: R016 ve11e/master r/434b28f1; Aug  7 2019 18:53:46 by eja",
  "dcmmeta_affine": [
    [-2.6632280349731445, -0.13910774886608124, -0.29505860805511475, 125.9186782836914],
    [-0.10760052502155304, 2.665339708328247, -0.28902655839920044, -92.33499908447266],
    [-0.30616194009780884, 0.27333155274391174, 2.6682212352752686, -87.48456573486328],
    [0.0, 0.0, 0.0, 1.0]
],
  "dcmmeta_reorient_transform": [
    [0.0, -1.0, 0.0, 81.0],
    [1.0, 0.0, 0.0, 0.0],
    [0.0, 0.0, 1.0, 0.0],
    [0.0, 0.0, 0.0, 1.0]
],
  "dcmmeta_shape": [82, 82, 56, 872],
  "dcmmeta_slice_dim": 2,
  "dcmmeta_version": 0.6,
  "global": {
    "const": {
      "AccessionNumber": "A003891",
      "AcquisitionMatrix": [82, 0, 0, 82],
      "AngioFlag": "N",
      "BitsAllocated": 16,
      "BitsStored": 16,
      "BodyPartExamined": "BRAIN",
      "Columns": 656,
      "EchoNumbers": 1,
      "EchoTime": 27.2,
      "EchoTrainLength": 82,
      "FlipAngle": 44.0,
      "HighBit": 15,
      "ImageOrientationPatient": [0.99265770858744, 0.04010565061013, -0.1141148998645, -0.0518492528186, 0.99344476596608, -0.1018781230527],
      "ImagePositionPatient": [-839.0734757768, -919.39135451938, 100.96992182777],
      "ImageType": [
        "ORIGINAL",
        "PRIMARY",
        "M",
        "MB",
        "ND",
        "NORM",
        "MOSAIC"
],
      "ImagedNucleus": "1H",
      "ImagingFrequency": 123.252231,
      "InPlanePhaseEncodingDirection": "COL",
      "MRAcquisitionType": "2D",
      "MagneticFieldStrength": 3.0,
      "Manufacturer": "SIEMENS",
      "ManufacturerModelName": "Prisma",
      "Modality": "MR",
      "NumberOfAverages": 1.0,
      "NumberOfPhaseEncodingSteps": 82,
      "PercentPhaseFieldOfView": 100.0,
      "PercentSampling": 100.0,
      "PerformedProcedureStepStartTime": "141327.636000",
      "PhotometricInterpretation": "MONOCHROME2",
      "PixelBandwidth": 3050.0,
      "PixelRepresentation": 0,
      "PixelSpacing": [2.6829268932343, 2.6829268932343],
      "ProtocolName": "func_run-05_task-social_acq-ap-mb8",
      "RepetitionTime": 460.0,
      "Rows": 656,
      "SAR": 0.08943281727312,
      "SamplesPerPixel": 1,
      "ScanOptions": "FS",
      "ScanningSequence": "EP",
      "SequenceName": "epfid2d1_82",
      "SequenceVariant": [
        "SK",
        "SS"
],
      "SeriesDescription": "func_run-05_task-social_acq-ap-mb8",
      "SeriesNumber": 20,
      "SeriesTime": "151835.362000",
      "SliceLocation": -90.331217832166,
      "SliceThickness": 2.7000000476837,
      "SmallestImagePixelValue": 0,
      "SoftwareVersions": "syngo MR E11",
      "SpacingBetweenSlices": 2.699999996241,
      "SpecificCharacterSet": "ISO_IR 100",
      "StudyID": "1",
      "StudyTime": "141327.556000",
      "TransmitCoilName": "Body",
      "VariableFlipAngleFlag": "N",
      "WindowCenterWidthExplanation": "Algo1"
    },
    "slices": {}
  },
  "time": {
    "samples": {
      "AcquisitionNumber": [1, 2, 3, 4, 5, 6, 7, 8, 9, 10, 11, 12, 13, 14, 15, 16, 17, 18, 19, 20, 21, 22, 23, 24, 25, 26, 27, 28, 29, 30, 31, 32, 33, 34, 35, 36, 37, 38, 39, 40, 41, 42, 43, 44, 45, 46, 47, 48, 49, 50, 51, 52, 53, 54, 55, 56, 57, 58, 59, 60, 61, 62, 63, 64, 65, 66, 67, 68, 69, 70, 71, 72, 73, 74, 75, 76, 77, 78, 79, 80, 81, 82, 83, 84, 85, 86, 87, 88, 89, 90, 91, 92, 93, 94, 95, 96, 97, 98, 99, 100, 101, 102, 103, 104, 105, 106, 107, 108, 109, 110, 111, 112, 113, 114, 115, 116, 117, 118, 119, 120, 121, 122, 123, 124, 125, 126, 127, 128, 129, 130, 131, 132, 133, 134, 135, 136, 137, 138, 139, 140, 141, 142, 143, 144, 145, 146, 147, 148, 149, 150, 151, 152, 153, 154, 155, 156, 157, 158, 159, 160, 161, 162, 163, 164, 165, 166, 167, 168, 169, 170, 171, 172, 173, 174, 175, 176, 177, 178, 179, 180, 181, 182, 183, 184, 185, 186, 187, 188, 189, 190, 191, 192, 193, 194, 195, 196, 197, 198, 199, 200, 201, 202, 203, 204, 205, 206, 207, 208, 209, 210, 211, 212, 213, 214, 215, 216, 217, 218, 219, 220, 221, 222, 223, 224, 225, 226, 227, 228, 229, 230, 231, 232, 233, 234, 235, 236, 237, 238, 239, 240, 241, 242, 243, 244, 245, 246, 247, 248, 249, 250, 251, 252, 253, 254, 255, 256, 257, 258, 259, 260, 261, 262, 263, 264, 265, 266, 267, 268, 269, 270, 271, 272, 273, 274, 275, 276, 277, 278, 279, 280, 281, 282, 283, 284, 285, 286, 287, 288, 289, 290, 291, 292, 293, 294, 295, 296, 297, 298, 299, 300, 301, 302, 303, 304, 305, 306, 307, 308, 309, 310, 311, 312, 313, 314, 315, 316, 317, 318, 319, 320, 321, 322, 323, 324, 325, 326, 327, 328, 329, 330, 331, 332, 333, 334, 335, 336, 337, 338, 339, 340, 341, 342, 343, 344, 345, 346, 347, 348, 349, 350, 351, 352, 353, 354, 355, 356, 357, 358, 359, 360, 361, 362, 363, 364, 365, 366, 367, 368, 369, 370, 371, 372, 373, 374, 375, 376, 377, 378, 379, 380, 381, 382, 383, 384, 385, 386, 387, 388, 389, 390, 391, 392, 393, 394, 395, 396, 397, 398, 399, 400, 401, 402, 403, 404, 405, 406, 407, 408, 409, 410, 411, 412, 413, 414, 415, 416, 417, 418, 419, 420, 421, 422, 423, 424, 425, 426, 427, 428, 429, 430, 431, 432, 433, 434, 435, 436, 437, 438, 439, 440, 441, 442, 443, 444, 445, 446, 447, 448, 449, 450, 451, 452, 453, 454, 455, 456, 457, 458, 459, 460, 461, 462, 463, 464, 465, 466, 467, 468, 469, 470, 471, 472, 473, 474, 475, 476, 477, 478, 479, 480, 481, 482, 483, 484, 485, 486, 487, 488, 489, 490, 491, 492, 493, 494, 495, 496, 497, 498, 499, 500, 501, 502, 503, 504, 505, 506, 507, 508, 509, 510, 511, 512, 513, 514, 515, 516, 517, 518, 519, 520, 521, 522, 523, 524, 525, 526, 527, 528, 529, 530, 531, 532, 533, 534, 535, 536, 537, 538, 539, 540, 541, 542, 543, 544, 545, 546, 547, 548, 549, 550, 551, 552, 553, 554, 555, 556, 557, 558, 559, 560, 561, 562, 563, 564, 565, 566, 567, 568, 569, 570, 571, 572, 573, 574, 575, 576, 577, 578, 579, 580, 581, 582, 583, 584, 585, 586, 587, 588, 589, 590, 591, 592, 593, 594, 595, 596, 597, 598, 599, 600, 601, 602, 603, 604, 605, 606, 607, 608, 609, 610, 611, 612, 613, 614, 615, 616, 617, 618, 619, 620, 621, 622, 623, 624, 625, 626, 627, 628, 629, 630, 631, 632, 633, 634, 635, 636, 637, 638, 639, 640, 641, 642, 643, 644, 645, 646, 647, 648, 649, 650, 651, 652, 653, 654, 655, 656, 657, 658, 659, 660, 661, 662, 663, 664, 665, 666, 667, 668, 669, 670, 671, 672, 673, 674, 675, 676, 677, 678, 679, 680, 681, 682, 683, 684, 685, 686, 687, 688, 689, 690, 691, 692, 693, 694, 695, 696, 697, 698, 699, 700, 701, 702, 703, 704, 705, 706, 707, 708, 709, 710, 711, 712, 713, 714, 715, 716, 717, 718, 719, 720, 721, 722, 723, 724, 725, 726, 727, 728, 729, 730, 731, 732, 733, 734, 735, 736, 737, 738, 739, 740, 741, 742, 743, 744, 745, 746, 747, 748, 749, 750, 751, 752, 753, 754, 755, 756, 757, 758, 759, 760, 761, 762, 763, 764, 765, 766, 767, 768, 769, 770, 771, 772, 773, 774, 775, 776, 777, 778, 779, 780, 781, 782, 783, 784, 785, 786, 787, 788, 789, 790, 791, 792, 793, 794, 795, 796, 797, 798, 799, 800, 801, 802, 803, 804, 805, 806, 807, 808, 809, 810, 811, 812, 813, 814, 815, 816, 817, 818, 819, 820, 821, 822, 823, 824, 825, 826, 827, 828, 829, 830, 831, 832, 833, 834, 835, 836, 837, 838, 839, 840, 841, 842, 843, 844, 845, 846, 847, 848, 849, 850, 851, 852, 853, 854, 855, 856, 857, 858, 859, 860, 861, 862, 863, 864, 865, 866, 867, 868, 869, 870, 871, 872],
      "AcquisitionTime": ["151817.242500", "151817.702500", "151818.162500", "151818.622500", "151819.082500", "151819.542500", "151820.002500", "151820.462500", "151820.922500", "151821.382500", "151821.842500", "151822.302500", "151822.762500", "151823.222500", "151823.682500", "151824.142500", "151824.602500", "151825.062500", "151825.522500", "151825.982500", "151826.442500", "151826.902500", "151827.362500", "151827.822500", "151828.282500", "151828.742500", "151829.202500", "151829.662500", "151830.122500", "151830.582500", "151831.042500", "151831.502500", "151831.962500", "151832.422500", "151832.882500", "151833.342500", "151833.802500", "151834.262500", "151834.722500", "151835.182500", "151835.642500", "151836.102500", "151836.562500", "151837.022500", "151837.482500", "151837.942500", "151838.402500", "151838.862500", "151839.322500", "151839.782500", "151840.242500", "151840.702500", "151841.162500", "151841.622500", "151842.082500", "151842.542500", "151843.002500", "151843.462500", "151843.922500", "151844.382500", "151844.842500", "151845.302500", "151845.762500", "151846.222500", "151846.682500", "151847.142500", "151847.602500", "151848.062500", "151848.522500", "151848.982500", "151849.442500", "151849.902500", "151850.362500", "151850.822500", "151851.282500", "151851.742500", "151852.202500", "151852.662500", "151853.122500", "151853.582500", "151854.042500", "151854.502500", "151854.962500", "151855.422500", "151855.882500", "151856.342500", "151856.802500", "151857.262500", "151857.722500", "151858.182500", "151858.642500", "151859.102500", "151859.562500", "151900.022500", "151900.482500", "151900.942500", "151901.402500", "151901.862500", "151902.322500", "151902.782500", "151903.242500", "151903.702500", "151904.162500", "151904.622500", "151905.082500", "151905.542500", "151906.002500", "151906.462500", "151906.922500", "151907.382500", "151907.842500", "151908.302500", "151908.762500", "151909.222500", "151909.682500", "151910.142500", "151910.602500", "151911.062500", "151911.522500", "151911.982500", "151912.442500", "151912.902500", "151913.362500", "151913.822500", "151914.282500", "151914.742500", "151915.202500", "151915.662500", "151916.122500", "151916.582500", "151917.042500", "151917.502500", "151917.962500", "151918.422500", "151918.882500", "151919.342500", "151919.802500", "151920.262500", "151920.722500", "151921.182500", "151921.642500", "151922.102500", "151922.562500", "151923.022500", "151923.482500", "151923.942500", "151924.402500", "151924.862500", "151925.322500", "151925.782500", "151926.242500", "151926.702500", "151927.162500", "151927.622500", "151928.082500", "151928.542500", "151929.002500", "151929.462500", "151929.922500", "151930.382500", "151930.842500", "151931.302500", "151931.762500", "151932.222500", "151932.682500", "151933.142500", "151933.602500", "151934.062500", "151934.522500", "151934.982500", "151935.442500", "151935.902500", "151936.362500", "151936.822500", "151937.282500", "151937.742500", "151938.202500", "151938.662500", "151939.122500", "151939.582500", "151940.042500", "151940.502500", "151940.962500", "151941.422500", "151941.882500", "151942.342500", "151942.802500", "151943.262500", "151943.722500", "151944.182500", "151944.642500", "151945.102500", "151945.562500", "151946.022500", "151946.482500", "151946.942500", "151947.402500", "151947.862500", "151948.322500", "151948.782500", "151949.242500", "151949.702500", "151950.162500", "151950.622500", "151951.082500", "151951.542500", "151952.002500", "151952.462500", "151952.922500", "151953.382500", "151953.842500", "151954.302500", "151954.762500", "151955.222500", "151955.682500", "151956.142500", "151956.602500", "151957.062500", "151957.522500", "151957.982500", "151958.442500", "151958.902500", "151959.362500", "151959.822500", "152000.282500", "152000.742500", "152001.202500", "152001.662500", "152002.122500", "152002.582500", "152003.042500", "152003.502500", "152003.962500", "152004.422500", "152004.882500", "152005.342500", "152005.802500", "152006.262500", "152006.722500", "152007.182500", "152007.642500", "152008.102500", "152008.562500", "152009.022500", "152009.482500", "152009.942500", "152010.402500", "152010.862500", "152011.322500", "152011.782500", "152012.242500", "152012.702500", "152013.162500", "152013.622500", "152014.082500", "152014.542500", "152015.002500", "152015.462500", "152015.922500", "152016.382500", "152016.842500", "152017.302500", "152017.762500", "152018.222500", "152018.682500", "152019.142500", "152019.602500", "152020.062500", "152020.522500", "152020.982500", "152021.442500", "152021.902500", "152022.362500", "152022.822500", "152023.282500", "152023.742500", "152024.202500", "152024.662500", "152025.122500", "152025.582500", "152026.042500", "152026.502500", "152026.962500", "152027.422500", "152027.882500", "152028.342500", "152028.802500", "152029.262500", "152029.722500", "152030.182500", "152030.642500", "152031.102500", "152031.562500", "152032.022500", "152032.482500", "152032.942500", "152033.402500", "152033.862500", "152034.322500", "152034.782500", "152035.242500", "152035.702500", "152036.162500", "152036.622500", "152037.082500", "152037.542500", "152038.002500", "152038.462500", "152038.922500", "152039.382500", "152039.842500", "152040.302500", "152040.762500", "152041.222500", "152041.682500", "152042.142500", "152042.602500", "152043.062500", "152043.522500", "152043.982500", "152044.442500", "152044.902500", "152045.362500", "152045.822500", "152046.282500", "152046.742500", "152047.202500", "152047.662500", "152048.122500", "152048.582500", "152049.042500", "152049.502500", "152049.962500", "152050.422500", "152050.882500", "152051.342500", "152051.802500", "152052.262500", "152052.722500", "152053.182500", "152053.642500", "152054.102500", "152054.562500", "152055.022500", "152055.482500", "152055.942500", "152056.402500", "152056.862500", "152057.322500", "152057.782500", "152058.242500", "152058.702500", "152059.162500", "152059.622500", "152100.082500", "152100.542500", "152101.002500", "152101.462500", "152101.922500", "152102.382500", "152102.842500", "152103.302500", "152103.762500", "152104.222500", "152104.682500", "152105.142500", "152105.602500", "152106.062500", "152106.522500", "152106.982500", "152107.442500", "152107.902500", "152108.362500", "152108.822500", "152109.282500", "152109.742500", "152110.202500", "152110.662500", "152111.122500", "152111.582500", "152112.042500", "152112.502500", "152112.962500", "152113.422500", "152113.882500", "152114.342500", "152114.802500", "152115.262500", "152115.722500", "152116.182500", "152116.642500", "152117.102500", "152117.562500", "152118.022500", "152118.482500", "152118.942500", "152119.402500", "152119.862500", "152120.322500", "152120.782500", "152121.242500", "152121.702500", "152122.162500", "152122.622500", "152123.082500", "152123.542500", "152124.002500", "152124.462500", "152124.922500", "152125.382500", "152125.842500", "152126.302500", "152126.762500", "152127.222500", "152127.682500", "152128.142500", "152128.602500", "152129.062500", "152129.522500", "152129.982500", "152130.442500", "152130.902500", "152131.362500", "152131.822500", "152132.282500", "152132.742500", "152133.202500", "152133.662500", "152134.122500", "152134.582500", "152135.042500", "152135.502500", "152135.962500", "152136.422500", "152136.882500", "152137.342500", "152137.802500", "152138.262500", "152138.722500", "152139.182500", "152139.642500", "152140.102500", "152140.562500", "152141.022500", "152141.482500", "152141.942500", "152142.402500", "152142.862500", "152143.322500", "152143.782500", "152144.242500", "152144.702500", "152145.162500", "152145.622500", "152146.082500", "152146.542500", "152147.002500", "152147.462500", "152147.922500", "152148.382500", "152148.842500", "152149.302500", "152149.762500", "152150.222500", "152150.682500", "152151.142500", "152151.602500", "152152.062500", "152152.522500", "152152.982500", "152153.442500", "152153.902500", "152154.362500", "152154.822500", "152155.282500", "152155.742500", "152156.202500", "152156.662500", "152157.122500", "152157.582500", "152158.042500", "152158.502500", "152158.962500", "152159.422500", "152159.882500", "152200.342500", "152200.802500", "152201.262500", "152201.722500", "152202.182500", "152202.642500", "152203.102500", "152203.562500", "152204.022500", "152204.482500", "152204.942500", "152205.402500", "152205.862500", "152206.322500", "152206.782500", "152207.242500", "152207.702500", "152208.162500", "152208.622500", "152209.082500", "152209.542500", "152210.002500", "152210.462500", "152210.922500", "152211.382500", "152211.842500", "152212.302500", "152212.762500", "152213.222500", "152213.682500", "152214.142500", "152214.602500", "152215.062500", "152215.522500", "152215.982500", "152216.442500", "152216.902500", "152217.362500", "152217.822500", "152218.282500", "152218.742500", "152219.202500", "152219.662500", "152220.122500", "152220.582500", "152221.042500", "152221.502500", "152221.962500", "152222.422500", "152222.882500", "152223.342500", "152223.802500", "152224.262500", "152224.722500", "152225.182500", "152225.642500", "152226.102500", "152226.562500", "152227.022500", "152227.482500", "152227.942500", "152228.402500", "152228.862500", "152229.322500", "152229.782500", "152230.242500", "152230.702500", "152231.162500", "152231.622500", "152232.082500", "152232.542500", "152233.002500", "152233.462500", "152233.922500", "152234.382500", "152234.842500", "152235.302500", "152235.762500", "152236.222500", "152236.682500", "152237.142500", "152237.602500", "152238.062500", "152238.522500", "152238.982500", "152239.442500", "152239.902500", "152240.362500", "152240.822500", "152241.282500", "152241.742500", "152242.202500", "152242.662500", "152243.122500", "152243.582500", "152244.042500", "152244.502500", "152244.962500", "152245.422500", "152245.882500", "152246.342500", "152246.802500", "152247.262500", "152247.722500", "152248.182500", "152248.642500", "152249.102500", "152249.562500", "152250.022500", "152250.482500", "152250.942500", "152251.402500", "152251.862500", "152252.322500", "152252.782500", "152253.242500", "152253.702500", "152254.162500", "152254.622500", "152255.082500", "152255.542500", "152256.002500", "152256.462500", "152256.922500", "152257.382500", "152257.842500", "152258.302500", "152258.762500", "152259.222500", "152259.682500", "152300.142500", "152300.602500", "152301.062500", "152301.522500", "152301.982500", "152302.442500", "152302.902500", "152303.362500", "152303.822500", "152304.282500", "152304.742500", "152305.202500", "152305.662500", "152306.122500", "152306.582500", "152307.042500", "152307.502500", "152307.962500", "152308.422500", "152308.882500", "152309.342500", "152309.802500", "152310.262500", "152310.722500", "152311.182500", "152311.642500", "152312.102500", "152312.562500", "152313.022500", "152313.482500", "152313.942500", "152314.402500", "152314.862500", "152315.322500", "152315.782500", "152316.242500", "152316.702500", "152317.162500", "152317.622500", "152318.082500", "152318.542500", "152319.002500", "152319.462500", "152319.922500", "152320.382500", "152320.842500", "152321.302500", "152321.762500", "152322.222500", "152322.682500", "152323.142500", "152323.602500", "152324.062500", "152324.522500", "152324.982500", "152325.442500", "152325.902500", "152326.362500", "152326.822500", "152327.282500", "152327.742500", "152328.202500", "152328.662500", "152329.122500", "152329.582500", "152330.042500", "152330.502500", "152330.962500", "152331.422500", "152331.882500", "152332.342500", "152332.802500", "152333.262500", "152333.722500", "152334.182500", "152334.642500", "152335.102500", "152335.562500", "152336.022500", "152336.482500", "152336.942500", "152337.402500", "152337.862500", "152338.322500", "152338.782500", "152339.242500", "152339.702500", "152340.162500", "152340.622500", "152341.082500", "152341.542500", "152342.002500", "152342.462500", "152342.922500", "152343.382500", "152343.842500", "152344.302500", "152344.762500", "152345.222500", "152345.682500", "152346.142500", "152346.602500", "152347.062500", "152347.522500", "152347.982500", "152348.442500", "152348.902500", "152349.362500", "152349.822500", "152350.282500", "152350.742500", "152351.202500", "152351.662500", "152352.122500", "152352.582500", "152353.042500", "152353.502500", "152353.962500", "152354.422500", "152354.882500", "152355.342500", "152355.802500", "152356.262500", "152356.722500", "152357.182500", "152357.642500", "152358.102500", "152358.562500", "152359.022500", "152359.482500", "152359.942500", "152400.402500", "152400.862500", "152401.322500", "152401.782500", "152402.242500", "152402.702500", "152403.162500", "152403.622500", "152404.082500", "152404.542500", "152405.002500", "152405.462500", "152405.922500", "152406.382500", "152406.842500", "152407.302500", "152407.762500", "152408.222500", "152408.682500", "152409.142500", "152409.602500", "152410.062500", "152410.522500", "152410.982500", "152411.442500", "152411.902500", "152412.362500", "152412.822500", "152413.282500", "152413.742500", "152414.202500", "152414.662500", "152415.122500", "152415.582500", "152416.042500", "152416.502500", "152416.962500", "152417.422500", "152417.882500", "152418.342500", "152418.802500", "152419.262500", "152419.722500", "152420.182500", "152420.642500", "152421.102500", "152421.562500", "152422.022500", "152422.482500", "152422.942500", "152423.402500", "152423.862500", "152424.322500", "152424.782500", "152425.242500", "152425.702500", "152426.162500", "152426.622500", "152427.082500", "152427.542500", "152428.002500", "152428.462500", "152428.922500", "152429.382500", "152429.842500", "152430.302500", "152430.762500", "152431.222500", "152431.682500", "152432.142500", "152432.602500", "152433.062500", "152433.522500", "152433.982500", "152434.442500", "152434.902500", "152435.362500", "152435.822500", "152436.282500", "152436.742500", "152437.202500", "152437.662500", "152438.122500", "152438.582500", "152439.042500", "152439.502500", "152439.962500", "152440.422500", "152440.882500", "152441.342500", "152441.802500", "152442.262500", "152442.722500", "152443.182500", "152443.642500", "152444.102500", "152444.562500", "152445.022500", "152445.482500", "152445.942500", "152446.402500", "152446.862500", "152447.322500", "152447.782500", "152448.242500", "152448.702500", "152449.162500", "152449.622500", "152450.082500", "152450.542500", "152451.002500", "152451.462500", "152451.922500", "152452.382500", "152452.842500", "152453.302500", "152453.762500", "152454.222500", "152454.682500", "152455.142500", "152455.602500", "152456.062500", "152456.522500", "152456.982500", "152457.442500", "152457.902500"],
