{
  "AcquisitionMatrixPE": 82,
  "AcquisitionNumber": 1,
  "AcquisitionTime": "15:45:50.587500",
  "BandwidthPerPixelPhaseEncode": 24.888,
  "BaseResolution": 82,
  "BodyPartExamined": "BRAIN",
  "ConsistencyInfo": "N4_VE11E_LATEST_20181129",
  "ConversionSoftware": "dcm2niix",
  "ConversionSoftwareVersion": "v1.0.20201102",
  "DerivedVendorReportedEchoSpacing": 0.00049,
  "DeviceSerialNumber": "66112",
  "DwellTime": 2e-06,
  "EchoTime": 0.0272,
  "EchoTrainLength": 82,
  "EffectiveEchoSpacing": 0.00049,
  "FlipAngle": 44,
  "ImageComments": "Unaliased MB8/PE3",
  "ImageOrientationPatientDICOM": [0.996625, 0.0766066, -0.0294925, -0.0763362, 0.99703, 0.0101884],
  "ImageType": [
    "ORIGINAL",
    "PRIMARY",
    "M",
    "MB",
    "ND",
    "NORM",
    "MOSAIC"
],
  "ImagingFrequency": 123.252,
  "InPlanePhaseEncodingDirectionDICOM": "COL",
  "InstitutionAddress": "Maynard 3,Hanover,NH,US,03755",
  "InstitutionName": "Dartmouth College - PBS",
  "InstitutionalDepartmentName": "Department",
  "MRAcquisitionType": "2D",
  "MagneticFieldStrength": 3,
  "Manufacturer": "Siemens",
  "ManufacturersModelName": "Prisma",
  "Modality": "MR",
  "MultibandAccelerationFactor": 8,
  "PartialFourier": 1,
  "PatientPosition": "HFS",
  "PercentPhaseFOV": 100,
  "PercentSampling": 100,
  "PhaseEncodingDirection": "j-",
  "PhaseEncodingSteps": 82,
  "PhaseResolution": 1,
  "PixelBandwidth": 3050,
  "ProcedureStepDescription": "Wager_Wager^1076_spacetop",
  "ProtocolName": "func_run-01_task-alignvideo_acq-ap-mb8",
  "PulseSequenceDetails": "%CustomerSeq%\\cmrr_mbep2d_bold",
  "ReceiveCoilActiveElements": "HEA;HEP",
  "ReceiveCoilName": "Head_32",
  "ReconMatrixPE": 82,
  "RepetitionTime": 0.46,
  "SAR": 0.0810131,
  "ScanOptions": "FS",
  "ScanningSequence": "EP",
  "SequenceName": "epfid2d1_82",
  "SequenceVariant": "SK\\SS",
  "SeriesDescription": "func_run-01_task-alignvideo_acq-ap-mb8",
  "SeriesNumber": 30,
  "ShimSetting": [4143, -7731, -7266, 558, -42, -37, 11, 90],
  "SliceThickness": 2.7,
  "SliceTiming": [0, 0.2525, 0.0625, 0.315, 0.125, 0.3775, 0.19, 0, 0.2525, 0.0625, 0.315, 0.125, 0.3775, 0.19, 0, 0.2525, 0.0625, 0.315, 0.125, 0.3775, 0.19, 0, 0.2525, 0.0625, 0.315, 0.125, 0.3775, 0.19, 0, 0.2525, 0.0625, 0.315, 0.125, 0.3775, 0.19, 0, 0.2525, 0.0625, 0.315, 0.125, 0.3775, 0.19, 0, 0.2525, 0.0625, 0.315, 0.125, 0.3775, 0.19, 0, 0.2525, 0.0625, 0.315, 0.125, 0.3775, 0.19],
  "SoftwareVersions": "syngo MR E11",
  "SpacingBetweenSlices": 2.7,
  "StationName": "AWP66112",
  "TaskName": "alignvideo",
  "TotalReadoutTime": 0.03969,
  "TxRefAmp": 248.244,
  "WipMemBlock": "5703aa8f-961c-40ae-b9a4-2e4c204f2016||Sequence: R016 ve11e/master r/434b28f1; Aug  7 2019 18:53:46 by eja",
  "dcmmeta_affine": [
    [-2.673872232437134, -0.20480456948280334, -0.08150047063827515, 122.45903015136719],
    [-0.20552995800971985, 2.6749587059020996, 0.021337240934371948, -88.36634826660156],
    [-0.07912608981132507, -0.027334757149219513, 2.69868540763855, -70.46685791015625],
    [0.0, 0.0, 0.0, 1.0]
],
  "dcmmeta_reorient_transform": [
    [0.0, -1.0, 0.0, 81.0],
    [1.0, 0.0, 0.0, 0.0],
    [0.0, 0.0, 1.0, 0.0],
    [0.0, 0.0, 0.0, 1.0]
],
  "dcmmeta_shape": [82, 82, 56, 1073],
  "dcmmeta_slice_dim": 2,
  "dcmmeta_version": 0.6,
  "global": {
    "const": {
      "AccessionNumber": "A003891",
      "AcquisitionMatrix": [82, 0, 0, 82],
      "AngioFlag": "N",
      "BitsAllocated": 16,
      "BitsStored": 16,
      "BodyPartExamined": "BRAIN",
      "Columns": 656,
      "EchoNumbers": 1,
      "EchoTime": 27.2,
      "EchoTrainLength": 82,
      "FlipAngle": 44.0,
      "HighBit": 15,
      "ImageOrientationPatient": [0.99662511562251, 0.07660662029793, -0.0294924505075, -0.0763362493466, 0.99703007645146, 0.01018840943928],
      "ImagePositionPatient": [-814.49230365871, -955.0055892935, -57.816863926103],
      "ImageType": [
        "ORIGINAL",
        "PRIMARY",
        "M",
        "MB",
        "ND",
        "NORM",
        "MOSAIC"
],
      "ImagedNucleus": "1H",
      "ImagingFrequency": 123.252208,
      "InPlanePhaseEncodingDirection": "COL",
      "MRAcquisitionType": "2D",
      "MagneticFieldStrength": 3.0,
      "Manufacturer": "SIEMENS",
      "ManufacturerModelName": "Prisma",
      "Modality": "MR",
      "NumberOfAverages": 1.0,
      "NumberOfPhaseEncodingSteps": 82,
      "PercentPhaseFieldOfView": 100.0,
      "PercentSampling": 100.0,
      "PerformedProcedureStepStartTime": "141327.636000",
      "PhotometricInterpretation": "MONOCHROME2",
      "PixelBandwidth": 3050.0,
      "PixelRepresentation": 0,
      "PixelSpacing": [2.6829268932343, 2.6829268932343],
      "ProtocolName": "func_run-01_task-alignvideo_acq-ap-mb8",
      "RepetitionTime": 460.0,
      "Rows": 656,
      "SAR": 0.08101308332703,
      "SamplesPerPixel": 1,
      "ScanOptions": "FS",
      "ScanningSequence": "EP",
      "SequenceName": "epfid2d1_82",
      "SequenceVariant": [
        "SK",
        "SS"
],
      "SeriesDescription": "func_run-01_task-alignvideo_acq-ap-mb8",
      "SeriesNumber": 30,
      "SeriesTime": "154615.552000",
      "SliceLocation": -74.827349645978,
      "SliceThickness": 2.7000000476837,
      "SmallestImagePixelValue": 0,
      "SoftwareVersions": "syngo MR E11",
      "SpacingBetweenSlices": 2.7000000771685,
      "SpecificCharacterSet": "ISO_IR 100",
      "StudyID": "1",
      "StudyTime": "141327.556000",
      "TransmitCoilName": "Body",
      "VariableFlipAngleFlag": "N",
      "WindowCenterWidthExplanation": "Algo1"
    },
    "slices": {}
  },
  "time": {
    "samples": {
      "AcquisitionNumber": [1, 2, 3, 4, 5, 6, 7, 8, 9, 10, 11, 12, 13, 14, 15, 16, 17, 18, 19, 20, 21, 22, 23, 24, 25, 26, 27, 28, 29, 30, 31, 32, 33, 34, 35, 36, 37, 38, 39, 40, 41, 42, 43, 44, 45, 46, 47, 48, 49, 50, 51, 52, 53, 54, 55, 56, 57, 58, 59, 60, 61, 62, 63, 64, 65, 66, 67, 68, 69, 70, 71, 72, 73, 74, 75, 76, 77, 78, 79, 80, 81, 82, 83, 84, 85, 86, 87, 88, 89, 90, 91, 92, 93, 94, 95, 96, 97, 98, 99, 100, 101, 102, 103, 104, 105, 106, 107, 108, 109, 110, 111, 112, 113, 114, 115, 116, 117, 118, 119, 120, 121, 122, 123, 124, 125, 126, 127, 128, 129, 130, 131, 132, 133, 134, 135, 136, 137, 138, 139, 140, 141, 142, 143, 144, 145, 146, 147, 148, 149, 150, 151, 152, 153, 154, 155, 156, 157, 158, 159, 160, 161, 162, 163, 164, 165, 166, 167, 168, 169, 170, 171, 172, 173, 174, 175, 176, 177, 178, 179, 180, 181, 182, 183, 184, 185, 186, 187, 188, 189, 190, 191, 192, 193, 194, 195, 196, 197, 198, 199, 200, 201, 202, 203, 204, 205, 206, 207, 208, 209, 210, 211, 212, 213, 214, 215, 216, 217, 218, 219, 220, 221, 222, 223, 224, 225, 226, 227, 228, 229, 230, 231, 232, 233, 234, 235, 236, 237, 238, 239, 240, 241, 242, 243, 244, 245, 246, 247, 248, 249, 250, 251, 252, 253, 254, 255, 256, 257, 258, 259, 260, 261, 262, 263, 264, 265, 266, 267, 268, 269, 270, 271, 272, 273, 274, 275, 276, 277, 278, 279, 280, 281, 282, 283, 284, 285, 286, 287, 288, 289, 290, 291, 292, 293, 294, 295, 296, 297, 298, 299, 300, 301, 302, 303, 304, 305, 306, 307, 308, 309, 310, 311, 312, 313, 314, 315, 316, 317, 318, 319, 320, 321, 322, 323, 324, 325, 326, 327, 328, 329, 330, 331, 332, 333, 334, 335, 336, 337, 338, 339, 340, 341, 342, 343, 344, 345, 346, 347, 348, 349, 350, 351, 352, 353, 354, 355, 356, 357, 358, 359, 360, 361, 362, 363, 364, 365, 366, 367, 368, 369, 370, 371, 372, 373, 374, 375, 376, 377, 378, 379, 380, 381, 382, 383, 384, 385, 386, 387, 388, 389, 390, 391, 392, 393, 394, 395, 396, 397, 398, 399, 400, 401, 402, 403, 404, 405, 406, 407, 408, 409, 410, 411, 412, 413, 414, 415, 416, 417, 418, 419, 420, 421, 422, 423, 424, 425, 426, 427, 428, 429, 430, 431, 432, 433, 434, 435, 436, 437, 438, 439, 440, 441, 442, 443, 444, 445, 446, 447, 448, 449, 450, 451, 452, 453, 454, 455, 456, 457, 458, 459, 460, 461, 462, 463, 464, 465, 466, 467, 468, 469, 470, 471, 472, 473, 474, 475, 476, 477, 478, 479, 480, 481, 482, 483, 484, 485, 486, 487, 488, 489, 490, 491, 492, 493, 494, 495, 496, 497, 498, 499, 500, 501, 502, 503, 504, 505, 506, 507, 508, 509, 510, 511, 512, 513, 514, 515, 516, 517, 518, 519, 520, 521, 522, 523, 524, 525, 526, 527, 528, 529, 530, 531, 532, 533, 534, 535, 536, 537, 538, 539, 540, 541, 542, 543, 544, 545, 546, 547, 548, 549, 550, 551, 552, 553, 554, 555, 556, 557, 558, 559, 560, 561, 562, 563, 564, 565, 566, 567, 568, 569, 570, 571, 572, 573, 574, 575, 576, 577, 578, 579, 580, 581, 582, 583, 584, 585, 586, 587, 588, 589, 590, 591, 592, 593, 594, 595, 596, 597, 598, 599, 600, 601, 602, 603, 604, 605, 606, 607, 608, 609, 610, 611, 612, 613, 614, 615, 616, 617, 618, 619, 620, 621, 622, 623, 624, 625, 626, 627, 628, 629, 630, 631, 632, 633, 634, 635, 636, 637, 638, 639, 640, 641, 642, 643, 644, 645, 646, 647, 648, 649, 650, 651, 652, 653, 654, 655, 656, 657, 658, 659, 660, 661, 662, 663, 664, 665, 666, 667, 668, 669, 670, 671, 672, 673, 674, 675, 676, 677, 678, 679, 680, 681, 682, 683, 684, 685, 686, 687, 688, 689, 690, 691, 692, 693, 694, 695, 696, 697, 698, 699, 700, 701, 702, 703, 704, 705, 706, 707, 708, 709, 710, 711, 712, 713, 714, 715, 716, 717, 718, 719, 720, 721, 722, 723, 724, 725, 726, 727, 728, 729, 730, 731, 732, 733, 734, 735, 736, 737, 738, 739, 740, 741, 742, 743, 744, 745, 746, 747, 748, 749, 750, 751, 752, 753, 754, 755, 756, 757, 758, 759, 760, 761, 762, 763, 764, 765, 766, 767, 768, 769, 770, 771, 772, 773, 774, 775, 776, 777, 778, 779, 780, 781, 782, 783, 784, 785, 786, 787, 788, 789, 790, 791, 792, 793, 794, 795, 796, 797, 798, 799, 800, 801, 802, 803, 804, 805, 806, 807, 808, 809, 810, 811, 812, 813, 814, 815, 816, 817, 818, 819, 820, 821, 822, 823, 824, 825, 826, 827, 828, 829, 830, 831, 832, 833, 834, 835, 836, 837, 838, 839, 840, 841, 842, 843, 844, 845, 846, 847, 848, 849, 850, 851, 852, 853, 854, 855, 856, 857, 858, 859, 860, 861, 862, 863, 864, 865, 866, 867, 868, 869, 870, 871, 872, 873, 874, 875, 876, 877, 878, 879, 880, 881, 882, 883, 884, 885, 886, 887, 888, 889, 890, 891, 892, 893, 894, 895, 896, 897, 898, 899, 900, 901, 902, 903, 904, 905, 906, 907, 908, 909, 910, 911, 912, 913, 914, 915, 916, 917, 918, 919, 920, 921, 922, 923, 924, 925, 926, 927, 928, 929, 930, 931, 932, 933, 934, 935, 936, 937, 938, 939, 940, 941, 942, 943, 944, 945, 946, 947, 948, 949, 950, 951, 952, 953, 954, 955, 956, 957, 958, 959, 960, 961, 962, 963, 964, 965, 966, 967, 968, 969, 970, 971, 972, 973, 974, 975, 976, 977, 978, 979, 980, 981, 982, 983, 984, 985, 986, 987, 988, 989, 990, 991, 992, 993, 994, 995, 996, 997, 998, 999, 1000, 1001, 1002, 1003, 1004, 1005, 1006, 1007, 1008, 1009, 1010, 1011, 1012, 1013, 1014, 1015, 1016, 1017, 1018, 1019, 1020, 1021, 1022, 1023, 1024, 1025, 1026, 1027, 1028, 1029, 1030, 1031, 1032, 1033, 1034, 1035, 1036, 1037, 1038, 1039, 1040, 1041, 1042, 1043, 1044, 1045, 1046, 1047, 1048, 1049, 1050, 1051, 1052, 1053, 1054, 1055, 1056, 1057, 1058, 1059, 1060, 1061, 1062, 1063, 1064, 1065, 1066, 1067, 1068, 1069, 1070, 1071, 1072, 1073],
      "AcquisitionTime": ["154550.587500", "154551.047500", "154551.507500", "154551.967500", "154552.427500", "154552.887500", "154553.347500", "154553.807500", "154554.267500", "154554.727500", "154555.187500", "154555.647500", "154556.107500", "154556.567500", "154557.027500", "154557.487500", "154557.947500", "154558.407500", "154558.867500", "154559.327500", "154559.787500", "154600.247500", "154600.707500", "154601.167500", "154601.627500", "154602.087500", "154602.547500", "154603.007500", "154603.467500", "154603.927500", "154604.387500", "154604.847500", "154605.307500", "154605.767500", "154606.227500", "154606.687500", "154607.147500", "154607.607500", "154608.067500", "154608.527500", "154608.987500", "154609.447500", "154609.907500", "154610.367500", "154610.827500", "154611.287500", "154611.747500", "154612.207500", "154612.667500", "154613.127500", "154613.587500", "154614.047500", "154614.507500", "154614.967500", "154615.427500", "154615.887500", "154616.347500", "154616.807500", "154617.267500", "154617.727500", "154618.187500", "154618.647500", "154619.107500", "154619.567500", "154620.027500", "154620.487500", "154620.947500", "154621.407500", "154621.867500", "154622.327500", "154622.787500", "154623.247500", "154623.707500", "154624.167500", "154624.627500", "154625.087500", "154625.547500", "154626.007500", "154626.467500", "154626.927500", "154627.387500", "154627.847500", "154628.307500", "154628.767500", "154629.227500", "154629.687500", "154630.147500", "154630.607500", "154631.067500", "154631.527500", "154631.987500", "154632.447500", "154632.907500", "154633.367500", "154633.827500", "154634.287500", "154634.747500", "154635.207500", "154635.667500", "154636.127500", "154636.587500", "154637.047500", "154637.507500", "154637.967500", "154638.427500", "154638.887500", "154639.347500", "154639.807500", "154640.267500", "154640.727500", "154641.187500", "154641.647500", "154642.107500", "154642.567500", "154643.027500", "154643.487500", "154643.947500", "154644.407500", "154644.867500", "154645.327500", "154645.787500", "154646.247500", "154646.707500", "154647.167500", "154647.627500", "154648.087500", "154648.547500", "154649.007500", "154649.467500", "154649.927500", "154650.387500", "154650.847500", "154651.307500", "154651.767500", "154652.227500", "154652.687500", "154653.147500", "154653.607500", "154654.067500", "154654.527500", "154654.987500", "154655.447500", "154655.907500", "154656.367500", "154656.827500", "154657.287500", "154657.747500", "154658.207500", "154658.667500", "154659.127500", "154659.587500", "154700.047500", "154700.507500", "154700.967500", "154701.427500", "154701.887500", "154702.347500", "154702.807500", "154703.267500", "154703.727500", "154704.187500", "154704.647500", "154705.107500", "154705.567500", "154706.027500", "154706.487500", "154706.947500", "154707.407500", "154707.867500", "154708.327500", "154708.787500", "154709.247500", "154709.707500", "154710.167500", "154710.627500", "154711.087500", "154711.547500", "154712.007500", "154712.467500", "154712.927500", "154713.387500", "154713.847500", "154714.307500", "154714.767500", "154715.227500", "154715.687500", "154716.147500", "154716.607500", "154717.067500", "154717.527500", "154717.987500", "154718.447500", "154718.907500", "154719.367500", "154719.827500", "154720.287500", "154720.747500", "154721.207500", "154721.667500", "154722.127500", "154722.587500", "154723.047500", "154723.507500", "154723.967500", "154724.427500", "154724.887500", "154725.347500", "154725.807500", "154726.267500", "154726.727500", "154727.187500", "154727.647500", "154728.107500", "154728.567500", "154729.027500", "154729.487500", "154729.947500", "154730.407500", "154730.867500", "154731.327500", "154731.787500", "154732.247500", "154732.707500", "154733.167500", "154733.627500", "154734.087500", "154734.547500", "154735.007500", "154735.467500", "154735.927500", "154736.387500", "154736.847500", "154737.307500", "154737.767500", "154738.227500", "154738.687500", "154739.147500", "154739.607500", "154740.067500", "154740.527500", "154740.987500", "154741.447500", "154741.907500", "154742.367500", "154742.827500", "154743.287500", "154743.747500", "154744.207500", "154744.667500", "154745.127500", "154745.587500", "154746.047500", "154746.507500", "154746.967500", "154747.427500", "154747.887500", "154748.347500", "154748.807500", "154749.267500", "154749.727500", "154750.187500", "154750.647500", "154751.107500", "154751.567500", "154752.027500", "154752.487500", "154752.947500", "154753.407500", "154753.867500", "154754.327500", "154754.787500", "154755.247500", "154755.707500", "154756.167500", "154756.627500", "154757.087500", "154757.547500", "154758.007500", "154758.467500", "154758.927500", "154759.387500", "154759.847500", "154800.307500", "154800.767500", "154801.227500", "154801.687500", "154802.147500", "154802.607500", "154803.067500", "154803.527500", "154803.987500", "154804.447500", "154804.907500", "154805.367500", "154805.827500", "154806.287500", "154806.747500", "154807.207500", "154807.667500", "154808.127500", "154808.587500", "154809.047500", "154809.507500", "154809.967500", "154810.427500", "154810.887500", "154811.347500", "154811.807500", "154812.267500", "154812.727500", "154813.187500", "154813.647500", "154814.107500", "154814.567500", "154815.027500", "154815.487500", "154815.947500", "154816.407500", "154816.867500", "154817.327500", "154817.787500", "154818.247500", "154818.707500", "154819.167500", "154819.627500", "154820.087500", "154820.547500", "154821.007500", "154821.467500", "154821.927500", "154822.387500", "154822.847500", "154823.307500", "154823.767500", "154824.227500", "154824.687500", "154825.147500", "154825.607500", "154826.067500", "154826.527500", "154826.987500", "154827.447500", "154827.907500", "154828.367500", "154828.827500", "154829.287500", "154829.747500", "154830.207500", "154830.667500", "154831.127500", "154831.587500", "154832.047500", "154832.507500", "154832.967500", "154833.427500", "154833.887500", "154834.347500", "154834.807500", "154835.267500", "154835.727500", "154836.187500", "154836.647500", "154837.107500", "154837.567500", "154838.027500", "154838.487500", "154838.947500", "154839.407500", "154839.867500", "154840.327500", "154840.787500", "154841.247500", "154841.707500", "154842.167500", "154842.627500", "154843.087500", "154843.547500", "154844.007500", "154844.467500", "154844.927500", "154845.387500", "154845.847500", "154846.307500", "154846.767500", "154847.227500", "154847.687500", "154848.147500", "154848.607500", "154849.067500", "154849.527500", "154849.987500", "154850.447500", "154850.907500", "154851.367500", "154851.827500", "154852.287500", "154852.747500", "154853.207500", "154853.667500", "154854.127500", "154854.587500", "154855.047500", "154855.507500", "154855.967500", "154856.427500", "154856.887500", "154857.347500", "154857.807500", "154858.267500", "154858.727500", "154859.187500", "154859.647500", "154900.107500", "154900.567500", "154901.027500", "154901.487500", "154901.947500", "154902.407500", "154902.867500", "154903.327500", "154903.787500", "154904.247500", "154904.707500", "154905.167500", "154905.627500", "154906.087500", "154906.547500", "154907.007500", "154907.467500", "154907.927500", "154908.387500", "154908.847500", "154909.307500", "154909.767500", "154910.227500", "154910.687500", "154911.147500", "154911.607500", "154912.067500", "154912.527500", "154912.987500", "154913.447500", "154913.907500", "154914.367500", "154914.827500", "154915.287500", "154915.747500", "154916.207500", "154916.667500", "154917.127500", "154917.587500", "154918.047500", "154918.507500", "154918.967500", "154919.427500", "154919.887500", "154920.347500", "154920.807500", "154921.267500", "154921.727500", "154922.187500", "154922.647500", "154923.107500", "154923.567500", "154924.027500", "154924.487500", "154924.947500", "154925.407500", "154925.867500", "154926.327500", "154926.787500", "154927.247500", "154927.707500", "154928.167500", "154928.627500", "154929.087500", "154929.547500", "154930.007500", "154930.467500", "154930.927500", "154931.387500", "154931.847500", "154932.307500", "154932.767500", "154933.227500", "154933.687500", "154934.147500", "154934.607500", "154935.067500", "154935.527500", "154935.987500", "154936.447500", "154936.907500", "154937.367500", "154937.827500", "154938.287500", "154938.747500", "154939.207500", "154939.667500", "154940.127500", "154940.587500", "154941.047500", "154941.507500", "154941.967500", "154942.427500", "154942.887500", "154943.347500", "154943.807500", "154944.267500", "154944.727500", "154945.187500", "154945.647500", "154946.107500", "154946.567500", "154947.027500", "154947.487500", "154947.947500", "154948.407500", "154948.867500", "154949.327500", "154949.787500", "154950.247500", "154950.707500", "154951.167500", "154951.627500", "154952.087500", "154952.547500", "154953.007500", "154953.467500", "154953.927500", "154954.387500", "154954.847500", "154955.307500", "154955.767500", "154956.227500", "154956.687500", "154957.147500", "154957.607500", "154958.067500", "154958.527500", "154958.987500", "154959.447500", "154959.907500", "155000.367500", "155000.827500", "155001.287500", "155001.747500", "155002.207500", "155002.667500", "155003.127500", "155003.587500", "155004.047500", "155004.507500", "155004.967500", "155005.427500", "155005.887500", "155006.347500", "155006.807500", "155007.267500", "155007.727500", "155008.187500", "155008.647500", "155009.107500", "155009.567500", "155010.027500", "155010.487500", "155010.947500", "155011.407500", "155011.867500", "155012.327500", "155012.787500", "155013.247500", "155013.707500", "155014.167500", "155014.627500", "155015.087500", "155015.547500", "155016.007500", "155016.467500", "155016.927500", "155017.387500", "155017.847500", "155018.307500", "155018.767500", "155019.227500", "155019.687500", "155020.147500", "155020.607500", "155021.067500", "155021.527500", "155021.987500", "155022.447500", "155022.907500", "155023.367500", "155023.827500", "155024.287500", "155024.747500", "155025.207500", "155025.667500", "155026.127500", "155026.587500", "155027.047500", "155027.507500", "155027.967500", "155028.427500", "155028.887500", "155029.347500", "155029.807500", "155030.267500", "155030.727500", "155031.187500", "155031.647500", "155032.107500", "155032.567500", "155033.027500", "155033.487500", "155033.947500", "155034.407500", "155034.867500", "155035.327500", "155035.787500", "155036.247500", "155036.707500", "155037.167500", "155037.627500", "155038.087500", "155038.547500", "155039.007500", "155039.467500", "155039.927500", "155040.387500", "155040.847500", "155041.307500", "155041.767500", "155042.227500", "155042.687500", "155043.147500", "155043.607500", "155044.067500", "155044.527500", "155044.987500", "155045.447500", "155045.907500", "155046.367500", "155046.827500", "155047.287500", "155047.747500", "155048.207500", "155048.667500", "155049.127500", "155049.587500", "155050.047500", "155050.507500", "155050.967500", "155051.427500", "155051.887500", "155052.347500", "155052.807500", "155053.267500", "155053.727500", "155054.187500", "155054.647500", "155055.107500", "155055.567500", "155056.027500", "155056.487500", "155056.947500", "155057.407500", "155057.867500", "155058.327500", "155058.787500", "155059.247500", "155059.707500", "155100.167500", "155100.627500", "155101.087500", "155101.547500", "155102.007500", "155102.467500", "155102.927500", "155103.387500", "155103.847500", "155104.307500", "155104.767500", "155105.227500", "155105.687500", "155106.147500", "155106.607500", "155107.067500", "155107.527500", "155107.987500", "155108.447500", "155108.907500", "155109.367500", "155109.827500", "155110.287500", "155110.747500", "155111.207500", "155111.667500", "155112.127500", "155112.587500", "155113.047500", "155113.507500", "155113.967500", "155114.427500", "155114.887500", "155115.347500", "155115.807500", "155116.267500", "155116.727500", "155117.187500", "155117.647500", "155118.107500", "155118.567500", "155119.027500", "155119.487500", "155119.947500", "155120.407500", "155120.867500", "155121.327500", "155121.787500", "155122.247500", "155122.707500", "155123.167500", "155123.627500", "155124.087500", "155124.547500", "155125.007500", "155125.467500", "155125.927500", "155126.387500", "155126.847500", "155127.307500", "155127.767500", "155128.227500", "155128.687500", "155129.147500", "155129.607500", "155130.067500", "155130.527500", "155130.987500", "155131.447500", "155131.907500", "155132.367500", "155132.827500", "155133.287500", "155133.747500", "155134.207500", "155134.667500", "155135.127500", "155135.587500", "155136.047500", "155136.507500", "155136.967500", "155137.427500", "155137.887500", "155138.347500", "155138.807500", "155139.267500", "155139.727500", "155140.187500", "155140.647500", "155141.107500", "155141.567500", "155142.027500", "155142.487500", "155142.947500", "155143.407500", "155143.867500", "155144.327500", "155144.787500", "155145.247500", "155145.707500", "155146.167500", "155146.627500", "155147.087500", "155147.547500", "155148.007500", "155148.467500", "155148.927500", "155149.387500", "155149.847500", "155150.307500", "155150.767500", "155151.227500", "155151.687500", "155152.147500", "155152.607500", "155153.067500", "155153.527500", "155153.987500", "155154.447500", "155154.907500", "155155.367500", "155155.827500", "155156.287500", "155156.747500", "155157.207500", "155157.667500", "155158.127500", "155158.587500", "155159.047500", "155159.507500", "155159.967500", "155200.427500", "155200.887500", "155201.347500", "155201.807500", "155202.267500", "155202.727500", "155203.187500", "155203.647500", "155204.107500", "155204.567500", "155205.027500", "155205.487500", "155205.947500", "155206.407500", "155206.867500", "155207.327500", "155207.787500", "155208.247500", "155208.707500", "155209.167500", "155209.627500", "155210.087500", "155210.547500", "155211.007500", "155211.467500", "155211.927500", "155212.387500", "155212.847500", "155213.307500", "155213.767500", "155214.227500", "155214.687500", "155215.147500", "155215.607500", "155216.067500", "155216.527500", "155216.987500", "155217.447500", "155217.907500", "155218.367500", "155218.827500", "155219.287500", "155219.747500", "155220.207500", "155220.667500", "155221.127500", "155221.587500", "155222.047500", "155222.507500", "155222.967500", "155223.427500", "155223.887500", "155224.347500", "155224.807500", "155225.267500", "155225.727500", "155226.187500", "155226.647500", "155227.107500", "155227.567500", "155228.027500", "155228.487500", "155228.947500", "155229.407500", "155229.867500", "155230.327500", "155230.787500", "155231.247500", "155231.707500", "155232.167500", "155232.627500", "155233.087500", "155233.547500", "155234.007500", "155234.467500", "155234.927500", "155235.387500", "155235.847500", "155236.307500", "155236.767500", "155237.227500", "155237.687500", "155238.147500", "155238.607500", "155239.067500", "155239.527500", "155239.987500", "155240.447500", "155240.907500", "155241.367500", "155241.827500", "155242.287500", "155242.747500", "155243.207500", "155243.667500", "155244.127500", "155244.587500", "155245.047500", "155245.507500", "155245.967500", "155246.427500", "155246.887500", "155247.347500", "155247.807500", "155248.267500", "155248.727500", "155249.187500", "155249.647500", "155250.107500", "155250.567500", "155251.027500", "155251.487500", "155251.947500", "155252.407500", "155252.867500", "155253.327500", "155253.787500", "155254.247500", "155254.707500", "155255.167500", "155255.627500", "155256.087500", "155256.547500", "155257.007500", "155257.467500", "155257.927500", "155258.387500", "155258.847500", "155259.307500", "155259.767500", "155300.227500", "155300.687500", "155301.147500", "155301.607500", "155302.067500", "155302.527500", "155302.987500", "155303.447500", "155303.907500", "155304.367500", "155304.827500", "155305.287500", "155305.747500", "155306.207500", "155306.667500", "155307.127500", "155307.587500", "155308.047500", "155308.507500", "155308.967500", "155309.427500", "155309.887500", "155310.347500", "155310.807500", "155311.267500", "155311.727500", "155312.187500", "155312.647500", "155313.107500", "155313.567500", "155314.027500", "155314.487500", "155314.947500", "155315.407500", "155315.867500", "155316.327500", "155316.787500", "155317.247500", "155317.707500", "155318.167500", "155318.627500", "155319.087500", "155319.547500", "155320.007500", "155320.467500", "155320.927500", "155321.387500", "155321.847500", "155322.307500", "155322.767500", "155323.227500", "155323.687500", "155324.147500", "155324.607500", "155325.067500", "155325.527500", "155325.987500", "155326.447500", "155326.907500", "155327.367500", "155327.827500", "155328.287500", "155328.747500", "155329.207500", "155329.667500", "155330.127500", "155330.587500", "155331.047500", "155331.507500", "155331.967500", "155332.427500", "155332.887500", "155333.347500", "155333.807500", "155334.267500", "155334.727500", "155335.187500", "155335.647500", "155336.107500", "155336.567500", "155337.027500", "155337.487500", "155337.947500", "155338.407500", "155338.867500", "155339.327500", "155339.787500", "155340.247500", "155340.707500", "155341.167500", "155341.627500", "155342.087500", "155342.547500", "155343.007500", "155343.467500", "155343.927500", "155344.387500", "155344.847500", "155345.307500", "155345.767500", "155346.227500", "155346.687500", "155347.147500", "155347.607500", "155348.067500", "155348.527500", "155348.987500", "155349.447500", "155349.907500", "155350.367500", "155350.827500", "155351.287500", "155351.747500", "155352.207500", "155352.667500", "155353.127500", "155353.587500", "155354.047500", "155354.507500", "155354.967500", "155355.427500", "155355.887500", "155356.347500", "155356.807500", "155357.267500", "155357.727500", "155358.187500", "155358.647500", "155359.107500", "155359.567500", "155400.027500", "155400.487500", "155400.947500", "155401.407500", "155401.867500", "155402.327500", "155402.787500", "155403.247500", "155403.707500"],
