{
  "AcquisitionMatrixPE": 82,
  "AcquisitionNumber": 1,
  "AcquisitionTime": "15:11:17.167500",
  "BandwidthPerPixelPhaseEncode": 24.888,
  "BaseResolution": 82,
  "BodyPartExamined": "BRAIN",
  "ConsistencyInfo": "N4_VE11E_LATEST_20181129",
  "ConversionSoftware": "dcm2niix",
  "ConversionSoftwareVersion": "v1.0.20201102",
  "DerivedVendorReportedEchoSpacing": 0.00049,
  "DeviceSerialNumber": "66112",
  "DwellTime": 2e-06,
  "EchoTime": 0.0272,
  "EchoTrainLength": 82,
  "EffectiveEchoSpacing": 0.00049,
  "FlipAngle": 44,
  "ImageComments": "Unaliased MB8/PE3",
  "ImageOrientationPatientDICOM": [0.992658, 0.0401057, -0.114115, -0.0518493, 0.993445, -0.101878],
  "ImageType": [
    "ORIGINAL",
    "PRIMARY",
    "M",
    "MB",
    "ND",
    "NORM",
    "MOSAIC"
],
  "ImagingFrequency": 123.252,
  "InPlanePhaseEncodingDirectionDICOM": "COL",
  "InstitutionAddress": "Maynard 3,Hanover,NH,US,03755",
  "InstitutionName": "Dartmouth College - PBS",
  "InstitutionalDepartmentName": "Department",
  "MRAcquisitionType": "2D",
  "MagneticFieldStrength": 3,
  "Manufacturer": "Siemens",
  "ManufacturersModelName": "Prisma",
  "Modality": "MR",
  "MultibandAccelerationFactor": 8,
  "PartialFourier": 1,
  "PatientPosition": "HFS",
  "PercentPhaseFOV": 100,
  "PercentSampling": 100,
  "PhaseEncodingDirection": "j-",
  "PhaseEncodingSteps": 82,
  "PhaseResolution": 1,
  "PixelBandwidth": 3050,
  "ProcedureStepDescription": "Wager_Wager^1076_spacetop",
  "ProtocolName": "func_run-04_task-social_acq-ap-mb8",
  "PulseSequenceDetails": "%CustomerSeq%\\cmrr_mbep2d_bold",
  "ReceiveCoilActiveElements": "HEA;HEP",
  "ReceiveCoilName": "Head_32",
  "ReconMatrixPE": 82,
  "RepetitionTime": 0.46,
  "SAR": 0.0894328,
  "ScanOptions": "FS",
  "ScanningSequence": "EP",
  "SequenceName": "epfid2d1_82",
  "SequenceVariant": "SK\\SS",
  "SeriesDescription": "func_run-04_task-social_acq-ap-mb8",
  "SeriesNumber": 18,
  "ShimSetting": [4117, -7708, -7309, 577, -49, -68, -132, 102],
  "SliceThickness": 2.7,
  "SliceTiming": [0, 0.2525, 0.0625, 0.315, 0.125, 0.3775, 0.19, 0, 0.2525, 0.0625, 0.315, 0.125, 0.3775, 0.19, 0, 0.2525, 0.0625, 0.315, 0.125, 0.3775, 0.19, 0, 0.2525, 0.0625, 0.315, 0.125, 0.3775, 0.19, 0, 0.2525, 0.0625, 0.315, 0.125, 0.3775, 0.19, 0, 0.2525, 0.0625, 0.315, 0.125, 0.3775, 0.19, 0, 0.2525, 0.0625, 0.315, 0.125, 0.3775, 0.19, 0, 0.2525, 0.0625, 0.315, 0.125, 0.3775, 0.19],
  "SoftwareVersions": "syngo MR E11",
  "SpacingBetweenSlices": 2.7,
  "StationName": "AWP66112",
  "TaskName": "social",
  "TotalReadoutTime": 0.03969,
  "TxRefAmp": 256.632,
  "WipMemBlock": "7536d5f8-9f35-4692-bf0b-7b17fa0937b5||Sequence: R016 ve11e/master r/434b28f1; Aug  7 2019 18:53:46 by eja",
  "dcmmeta_affine": [
    [-2.6632280349731445, -0.13910774886608124, -0.29505860805511475, 125.9186782836914],
    [-0.10760052502155304, 2.665339708328247, -0.28902655839920044, -92.33499908447266],
    [-0.30616194009780884, 0.27333155274391174, 2.6682212352752686, -87.48456573486328],
    [0.0, 0.0, 0.0, 1.0]
],
  "dcmmeta_reorient_transform": [
    [0.0, -1.0, 0.0, 81.0],
    [1.0, 0.0, 0.0, 0.0],
    [0.0, 0.0, 1.0, 0.0],
    [0.0, 0.0, 0.0, 1.0]
],
  "dcmmeta_shape": [82, 82, 56, 872],
  "dcmmeta_slice_dim": 2,
  "dcmmeta_version": 0.6,
  "global": {
    "const": {
      "AccessionNumber": "A003891",
      "AcquisitionMatrix": [82, 0, 0, 82],
      "AngioFlag": "N",
      "BitsAllocated": 16,
      "BitsStored": 16,
      "BodyPartExamined": "BRAIN",
      "Columns": 656,
      "EchoNumbers": 1,
      "EchoTime": 27.2,
      "EchoTrainLength": 82,
      "FlipAngle": 44.0,
      "HighBit": 15,
      "ImageOrientationPatient": [0.99265770858744, 0.04010565061013, -0.1141148998645, -0.0518492528186, 0.99344476596608, -0.1018781230527],
      "ImagePositionPatient": [-839.0734757768, -919.39135451938, 100.96992182777],
      "ImageType": [
        "ORIGINAL",
        "PRIMARY",
        "M",
        "MB",
        "ND",
        "NORM",
        "MOSAIC"
],
      "ImagedNucleus": "1H",
      "ImagingFrequency": 123.25224,
      "InPlanePhaseEncodingDirection": "COL",
      "MRAcquisitionType": "2D",
      "MagneticFieldStrength": 3.0,
      "Manufacturer": "SIEMENS",
      "ManufacturerModelName": "Prisma",
      "Modality": "MR",
      "NumberOfAverages": 1.0,
      "NumberOfPhaseEncodingSteps": 82,
      "PercentPhaseFieldOfView": 100.0,
      "PercentSampling": 100.0,
      "PerformedProcedureStepStartTime": "141327.636000",
      "PhotometricInterpretation": "MONOCHROME2",
      "PixelBandwidth": 3050.0,
      "PixelRepresentation": 0,
      "PixelSpacing": [2.6829268932343, 2.6829268932343],
      "ProtocolName": "func_run-04_task-social_acq-ap-mb8",
      "RepetitionTime": 460.0,
      "Rows": 656,
      "SAR": 0.08943281727312,
      "SamplesPerPixel": 1,
      "ScanOptions": "FS",
      "ScanningSequence": "EP",
      "SequenceName": "epfid2d1_82",
      "SequenceVariant": [
        "SK",
        "SS"
],
      "SeriesDescription": "func_run-04_task-social_acq-ap-mb8",
      "SeriesNumber": 18,
      "SeriesTime": "151135.527000",
      "SliceLocation": -90.331217832166,
      "SliceThickness": 2.7000000476837,
      "SmallestImagePixelValue": 0,
      "SoftwareVersions": "syngo MR E11",
      "SpacingBetweenSlices": 2.699999996241,
      "SpecificCharacterSet": "ISO_IR 100",
      "StudyID": "1",
      "StudyTime": "141327.556000",
      "TransmitCoilName": "Body",
      "VariableFlipAngleFlag": "N",
      "WindowCenterWidthExplanation": "Algo1"
    },
    "slices": {}
  },
  "time": {
    "samples": {
      "AcquisitionNumber": [1, 2, 3, 4, 5, 6, 7, 8, 9, 10, 11, 12, 13, 14, 15, 16, 17, 18, 19, 20, 21, 22, 23, 24, 25, 26, 27, 28, 29, 30, 31, 32, 33, 34, 35, 36, 37, 38, 39, 40, 41, 42, 43, 44, 45, 46, 47, 48, 49, 50, 51, 52, 53, 54, 55, 56, 57, 58, 59, 60, 61, 62, 63, 64, 65, 66, 67, 68, 69, 70, 71, 72, 73, 74, 75, 76, 77, 78, 79, 80, 81, 82, 83, 84, 85, 86, 87, 88, 89, 90, 91, 92, 93, 94, 95, 96, 97, 98, 99, 100, 101, 102, 103, 104, 105, 106, 107, 108, 109, 110, 111, 112, 113, 114, 115, 116, 117, 118, 119, 120, 121, 122, 123, 124, 125, 126, 127, 128, 129, 130, 131, 132, 133, 134, 135, 136, 137, 138, 139, 140, 141, 142, 143, 144, 145, 146, 147, 148, 149, 150, 151, 152, 153, 154, 155, 156, 157, 158, 159, 160, 161, 162, 163, 164, 165, 166, 167, 168, 169, 170, 171, 172, 173, 174, 175, 176, 177, 178, 179, 180, 181, 182, 183, 184, 185, 186, 187, 188, 189, 190, 191, 192, 193, 194, 195, 196, 197, 198, 199, 200, 201, 202, 203, 204, 205, 206, 207, 208, 209, 210, 211, 212, 213, 214, 215, 216, 217, 218, 219, 220, 221, 222, 223, 224, 225, 226, 227, 228, 229, 230, 231, 232, 233, 234, 235, 236, 237, 238, 239, 240, 241, 242, 243, 244, 245, 246, 247, 248, 249, 250, 251, 252, 253, 254, 255, 256, 257, 258, 259, 260, 261, 262, 263, 264, 265, 266, 267, 268, 269, 270, 271, 272, 273, 274, 275, 276, 277, 278, 279, 280, 281, 282, 283, 284, 285, 286, 287, 288, 289, 290, 291, 292, 293, 294, 295, 296, 297, 298, 299, 300, 301, 302, 303, 304, 305, 306, 307, 308, 309, 310, 311, 312, 313, 314, 315, 316, 317, 318, 319, 320, 321, 322, 323, 324, 325, 326, 327, 328, 329, 330, 331, 332, 333, 334, 335, 336, 337, 338, 339, 340, 341, 342, 343, 344, 345, 346, 347, 348, 349, 350, 351, 352, 353, 354, 355, 356, 357, 358, 359, 360, 361, 362, 363, 364, 365, 366, 367, 368, 369, 370, 371, 372, 373, 374, 375, 376, 377, 378, 379, 380, 381, 382, 383, 384, 385, 386, 387, 388, 389, 390, 391, 392, 393, 394, 395, 396, 397, 398, 399, 400, 401, 402, 403, 404, 405, 406, 407, 408, 409, 410, 411, 412, 413, 414, 415, 416, 417, 418, 419, 420, 421, 422, 423, 424, 425, 426, 427, 428, 429, 430, 431, 432, 433, 434, 435, 436, 437, 438, 439, 440, 441, 442, 443, 444, 445, 446, 447, 448, 449, 450, 451, 452, 453, 454, 455, 456, 457, 458, 459, 460, 461, 462, 463, 464, 465, 466, 467, 468, 469, 470, 471, 472, 473, 474, 475, 476, 477, 478, 479, 480, 481, 482, 483, 484, 485, 486, 487, 488, 489, 490, 491, 492, 493, 494, 495, 496, 497, 498, 499, 500, 501, 502, 503, 504, 505, 506, 507, 508, 509, 510, 511, 512, 513, 514, 515, 516, 517, 518, 519, 520, 521, 522, 523, 524, 525, 526, 527, 528, 529, 530, 531, 532, 533, 534, 535, 536, 537, 538, 539, 540, 541, 542, 543, 544, 545, 546, 547, 548, 549, 550, 551, 552, 553, 554, 555, 556, 557, 558, 559, 560, 561, 562, 563, 564, 565, 566, 567, 568, 569, 570, 571, 572, 573, 574, 575, 576, 577, 578, 579, 580, 581, 582, 583, 584, 585, 586, 587, 588, 589, 590, 591, 592, 593, 594, 595, 596, 597, 598, 599, 600, 601, 602, 603, 604, 605, 606, 607, 608, 609, 610, 611, 612, 613, 614, 615, 616, 617, 618, 619, 620, 621, 622, 623, 624, 625, 626, 627, 628, 629, 630, 631, 632, 633, 634, 635, 636, 637, 638, 639, 640, 641, 642, 643, 644, 645, 646, 647, 648, 649, 650, 651, 652, 653, 654, 655, 656, 657, 658, 659, 660, 661, 662, 663, 664, 665, 666, 667, 668, 669, 670, 671, 672, 673, 674, 675, 676, 677, 678, 679, 680, 681, 682, 683, 684, 685, 686, 687, 688, 689, 690, 691, 692, 693, 694, 695, 696, 697, 698, 699, 700, 701, 702, 703, 704, 705, 706, 707, 708, 709, 710, 711, 712, 713, 714, 715, 716, 717, 718, 719, 720, 721, 722, 723, 724, 725, 726, 727, 728, 729, 730, 731, 732, 733, 734, 735, 736, 737, 738, 739, 740, 741, 742, 743, 744, 745, 746, 747, 748, 749, 750, 751, 752, 753, 754, 755, 756, 757, 758, 759, 760, 761, 762, 763, 764, 765, 766, 767, 768, 769, 770, 771, 772, 773, 774, 775, 776, 777, 778, 779, 780, 781, 782, 783, 784, 785, 786, 787, 788, 789, 790, 791, 792, 793, 794, 795, 796, 797, 798, 799, 800, 801, 802, 803, 804, 805, 806, 807, 808, 809, 810, 811, 812, 813, 814, 815, 816, 817, 818, 819, 820, 821, 822, 823, 824, 825, 826, 827, 828, 829, 830, 831, 832, 833, 834, 835, 836, 837, 838, 839, 840, 841, 842, 843, 844, 845, 846, 847, 848, 849, 850, 851, 852, 853, 854, 855, 856, 857, 858, 859, 860, 861, 862, 863, 864, 865, 866, 867, 868, 869, 870, 871, 872],
      "AcquisitionTime": ["151117.167500", "151117.627500", "151118.087500", "151118.547500", "151119.007500", "151119.467500", "151119.927500", "151120.387500", "151120.847500", "151121.307500", "151121.767500", "151122.227500", "151122.687500", "151123.147500", "151123.607500", "151124.067500", "151124.527500", "151124.987500", "151125.447500", "151125.907500", "151126.367500", "151126.827500", "151127.287500", "151127.747500", "151128.207500", "151128.667500", "151129.127500", "151129.587500", "151130.047500", "151130.507500", "151130.967500", "151131.427500", "151131.887500", "151132.347500", "151132.807500", "151133.267500", "151133.727500", "151134.187500", "151134.647500", "151135.107500", "151135.567500", "151136.027500", "151136.487500", "151136.947500", "151137.407500", "151137.867500", "151138.327500", "151138.787500", "151139.247500", "151139.707500", "151140.167500", "151140.627500", "151141.087500", "151141.547500", "151142.007500", "151142.467500", "151142.927500", "151143.387500", "151143.847500", "151144.307500", "151144.767500", "151145.227500", "151145.687500", "151146.147500", "151146.607500", "151147.067500", "151147.527500", "151147.987500", "151148.447500", "151148.907500", "151149.367500", "151149.827500", "151150.287500", "151150.747500", "151151.207500", "151151.667500", "151152.127500", "151152.587500", "151153.047500", "151153.507500", "151153.967500", "151154.427500", "151154.887500", "151155.347500", "151155.807500", "151156.267500", "151156.727500", "151157.187500", "151157.647500", "151158.107500", "151158.567500", "151159.027500", "151159.487500", "151159.947500", "151200.407500", "151200.867500", "151201.327500", "151201.787500", "151202.247500", "151202.707500", "151203.167500", "151203.627500", "151204.087500", "151204.547500", "151205.007500", "151205.467500", "151205.927500", "151206.387500", "151206.847500", "151207.307500", "151207.767500", "151208.227500", "151208.687500", "151209.147500", "151209.607500", "151210.067500", "151210.527500", "151210.987500", "151211.447500", "151211.907500", "151212.367500", "151212.827500", "151213.287500", "151213.747500", "151214.207500", "151214.667500", "151215.127500", "151215.587500", "151216.047500", "151216.507500", "151216.967500", "151217.427500", "151217.887500", "151218.347500", "151218.807500", "151219.267500", "151219.727500", "151220.187500", "151220.647500", "151221.107500", "151221.567500", "151222.027500", "151222.487500", "151222.947500", "151223.407500", "151223.867500", "151224.327500", "151224.787500", "151225.247500", "151225.707500", "151226.167500", "151226.627500", "151227.087500", "151227.547500", "151228.007500", "151228.467500", "151228.927500", "151229.387500", "151229.847500", "151230.307500", "151230.767500", "151231.227500", "151231.687500", "151232.147500", "151232.607500", "151233.067500", "151233.527500", "151233.987500", "151234.447500", "151234.907500", "151235.367500", "151235.827500", "151236.287500", "151236.747500", "151237.207500", "151237.667500", "151238.127500", "151238.587500", "151239.047500", "151239.507500", "151239.967500", "151240.427500", "151240.887500", "151241.347500", "151241.807500", "151242.267500", "151242.727500", "151243.187500", "151243.647500", "151244.107500", "151244.567500", "151245.027500", "151245.487500", "151245.947500", "151246.407500", "151246.867500", "151247.327500", "151247.787500", "151248.247500", "151248.707500", "151249.167500", "151249.627500", "151250.087500", "151250.547500", "151251.007500", "151251.467500", "151251.927500", "151252.387500", "151252.847500", "151253.307500", "151253.767500", "151254.227500", "151254.687500", "151255.147500", "151255.607500", "151256.067500", "151256.527500", "151256.987500", "151257.447500", "151257.907500", "151258.367500", "151258.827500", "151259.287500", "151259.747500", "151300.207500", "151300.667500", "151301.127500", "151301.587500", "151302.047500", "151302.507500", "151302.967500", "151303.427500", "151303.887500", "151304.347500", "151304.807500", "151305.267500", "151305.727500", "151306.187500", "151306.647500", "151307.107500", "151307.567500", "151308.027500", "151308.487500", "151308.947500", "151309.407500", "151309.867500", "151310.327500", "151310.787500", "151311.247500", "151311.707500", "151312.167500", "151312.627500", "151313.087500", "151313.547500", "151314.007500", "151314.467500", "151314.927500", "151315.387500", "151315.847500", "151316.307500", "151316.767500", "151317.227500", "151317.687500", "151318.147500", "151318.607500", "151319.067500", "151319.527500", "151319.987500", "151320.447500", "151320.907500", "151321.367500", "151321.827500", "151322.287500", "151322.747500", "151323.207500", "151323.667500", "151324.127500", "151324.587500", "151325.047500", "151325.507500", "151325.967500", "151326.427500", "151326.887500", "151327.347500", "151327.807500", "151328.267500", "151328.727500", "151329.187500", "151329.647500", "151330.107500", "151330.567500", "151331.027500", "151331.487500", "151331.947500", "151332.407500", "151332.867500", "151333.327500", "151333.787500", "151334.247500", "151334.707500", "151335.167500", "151335.627500", "151336.087500", "151336.547500", "151337.007500", "151337.467500", "151337.927500", "151338.387500", "151338.847500", "151339.307500", "151339.767500", "151340.227500", "151340.687500", "151341.147500", "151341.607500", "151342.067500", "151342.527500", "151342.987500", "151343.447500", "151343.907500", "151344.367500", "151344.827500", "151345.287500", "151345.747500", "151346.207500", "151346.667500", "151347.127500", "151347.587500", "151348.047500", "151348.507500", "151348.967500", "151349.427500", "151349.887500", "151350.347500", "151350.807500", "151351.267500", "151351.727500", "151352.187500", "151352.647500", "151353.107500", "151353.567500", "151354.027500", "151354.487500", "151354.947500", "151355.407500", "151355.867500", "151356.327500", "151356.787500", "151357.247500", "151357.707500", "151358.167500", "151358.627500", "151359.087500", "151359.547500", "151400.007500", "151400.467500", "151400.927500", "151401.387500", "151401.847500", "151402.307500", "151402.767500", "151403.227500", "151403.687500", "151404.147500", "151404.607500", "151405.067500", "151405.527500", "151405.987500", "151406.447500", "151406.907500", "151407.367500", "151407.827500", "151408.287500", "151408.747500", "151409.207500", "151409.667500", "151410.127500", "151410.587500", "151411.047500", "151411.507500", "151411.967500", "151412.427500", "151412.887500", "151413.347500", "151413.807500", "151414.267500", "151414.727500", "151415.187500", "151415.647500", "151416.107500", "151416.567500", "151417.027500", "151417.487500", "151417.947500", "151418.407500", "151418.867500", "151419.327500", "151419.787500", "151420.247500", "151420.707500", "151421.167500", "151421.627500", "151422.087500", "151422.547500", "151423.007500", "151423.467500", "151423.927500", "151424.387500", "151424.847500", "151425.307500", "151425.767500", "151426.227500", "151426.687500", "151427.147500", "151427.607500", "151428.067500", "151428.527500", "151428.987500", "151429.447500", "151429.907500", "151430.367500", "151430.827500", "151431.287500", "151431.747500", "151432.207500", "151432.667500", "151433.127500", "151433.587500", "151434.047500", "151434.507500", "151434.967500", "151435.427500", "151435.887500", "151436.347500", "151436.807500", "151437.267500", "151437.727500", "151438.187500", "151438.647500", "151439.107500", "151439.567500", "151440.027500", "151440.487500", "151440.947500", "151441.407500", "151441.867500", "151442.327500", "151442.787500", "151443.247500", "151443.707500", "151444.167500", "151444.627500", "151445.087500", "151445.547500", "151446.007500", "151446.467500", "151446.927500", "151447.387500", "151447.847500", "151448.307500", "151448.767500", "151449.227500", "151449.687500", "151450.147500", "151450.607500", "151451.067500", "151451.527500", "151451.987500", "151452.447500", "151452.907500", "151453.367500", "151453.827500", "151454.287500", "151454.747500", "151455.207500", "151455.667500", "151456.127500", "151456.587500", "151457.047500", "151457.507500", "151457.967500", "151458.427500", "151458.887500", "151459.347500", "151459.807500", "151500.267500", "151500.727500", "151501.187500", "151501.647500", "151502.107500", "151502.567500", "151503.027500", "151503.487500", "151503.947500", "151504.407500", "151504.867500", "151505.327500", "151505.787500", "151506.247500", "151506.707500", "151507.167500", "151507.627500", "151508.087500", "151508.547500", "151509.007500", "151509.467500", "151509.927500", "151510.387500", "151510.847500", "151511.307500", "151511.767500", "151512.227500", "151512.687500", "151513.147500", "151513.607500", "151514.067500", "151514.527500", "151514.987500", "151515.447500", "151515.907500", "151516.367500", "151516.827500", "151517.287500", "151517.747500", "151518.207500", "151518.667500", "151519.127500", "151519.587500", "151520.047500", "151520.507500", "151520.967500", "151521.427500", "151521.887500", "151522.347500", "151522.807500", "151523.267500", "151523.727500", "151524.187500", "151524.647500", "151525.107500", "151525.567500", "151526.027500", "151526.487500", "151526.947500", "151527.407500", "151527.867500", "151528.327500", "151528.787500", "151529.247500", "151529.707500", "151530.167500", "151530.627500", "151531.087500", "151531.547500", "151532.007500", "151532.467500", "151532.927500", "151533.387500", "151533.847500", "151534.307500", "151534.767500", "151535.227500", "151535.687500", "151536.147500", "151536.607500", "151537.067500", "151537.527500", "151537.987500", "151538.447500", "151538.907500", "151539.367500", "151539.827500", "151540.287500", "151540.747500", "151541.207500", "151541.667500", "151542.127500", "151542.587500", "151543.047500", "151543.507500", "151543.967500", "151544.427500", "151544.887500", "151545.347500", "151545.807500", "151546.267500", "151546.727500", "151547.187500", "151547.647500", "151548.107500", "151548.567500", "151549.027500", "151549.487500", "151549.947500", "151550.407500", "151550.867500", "151551.327500", "151551.787500", "151552.247500", "151552.707500", "151553.167500", "151553.627500", "151554.087500", "151554.547500", "151555.007500", "151555.467500", "151555.927500", "151556.387500", "151556.847500", "151557.307500", "151557.767500", "151558.227500", "151558.687500", "151559.147500", "151559.607500", "151600.067500", "151600.527500", "151600.987500", "151601.447500", "151601.907500", "151602.367500", "151602.827500", "151603.287500", "151603.747500", "151604.207500", "151604.667500", "151605.127500", "151605.587500", "151606.047500", "151606.507500", "151606.967500", "151607.427500", "151607.887500", "151608.347500", "151608.807500", "151609.267500", "151609.727500", "151610.187500", "151610.647500", "151611.107500", "151611.567500", "151612.027500", "151612.487500", "151612.947500", "151613.407500", "151613.867500", "151614.327500", "151614.787500", "151615.247500", "151615.707500", "151616.167500", "151616.627500", "151617.087500", "151617.547500", "151618.007500", "151618.467500", "151618.927500", "151619.387500", "151619.847500", "151620.307500", "151620.767500", "151621.227500", "151621.687500", "151622.147500", "151622.607500", "151623.067500", "151623.527500", "151623.987500", "151624.447500", "151624.907500", "151625.367500", "151625.827500", "151626.287500", "151626.747500", "151627.207500", "151627.667500", "151628.127500", "151628.587500", "151629.047500", "151629.507500", "151629.967500", "151630.427500", "151630.887500", "151631.347500", "151631.807500", "151632.267500", "151632.727500", "151633.187500", "151633.647500", "151634.107500", "151634.567500", "151635.027500", "151635.487500", "151635.947500", "151636.407500", "151636.867500", "151637.327500", "151637.787500", "151638.247500", "151638.707500", "151639.167500", "151639.627500", "151640.087500", "151640.547500", "151641.007500", "151641.467500", "151641.927500", "151642.387500", "151642.847500", "151643.307500", "151643.767500", "151644.227500", "151644.687500", "151645.147500", "151645.607500", "151646.067500", "151646.527500", "151646.987500", "151647.447500", "151647.907500", "151648.367500", "151648.827500", "151649.287500", "151649.747500", "151650.207500", "151650.667500", "151651.127500", "151651.587500", "151652.047500", "151652.507500", "151652.967500", "151653.427500", "151653.887500", "151654.347500", "151654.807500", "151655.267500", "151655.727500", "151656.187500", "151656.647500", "151657.107500", "151657.567500", "151658.027500", "151658.487500", "151658.947500", "151659.407500", "151659.867500", "151700.327500", "151700.787500", "151701.247500", "151701.707500", "151702.167500", "151702.627500", "151703.087500", "151703.547500", "151704.007500", "151704.467500", "151704.927500", "151705.387500", "151705.847500", "151706.307500", "151706.767500", "151707.227500", "151707.687500", "151708.147500", "151708.607500", "151709.067500", "151709.527500", "151709.987500", "151710.447500", "151710.907500", "151711.367500", "151711.827500", "151712.287500", "151712.747500", "151713.207500", "151713.667500", "151714.127500", "151714.587500", "151715.047500", "151715.507500", "151715.967500", "151716.427500", "151716.887500", "151717.347500", "151717.807500", "151718.267500", "151718.727500", "151719.187500", "151719.647500", "151720.107500", "151720.567500", "151721.027500", "151721.487500", "151721.947500", "151722.407500", "151722.867500", "151723.327500", "151723.787500", "151724.247500", "151724.707500", "151725.167500", "151725.627500", "151726.087500", "151726.547500", "151727.007500", "151727.467500", "151727.927500", "151728.387500", "151728.847500", "151729.307500", "151729.767500", "151730.227500", "151730.687500", "151731.147500", "151731.607500", "151732.067500", "151732.527500", "151732.987500", "151733.447500", "151733.907500", "151734.367500", "151734.827500", "151735.287500", "151735.747500", "151736.207500", "151736.667500", "151737.127500", "151737.587500", "151738.047500", "151738.507500", "151738.967500", "151739.427500", "151739.887500", "151740.347500", "151740.807500", "151741.267500", "151741.727500", "151742.187500", "151742.647500", "151743.107500", "151743.567500", "151744.027500", "151744.487500", "151744.947500", "151745.407500", "151745.867500", "151746.327500", "151746.787500", "151747.247500", "151747.707500", "151748.167500", "151748.627500", "151749.087500", "151749.547500", "151750.007500", "151750.467500", "151750.927500", "151751.387500", "151751.847500", "151752.307500", "151752.767500", "151753.227500", "151753.687500", "151754.147500", "151754.607500", "151755.067500", "151755.527500", "151755.987500", "151756.447500", "151756.907500", "151757.367500", "151757.827500"],
