{
  "AcquisitionMatrixPE": 82,
  "AcquisitionNumber": 1,
  "AcquisitionTime": "15:27:28.992500",
  "BandwidthPerPixelPhaseEncode": 24.888,
  "BaseResolution": 82,
  "BodyPartExamined": "BRAIN",
  "ConsistencyInfo": "N4_VE11E_LATEST_20181129",
  "ConversionSoftware": "dcm2niix",
  "ConversionSoftwareVersion": "v1.0.20201102",
  "DerivedVendorReportedEchoSpacing": 0.00049,
  "DeviceSerialNumber": "66112",
  "DwellTime": 2e-06,
  "EchoTime": 0.0272,
  "EchoTrainLength": 82,
  "EffectiveEchoSpacing": 0.00049,
  "FlipAngle": 44,
  "ImageComments": "Unaliased MB8/PE3",
  "ImageOrientationPatientDICOM": [0.992658, 0.0401057, -0.114115, -0.0518493, 0.993445, -0.101878],
  "ImageType": [
    "ORIGINAL",
    "PRIMARY",
    "M",
    "MB",
    "ND",
    "NORM",
    "MOSAIC"
],
  "ImagingFrequency": 123.252,
  "InPlanePhaseEncodingDirectionDICOM": "COL",
  "InstitutionAddress": "Maynard 3,Hanover,NH,US,03755",
  "InstitutionName": "Dartmouth College - PBS",
  "InstitutionalDepartmentName": "Department",
  "MRAcquisitionType": "2D",
  "MagneticFieldStrength": 3,
  "Manufacturer": "Siemens",
  "ManufacturersModelName": "Prisma",
  "Modality": "MR",
  "MultibandAccelerationFactor": 8,
  "PartialFourier": 1,
  "PatientPosition": "HFS",
  "PercentPhaseFOV": 100,
  "PercentSampling": 100,
  "PhaseEncodingDirection": "j-",
  "PhaseEncodingSteps": 82,
  "PhaseResolution": 1,
  "PixelBandwidth": 3050,
  "ProcedureStepDescription": "Wager_Wager^1076_spacetop",
  "ProtocolName": "func_run-06_task-social_acq-ap-mb8",
  "PulseSequenceDetails": "%CustomerSeq%\\cmrr_mbep2d_bold",
  "ReceiveCoilActiveElements": "HEA;HEP",
  "ReceiveCoilName": "Head_32",
  "ReconMatrixPE": 82,
  "RepetitionTime": 0.46,
  "SAR": 0.0894328,
  "ScanOptions": "FS",
  "ScanningSequence": "EP",
  "SequenceName": "epfid2d1_82",
  "SequenceVariant": "SK\\SS",
  "SeriesDescription": "func_run-06_task-social_acq-ap-mb8",
  "SeriesNumber": 22,
  "ShimSetting": [4117, -7708, -7309, 577, -49, -68, -132, 102],
  "SliceThickness": 2.7,
  "SliceTiming": [0, 0.25, 0.0625, 0.3125, 0.125, 0.3775, 0.1875, 0, 0.25, 0.0625, 0.3125, 0.125, 0.3775, 0.1875, 0, 0.25, 0.0625, 0.3125, 0.125, 0.3775, 0.1875, 0, 0.25, 0.0625, 0.3125, 0.125, 0.3775, 0.1875, 0, 0.25, 0.0625, 0.3125, 0.125, 0.3775, 0.1875, 0, 0.25, 0.0625, 0.3125, 0.125, 0.3775, 0.1875, 0, 0.25, 0.0625, 0.3125, 0.125, 0.3775, 0.1875, 0, 0.25, 0.0625, 0.3125, 0.125, 0.3775, 0.1875],
  "SoftwareVersions": "syngo MR E11",
  "SpacingBetweenSlices": 2.7,
  "StationName": "AWP66112",
  "TaskName": "social",
  "TotalReadoutTime": 0.03969,
  "TxRefAmp": 256.632,
  "WipMemBlock": "9f82bb1d-e282-4fc6-be7a-420c7fb45aa5||Sequence: R016 ve11e/master r/434b28f1; Aug  7 2019 18:53:46 by eja",
  "dcmmeta_affine": [
    [-2.6632280349731445, -0.13910774886608124, -0.29505860805511475, 125.9186782836914],
    [-0.10760052502155304, 2.665339708328247, -0.28902655839920044, -92.33499908447266],
    [-0.30616194009780884, 0.27333155274391174, 2.6682212352752686, -87.48456573486328],
    [0.0, 0.0, 0.0, 1.0]
],
  "dcmmeta_reorient_transform": [
    [0.0, -1.0, 0.0, 81.0],
    [1.0, 0.0, 0.0, 0.0],
    [0.0, 0.0, 1.0, 0.0],
    [0.0, 0.0, 0.0, 1.0]
],
  "dcmmeta_shape": [82, 82, 56, 872],
  "dcmmeta_slice_dim": 2,
  "dcmmeta_version": 0.6,
  "global": {
    "const": {
      "AccessionNumber": "A003891",
      "AcquisitionMatrix": [82, 0, 0, 82],
      "AngioFlag": "N",
      "BitsAllocated": 16,
      "BitsStored": 16,
      "BodyPartExamined": "BRAIN",
      "Columns": 656,
      "EchoNumbers": 1,
      "EchoTime": 27.2,
      "EchoTrainLength": 82,
      "FlipAngle": 44.0,
      "HighBit": 15,
      "ImageOrientationPatient": [0.99265770858744, 0.04010565061013, -0.1141148998645, -0.0518492528186, 0.99344476596608, -0.1018781230527],
      "ImagePositionPatient": [-839.0734757768, -919.39135451938, 100.96992182777],
      "ImageType": [
        "ORIGINAL",
        "PRIMARY",
        "M",
        "MB",
        "ND",
        "NORM",
        "MOSAIC"
],
      "ImagedNucleus": "1H",
      "ImagingFrequency": 123.252233,
      "InPlanePhaseEncodingDirection": "COL",
      "MRAcquisitionType": "2D",
      "MagneticFieldStrength": 3.0,
      "Manufacturer": "SIEMENS",
      "ManufacturerModelName": "Prisma",
      "Modality": "MR",
      "NumberOfAverages": 1.0,
      "NumberOfPhaseEncodingSteps": 82,
      "PercentPhaseFieldOfView": 100.0,
      "PercentSampling": 100.0,
      "PerformedProcedureStepStartTime": "141327.636000",
      "PhotometricInterpretation": "MONOCHROME2",
      "PixelBandwidth": 3050.0,
      "PixelRepresentation": 0,
      "PixelSpacing": [2.6829268932343, 2.6829268932343],
      "ProtocolName": "func_run-06_task-social_acq-ap-mb8",
      "RepetitionTime": 460.0,
      "Rows": 656,
      "SAR": 0.08943281727312,
      "SamplesPerPixel": 1,
      "ScanOptions": "FS",
      "ScanningSequence": "EP",
      "SequenceName": "epfid2d1_82",
      "SequenceVariant": [
        "SK",
        "SS"
],
      "SeriesDescription": "func_run-06_task-social_acq-ap-mb8",
      "SeriesNumber": 22,
      "SeriesTime": "152755.446000",
      "SliceLocation": -90.331217832166,
      "SliceThickness": 2.7000000476837,
      "SmallestImagePixelValue": 0,
      "SoftwareVersions": "syngo MR E11",
      "SpacingBetweenSlices": 2.699999996241,
      "SpecificCharacterSet": "ISO_IR 100",
      "StudyID": "1",
      "StudyTime": "141327.556000",
      "TransmitCoilName": "Body",
      "VariableFlipAngleFlag": "N",
      "WindowCenterWidthExplanation": "Algo1"
    },
    "slices": {}
  },
  "time": {
    "samples": {
      "AcquisitionNumber": [1, 2, 3, 4, 5, 6, 7, 8, 9, 10, 11, 12, 13, 14, 15, 16, 17, 18, 19, 20, 21, 22, 23, 24, 25, 26, 27, 28, 29, 30, 31, 32, 33, 34, 35, 36, 37, 38, 39, 40, 41, 42, 43, 44, 45, 46, 47, 48, 49, 50, 51, 52, 53, 54, 55, 56, 57, 58, 59, 60, 61, 62, 63, 64, 65, 66, 67, 68, 69, 70, 71, 72, 73, 74, 75, 76, 77, 78, 79, 80, 81, 82, 83, 84, 85, 86, 87, 88, 89, 90, 91, 92, 93, 94, 95, 96, 97, 98, 99, 100, 101, 102, 103, 104, 105, 106, 107, 108, 109, 110, 111, 112, 113, 114, 115, 116, 117, 118, 119, 120, 121, 122, 123, 124, 125, 126, 127, 128, 129, 130, 131, 132, 133, 134, 135, 136, 137, 138, 139, 140, 141, 142, 143, 144, 145, 146, 147, 148, 149, 150, 151, 152, 153, 154, 155, 156, 157, 158, 159, 160, 161, 162, 163, 164, 165, 166, 167, 168, 169, 170, 171, 172, 173, 174, 175, 176, 177, 178, 179, 180, 181, 182, 183, 184, 185, 186, 187, 188, 189, 190, 191, 192, 193, 194, 195, 196, 197, 198, 199, 200, 201, 202, 203, 204, 205, 206, 207, 208, 209, 210, 211, 212, 213, 214, 215, 216, 217, 218, 219, 220, 221, 222, 223, 224, 225, 226, 227, 228, 229, 230, 231, 232, 233, 234, 235, 236, 237, 238, 239, 240, 241, 242, 243, 244, 245, 246, 247, 248, 249, 250, 251, 252, 253, 254, 255, 256, 257, 258, 259, 260, 261, 262, 263, 264, 265, 266, 267, 268, 269, 270, 271, 272, 273, 274, 275, 276, 277, 278, 279, 280, 281, 282, 283, 284, 285, 286, 287, 288, 289, 290, 291, 292, 293, 294, 295, 296, 297, 298, 299, 300, 301, 302, 303, 304, 305, 306, 307, 308, 309, 310, 311, 312, 313, 314, 315, 316, 317, 318, 319, 320, 321, 322, 323, 324, 325, 326, 327, 328, 329, 330, 331, 332, 333, 334, 335, 336, 337, 338, 339, 340, 341, 342, 343, 344, 345, 346, 347, 348, 349, 350, 351, 352, 353, 354, 355, 356, 357, 358, 359, 360, 361, 362, 363, 364, 365, 366, 367, 368, 369, 370, 371, 372, 373, 374, 375, 376, 377, 378, 379, 380, 381, 382, 383, 384, 385, 386, 387, 388, 389, 390, 391, 392, 393, 394, 395, 396, 397, 398, 399, 400, 401, 402, 403, 404, 405, 406, 407, 408, 409, 410, 411, 412, 413, 414, 415, 416, 417, 418, 419, 420, 421, 422, 423, 424, 425, 426, 427, 428, 429, 430, 431, 432, 433, 434, 435, 436, 437, 438, 439, 440, 441, 442, 443, 444, 445, 446, 447, 448, 449, 450, 451, 452, 453, 454, 455, 456, 457, 458, 459, 460, 461, 462, 463, 464, 465, 466, 467, 468, 469, 470, 471, 472, 473, 474, 475, 476, 477, 478, 479, 480, 481, 482, 483, 484, 485, 486, 487, 488, 489, 490, 491, 492, 493, 494, 495, 496, 497, 498, 499, 500, 501, 502, 503, 504, 505, 506, 507, 508, 509, 510, 511, 512, 513, 514, 515, 516, 517, 518, 519, 520, 521, 522, 523, 524, 525, 526, 527, 528, 529, 530, 531, 532, 533, 534, 535, 536, 537, 538, 539, 540, 541, 542, 543, 544, 545, 546, 547, 548, 549, 550, 551, 552, 553, 554, 555, 556, 557, 558, 559, 560, 561, 562, 563, 564, 565, 566, 567, 568, 569, 570, 571, 572, 573, 574, 575, 576, 577, 578, 579, 580, 581, 582, 583, 584, 585, 586, 587, 588, 589, 590, 591, 592, 593, 594, 595, 596, 597, 598, 599, 600, 601, 602, 603, 604, 605, 606, 607, 608, 609, 610, 611, 612, 613, 614, 615, 616, 617, 618, 619, 620, 621, 622, 623, 624, 625, 626, 627, 628, 629, 630, 631, 632, 633, 634, 635, 636, 637, 638, 639, 640, 641, 642, 643, 644, 645, 646, 647, 648, 649, 650, 651, 652, 653, 654, 655, 656, 657, 658, 659, 660, 661, 662, 663, 664, 665, 666, 667, 668, 669, 670, 671, 672, 673, 674, 675, 676, 677, 678, 679, 680, 681, 682, 683, 684, 685, 686, 687, 688, 689, 690, 691, 692, 693, 694, 695, 696, 697, 698, 699, 700, 701, 702, 703, 704, 705, 706, 707, 708, 709, 710, 711, 712, 713, 714, 715, 716, 717, 718, 719, 720, 721, 722, 723, 724, 725, 726, 727, 728, 729, 730, 731, 732, 733, 734, 735, 736, 737, 738, 739, 740, 741, 742, 743, 744, 745, 746, 747, 748, 749, 750, 751, 752, 753, 754, 755, 756, 757, 758, 759, 760, 761, 762, 763, 764, 765, 766, 767, 768, 769, 770, 771, 772, 773, 774, 775, 776, 777, 778, 779, 780, 781, 782, 783, 784, 785, 786, 787, 788, 789, 790, 791, 792, 793, 794, 795, 796, 797, 798, 799, 800, 801, 802, 803, 804, 805, 806, 807, 808, 809, 810, 811, 812, 813, 814, 815, 816, 817, 818, 819, 820, 821, 822, 823, 824, 825, 826, 827, 828, 829, 830, 831, 832, 833, 834, 835, 836, 837, 838, 839, 840, 841, 842, 843, 844, 845, 846, 847, 848, 849, 850, 851, 852, 853, 854, 855, 856, 857, 858, 859, 860, 861, 862, 863, 864, 865, 866, 867, 868, 869, 870, 871, 872],
      "AcquisitionTime": ["152728.992500", "152729.452500", "152729.912500", "152730.372500", "152730.832500", "152731.292500", "152731.752500", "152732.212500", "152732.672500", "152733.132500", "152733.592500", "152734.052500", "152734.512500", "152734.972500", "152735.432500", "152735.892500", "152736.352500", "152736.812500", "152737.272500", "152737.732500", "152738.192500", "152738.652500", "152739.112500", "152739.572500", "152740.032500", "152740.492500", "152740.952500", "152741.412500", "152741.872500", "152742.332500", "152742.792500", "152743.252500", "152743.712500", "152744.172500", "152744.632500", "152745.092500", "152745.552500", "152746.012500", "152746.472500", "152746.932500", "152747.392500", "152747.852500", "152748.312500", "152748.772500", "152749.232500", "152749.692500", "152750.152500", "152750.612500", "152751.072500", "152751.532500", "152751.992500", "152752.452500", "152752.912500", "152753.372500", "152753.832500", "152754.292500", "152754.752500", "152755.212500", "152755.672500", "152756.132500", "152756.592500", "152757.052500", "152757.512500", "152757.972500", "152758.432500", "152758.892500", "152759.352500", "152759.812500", "152800.272500", "152800.732500", "152801.192500", "152801.652500", "152802.112500", "152802.572500", "152803.032500", "152803.492500", "152803.952500", "152804.412500", "152804.872500", "152805.332500", "152805.792500", "152806.252500", "152806.712500", "152807.172500", "152807.632500", "152808.092500", "152808.552500", "152809.012500", "152809.472500", "152809.932500", "152810.392500", "152810.852500", "152811.312500", "152811.772500", "152812.232500", "152812.692500", "152813.152500", "152813.612500", "152814.072500", "152814.532500", "152814.992500", "152815.452500", "152815.912500", "152816.372500", "152816.832500", "152817.292500", "152817.752500", "152818.212500", "152818.672500", "152819.132500", "152819.592500", "152820.052500", "152820.512500", "152820.972500", "152821.432500", "152821.892500", "152822.352500", "152822.812500", "152823.272500", "152823.732500", "152824.192500", "152824.652500", "152825.112500", "152825.572500", "152826.032500", "152826.492500", "152826.952500", "152827.412500", "152827.872500", "152828.332500", "152828.792500", "152829.252500", "152829.712500", "152830.172500", "152830.632500", "152831.092500", "152831.552500", "152832.012500", "152832.472500", "152832.932500", "152833.392500", "152833.852500", "152834.312500", "152834.772500", "152835.232500", "152835.692500", "152836.152500", "152836.612500", "152837.072500", "152837.532500", "152837.992500", "152838.452500", "152838.912500", "152839.372500", "152839.832500", "152840.292500", "152840.752500", "152841.212500", "152841.672500", "152842.132500", "152842.592500", "152843.052500", "152843.512500", "152843.972500", "152844.432500", "152844.892500", "152845.352500", "152845.812500", "152846.272500", "152846.732500", "152847.192500", "152847.652500", "152848.112500", "152848.572500", "152849.032500", "152849.492500", "152849.952500", "152850.412500", "152850.872500", "152851.332500", "152851.792500", "152852.252500", "152852.712500", "152853.172500", "152853.632500", "152854.092500", "152854.552500", "152855.012500", "152855.472500", "152855.932500", "152856.392500", "152856.852500", "152857.312500", "152857.772500", "152858.232500", "152858.692500", "152859.152500", "152859.612500", "152900.072500", "152900.532500", "152900.992500", "152901.452500", "152901.912500", "152902.372500", "152902.832500", "152903.292500", "152903.752500", "152904.212500", "152904.672500", "152905.132500", "152905.592500", "152906.052500", "152906.512500", "152906.972500", "152907.432500", "152907.892500", "152908.352500", "152908.812500", "152909.272500", "152909.732500", "152910.192500", "152910.652500", "152911.112500", "152911.572500", "152912.032500", "152912.492500", "152912.952500", "152913.412500", "152913.872500", "152914.332500", "152914.792500", "152915.252500", "152915.712500", "152916.172500", "152916.632500", "152917.092500", "152917.552500", "152918.012500", "152918.472500", "152918.932500", "152919.392500", "152919.852500", "152920.312500", "152920.772500", "152921.232500", "152921.692500", "152922.152500", "152922.612500", "152923.072500", "152923.532500", "152923.992500", "152924.452500", "152924.912500", "152925.372500", "152925.832500", "152926.292500", "152926.752500", "152927.212500", "152927.672500", "152928.132500", "152928.592500", "152929.052500", "152929.512500", "152929.972500", "152930.432500", "152930.892500", "152931.352500", "152931.812500", "152932.272500", "152932.732500", "152933.192500", "152933.652500", "152934.112500", "152934.572500", "152935.032500", "152935.492500", "152935.952500", "152936.412500", "152936.872500", "152937.332500", "152937.792500", "152938.252500", "152938.712500", "152939.172500", "152939.632500", "152940.092500", "152940.552500", "152941.012500", "152941.472500", "152941.932500", "152942.392500", "152942.852500", "152943.312500", "152943.772500", "152944.232500", "152944.692500", "152945.152500", "152945.612500", "152946.072500", "152946.532500", "152946.992500", "152947.452500", "152947.912500", "152948.372500", "152948.832500", "152949.292500", "152949.752500", "152950.212500", "152950.672500", "152951.132500", "152951.592500", "152952.052500", "152952.512500", "152952.972500", "152953.432500", "152953.892500", "152954.352500", "152954.812500", "152955.272500", "152955.732500", "152956.192500", "152956.652500", "152957.112500", "152957.572500", "152958.032500", "152958.492500", "152958.952500", "152959.412500", "152959.872500", "153000.332500", "153000.792500", "153001.252500", "153001.712500", "153002.172500", "153002.632500", "153003.092500", "153003.552500", "153004.012500", "153004.472500", "153004.932500", "153005.392500", "153005.852500", "153006.312500", "153006.772500", "153007.232500", "153007.692500", "153008.152500", "153008.612500", "153009.072500", "153009.532500", "153009.992500", "153010.452500", "153010.912500", "153011.372500", "153011.832500", "153012.292500", "153012.752500", "153013.212500", "153013.672500", "153014.132500", "153014.592500", "153015.052500", "153015.512500", "153015.972500", "153016.432500", "153016.892500", "153017.352500", "153017.812500", "153018.272500", "153018.732500", "153019.192500", "153019.652500", "153020.112500", "153020.572500", "153021.032500", "153021.492500", "153021.952500", "153022.412500", "153022.872500", "153023.332500", "153023.792500", "153024.252500", "153024.712500", "153025.172500", "153025.632500", "153026.092500", "153026.552500", "153027.012500", "153027.472500", "153027.932500", "153028.392500", "153028.852500", "153029.312500", "153029.772500", "153030.232500", "153030.692500", "153031.152500", "153031.612500", "153032.072500", "153032.532500", "153032.992500", "153033.452500", "153033.912500", "153034.372500", "153034.832500", "153035.292500", "153035.752500", "153036.212500", "153036.672500", "153037.132500", "153037.592500", "153038.052500", "153038.512500", "153038.972500", "153039.432500", "153039.892500", "153040.352500", "153040.812500", "153041.272500", "153041.732500", "153042.192500", "153042.652500", "153043.112500", "153043.572500", "153044.032500", "153044.492500", "153044.952500", "153045.412500", "153045.872500", "153046.332500", "153046.792500", "153047.252500", "153047.712500", "153048.172500", "153048.632500", "153049.092500", "153049.552500", "153050.012500", "153050.472500", "153050.932500", "153051.392500", "153051.852500", "153052.312500", "153052.772500", "153053.232500", "153053.692500", "153054.152500", "153054.612500", "153055.072500", "153055.532500", "153055.992500", "153056.452500", "153056.912500", "153057.372500", "153057.832500", "153058.292500", "153058.752500", "153059.212500", "153059.672500", "153100.132500", "153100.592500", "153101.052500", "153101.512500", "153101.972500", "153102.432500", "153102.892500", "153103.352500", "153103.812500", "153104.272500", "153104.732500", "153105.192500", "153105.652500", "153106.112500", "153106.572500", "153107.032500", "153107.492500", "153107.952500", "153108.412500", "153108.872500", "153109.332500", "153109.792500", "153110.252500", "153110.712500", "153111.172500", "153111.632500", "153112.092500", "153112.552500", "153113.012500", "153113.472500", "153113.932500", "153114.392500", "153114.852500", "153115.312500", "153115.772500", "153116.232500", "153116.692500", "153117.152500", "153117.612500", "153118.072500", "153118.532500", "153118.992500", "153119.452500", "153119.912500", "153120.372500", "153120.832500", "153121.292500", "153121.752500", "153122.212500", "153122.672500", "153123.132500", "153123.592500", "153124.052500", "153124.512500", "153124.972500", "153125.432500", "153125.892500", "153126.352500", "153126.812500", "153127.272500", "153127.732500", "153128.192500", "153128.652500", "153129.112500", "153129.572500", "153130.032500", "153130.492500", "153130.952500", "153131.412500", "153131.872500", "153132.332500", "153132.792500", "153133.252500", "153133.712500", "153134.172500", "153134.632500", "153135.092500", "153135.552500", "153136.012500", "153136.472500", "153136.932500", "153137.392500", "153137.852500", "153138.312500", "153138.772500", "153139.232500", "153139.692500", "153140.152500", "153140.612500", "153141.072500", "153141.532500", "153141.992500", "153142.452500", "153142.912500", "153143.372500", "153143.832500", "153144.292500", "153144.752500", "153145.212500", "153145.672500", "153146.132500", "153146.592500", "153147.052500", "153147.512500", "153147.972500", "153148.432500", "153148.892500", "153149.352500", "153149.812500", "153150.272500", "153150.732500", "153151.192500", "153151.652500", "153152.112500", "153152.572500", "153153.032500", "153153.492500", "153153.952500", "153154.412500", "153154.872500", "153155.332500", "153155.792500", "153156.252500", "153156.712500", "153157.172500", "153157.632500", "153158.092500", "153158.552500", "153159.012500", "153159.472500", "153159.932500", "153200.392500", "153200.852500", "153201.312500", "153201.772500", "153202.232500", "153202.692500", "153203.152500", "153203.612500", "153204.072500", "153204.532500", "153204.992500", "153205.452500", "153205.912500", "153206.372500", "153206.832500", "153207.292500", "153207.752500", "153208.212500", "153208.672500", "153209.132500", "153209.592500", "153210.052500", "153210.512500", "153210.972500", "153211.432500", "153211.892500", "153212.352500", "153212.812500", "153213.272500", "153213.732500", "153214.192500", "153214.652500", "153215.112500", "153215.572500", "153216.032500", "153216.492500", "153216.952500", "153217.412500", "153217.872500", "153218.332500", "153218.792500", "153219.252500", "153219.712500", "153220.172500", "153220.632500", "153221.092500", "153221.552500", "153222.012500", "153222.472500", "153222.932500", "153223.392500", "153223.852500", "153224.312500", "153224.772500", "153225.232500", "153225.692500", "153226.152500", "153226.612500", "153227.072500", "153227.532500", "153227.992500", "153228.452500", "153228.912500", "153229.372500", "153229.832500", "153230.292500", "153230.752500", "153231.212500", "153231.672500", "153232.132500", "153232.592500", "153233.052500", "153233.512500", "153233.972500", "153234.432500", "153234.892500", "153235.352500", "153235.812500", "153236.272500", "153236.732500", "153237.192500", "153237.652500", "153238.112500", "153238.572500", "153239.032500", "153239.492500", "153239.952500", "153240.412500", "153240.872500", "153241.332500", "153241.792500", "153242.252500", "153242.712500", "153243.172500", "153243.632500", "153244.092500", "153244.552500", "153245.012500", "153245.472500", "153245.932500", "153246.392500", "153246.852500", "153247.312500", "153247.772500", "153248.232500", "153248.692500", "153249.152500", "153249.612500", "153250.072500", "153250.532500", "153250.992500", "153251.452500", "153251.912500", "153252.372500", "153252.832500", "153253.292500", "153253.752500", "153254.212500", "153254.672500", "153255.132500", "153255.592500", "153256.052500", "153256.512500", "153256.972500", "153257.432500", "153257.892500", "153258.352500", "153258.812500", "153259.272500", "153259.732500", "153300.192500", "153300.652500", "153301.112500", "153301.572500", "153302.032500", "153302.492500", "153302.952500", "153303.412500", "153303.872500", "153304.332500", "153304.792500", "153305.252500", "153305.712500", "153306.172500", "153306.632500", "153307.092500", "153307.552500", "153308.012500", "153308.472500", "153308.932500", "153309.392500", "153309.852500", "153310.312500", "153310.772500", "153311.232500", "153311.692500", "153312.152500", "153312.612500", "153313.072500", "153313.532500", "153313.992500", "153314.452500", "153314.912500", "153315.372500", "153315.832500", "153316.292500", "153316.752500", "153317.212500", "153317.672500", "153318.132500", "153318.592500", "153319.052500", "153319.512500", "153319.972500", "153320.432500", "153320.892500", "153321.352500", "153321.812500", "153322.272500", "153322.732500", "153323.192500", "153323.652500", "153324.112500", "153324.572500", "153325.032500", "153325.492500", "153325.952500", "153326.412500", "153326.872500", "153327.332500", "153327.792500", "153328.252500", "153328.712500", "153329.172500", "153329.632500", "153330.092500", "153330.552500", "153331.012500", "153331.472500", "153331.932500", "153332.392500", "153332.852500", "153333.312500", "153333.772500", "153334.232500", "153334.692500", "153335.152500", "153335.612500", "153336.072500", "153336.532500", "153336.992500", "153337.452500", "153337.912500", "153338.372500", "153338.832500", "153339.292500", "153339.752500", "153340.212500", "153340.672500", "153341.132500", "153341.592500", "153342.052500", "153342.512500", "153342.972500", "153343.432500", "153343.892500", "153344.352500", "153344.812500", "153345.272500", "153345.732500", "153346.192500", "153346.652500", "153347.112500", "153347.572500", "153348.032500", "153348.492500", "153348.952500", "153349.412500", "153349.872500", "153350.332500", "153350.792500", "153351.252500", "153351.712500", "153352.172500", "153352.632500", "153353.092500", "153353.552500", "153354.012500", "153354.472500", "153354.932500", "153355.392500", "153355.852500", "153356.312500", "153356.772500", "153357.232500", "153357.692500", "153358.152500", "153358.612500", "153359.072500", "153359.532500", "153359.992500", "153400.452500", "153400.912500", "153401.372500", "153401.832500", "153402.292500", "153402.752500", "153403.212500", "153403.672500", "153404.132500", "153404.592500", "153405.052500", "153405.512500", "153405.972500", "153406.432500", "153406.892500", "153407.352500", "153407.812500", "153408.272500", "153408.732500", "153409.192500", "153409.652500"],
