{
  "AcquisitionMatrixPE": 82,
  "AcquisitionNumber": 1,
  "AcquisitionTime": "16:22:17.647500",
  "BandwidthPerPixelPhaseEncode": 24.888,
  "BaseResolution": 82,
  "BodyPartExamined": "BRAIN",
  "ConsistencyInfo": "N4_VE11E_LATEST_20181129",
  "ConversionSoftware": "dcm2niix",
  "ConversionSoftwareVersion": "v1.0.20201102",
  "DerivedVendorReportedEchoSpacing": 0.00049,
  "DeviceSerialNumber": "66112",
  "DwellTime": 2e-06,
  "EchoTime": 0.0272,
  "EchoTrainLength": 82,
  "EffectiveEchoSpacing": 0.00049,
  "FlipAngle": 44,
  "ImageComments": "Unaliased MB8/PE3",
  "ImageOrientationPatientDICOM": [0.994543, -0.0272544, -0.100703, 0.0289962, 0.999453, 0.0158724],
  "ImageType": [
    "ORIGINAL",
    "PRIMARY",
    "M",
    "MB",
    "ND",
    "NORM",
    "MOSAIC"
],
  "ImagingFrequency": 123.259,
  "InPlanePhaseEncodingDirectionDICOM": "COL",
  "InstitutionAddress": "Maynard 3,Hanover,NH,US,03755",
  "InstitutionName": "Dartmouth College - PBS",
  "InstitutionalDepartmentName": "Department",
  "MRAcquisitionType": "2D",
  "MagneticFieldStrength": 3,
  "Manufacturer": "Siemens",
  "ManufacturersModelName": "Prisma",
  "Modality": "MR",
  "MultibandAccelerationFactor": 8,
  "PartialFourier": 1,
  "PatientPosition": "HFS",
  "PercentPhaseFOV": 100,
  "PercentSampling": 100,
  "PhaseEncodingDirection": "j-",
  "PhaseEncodingSteps": 82,
  "PhaseResolution": 1,
  "PixelBandwidth": 3050,
  "ProcedureStepDescription": "Wager_Wager^1076_spacetop",
  "ProtocolName": "func_run-03_task-alignvideo_acq-ap-mb8",
  "PulseSequenceDetails": "%CustomerSeq%\\cmrr_mbep2d_bold",
  "ReceiveCoilActiveElements": "HEA;HEP",
  "ReceiveCoilName": "Head_32",
  "ReconMatrixPE": 82,
  "RepetitionTime": 0.46,
  "SAR": 0.075091,
  "ScanOptions": "FS",
  "ScanningSequence": "EP",
  "SequenceName": "epfid2d1_82",
  "SequenceVariant": "SK\\SS",
  "SeriesDescription": "func_run-03_task-alignvideo_acq-ap-mb8",
  "SeriesNumber": 36,
  "ShimSetting": [4206, -7743, -7255, 279, -99, 148, 115, 103],
  "SliceThickness": 2.7,
  "SliceTiming": [0, 0.25, 0.0625, 0.3125, 0.125, 0.3775, 0.1875, 0, 0.25, 0.0625, 0.3125, 0.125, 0.3775, 0.1875, 0, 0.25, 0.0625, 0.3125, 0.125, 0.3775, 0.1875, 0, 0.25, 0.0625, 0.3125, 0.125, 0.3775, 0.1875, 0, 0.25, 0.0625, 0.3125, 0.125, 0.3775, 0.1875, 0, 0.25, 0.0625, 0.3125, 0.125, 0.3775, 0.1875, 0, 0.25, 0.0625, 0.3125, 0.125, 0.3775, 0.1875, 0, 0.25, 0.0625, 0.3125, 0.125, 0.3775, 0.1875],
  "SoftwareVersions": "syngo MR E11",
  "SpacingBetweenSlices": 2.7,
  "StationName": "AWP66112",
  "TaskName": "alignvideo",
  "TotalReadoutTime": 0.03969,
  "TxRefAmp": 219.974,
  "WipMemBlock": "1563873c-bd4c-45fc-9018-bced464fc475||Sequence: R016 ve11e/master r/434b28f1; Aug  7 2019 18:53:46 by eja",
  "dcmmeta_affine": [
    [-2.6682865619659424, 0.07779458165168762, -0.2705824077129364, 111.81336975097656],
    [0.07312163710594177, 2.6814606189727783, 0.05050557851791382, -105.62578582763672],
    [-0.2701796889305115, -0.04258441925048828, 2.6859326362609863, -57.95774459838867],
    [0.0, 0.0, 0.0, 1.0]
],
  "dcmmeta_reorient_transform": [
    [0.0, -1.0, 0.0, 81.0],
    [1.0, 0.0, 0.0, 0.0],
    [0.0, 0.0, 1.0, 0.0],
    [0.0, 0.0, 0.0, 1.0]
],
  "dcmmeta_shape": [82, 82, 56, 1016],
  "dcmmeta_slice_dim": 2,
  "dcmmeta_version": 0.6,
  "global": {
    "const": {
      "AccessionNumber": "A004469",
      "AcquisitionMatrix": [82, 0, 0, 82],
      "AngioFlag": "N",
      "BitsAllocated": 16,
      "BitsStored": 16,
      "BodyPartExamined": "BRAIN",
      "Columns": 656,
      "EchoNumbers": 1,
      "EchoTime": 27.2,
      "EchoTrainLength": 82,
      "FlipAngle": 44.0,
      "HighBit": 15,
      "ImageOrientationPatient": [0.99454312836881, -0.0272544278384, -0.1007033364769, 0.02899616250217, 0.9994534958238, 0.01587237366441],
      "ImagePositionPatient": [-906.24000666282, -860.16582451896, 3.9127618112011],
      "ImageType": [
        "ORIGINAL",
        "PRIMARY",
        "M",
        "MB",
        "ND",
        "NORM",
        "MOSAIC"
],
      "ImagedNucleus": "1H",
      "ImagingFrequency": 123.259137,
      "InPlanePhaseEncodingDirection": "COL",
      "MRAcquisitionType": "2D",
      "MagneticFieldStrength": 3.0,
      "Manufacturer": "SIEMENS",
      "ManufacturerModelName": "Prisma",
      "Modality": "MR",
      "NumberOfAverages": 1.0,
      "NumberOfPhaseEncodingSteps": 82,
      "PercentPhaseFieldOfView": 100.0,
      "PercentSampling": 100.0,
      "PerformedProcedureStepStartTime": "141415.783000",
      "PhotometricInterpretation": "MONOCHROME2",
      "PixelBandwidth": 3050.0,
      "PixelRepresentation": 0,
      "PixelSpacing": [2.6829268932343, 2.6829268932343],
      "ProtocolName": "func_run-03_task-alignvideo_acq-ap-mb8",
      "RepetitionTime": 460.0,
      "Rows": 656,
      "SAR": 0.07509097597278,
      "SamplesPerPixel": 1,
      "ScanOptions": "FS",
      "ScanningSequence": "EP",
      "SequenceName": "epfid2d1_82",
      "SequenceVariant": [
        "SK",
        "SS"
],
      "SeriesDescription": "func_run-03_task-alignvideo_acq-ap-mb8",
      "SeriesNumber": 36,
      "SeriesTime": "162229.063000",
      "SliceLocation": -70.837044660358,
      "SliceThickness": 2.7000000476837,
      "SmallestImagePixelValue": 0,
      "SoftwareVersions": "syngo MR E11",
      "SpacingBetweenSlices": 2.6999999687212,
      "SpecificCharacterSet": "ISO_IR 100",
      "StudyID": "1",
      "StudyTime": "141415.726000",
      "TransmitCoilName": "Body",
      "VariableFlipAngleFlag": "N",
      "WindowCenterWidthExplanation": "Algo1"
    },
    "slices": {}
  },
  "time": {
    "samples": {
      "AcquisitionNumber": [1, 2, 3, 4, 5, 6, 7, 8, 9, 10, 11, 12, 13, 14, 15, 16, 17, 18, 19, 20, 21, 22, 23, 24, 25, 26, 27, 28, 29, 30, 31, 32, 33, 34, 35, 36, 37, 38, 39, 40, 41, 42, 43, 44, 45, 46, 47, 48, 49, 50, 51, 52, 53, 54, 55, 56, 57, 58, 59, 60, 61, 62, 63, 64, 65, 66, 67, 68, 69, 70, 71, 72, 73, 74, 75, 76, 77, 78, 79, 80, 81, 82, 83, 84, 85, 86, 87, 88, 89, 90, 91, 92, 93, 94, 95, 96, 97, 98, 99, 100, 101, 102, 103, 104, 105, 106, 107, 108, 109, 110, 111, 112, 113, 114, 115, 116, 117, 118, 119, 120, 121, 122, 123, 124, 125, 126, 127, 128, 129, 130, 131, 132, 133, 134, 135, 136, 137, 138, 139, 140, 141, 142, 143, 144, 145, 146, 147, 148, 149, 150, 151, 152, 153, 154, 155, 156, 157, 158, 159, 160, 161, 162, 163, 164, 165, 166, 167, 168, 169, 170, 171, 172, 173, 174, 175, 176, 177, 178, 179, 180, 181, 182, 183, 184, 185, 186, 187, 188, 189, 190, 191, 192, 193, 194, 195, 196, 197, 198, 199, 200, 201, 202, 203, 204, 205, 206, 207, 208, 209, 210, 211, 212, 213, 214, 215, 216, 217, 218, 219, 220, 221, 222, 223, 224, 225, 226, 227, 228, 229, 230, 231, 232, 233, 234, 235, 236, 237, 238, 239, 240, 241, 242, 243, 244, 245, 246, 247, 248, 249, 250, 251, 252, 253, 254, 255, 256, 257, 258, 259, 260, 261, 262, 263, 264, 265, 266, 267, 268, 269, 270, 271, 272, 273, 274, 275, 276, 277, 278, 279, 280, 281, 282, 283, 284, 285, 286, 287, 288, 289, 290, 291, 292, 293, 294, 295, 296, 297, 298, 299, 300, 301, 302, 303, 304, 305, 306, 307, 308, 309, 310, 311, 312, 313, 314, 315, 316, 317, 318, 319, 320, 321, 322, 323, 324, 325, 326, 327, 328, 329, 330, 331, 332, 333, 334, 335, 336, 337, 338, 339, 340, 341, 342, 343, 344, 345, 346, 347, 348, 349, 350, 351, 352, 353, 354, 355, 356, 357, 358, 359, 360, 361, 362, 363, 364, 365, 366, 367, 368, 369, 370, 371, 372, 373, 374, 375, 376, 377, 378, 379, 380, 381, 382, 383, 384, 385, 386, 387, 388, 389, 390, 391, 392, 393, 394, 395, 396, 397, 398, 399, 400, 401, 402, 403, 404, 405, 406, 407, 408, 409, 410, 411, 412, 413, 414, 415, 416, 417, 418, 419, 420, 421, 422, 423, 424, 425, 426, 427, 428, 429, 430, 431, 432, 433, 434, 435, 436, 437, 438, 439, 440, 441, 442, 443, 444, 445, 446, 447, 448, 449, 450, 451, 452, 453, 454, 455, 456, 457, 458, 459, 460, 461, 462, 463, 464, 465, 466, 467, 468, 469, 470, 471, 472, 473, 474, 475, 476, 477, 478, 479, 480, 481, 482, 483, 484, 485, 486, 487, 488, 489, 490, 491, 492, 493, 494, 495, 496, 497, 498, 499, 500, 501, 502, 503, 504, 505, 506, 507, 508, 509, 510, 511, 512, 513, 514, 515, 516, 517, 518, 519, 520, 521, 522, 523, 524, 525, 526, 527, 528, 529, 530, 531, 532, 533, 534, 535, 536, 537, 538, 539, 540, 541, 542, 543, 544, 545, 546, 547, 548, 549, 550, 551, 552, 553, 554, 555, 556, 557, 558, 559, 560, 561, 562, 563, 564, 565, 566, 567, 568, 569, 570, 571, 572, 573, 574, 575, 576, 577, 578, 579, 580, 581, 582, 583, 584, 585, 586, 587, 588, 589, 590, 591, 592, 593, 594, 595, 596, 597, 598, 599, 600, 601, 602, 603, 604, 605, 606, 607, 608, 609, 610, 611, 612, 613, 614, 615, 616, 617, 618, 619, 620, 621, 622, 623, 624, 625, 626, 627, 628, 629, 630, 631, 632, 633, 634, 635, 636, 637, 638, 639, 640, 641, 642, 643, 644, 645, 646, 647, 648, 649, 650, 651, 652, 653, 654, 655, 656, 657, 658, 659, 660, 661, 662, 663, 664, 665, 666, 667, 668, 669, 670, 671, 672, 673, 674, 675, 676, 677, 678, 679, 680, 681, 682, 683, 684, 685, 686, 687, 688, 689, 690, 691, 692, 693, 694, 695, 696, 697, 698, 699, 700, 701, 702, 703, 704, 705, 706, 707, 708, 709, 710, 711, 712, 713, 714, 715, 716, 717, 718, 719, 720, 721, 722, 723, 724, 725, 726, 727, 728, 729, 730, 731, 732, 733, 734, 735, 736, 737, 738, 739, 740, 741, 742, 743, 744, 745, 746, 747, 748, 749, 750, 751, 752, 753, 754, 755, 756, 757, 758, 759, 760, 761, 762, 763, 764, 765, 766, 767, 768, 769, 770, 771, 772, 773, 774, 775, 776, 777, 778, 779, 780, 781, 782, 783, 784, 785, 786, 787, 788, 789, 790, 791, 792, 793, 794, 795, 796, 797, 798, 799, 800, 801, 802, 803, 804, 805, 806, 807, 808, 809, 810, 811, 812, 813, 814, 815, 816, 817, 818, 819, 820, 821, 822, 823, 824, 825, 826, 827, 828, 829, 830, 831, 832, 833, 834, 835, 836, 837, 838, 839, 840, 841, 842, 843, 844, 845, 846, 847, 848, 849, 850, 851, 852, 853, 854, 855, 856, 857, 858, 859, 860, 861, 862, 863, 864, 865, 866, 867, 868, 869, 870, 871, 872, 873, 874, 875, 876, 877, 878, 879, 880, 881, 882, 883, 884, 885, 886, 887, 888, 889, 890, 891, 892, 893, 894, 895, 896, 897, 898, 899, 900, 901, 902, 903, 904, 905, 906, 907, 908, 909, 910, 911, 912, 913, 914, 915, 916, 917, 918, 919, 920, 921, 922, 923, 924, 925, 926, 927, 928, 929, 930, 931, 932, 933, 934, 935, 936, 937, 938, 939, 940, 941, 942, 943, 944, 945, 946, 947, 948, 949, 950, 951, 952, 953, 954, 955, 956, 957, 958, 959, 960, 961, 962, 963, 964, 965, 966, 967, 968, 969, 970, 971, 972, 973, 974, 975, 976, 977, 978, 979, 980, 981, 982, 983, 984, 985, 986, 987, 988, 989, 990, 991, 992, 993, 994, 995, 996, 997, 998, 999, 1000, 1001, 1002, 1003, 1004, 1005, 1006, 1007, 1008, 1009, 1010, 1011, 1012, 1013, 1014, 1015, 1016],
      "AcquisitionTime": ["162217.647500", "162218.107500", "162218.567500", "162219.027500", "162219.487500", "162219.947500", "162220.407500", "162220.867500", "162221.327500", "162221.787500", "162222.247500", "162222.707500", "162223.167500", "162223.627500", "162224.087500", "162224.547500", "162225.007500", "162225.467500", "162225.927500", "162226.387500", "162226.847500", "162227.307500", "162227.767500", "162228.227500", "162228.687500", "162229.147500", "162229.607500", "162230.067500", "162230.527500", "162230.987500", "162231.447500", "162231.907500", "162232.367500", "162232.827500", "162233.287500", "162233.747500", "162234.207500", "162234.667500", "162235.127500", "162235.587500", "162236.047500", "162236.507500", "162236.967500", "162237.427500", "162237.887500", "162238.347500", "162238.807500", "162239.267500", "162239.727500", "162240.187500", "162240.647500", "162241.107500", "162241.567500", "162242.027500", "162242.487500", "162242.947500", "162243.407500", "162243.867500", "162244.327500", "162244.787500", "162245.247500", "162245.707500", "162246.167500", "162246.627500", "162247.087500", "162247.547500", "162248.007500", "162248.467500", "162248.927500", "162249.387500", "162249.847500", "162250.307500", "162250.767500", "162251.227500", "162251.687500", "162252.147500", "162252.607500", "162253.067500", "162253.527500", "162253.987500", "162254.447500", "162254.907500", "162255.367500", "162255.827500", "162256.287500", "162256.747500", "162257.207500", "162257.667500", "162258.127500", "162258.587500", "162259.047500", "162259.507500", "162259.967500", "162300.427500", "162300.887500", "162301.347500", "162301.807500", "162302.267500", "162302.727500", "162303.187500", "162303.647500", "162304.107500", "162304.567500", "162305.027500", "162305.487500", "162305.947500", "162306.407500", "162306.867500", "162307.327500", "162307.787500", "162308.247500", "162308.707500", "162309.167500", "162309.627500", "162310.087500", "162310.547500", "162311.007500", "162311.467500", "162311.927500", "162312.387500", "162312.847500", "162313.307500", "162313.767500", "162314.227500", "162314.687500", "162315.147500", "162315.607500", "162316.067500", "162316.527500", "162316.987500", "162317.447500", "162317.907500", "162318.367500", "162318.827500", "162319.287500", "162319.747500", "162320.207500", "162320.667500", "162321.127500", "162321.587500", "162322.047500", "162322.507500", "162322.967500", "162323.427500", "162323.887500", "162324.347500", "162324.807500", "162325.267500", "162325.727500", "162326.187500", "162326.647500", "162327.107500", "162327.567500", "162328.027500", "162328.487500", "162328.947500", "162329.407500", "162329.867500", "162330.327500", "162330.787500", "162331.247500", "162331.707500", "162332.167500", "162332.627500", "162333.087500", "162333.547500", "162334.007500", "162334.467500", "162334.927500", "162335.387500", "162335.847500", "162336.307500", "162336.767500", "162337.227500", "162337.687500", "162338.147500", "162338.607500", "162339.067500", "162339.527500", "162339.987500", "162340.447500", "162340.907500", "162341.367500", "162341.827500", "162342.287500", "162342.747500", "162343.207500", "162343.667500", "162344.127500", "162344.587500", "162345.047500", "162345.507500", "162345.967500", "162346.427500", "162346.887500", "162347.347500", "162347.807500", "162348.267500", "162348.727500", "162349.187500", "162349.647500", "162350.107500", "162350.567500", "162351.027500", "162351.487500", "162351.947500", "162352.407500", "162352.867500", "162353.327500", "162353.787500", "162354.247500", "162354.707500", "162355.167500", "162355.627500", "162356.087500", "162356.547500", "162357.007500", "162357.467500", "162357.927500", "162358.387500", "162358.847500", "162359.307500", "162359.767500", "162400.227500", "162400.687500", "162401.147500", "162401.607500", "162402.067500", "162402.527500", "162402.987500", "162403.447500", "162403.907500", "162404.367500", "162404.827500", "162405.287500", "162405.747500", "162406.207500", "162406.667500", "162407.127500", "162407.587500", "162408.047500", "162408.507500", "162408.967500", "162409.427500", "162409.887500", "162410.347500", "162410.807500", "162411.267500", "162411.727500", "162412.187500", "162412.647500", "162413.107500", "162413.567500", "162414.027500", "162414.487500", "162414.947500", "162415.407500", "162415.867500", "162416.327500", "162416.787500", "162417.247500", "162417.707500", "162418.167500", "162418.627500", "162419.087500", "162419.547500", "162420.007500", "162420.467500", "162420.927500", "162421.387500", "162421.847500", "162422.307500", "162422.767500", "162423.227500", "162423.687500", "162424.147500", "162424.607500", "162425.067500", "162425.527500", "162425.987500", "162426.447500", "162426.907500", "162427.367500", "162427.827500", "162428.287500", "162428.747500", "162429.207500", "162429.667500", "162430.127500", "162430.587500", "162431.047500", "162431.507500", "162431.967500", "162432.427500", "162432.887500", "162433.347500", "162433.807500", "162434.267500", "162434.727500", "162435.187500", "162435.647500", "162436.107500", "162436.567500", "162437.027500", "162437.487500", "162437.947500", "162438.407500", "162438.867500", "162439.327500", "162439.787500", "162440.247500", "162440.707500", "162441.167500", "162441.627500", "162442.087500", "162442.547500", "162443.007500", "162443.467500", "162443.927500", "162444.387500", "162444.847500", "162445.307500", "162445.767500", "162446.227500", "162446.687500", "162447.147500", "162447.607500", "162448.067500", "162448.527500", "162448.987500", "162449.447500", "162449.907500", "162450.367500", "162450.827500", "162451.287500", "162451.747500", "162452.207500", "162452.667500", "162453.127500", "162453.587500", "162454.047500", "162454.507500", "162454.967500", "162455.427500", "162455.887500", "162456.347500", "162456.807500", "162457.267500", "162457.727500", "162458.187500", "162458.647500", "162459.107500", "162459.567500", "162500.027500", "162500.487500", "162500.947500", "162501.407500", "162501.867500", "162502.327500", "162502.787500", "162503.247500", "162503.707500", "162504.167500", "162504.627500", "162505.087500", "162505.547500", "162506.007500", "162506.467500", "162506.927500", "162507.387500", "162507.847500", "162508.307500", "162508.767500", "162509.227500", "162509.687500", "162510.147500", "162510.607500", "162511.067500", "162511.527500", "162511.987500", "162512.447500", "162512.907500", "162513.367500", "162513.827500", "162514.287500", "162514.747500", "162515.207500", "162515.667500", "162516.127500", "162516.587500", "162517.047500", "162517.507500", "162517.967500", "162518.427500", "162518.887500", "162519.347500", "162519.807500", "162520.267500", "162520.727500", "162521.187500", "162521.647500", "162522.107500", "162522.567500", "162523.027500", "162523.487500", "162523.947500", "162524.407500", "162524.867500", "162525.327500", "162525.787500", "162526.247500", "162526.707500", "162527.167500", "162527.627500", "162528.087500", "162528.547500", "162529.007500", "162529.467500", "162529.927500", "162530.387500", "162530.847500", "162531.307500", "162531.767500", "162532.227500", "162532.687500", "162533.147500", "162533.607500", "162534.067500", "162534.527500", "162534.987500", "162535.447500", "162535.907500", "162536.367500", "162536.827500", "162537.287500", "162537.747500", "162538.207500", "162538.667500", "162539.127500", "162539.587500", "162540.047500", "162540.507500", "162540.967500", "162541.427500", "162541.887500", "162542.347500", "162542.807500", "162543.267500", "162543.727500", "162544.187500", "162544.647500", "162545.107500", "162545.567500", "162546.027500", "162546.487500", "162546.947500", "162547.407500", "162547.867500", "162548.327500", "162548.787500", "162549.247500", "162549.707500", "162550.167500", "162550.627500", "162551.087500", "162551.547500", "162552.007500", "162552.467500", "162552.927500", "162553.387500", "162553.847500", "162554.307500", "162554.767500", "162555.227500", "162555.687500", "162556.147500", "162556.607500", "162557.067500", "162557.527500", "162557.987500", "162558.447500", "162558.907500", "162559.367500", "162559.827500", "162600.287500", "162600.747500", "162601.207500", "162601.667500", "162602.127500", "162602.587500", "162603.047500", "162603.507500", "162603.967500", "162604.427500", "162604.887500", "162605.347500", "162605.807500", "162606.267500", "162606.727500", "162607.187500", "162607.647500", "162608.107500", "162608.567500", "162609.027500", "162609.487500", "162609.947500", "162610.407500", "162610.867500", "162611.327500", "162611.787500", "162612.247500", "162612.707500", "162613.167500", "162613.627500", "162614.087500", "162614.547500", "162615.007500", "162615.467500", "162615.927500", "162616.387500", "162616.847500", "162617.307500", "162617.767500", "162618.227500", "162618.687500", "162619.147500", "162619.607500", "162620.067500", "162620.527500", "162620.987500", "162621.447500", "162621.907500", "162622.367500", "162622.827500", "162623.287500", "162623.747500", "162624.207500", "162624.667500", "162625.127500", "162625.587500", "162626.047500", "162626.507500", "162626.967500", "162627.427500", "162627.887500", "162628.347500", "162628.807500", "162629.267500", "162629.727500", "162630.187500", "162630.647500", "162631.107500", "162631.567500", "162632.027500", "162632.487500", "162632.947500", "162633.407500", "162633.867500", "162634.327500", "162634.787500", "162635.247500", "162635.707500", "162636.167500", "162636.627500", "162637.087500", "162637.547500", "162638.007500", "162638.467500", "162638.927500", "162639.387500", "162639.847500", "162640.307500", "162640.767500", "162641.227500", "162641.687500", "162642.147500", "162642.607500", "162643.067500", "162643.527500", "162643.987500", "162644.447500", "162644.907500", "162645.367500", "162645.827500", "162646.287500", "162646.747500", "162647.207500", "162647.667500", "162648.127500", "162648.587500", "162649.047500", "162649.507500", "162649.967500", "162650.427500", "162650.887500", "162651.347500", "162651.807500", "162652.267500", "162652.727500", "162653.187500", "162653.647500", "162654.107500", "162654.567500", "162655.027500", "162655.487500", "162655.947500", "162656.407500", "162656.867500", "162657.327500", "162657.787500", "162658.247500", "162658.707500", "162659.167500", "162659.627500", "162700.087500", "162700.547500", "162701.007500", "162701.467500", "162701.927500", "162702.387500", "162702.847500", "162703.307500", "162703.767500", "162704.227500", "162704.687500", "162705.147500", "162705.607500", "162706.067500", "162706.527500", "162706.987500", "162707.447500", "162707.907500", "162708.367500", "162708.827500", "162709.287500", "162709.747500", "162710.207500", "162710.667500", "162711.127500", "162711.587500", "162712.047500", "162712.507500", "162712.967500", "162713.427500", "162713.887500", "162714.347500", "162714.807500", "162715.267500", "162715.727500", "162716.187500", "162716.647500", "162717.107500", "162717.567500", "162718.027500", "162718.487500", "162718.947500", "162719.407500", "162719.867500", "162720.327500", "162720.787500", "162721.247500", "162721.707500", "162722.167500", "162722.627500", "162723.087500", "162723.547500", "162724.007500", "162724.467500", "162724.927500", "162725.387500", "162725.847500", "162726.307500", "162726.767500", "162727.227500", "162727.687500", "162728.147500", "162728.607500", "162729.067500", "162729.527500", "162729.987500", "162730.447500", "162730.907500", "162731.367500", "162731.827500", "162732.287500", "162732.747500", "162733.207500", "162733.667500", "162734.127500", "162734.587500", "162735.047500", "162735.507500", "162735.967500", "162736.427500", "162736.887500", "162737.347500", "162737.807500", "162738.267500", "162738.727500", "162739.187500", "162739.647500", "162740.107500", "162740.567500", "162741.027500", "162741.487500", "162741.947500", "162742.407500", "162742.867500", "162743.327500", "162743.787500", "162744.247500", "162744.707500", "162745.167500", "162745.627500", "162746.087500", "162746.547500", "162747.007500", "162747.467500", "162747.927500", "162748.387500", "162748.847500", "162749.307500", "162749.767500", "162750.227500", "162750.687500", "162751.147500", "162751.607500", "162752.067500", "162752.527500", "162752.987500", "162753.447500", "162753.907500", "162754.367500", "162754.827500", "162755.287500", "162755.747500", "162756.207500", "162756.667500", "162757.127500", "162757.587500", "162758.047500", "162758.507500", "162758.967500", "162759.427500", "162759.887500", "162800.347500", "162800.807500", "162801.267500", "162801.727500", "162802.187500", "162802.647500", "162803.107500", "162803.567500", "162804.027500", "162804.487500", "162804.947500", "162805.407500", "162805.867500", "162806.327500", "162806.787500", "162807.247500", "162807.707500", "162808.167500", "162808.627500", "162809.087500", "162809.547500", "162810.007500", "162810.467500", "162810.927500", "162811.387500", "162811.847500", "162812.307500", "162812.767500", "162813.227500", "162813.687500", "162814.147500", "162814.607500", "162815.067500", "162815.527500", "162815.987500", "162816.447500", "162816.907500", "162817.367500", "162817.827500", "162818.287500", "162818.747500", "162819.207500", "162819.667500", "162820.127500", "162820.587500", "162821.047500", "162821.507500", "162821.967500", "162822.427500", "162822.887500", "162823.347500", "162823.807500", "162824.267500", "162824.727500", "162825.187500", "162825.647500", "162826.107500", "162826.567500", "162827.027500", "162827.487500", "162827.947500", "162828.407500", "162828.867500", "162829.327500", "162829.787500", "162830.247500", "162830.707500", "162831.167500", "162831.627500", "162832.087500", "162832.547500", "162833.007500", "162833.467500", "162833.927500", "162834.387500", "162834.847500", "162835.307500", "162835.767500", "162836.227500", "162836.687500", "162837.147500", "162837.607500", "162838.067500", "162838.527500", "162838.987500", "162839.447500", "162839.907500", "162840.367500", "162840.827500", "162841.287500", "162841.747500", "162842.207500", "162842.667500", "162843.127500", "162843.587500", "162844.047500", "162844.507500", "162844.967500", "162845.427500", "162845.887500", "162846.347500", "162846.807500", "162847.267500", "162847.727500", "162848.187500", "162848.647500", "162849.107500", "162849.567500", "162850.027500", "162850.487500", "162850.947500", "162851.407500", "162851.867500", "162852.327500", "162852.787500", "162853.247500", "162853.707500", "162854.167500", "162854.627500", "162855.087500", "162855.547500", "162856.007500", "162856.467500", "162856.927500", "162857.387500", "162857.847500", "162858.307500", "162858.767500", "162859.227500", "162859.687500", "162900.147500", "162900.607500", "162901.067500", "162901.527500", "162901.987500", "162902.447500", "162902.907500", "162903.367500", "162903.827500", "162904.287500", "162904.747500", "162905.207500", "162905.667500", "162906.127500", "162906.587500", "162907.047500", "162907.507500", "162907.967500", "162908.427500", "162908.887500", "162909.347500", "162909.807500", "162910.267500", "162910.727500", "162911.187500", "162911.647500", "162912.107500", "162912.567500", "162913.027500", "162913.487500", "162913.947500", "162914.407500", "162914.867500", "162915.327500", "162915.787500", "162916.247500", "162916.707500", "162917.167500", "162917.627500", "162918.087500", "162918.547500", "162919.007500", "162919.467500", "162919.927500", "162920.387500", "162920.847500", "162921.307500", "162921.767500", "162922.227500", "162922.687500", "162923.147500", "162923.607500", "162924.067500", "162924.527500", "162924.987500", "162925.447500", "162925.907500", "162926.367500", "162926.827500", "162927.287500", "162927.747500", "162928.207500", "162928.667500", "162929.127500", "162929.587500", "162930.047500", "162930.507500", "162930.967500", "162931.427500", "162931.887500", "162932.347500", "162932.807500", "162933.267500", "162933.727500", "162934.187500", "162934.647500", "162935.107500", "162935.567500", "162936.027500", "162936.487500", "162936.947500", "162937.407500", "162937.867500", "162938.327500", "162938.787500", "162939.247500", "162939.707500", "162940.167500", "162940.627500", "162941.087500", "162941.547500", "162942.007500", "162942.467500", "162942.927500", "162943.387500", "162943.847500", "162944.307500", "162944.767500", "162945.227500", "162945.687500", "162946.147500", "162946.607500", "162947.067500", "162947.527500", "162947.987500", "162948.447500", "162948.907500", "162949.367500", "162949.827500", "162950.287500", "162950.747500", "162951.207500", "162951.667500", "162952.127500", "162952.587500", "162953.047500", "162953.507500", "162953.967500", "162954.427500", "162954.887500", "162955.347500", "162955.807500", "162956.267500", "162956.727500", "162957.187500", "162957.647500", "162958.107500", "162958.567500", "162959.027500", "162959.487500", "162959.947500", "163000.407500", "163000.867500", "163001.327500", "163001.787500", "163002.247500", "163002.707500", "163003.167500", "163003.627500", "163004.087500", "163004.547500"],
