{
  "AcquisitionMatrixPE": 82,
  "AcquisitionNumber": 1,
  "AcquisitionTime": "15:45:36.840000",
  "BandwidthPerPixelPhaseEncode": 24.888,
  "BaseResolution": 82,
  "BodyPartExamined": "BRAIN",
  "ConsistencyInfo": "N4_VE11E_LATEST_20181129",
  "ConversionSoftware": "dcm2niix",
  "ConversionSoftwareVersion": "v1.0.20201102",
  "DerivedVendorReportedEchoSpacing": 0.00049,
  "DeviceSerialNumber": "66112",
  "DwellTime": 2e-06,
  "EchoTime": 0.0272,
  "EchoTrainLength": 82,
  "EffectiveEchoSpacing": 0.00049,
  "FlipAngle": 44,
  "ImageComments": "Unaliased MB8/PE3",
  "ImageOrientationPatientDICOM": [0.998744, -0.0207963, -0.0455935, 0.0242343, 0.996798, 0.0761982],
  "ImageType": [
    "ORIGINAL",
    "PRIMARY",
    "M",
    "MB",
    "ND",
    "NORM",
    "MOSAIC"
],
  "ImagingFrequency": 123.259,
  "InPlanePhaseEncodingDirectionDICOM": "COL",
  "InstitutionAddress": "Maynard 3,Hanover,NH,US,03755",
  "InstitutionName": "Dartmouth College - PBS",
  "InstitutionalDepartmentName": "Department",
  "MRAcquisitionType": "2D",
  "MagneticFieldStrength": 3,
  "Manufacturer": "Siemens",
  "ManufacturersModelName": "Prisma",
  "Modality": "MR",
  "MultibandAccelerationFactor": 8,
  "PartialFourier": 1,
  "PatientPosition": "HFS",
  "PercentPhaseFOV": 100,
  "PercentSampling": 100,
  "PhaseEncodingDirection": "j-",
  "PhaseEncodingSteps": 82,
  "PhaseResolution": 1,
  "PixelBandwidth": 3050,
  "ProcedureStepDescription": "Wager_Wager^1076_spacetop",
  "ProtocolName": "func_run-06_task-social_acq-ap-mb8",
  "PulseSequenceDetails": "%CustomerSeq%\\cmrr_mbep2d_bold",
  "ReceiveCoilActiveElements": "HEA;HEP",
  "ReceiveCoilName": "Head_32",
  "ReconMatrixPE": 82,
  "RepetitionTime": 0.46,
  "SAR": 0.0750248,
  "ScanOptions": "FS",
  "ScanningSequence": "EP",
  "SequenceName": "epfid2d1_82",
  "SequenceVariant": "SK\\SS",
  "SeriesDescription": "func_run-06_task-social_acq-ap-mb8",
  "SeriesNumber": 22,
  "ShimSetting": [4206, -7743, -7258, 264, -92, 140, 121, 104],
  "SliceThickness": 2.7,
  "SliceTiming": [0, 0.25, 0.0625, 0.3125, 0.125, 0.3775, 0.1875, 0, 0.25, 0.0625, 0.3125, 0.125, 0.3775, 0.1875, 0, 0.25, 0.0625, 0.3125, 0.125, 0.3775, 0.1875, 0, 0.25, 0.0625, 0.3125, 0.125, 0.3775, 0.1875, 0, 0.25, 0.0625, 0.3125, 0.125, 0.3775, 0.1875, 0, 0.25, 0.0625, 0.3125, 0.125, 0.3775, 0.1875, 0, 0.25, 0.0625, 0.3125, 0.125, 0.3775, 0.1875, 0, 0.25, 0.0625, 0.3125, 0.125, 0.3775, 0.1875],
  "SoftwareVersions": "syngo MR E11",
  "SpacingBetweenSlices": 2.7,
  "StationName": "AWP66112",
  "TaskName": "social",
  "TotalReadoutTime": 0.03969,
  "TxRefAmp": 219.974,
  "WipMemBlock": "a60af5da-9746-4874-8eb4-5e94d6fdc60e||Sequence: R016 ve11e/master r/434b28f1; Aug  7 2019 18:53:46 by eja",
  "dcmmeta_affine": [
    [-2.679556131362915, 0.06501895189285278, -0.11842966824769974, 109.1294174194336],
    [0.05579505115747452, 2.6743364334106445, 0.20845991373062134, -100.5362548828125],
    [-0.12232393026351929, -0.20443414151668549, 2.6893343925476074, -59.7269172668457],
    [0.0, 0.0, 0.0, 1.0]
],
  "dcmmeta_reorient_transform": [
    [0.0, -1.0, 0.0, 81.0],
    [1.0, 0.0, 0.0, 0.0],
    [0.0, 0.0, 1.0, 0.0],
    [0.0, 0.0, 0.0, 1.0]
],
  "dcmmeta_shape": [82, 82, 56, 872],
  "dcmmeta_slice_dim": 2,
  "dcmmeta_version": 0.6,
  "global": {
    "const": {
      "AccessionNumber": "A004469",
      "AcquisitionMatrix": [82, 0, 0, 82],
      "AngioFlag": "N",
      "BitsAllocated": 16,
      "BitsStored": 16,
      "BodyPartExamined": "BRAIN",
      "Columns": 656,
      "EchoNumbers": 1,
      "EchoTime": 27.2,
      "EchoTrainLength": 82,
      "FlipAngle": 44.0,
      "HighBit": 15,
      "ImageOrientationPatient": [0.99874358489275, -0.0207963360617, -0.0455934649044, 0.02423433656679, 0.99679814119011, 0.07619818010366],
      "ImagePositionPatient": [-902.08896895999, -867.60641100754, -99.85171331088],
      "ImageType": [
        "ORIGINAL",
        "PRIMARY",
        "M",
        "MB",
        "ND",
        "NORM",
        "MOSAIC"
],
      "ImagedNucleus": "1H",
      "ImagingFrequency": 123.259132,
      "InPlanePhaseEncodingDirection": "COL",
      "MRAcquisitionType": "2D",
      "MagneticFieldStrength": 3.0,
      "Manufacturer": "SIEMENS",
      "ManufacturerModelName": "Prisma",
      "Modality": "MR",
      "NumberOfAverages": 1.0,
      "NumberOfPhaseEncodingSteps": 82,
      "PercentPhaseFieldOfView": 100.0,
      "PercentSampling": 100.0,
      "PerformedProcedureStepStartTime": "141415.783000",
      "PhotometricInterpretation": "MONOCHROME2",
      "PixelBandwidth": 3050.0,
      "PixelRepresentation": 0,
      "PixelSpacing": [2.6829268932343, 2.6829268932343],
      "ProtocolName": "func_run-06_task-social_acq-ap-mb8",
      "RepetitionTime": 460.0,
      "Rows": 656,
      "SAR": 0.07502483036809,
      "SamplesPerPixel": 1,
      "ScanOptions": "FS",
      "ScanningSequence": "EP",
      "SequenceName": "epfid2d1_82",
      "SequenceVariant": [
        "SK",
        "SS"
],
      "SeriesDescription": "func_run-06_task-social_acq-ap-mb8",
      "SeriesNumber": 22,
      "SeriesTime": "154548.972000",
      "SliceLocation": -72.039844922891,
      "SliceThickness": 2.7000000476837,
      "SmallestImagePixelValue": 0,
      "SoftwareVersions": "syngo MR E11",
      "SpacingBetweenSlices": 2.700000099554,
      "SpecificCharacterSet": "ISO_IR 100",
      "StudyID": "1",
      "StudyTime": "141415.726000",
      "TransmitCoilName": "Body",
      "VariableFlipAngleFlag": "N",
      "WindowCenterWidthExplanation": "Algo1"
    },
    "slices": {}
  },
  "time": {
    "samples": {
      "AcquisitionNumber": [1, 2, 3, 4, 5, 6, 7, 8, 9, 10, 11, 12, 13, 14, 15, 16, 17, 18, 19, 20, 21, 22, 23, 24, 25, 26, 27, 28, 29, 30, 31, 32, 33, 34, 35, 36, 37, 38, 39, 40, 41, 42, 43, 44, 45, 46, 47, 48, 49, 50, 51, 52, 53, 54, 55, 56, 57, 58, 59, 60, 61, 62, 63, 64, 65, 66, 67, 68, 69, 70, 71, 72, 73, 74, 75, 76, 77, 78, 79, 80, 81, 82, 83, 84, 85, 86, 87, 88, 89, 90, 91, 92, 93, 94, 95, 96, 97, 98, 99, 100, 101, 102, 103, 104, 105, 106, 107, 108, 109, 110, 111, 112, 113, 114, 115, 116, 117, 118, 119, 120, 121, 122, 123, 124, 125, 126, 127, 128, 129, 130, 131, 132, 133, 134, 135, 136, 137, 138, 139, 140, 141, 142, 143, 144, 145, 146, 147, 148, 149, 150, 151, 152, 153, 154, 155, 156, 157, 158, 159, 160, 161, 162, 163, 164, 165, 166, 167, 168, 169, 170, 171, 172, 173, 174, 175, 176, 177, 178, 179, 180, 181, 182, 183, 184, 185, 186, 187, 188, 189, 190, 191, 192, 193, 194, 195, 196, 197, 198, 199, 200, 201, 202, 203, 204, 205, 206, 207, 208, 209, 210, 211, 212, 213, 214, 215, 216, 217, 218, 219, 220, 221, 222, 223, 224, 225, 226, 227, 228, 229, 230, 231, 232, 233, 234, 235, 236, 237, 238, 239, 240, 241, 242, 243, 244, 245, 246, 247, 248, 249, 250, 251, 252, 253, 254, 255, 256, 257, 258, 259, 260, 261, 262, 263, 264, 265, 266, 267, 268, 269, 270, 271, 272, 273, 274, 275, 276, 277, 278, 279, 280, 281, 282, 283, 284, 285, 286, 287, 288, 289, 290, 291, 292, 293, 294, 295, 296, 297, 298, 299, 300, 301, 302, 303, 304, 305, 306, 307, 308, 309, 310, 311, 312, 313, 314, 315, 316, 317, 318, 319, 320, 321, 322, 323, 324, 325, 326, 327, 328, 329, 330, 331, 332, 333, 334, 335, 336, 337, 338, 339, 340, 341, 342, 343, 344, 345, 346, 347, 348, 349, 350, 351, 352, 353, 354, 355, 356, 357, 358, 359, 360, 361, 362, 363, 364, 365, 366, 367, 368, 369, 370, 371, 372, 373, 374, 375, 376, 377, 378, 379, 380, 381, 382, 383, 384, 385, 386, 387, 388, 389, 390, 391, 392, 393, 394, 395, 396, 397, 398, 399, 400, 401, 402, 403, 404, 405, 406, 407, 408, 409, 410, 411, 412, 413, 414, 415, 416, 417, 418, 419, 420, 421, 422, 423, 424, 425, 426, 427, 428, 429, 430, 431, 432, 433, 434, 435, 436, 437, 438, 439, 440, 441, 442, 443, 444, 445, 446, 447, 448, 449, 450, 451, 452, 453, 454, 455, 456, 457, 458, 459, 460, 461, 462, 463, 464, 465, 466, 467, 468, 469, 470, 471, 472, 473, 474, 475, 476, 477, 478, 479, 480, 481, 482, 483, 484, 485, 486, 487, 488, 489, 490, 491, 492, 493, 494, 495, 496, 497, 498, 499, 500, 501, 502, 503, 504, 505, 506, 507, 508, 509, 510, 511, 512, 513, 514, 515, 516, 517, 518, 519, 520, 521, 522, 523, 524, 525, 526, 527, 528, 529, 530, 531, 532, 533, 534, 535, 536, 537, 538, 539, 540, 541, 542, 543, 544, 545, 546, 547, 548, 549, 550, 551, 552, 553, 554, 555, 556, 557, 558, 559, 560, 561, 562, 563, 564, 565, 566, 567, 568, 569, 570, 571, 572, 573, 574, 575, 576, 577, 578, 579, 580, 581, 582, 583, 584, 585, 586, 587, 588, 589, 590, 591, 592, 593, 594, 595, 596, 597, 598, 599, 600, 601, 602, 603, 604, 605, 606, 607, 608, 609, 610, 611, 612, 613, 614, 615, 616, 617, 618, 619, 620, 621, 622, 623, 624, 625, 626, 627, 628, 629, 630, 631, 632, 633, 634, 635, 636, 637, 638, 639, 640, 641, 642, 643, 644, 645, 646, 647, 648, 649, 650, 651, 652, 653, 654, 655, 656, 657, 658, 659, 660, 661, 662, 663, 664, 665, 666, 667, 668, 669, 670, 671, 672, 673, 674, 675, 676, 677, 678, 679, 680, 681, 682, 683, 684, 685, 686, 687, 688, 689, 690, 691, 692, 693, 694, 695, 696, 697, 698, 699, 700, 701, 702, 703, 704, 705, 706, 707, 708, 709, 710, 711, 712, 713, 714, 715, 716, 717, 718, 719, 720, 721, 722, 723, 724, 725, 726, 727, 728, 729, 730, 731, 732, 733, 734, 735, 736, 737, 738, 739, 740, 741, 742, 743, 744, 745, 746, 747, 748, 749, 750, 751, 752, 753, 754, 755, 756, 757, 758, 759, 760, 761, 762, 763, 764, 765, 766, 767, 768, 769, 770, 771, 772, 773, 774, 775, 776, 777, 778, 779, 780, 781, 782, 783, 784, 785, 786, 787, 788, 789, 790, 791, 792, 793, 794, 795, 796, 797, 798, 799, 800, 801, 802, 803, 804, 805, 806, 807, 808, 809, 810, 811, 812, 813, 814, 815, 816, 817, 818, 819, 820, 821, 822, 823, 824, 825, 826, 827, 828, 829, 830, 831, 832, 833, 834, 835, 836, 837, 838, 839, 840, 841, 842, 843, 844, 845, 846, 847, 848, 849, 850, 851, 852, 853, 854, 855, 856, 857, 858, 859, 860, 861, 862, 863, 864, 865, 866, 867, 868, 869, 870, 871, 872],
      "AcquisitionTime": ["154536.840000", "154537.300000", "154537.760000", "154538.220000", "154538.680000", "154539.140000", "154539.600000", "154540.060000", "154540.520000", "154540.980000", "154541.440000", "154541.900000", "154542.360000", "154542.820000", "154543.280000", "154543.740000", "154544.200000", "154544.660000", "154545.120000", "154545.580000", "154546.040000", "154546.500000", "154546.960000", "154547.420000", "154547.880000", "154548.340000", "154548.800000", "154549.260000", "154549.720000", "154550.180000", "154550.640000", "154551.100000", "154551.560000", "154552.020000", "154552.480000", "154552.940000", "154553.400000", "154553.860000", "154554.320000", "154554.780000", "154555.240000", "154555.700000", "154556.160000", "154556.620000", "154557.080000", "154557.540000", "154558.000000", "154558.460000", "154558.920000", "154559.380000", "154559.840000", "154600.300000", "154600.760000", "154601.220000", "154601.680000", "154602.140000", "154602.600000", "154603.060000", "154603.520000", "154603.980000", "154604.440000", "154604.900000", "154605.360000", "154605.820000", "154606.280000", "154606.740000", "154607.200000", "154607.660000", "154608.120000", "154608.580000", "154609.040000", "154609.500000", "154609.960000", "154610.420000", "154610.880000", "154611.340000", "154611.800000", "154612.260000", "154612.720000", "154613.180000", "154613.640000", "154614.100000", "154614.560000", "154615.020000", "154615.480000", "154615.940000", "154616.400000", "154616.860000", "154617.320000", "154617.780000", "154618.240000", "154618.700000", "154619.160000", "154619.620000", "154620.080000", "154620.540000", "154621.000000", "154621.460000", "154621.920000", "154622.380000", "154622.840000", "154623.300000", "154623.760000", "154624.220000", "154624.680000", "154625.140000", "154625.600000", "154626.060000", "154626.520000", "154626.980000", "154627.440000", "154627.900000", "154628.360000", "154628.820000", "154629.280000", "154629.740000", "154630.200000", "154630.660000", "154631.120000", "154631.580000", "154632.040000", "154632.500000", "154632.960000", "154633.420000", "154633.880000", "154634.340000", "154634.800000", "154635.260000", "154635.720000", "154636.180000", "154636.640000", "154637.100000", "154637.560000", "154638.020000", "154638.480000", "154638.940000", "154639.400000", "154639.860000", "154640.320000", "154640.780000", "154641.240000", "154641.700000", "154642.160000", "154642.620000", "154643.080000", "154643.540000", "154644.000000", "154644.460000", "154644.920000", "154645.380000", "154645.840000", "154646.300000", "154646.760000", "154647.220000", "154647.680000", "154648.140000", "154648.600000", "154649.060000", "154649.520000", "154649.980000", "154650.440000", "154650.900000", "154651.360000", "154651.820000", "154652.280000", "154652.740000", "154653.200000", "154653.660000", "154654.120000", "154654.580000", "154655.040000", "154655.500000", "154655.960000", "154656.420000", "154656.880000", "154657.340000", "154657.800000", "154658.260000", "154658.720000", "154659.180000", "154659.640000", "154700.100000", "154700.560000", "154701.020000", "154701.480000", "154701.940000", "154702.400000", "154702.860000", "154703.320000", "154703.780000", "154704.240000", "154704.700000", "154705.160000", "154705.620000", "154706.080000", "154706.540000", "154707.000000", "154707.460000", "154707.920000", "154708.380000", "154708.840000", "154709.300000", "154709.760000", "154710.220000", "154710.680000", "154711.140000", "154711.600000", "154712.060000", "154712.520000", "154712.980000", "154713.440000", "154713.900000", "154714.360000", "154714.820000", "154715.280000", "154715.740000", "154716.200000", "154716.660000", "154717.120000", "154717.580000", "154718.040000", "154718.500000", "154718.960000", "154719.420000", "154719.880000", "154720.340000", "154720.800000", "154721.260000", "154721.720000", "154722.180000", "154722.640000", "154723.100000", "154723.560000", "154724.020000", "154724.480000", "154724.940000", "154725.400000", "154725.860000", "154726.320000", "154726.780000", "154727.240000", "154727.700000", "154728.160000", "154728.620000", "154729.080000", "154729.540000", "154730.000000", "154730.460000", "154730.920000", "154731.380000", "154731.840000", "154732.300000", "154732.760000", "154733.220000", "154733.680000", "154734.140000", "154734.600000", "154735.060000", "154735.520000", "154735.980000", "154736.440000", "154736.900000", "154737.360000", "154737.820000", "154738.280000", "154738.740000", "154739.200000", "154739.660000", "154740.120000", "154740.580000", "154741.040000", "154741.500000", "154741.960000", "154742.420000", "154742.880000", "154743.340000", "154743.800000", "154744.260000", "154744.720000", "154745.180000", "154745.640000", "154746.100000", "154746.560000", "154747.020000", "154747.480000", "154747.940000", "154748.400000", "154748.860000", "154749.320000", "154749.780000", "154750.240000", "154750.700000", "154751.160000", "154751.620000", "154752.080000", "154752.540000", "154753.000000", "154753.460000", "154753.920000", "154754.380000", "154754.840000", "154755.300000", "154755.760000", "154756.220000", "154756.680000", "154757.140000", "154757.600000", "154758.060000", "154758.520000", "154758.980000", "154759.440000", "154759.900000", "154800.360000", "154800.820000", "154801.280000", "154801.740000", "154802.200000", "154802.660000", "154803.120000", "154803.580000", "154804.040000", "154804.500000", "154804.960000", "154805.420000", "154805.880000", "154806.340000", "154806.800000", "154807.260000", "154807.720000", "154808.180000", "154808.640000", "154809.100000", "154809.560000", "154810.020000", "154810.480000", "154810.940000", "154811.400000", "154811.860000", "154812.320000", "154812.780000", "154813.240000", "154813.700000", "154814.160000", "154814.620000", "154815.080000", "154815.540000", "154816.000000", "154816.460000", "154816.920000", "154817.380000", "154817.840000", "154818.300000", "154818.760000", "154819.220000", "154819.680000", "154820.140000", "154820.600000", "154821.060000", "154821.520000", "154821.980000", "154822.440000", "154822.900000", "154823.360000", "154823.820000", "154824.280000", "154824.740000", "154825.200000", "154825.660000", "154826.120000", "154826.580000", "154827.040000", "154827.500000", "154827.960000", "154828.420000", "154828.880000", "154829.340000", "154829.800000", "154830.260000", "154830.720000", "154831.180000", "154831.640000", "154832.100000", "154832.560000", "154833.020000", "154833.480000", "154833.940000", "154834.400000", "154834.860000", "154835.320000", "154835.780000", "154836.240000", "154836.700000", "154837.160000", "154837.620000", "154838.080000", "154838.540000", "154839.000000", "154839.460000", "154839.920000", "154840.380000", "154840.840000", "154841.300000", "154841.760000", "154842.220000", "154842.680000", "154843.140000", "154843.600000", "154844.060000", "154844.520000", "154844.980000", "154845.440000", "154845.900000", "154846.360000", "154846.820000", "154847.280000", "154847.740000", "154848.200000", "154848.660000", "154849.120000", "154849.580000", "154850.040000", "154850.500000", "154850.960000", "154851.420000", "154851.880000", "154852.340000", "154852.800000", "154853.260000", "154853.720000", "154854.180000", "154854.640000", "154855.100000", "154855.560000", "154856.020000", "154856.480000", "154856.940000", "154857.400000", "154857.860000", "154858.320000", "154858.780000", "154859.240000", "154859.700000", "154900.160000", "154900.620000", "154901.080000", "154901.540000", "154902.000000", "154902.460000", "154902.920000", "154903.380000", "154903.840000", "154904.300000", "154904.760000", "154905.220000", "154905.680000", "154906.140000", "154906.600000", "154907.060000", "154907.520000", "154907.980000", "154908.440000", "154908.900000", "154909.360000", "154909.820000", "154910.280000", "154910.740000", "154911.200000", "154911.660000", "154912.120000", "154912.580000", "154913.040000", "154913.500000", "154913.960000", "154914.420000", "154914.880000", "154915.340000", "154915.800000", "154916.260000", "154916.720000", "154917.180000", "154917.640000", "154918.100000", "154918.560000", "154919.020000", "154919.480000", "154919.940000", "154920.400000", "154920.860000", "154921.320000", "154921.780000", "154922.240000", "154922.700000", "154923.160000", "154923.620000", "154924.080000", "154924.540000", "154925.000000", "154925.460000", "154925.920000", "154926.380000", "154926.840000", "154927.300000", "154927.760000", "154928.220000", "154928.680000", "154929.140000", "154929.600000", "154930.060000", "154930.520000", "154930.980000", "154931.440000", "154931.900000", "154932.360000", "154932.820000", "154933.280000", "154933.740000", "154934.200000", "154934.660000", "154935.120000", "154935.580000", "154936.040000", "154936.500000", "154936.960000", "154937.420000", "154937.880000", "154938.340000", "154938.800000", "154939.260000", "154939.720000", "154940.180000", "154940.640000", "154941.100000", "154941.560000", "154942.020000", "154942.480000", "154942.940000", "154943.400000", "154943.860000", "154944.320000", "154944.780000", "154945.240000", "154945.700000", "154946.160000", "154946.620000", "154947.080000", "154947.540000", "154948.000000", "154948.460000", "154948.920000", "154949.380000", "154949.840000", "154950.300000", "154950.760000", "154951.220000", "154951.680000", "154952.140000", "154952.600000", "154953.060000", "154953.520000", "154953.980000", "154954.440000", "154954.900000", "154955.360000", "154955.820000", "154956.280000", "154956.740000", "154957.200000", "154957.660000", "154958.120000", "154958.580000", "154959.040000", "154959.500000", "154959.960000", "155000.420000", "155000.880000", "155001.340000", "155001.800000", "155002.260000", "155002.720000", "155003.180000", "155003.640000", "155004.100000", "155004.560000", "155005.020000", "155005.480000", "155005.940000", "155006.400000", "155006.860000", "155007.320000", "155007.780000", "155008.240000", "155008.700000", "155009.160000", "155009.620000", "155010.080000", "155010.540000", "155011.000000", "155011.460000", "155011.920000", "155012.380000", "155012.840000", "155013.300000", "155013.760000", "155014.220000", "155014.680000", "155015.140000", "155015.600000", "155016.060000", "155016.520000", "155016.980000", "155017.440000", "155017.900000", "155018.360000", "155018.820000", "155019.280000", "155019.740000", "155020.200000", "155020.660000", "155021.120000", "155021.580000", "155022.040000", "155022.500000", "155022.960000", "155023.420000", "155023.880000", "155024.340000", "155024.800000", "155025.260000", "155025.720000", "155026.180000", "155026.640000", "155027.100000", "155027.560000", "155028.020000", "155028.480000", "155028.940000", "155029.400000", "155029.860000", "155030.320000", "155030.780000", "155031.240000", "155031.700000", "155032.160000", "155032.620000", "155033.080000", "155033.540000", "155034.000000", "155034.460000", "155034.920000", "155035.380000", "155035.840000", "155036.300000", "155036.760000", "155037.220000", "155037.680000", "155038.140000", "155038.600000", "155039.060000", "155039.520000", "155039.980000", "155040.440000", "155040.900000", "155041.360000", "155041.820000", "155042.280000", "155042.740000", "155043.200000", "155043.660000", "155044.120000", "155044.580000", "155045.040000", "155045.500000", "155045.960000", "155046.420000", "155046.880000", "155047.340000", "155047.800000", "155048.260000", "155048.720000", "155049.180000", "155049.640000", "155050.100000", "155050.560000", "155051.020000", "155051.480000", "155051.940000", "155052.400000", "155052.860000", "155053.320000", "155053.780000", "155054.240000", "155054.700000", "155055.160000", "155055.620000", "155056.080000", "155056.540000", "155057.000000", "155057.460000", "155057.920000", "155058.380000", "155058.840000", "155059.300000", "155059.760000", "155100.220000", "155100.680000", "155101.140000", "155101.600000", "155102.060000", "155102.520000", "155102.980000", "155103.440000", "155103.900000", "155104.360000", "155104.820000", "155105.280000", "155105.740000", "155106.200000", "155106.660000", "155107.120000", "155107.580000", "155108.040000", "155108.500000", "155108.960000", "155109.420000", "155109.880000", "155110.340000", "155110.800000", "155111.260000", "155111.720000", "155112.180000", "155112.640000", "155113.100000", "155113.560000", "155114.020000", "155114.480000", "155114.940000", "155115.400000", "155115.860000", "155116.320000", "155116.780000", "155117.240000", "155117.700000", "155118.160000", "155118.620000", "155119.080000", "155119.540000", "155120.000000", "155120.460000", "155120.920000", "155121.380000", "155121.840000", "155122.300000", "155122.760000", "155123.220000", "155123.680000", "155124.140000", "155124.600000", "155125.060000", "155125.520000", "155125.980000", "155126.440000", "155126.900000", "155127.360000", "155127.820000", "155128.280000", "155128.740000", "155129.200000", "155129.660000", "155130.120000", "155130.580000", "155131.040000", "155131.500000", "155131.960000", "155132.420000", "155132.880000", "155133.340000", "155133.800000", "155134.260000", "155134.720000", "155135.180000", "155135.640000", "155136.100000", "155136.560000", "155137.020000", "155137.480000", "155137.940000", "155138.400000", "155138.860000", "155139.320000", "155139.780000", "155140.240000", "155140.700000", "155141.160000", "155141.620000", "155142.080000", "155142.540000", "155143.000000", "155143.460000", "155143.920000", "155144.380000", "155144.840000", "155145.300000", "155145.760000", "155146.220000", "155146.680000", "155147.140000", "155147.600000", "155148.060000", "155148.520000", "155148.980000", "155149.440000", "155149.900000", "155150.360000", "155150.820000", "155151.280000", "155151.740000", "155152.200000", "155152.660000", "155153.120000", "155153.580000", "155154.040000", "155154.500000", "155154.960000", "155155.420000", "155155.880000", "155156.340000", "155156.800000", "155157.260000", "155157.720000", "155158.180000", "155158.640000", "155159.100000", "155159.560000", "155200.020000", "155200.480000", "155200.940000", "155201.400000", "155201.860000", "155202.320000", "155202.780000", "155203.240000", "155203.700000", "155204.160000", "155204.620000", "155205.080000", "155205.540000", "155206.000000", "155206.460000", "155206.920000", "155207.380000", "155207.840000", "155208.300000", "155208.760000", "155209.220000", "155209.680000", "155210.140000", "155210.600000", "155211.060000", "155211.520000", "155211.980000", "155212.440000", "155212.900000", "155213.360000", "155213.820000", "155214.280000", "155214.740000", "155215.200000", "155215.660000", "155216.120000", "155216.580000", "155217.040000", "155217.500000"],
