{
  "AcquisitionMatrixPE": 82,
  "AcquisitionNumber": 1,
  "AcquisitionTime": "16:02:52.547500",
  "BandwidthPerPixelPhaseEncode": 24.888,
  "BaseResolution": 82,
  "BodyPartExamined": "BRAIN",
  "ConsistencyInfo": "N4_VE11E_LATEST_20181129",
  "ConversionSoftware": "dcm2niix",
  "ConversionSoftwareVersion": "v1.0.20201102",
  "DerivedVendorReportedEchoSpacing": 0.00049,
  "DeviceSerialNumber": "66112",
  "DwellTime": 2e-06,
  "EchoTime": 0.0272,
  "EchoTrainLength": 82,
  "EffectiveEchoSpacing": 0.00049,
  "FlipAngle": 44,
  "ImageComments": "Unaliased MB8/PE3",
  "ImageOrientationPatientDICOM": [0.994543, -0.0272544, -0.100703, 0.0289962, 0.999453, 0.0158724],
  "ImageType": [
    "ORIGINAL",
    "PRIMARY",
    "M",
    "MB",
    "ND",
    "NORM",
    "MOSAIC"
],
  "ImagingFrequency": 123.259,
  "InPlanePhaseEncodingDirectionDICOM": "COL",
  "InstitutionAddress": "Maynard 3,Hanover,NH,US,03755",
  "InstitutionName": "Dartmouth College - PBS",
  "InstitutionalDepartmentName": "Department",
  "MRAcquisitionType": "2D",
  "MagneticFieldStrength": 3,
  "Manufacturer": "Siemens",
  "ManufacturersModelName": "Prisma",
  "Modality": "MR",
  "MultibandAccelerationFactor": 8,
  "PartialFourier": 1,
  "PatientPosition": "HFS",
  "PercentPhaseFOV": 100,
  "PercentSampling": 100,
  "PhaseEncodingDirection": "j-",
  "PhaseEncodingSteps": 82,
  "PhaseResolution": 1,
  "PixelBandwidth": 3050,
  "ProcedureStepDescription": "Wager_Wager^1076_spacetop",
  "ProtocolName": "func_run-01_task-alignvideo_acq-ap-mb8",
  "PulseSequenceDetails": "%CustomerSeq%\\cmrr_mbep2d_bold",
  "ReceiveCoilActiveElements": "HEA;HEP",
  "ReceiveCoilName": "Head_32",
  "ReconMatrixPE": 82,
  "RepetitionTime": 0.46,
  "SAR": 0.0751123,
  "ScanOptions": "FS",
  "ScanningSequence": "EP",
  "SequenceName": "epfid2d1_82",
  "SequenceVariant": "SK\\SS",
  "SeriesDescription": "func_run-01_task-alignvideo_acq-ap-mb8",
  "SeriesNumber": 32,
  "ShimSetting": [4206, -7743, -7255, 279, -99, 148, 115, 103],
  "SliceThickness": 2.7,
  "SliceTiming": [0, 0.2525, 0.0625, 0.315, 0.1275, 0.3775, 0.19, 0, 0.2525, 0.0625, 0.315, 0.1275, 0.3775, 0.19, 0, 0.2525, 0.0625, 0.315, 0.1275, 0.3775, 0.19, 0, 0.2525, 0.0625, 0.315, 0.1275, 0.3775, 0.19, 0, 0.2525, 0.0625, 0.315, 0.1275, 0.3775, 0.19, 0, 0.2525, 0.0625, 0.315, 0.1275, 0.3775, 0.19, 0, 0.2525, 0.0625, 0.315, 0.1275, 0.3775, 0.19, 0, 0.2525, 0.0625, 0.315, 0.1275, 0.3775, 0.19],
  "SoftwareVersions": "syngo MR E11",
  "SpacingBetweenSlices": 2.7,
  "StationName": "AWP66112",
  "TaskName": "alignvideo",
  "TotalReadoutTime": 0.03969,
  "TxRefAmp": 219.974,
  "WipMemBlock": "140a28af-67d7-479f-b59f-01e986fc6837||Sequence: R016 ve11e/master r/434b28f1; Aug  7 2019 18:53:46 by eja",
  "dcmmeta_affine": [
    [-2.6682865619659424, 0.07779458165168762, -0.2705824077129364, 111.81336975097656],
    [0.07312163710594177, 2.6814606189727783, 0.05050557851791382, -105.62578582763672],
    [-0.2701796889305115, -0.04258441925048828, 2.6859326362609863, -57.95774459838867],
    [0.0, 0.0, 0.0, 1.0]
],
  "dcmmeta_reorient_transform": [
    [0.0, -1.0, 0.0, 81.0],
    [1.0, 0.0, 0.0, 0.0],
    [0.0, 0.0, 1.0, 0.0],
    [0.0, 0.0, 0.0, 1.0]
],
  "dcmmeta_shape": [82, 82, 56, 1073],
  "dcmmeta_slice_dim": 2,
  "dcmmeta_version": 0.6,
  "global": {
    "const": {
      "AccessionNumber": "A004469",
      "AcquisitionMatrix": [82, 0, 0, 82],
      "AngioFlag": "N",
      "BitsAllocated": 16,
      "BitsStored": 16,
      "BodyPartExamined": "BRAIN",
      "Columns": 656,
      "EchoNumbers": 1,
      "EchoTime": 27.2,
      "EchoTrainLength": 82,
      "FlipAngle": 44.0,
      "HighBit": 15,
      "ImageOrientationPatient": [0.99454312836881, -0.0272544278384, -0.1007033364769, 0.02899616250217, 0.9994534958238, 0.01587237366441],
      "ImagePositionPatient": [-906.24000666282, -860.16582451896, 3.9127618112011],
      "ImageType": [
        "ORIGINAL",
        "PRIMARY",
        "M",
        "MB",
        "ND",
        "NORM",
        "MOSAIC"
],
      "ImagedNucleus": "1H",
      "ImagingFrequency": 123.259131,
      "InPlanePhaseEncodingDirection": "COL",
      "MRAcquisitionType": "2D",
      "MagneticFieldStrength": 3.0,
      "Manufacturer": "SIEMENS",
      "ManufacturerModelName": "Prisma",
      "Modality": "MR",
      "NumberOfAverages": 1.0,
      "NumberOfPhaseEncodingSteps": 82,
      "PercentPhaseFieldOfView": 100.0,
      "PercentSampling": 100.0,
      "PerformedProcedureStepStartTime": "141415.783000",
      "PhotometricInterpretation": "MONOCHROME2",
      "PixelBandwidth": 3050.0,
      "PixelRepresentation": 0,
      "PixelSpacing": [2.6829268932343, 2.6829268932343],
      "ProtocolName": "func_run-01_task-alignvideo_acq-ap-mb8",
      "RepetitionTime": 460.0,
      "Rows": 656,
      "SAR": 0.07511232451334,
      "SamplesPerPixel": 1,
      "ScanOptions": "FS",
      "ScanningSequence": "EP",
      "SequenceName": "epfid2d1_82",
      "SequenceVariant": [
        "SK",
        "SS"
],
      "SeriesDescription": "func_run-01_task-alignvideo_acq-ap-mb8",
      "SeriesNumber": 32,
      "SeriesTime": "160309.153000",
      "SliceLocation": -70.837044660358,
      "SliceThickness": 2.7000000476837,
      "SmallestImagePixelValue": 0,
      "SoftwareVersions": "syngo MR E11",
      "SpacingBetweenSlices": 2.6999999687212,
      "SpecificCharacterSet": "ISO_IR 100",
      "StudyID": "1",
      "StudyTime": "141415.726000",
      "TransmitCoilName": "Body",
      "VariableFlipAngleFlag": "N",
      "WindowCenterWidthExplanation": "Algo1"
    },
    "slices": {}
  },
  "time": {
    "samples": {
      "AcquisitionNumber": [1, 2, 3, 4, 5, 6, 7, 8, 9, 10, 11, 12, 13, 14, 15, 16, 17, 18, 19, 20, 21, 22, 23, 24, 25, 26, 27, 28, 29, 30, 31, 32, 33, 34, 35, 36, 37, 38, 39, 40, 41, 42, 43, 44, 45, 46, 47, 48, 49, 50, 51, 52, 53, 54, 55, 56, 57, 58, 59, 60, 61, 62, 63, 64, 65, 66, 67, 68, 69, 70, 71, 72, 73, 74, 75, 76, 77, 78, 79, 80, 81, 82, 83, 84, 85, 86, 87, 88, 89, 90, 91, 92, 93, 94, 95, 96, 97, 98, 99, 100, 101, 102, 103, 104, 105, 106, 107, 108, 109, 110, 111, 112, 113, 114, 115, 116, 117, 118, 119, 120, 121, 122, 123, 124, 125, 126, 127, 128, 129, 130, 131, 132, 133, 134, 135, 136, 137, 138, 139, 140, 141, 142, 143, 144, 145, 146, 147, 148, 149, 150, 151, 152, 153, 154, 155, 156, 157, 158, 159, 160, 161, 162, 163, 164, 165, 166, 167, 168, 169, 170, 171, 172, 173, 174, 175, 176, 177, 178, 179, 180, 181, 182, 183, 184, 185, 186, 187, 188, 189, 190, 191, 192, 193, 194, 195, 196, 197, 198, 199, 200, 201, 202, 203, 204, 205, 206, 207, 208, 209, 210, 211, 212, 213, 214, 215, 216, 217, 218, 219, 220, 221, 222, 223, 224, 225, 226, 227, 228, 229, 230, 231, 232, 233, 234, 235, 236, 237, 238, 239, 240, 241, 242, 243, 244, 245, 246, 247, 248, 249, 250, 251, 252, 253, 254, 255, 256, 257, 258, 259, 260, 261, 262, 263, 264, 265, 266, 267, 268, 269, 270, 271, 272, 273, 274, 275, 276, 277, 278, 279, 280, 281, 282, 283, 284, 285, 286, 287, 288, 289, 290, 291, 292, 293, 294, 295, 296, 297, 298, 299, 300, 301, 302, 303, 304, 305, 306, 307, 308, 309, 310, 311, 312, 313, 314, 315, 316, 317, 318, 319, 320, 321, 322, 323, 324, 325, 326, 327, 328, 329, 330, 331, 332, 333, 334, 335, 336, 337, 338, 339, 340, 341, 342, 343, 344, 345, 346, 347, 348, 349, 350, 351, 352, 353, 354, 355, 356, 357, 358, 359, 360, 361, 362, 363, 364, 365, 366, 367, 368, 369, 370, 371, 372, 373, 374, 375, 376, 377, 378, 379, 380, 381, 382, 383, 384, 385, 386, 387, 388, 389, 390, 391, 392, 393, 394, 395, 396, 397, 398, 399, 400, 401, 402, 403, 404, 405, 406, 407, 408, 409, 410, 411, 412, 413, 414, 415, 416, 417, 418, 419, 420, 421, 422, 423, 424, 425, 426, 427, 428, 429, 430, 431, 432, 433, 434, 435, 436, 437, 438, 439, 440, 441, 442, 443, 444, 445, 446, 447, 448, 449, 450, 451, 452, 453, 454, 455, 456, 457, 458, 459, 460, 461, 462, 463, 464, 465, 466, 467, 468, 469, 470, 471, 472, 473, 474, 475, 476, 477, 478, 479, 480, 481, 482, 483, 484, 485, 486, 487, 488, 489, 490, 491, 492, 493, 494, 495, 496, 497, 498, 499, 500, 501, 502, 503, 504, 505, 506, 507, 508, 509, 510, 511, 512, 513, 514, 515, 516, 517, 518, 519, 520, 521, 522, 523, 524, 525, 526, 527, 528, 529, 530, 531, 532, 533, 534, 535, 536, 537, 538, 539, 540, 541, 542, 543, 544, 545, 546, 547, 548, 549, 550, 551, 552, 553, 554, 555, 556, 557, 558, 559, 560, 561, 562, 563, 564, 565, 566, 567, 568, 569, 570, 571, 572, 573, 574, 575, 576, 577, 578, 579, 580, 581, 582, 583, 584, 585, 586, 587, 588, 589, 590, 591, 592, 593, 594, 595, 596, 597, 598, 599, 600, 601, 602, 603, 604, 605, 606, 607, 608, 609, 610, 611, 612, 613, 614, 615, 616, 617, 618, 619, 620, 621, 622, 623, 624, 625, 626, 627, 628, 629, 630, 631, 632, 633, 634, 635, 636, 637, 638, 639, 640, 641, 642, 643, 644, 645, 646, 647, 648, 649, 650, 651, 652, 653, 654, 655, 656, 657, 658, 659, 660, 661, 662, 663, 664, 665, 666, 667, 668, 669, 670, 671, 672, 673, 674, 675, 676, 677, 678, 679, 680, 681, 682, 683, 684, 685, 686, 687, 688, 689, 690, 691, 692, 693, 694, 695, 696, 697, 698, 699, 700, 701, 702, 703, 704, 705, 706, 707, 708, 709, 710, 711, 712, 713, 714, 715, 716, 717, 718, 719, 720, 721, 722, 723, 724, 725, 726, 727, 728, 729, 730, 731, 732, 733, 734, 735, 736, 737, 738, 739, 740, 741, 742, 743, 744, 745, 746, 747, 748, 749, 750, 751, 752, 753, 754, 755, 756, 757, 758, 759, 760, 761, 762, 763, 764, 765, 766, 767, 768, 769, 770, 771, 772, 773, 774, 775, 776, 777, 778, 779, 780, 781, 782, 783, 784, 785, 786, 787, 788, 789, 790, 791, 792, 793, 794, 795, 796, 797, 798, 799, 800, 801, 802, 803, 804, 805, 806, 807, 808, 809, 810, 811, 812, 813, 814, 815, 816, 817, 818, 819, 820, 821, 822, 823, 824, 825, 826, 827, 828, 829, 830, 831, 832, 833, 834, 835, 836, 837, 838, 839, 840, 841, 842, 843, 844, 845, 846, 847, 848, 849, 850, 851, 852, 853, 854, 855, 856, 857, 858, 859, 860, 861, 862, 863, 864, 865, 866, 867, 868, 869, 870, 871, 872, 873, 874, 875, 876, 877, 878, 879, 880, 881, 882, 883, 884, 885, 886, 887, 888, 889, 890, 891, 892, 893, 894, 895, 896, 897, 898, 899, 900, 901, 902, 903, 904, 905, 906, 907, 908, 909, 910, 911, 912, 913, 914, 915, 916, 917, 918, 919, 920, 921, 922, 923, 924, 925, 926, 927, 928, 929, 930, 931, 932, 933, 934, 935, 936, 937, 938, 939, 940, 941, 942, 943, 944, 945, 946, 947, 948, 949, 950, 951, 952, 953, 954, 955, 956, 957, 958, 959, 960, 961, 962, 963, 964, 965, 966, 967, 968, 969, 970, 971, 972, 973, 974, 975, 976, 977, 978, 979, 980, 981, 982, 983, 984, 985, 986, 987, 988, 989, 990, 991, 992, 993, 994, 995, 996, 997, 998, 999, 1000, 1001, 1002, 1003, 1004, 1005, 1006, 1007, 1008, 1009, 1010, 1011, 1012, 1013, 1014, 1015, 1016, 1017, 1018, 1019, 1020, 1021, 1022, 1023, 1024, 1025, 1026, 1027, 1028, 1029, 1030, 1031, 1032, 1033, 1034, 1035, 1036, 1037, 1038, 1039, 1040, 1041, 1042, 1043, 1044, 1045, 1046, 1047, 1048, 1049, 1050, 1051, 1052, 1053, 1054, 1055, 1056, 1057, 1058, 1059, 1060, 1061, 1062, 1063, 1064, 1065, 1066, 1067, 1068, 1069, 1070, 1071, 1072, 1073],
      "AcquisitionTime": ["160252.547500", "160253.007500", "160253.467500", "160253.927500", "160254.387500", "160254.847500", "160255.307500", "160255.767500", "160256.227500", "160256.687500", "160257.147500", "160257.607500", "160258.067500", "160258.527500", "160258.987500", "160259.447500", "160259.907500", "160300.367500", "160300.827500", "160301.287500", "160301.747500", "160302.207500", "160302.667500", "160303.127500", "160303.587500", "160304.047500", "160304.507500", "160304.967500", "160305.427500", "160305.887500", "160306.347500", "160306.807500", "160307.267500", "160307.727500", "160308.187500", "160308.647500", "160309.107500", "160309.567500", "160310.027500", "160310.487500", "160310.947500", "160311.407500", "160311.867500", "160312.327500", "160312.787500", "160313.247500", "160313.707500", "160314.167500", "160314.627500", "160315.087500", "160315.547500", "160316.007500", "160316.467500", "160316.927500", "160317.387500", "160317.847500", "160318.307500", "160318.767500", "160319.227500", "160319.687500", "160320.147500", "160320.607500", "160321.067500", "160321.527500", "160321.987500", "160322.447500", "160322.907500", "160323.367500", "160323.827500", "160324.287500", "160324.747500", "160325.207500", "160325.667500", "160326.127500", "160326.587500", "160327.047500", "160327.507500", "160327.967500", "160328.427500", "160328.887500", "160329.347500", "160329.807500", "160330.267500", "160330.727500", "160331.187500", "160331.647500", "160332.107500", "160332.567500", "160333.027500", "160333.487500", "160333.947500", "160334.407500", "160334.867500", "160335.327500", "160335.787500", "160336.247500", "160336.707500", "160337.167500", "160337.627500", "160338.087500", "160338.547500", "160339.007500", "160339.467500", "160339.927500", "160340.387500", "160340.847500", "160341.307500", "160341.767500", "160342.227500", "160342.687500", "160343.147500", "160343.607500", "160344.067500", "160344.527500", "160344.987500", "160345.447500", "160345.907500", "160346.367500", "160346.827500", "160347.287500", "160347.747500", "160348.207500", "160348.667500", "160349.127500", "160349.587500", "160350.047500", "160350.507500", "160350.967500", "160351.427500", "160351.887500", "160352.347500", "160352.807500", "160353.267500", "160353.727500", "160354.187500", "160354.647500", "160355.107500", "160355.567500", "160356.027500", "160356.487500", "160356.947500", "160357.407500", "160357.867500", "160358.327500", "160358.787500", "160359.247500", "160359.707500", "160400.167500", "160400.627500", "160401.087500", "160401.547500", "160402.007500", "160402.467500", "160402.927500", "160403.387500", "160403.847500", "160404.307500", "160404.767500", "160405.227500", "160405.687500", "160406.147500", "160406.607500", "160407.067500", "160407.527500", "160407.987500", "160408.447500", "160408.907500", "160409.367500", "160409.827500", "160410.287500", "160410.747500", "160411.207500", "160411.667500", "160412.127500", "160412.587500", "160413.047500", "160413.507500", "160413.967500", "160414.427500", "160414.887500", "160415.347500", "160415.807500", "160416.267500", "160416.727500", "160417.187500", "160417.647500", "160418.107500", "160418.567500", "160419.027500", "160419.487500", "160419.947500", "160420.407500", "160420.867500", "160421.327500", "160421.787500", "160422.247500", "160422.707500", "160423.167500", "160423.627500", "160424.087500", "160424.547500", "160425.007500", "160425.467500", "160425.927500", "160426.387500", "160426.847500", "160427.307500", "160427.767500", "160428.227500", "160428.687500", "160429.147500", "160429.607500", "160430.067500", "160430.527500", "160430.987500", "160431.447500", "160431.907500", "160432.367500", "160432.827500", "160433.287500", "160433.747500", "160434.207500", "160434.667500", "160435.127500", "160435.587500", "160436.047500", "160436.507500", "160436.967500", "160437.427500", "160437.887500", "160438.347500", "160438.807500", "160439.267500", "160439.727500", "160440.187500", "160440.647500", "160441.107500", "160441.567500", "160442.027500", "160442.487500", "160442.947500", "160443.407500", "160443.867500", "160444.327500", "160444.787500", "160445.247500", "160445.707500", "160446.167500", "160446.627500", "160447.087500", "160447.547500", "160448.007500", "160448.467500", "160448.927500", "160449.387500", "160449.847500", "160450.307500", "160450.767500", "160451.227500", "160451.687500", "160452.147500", "160452.607500", "160453.067500", "160453.527500", "160453.987500", "160454.447500", "160454.907500", "160455.367500", "160455.827500", "160456.287500", "160456.747500", "160457.207500", "160457.667500", "160458.127500", "160458.587500", "160459.047500", "160459.507500", "160459.967500", "160500.427500", "160500.887500", "160501.347500", "160501.807500", "160502.267500", "160502.727500", "160503.187500", "160503.647500", "160504.107500", "160504.567500", "160505.027500", "160505.487500", "160505.947500", "160506.407500", "160506.867500", "160507.327500", "160507.787500", "160508.247500", "160508.707500", "160509.167500", "160509.627500", "160510.087500", "160510.547500", "160511.007500", "160511.467500", "160511.927500", "160512.387500", "160512.847500", "160513.307500", "160513.767500", "160514.227500", "160514.687500", "160515.147500", "160515.607500", "160516.067500", "160516.527500", "160516.987500", "160517.447500", "160517.907500", "160518.367500", "160518.827500", "160519.287500", "160519.747500", "160520.207500", "160520.667500", "160521.127500", "160521.587500", "160522.047500", "160522.507500", "160522.967500", "160523.427500", "160523.887500", "160524.347500", "160524.807500", "160525.267500", "160525.727500", "160526.187500", "160526.647500", "160527.107500", "160527.567500", "160528.027500", "160528.487500", "160528.947500", "160529.407500", "160529.867500", "160530.327500", "160530.787500", "160531.247500", "160531.707500", "160532.167500", "160532.627500", "160533.087500", "160533.547500", "160534.007500", "160534.467500", "160534.927500", "160535.387500", "160535.847500", "160536.307500", "160536.767500", "160537.227500", "160537.687500", "160538.147500", "160538.607500", "160539.067500", "160539.527500", "160539.987500", "160540.447500", "160540.907500", "160541.367500", "160541.827500", "160542.287500", "160542.747500", "160543.207500", "160543.667500", "160544.127500", "160544.587500", "160545.047500", "160545.507500", "160545.967500", "160546.427500", "160546.887500", "160547.347500", "160547.807500", "160548.267500", "160548.727500", "160549.187500", "160549.647500", "160550.107500", "160550.567500", "160551.027500", "160551.487500", "160551.947500", "160552.407500", "160552.867500", "160553.327500", "160553.787500", "160554.247500", "160554.707500", "160555.167500", "160555.627500", "160556.087500", "160556.547500", "160557.007500", "160557.467500", "160557.927500", "160558.387500", "160558.847500", "160559.307500", "160559.767500", "160600.227500", "160600.687500", "160601.147500", "160601.607500", "160602.067500", "160602.527500", "160602.987500", "160603.447500", "160603.907500", "160604.367500", "160604.827500", "160605.287500", "160605.747500", "160606.207500", "160606.667500", "160607.127500", "160607.587500", "160608.047500", "160608.507500", "160608.967500", "160609.427500", "160609.887500", "160610.347500", "160610.807500", "160611.267500", "160611.727500", "160612.187500", "160612.647500", "160613.107500", "160613.567500", "160614.027500", "160614.487500", "160614.947500", "160615.407500", "160615.867500", "160616.327500", "160616.787500", "160617.247500", "160617.707500", "160618.167500", "160618.627500", "160619.087500", "160619.547500", "160620.007500", "160620.467500", "160620.927500", "160621.387500", "160621.847500", "160622.307500", "160622.767500", "160623.227500", "160623.687500", "160624.147500", "160624.607500", "160625.067500", "160625.527500", "160625.987500", "160626.447500", "160626.907500", "160627.367500", "160627.827500", "160628.287500", "160628.747500", "160629.207500", "160629.667500", "160630.127500", "160630.587500", "160631.047500", "160631.507500", "160631.967500", "160632.427500", "160632.887500", "160633.347500", "160633.807500", "160634.267500", "160634.727500", "160635.187500", "160635.647500", "160636.107500", "160636.567500", "160637.027500", "160637.487500", "160637.947500", "160638.407500", "160638.867500", "160639.327500", "160639.787500", "160640.247500", "160640.707500", "160641.167500", "160641.627500", "160642.087500", "160642.547500", "160643.007500", "160643.467500", "160643.927500", "160644.387500", "160644.847500", "160645.307500", "160645.767500", "160646.227500", "160646.687500", "160647.147500", "160647.607500", "160648.067500", "160648.527500", "160648.987500", "160649.447500", "160649.907500", "160650.367500", "160650.827500", "160651.287500", "160651.747500", "160652.207500", "160652.667500", "160653.127500", "160653.587500", "160654.047500", "160654.507500", "160654.967500", "160655.427500", "160655.887500", "160656.347500", "160656.807500", "160657.267500", "160657.727500", "160658.187500", "160658.647500", "160659.107500", "160659.567500", "160700.027500", "160700.487500", "160700.947500", "160701.407500", "160701.867500", "160702.327500", "160702.787500", "160703.247500", "160703.707500", "160704.167500", "160704.627500", "160705.087500", "160705.547500", "160706.007500", "160706.467500", "160706.927500", "160707.387500", "160707.847500", "160708.307500", "160708.767500", "160709.227500", "160709.687500", "160710.147500", "160710.607500", "160711.067500", "160711.527500", "160711.987500", "160712.447500", "160712.907500", "160713.367500", "160713.827500", "160714.287500", "160714.747500", "160715.207500", "160715.667500", "160716.127500", "160716.587500", "160717.047500", "160717.507500", "160717.967500", "160718.427500", "160718.887500", "160719.347500", "160719.807500", "160720.267500", "160720.727500", "160721.187500", "160721.647500", "160722.107500", "160722.567500", "160723.027500", "160723.487500", "160723.947500", "160724.407500", "160724.867500", "160725.327500", "160725.787500", "160726.247500", "160726.707500", "160727.167500", "160727.627500", "160728.087500", "160728.547500", "160729.007500", "160729.467500", "160729.927500", "160730.387500", "160730.847500", "160731.307500", "160731.767500", "160732.227500", "160732.687500", "160733.147500", "160733.607500", "160734.067500", "160734.527500", "160734.987500", "160735.447500", "160735.907500", "160736.367500", "160736.827500", "160737.287500", "160737.747500", "160738.207500", "160738.667500", "160739.127500", "160739.587500", "160740.047500", "160740.507500", "160740.967500", "160741.427500", "160741.887500", "160742.347500", "160742.807500", "160743.267500", "160743.727500", "160744.187500", "160744.647500", "160745.107500", "160745.567500", "160746.027500", "160746.487500", "160746.947500", "160747.407500", "160747.867500", "160748.327500", "160748.787500", "160749.247500", "160749.707500", "160750.167500", "160750.627500", "160751.087500", "160751.547500", "160752.007500", "160752.467500", "160752.927500", "160753.387500", "160753.847500", "160754.307500", "160754.767500", "160755.227500", "160755.687500", "160756.147500", "160756.607500", "160757.067500", "160757.527500", "160757.987500", "160758.447500", "160758.907500", "160759.367500", "160759.827500", "160800.287500", "160800.747500", "160801.207500", "160801.667500", "160802.127500", "160802.587500", "160803.047500", "160803.507500", "160803.967500", "160804.427500", "160804.887500", "160805.347500", "160805.807500", "160806.267500", "160806.727500", "160807.187500", "160807.647500", "160808.107500", "160808.567500", "160809.027500", "160809.487500", "160809.947500", "160810.407500", "160810.867500", "160811.327500", "160811.787500", "160812.247500", "160812.707500", "160813.167500", "160813.627500", "160814.087500", "160814.547500", "160815.007500", "160815.467500", "160815.927500", "160816.387500", "160816.847500", "160817.307500", "160817.767500", "160818.227500", "160818.687500", "160819.147500", "160819.607500", "160820.067500", "160820.527500", "160820.987500", "160821.447500", "160821.907500", "160822.367500", "160822.827500", "160823.287500", "160823.747500", "160824.207500", "160824.667500", "160825.127500", "160825.587500", "160826.047500", "160826.507500", "160826.967500", "160827.427500", "160827.887500", "160828.347500", "160828.807500", "160829.267500", "160829.727500", "160830.187500", "160830.647500", "160831.107500", "160831.567500", "160832.027500", "160832.487500", "160832.947500", "160833.407500", "160833.867500", "160834.327500", "160834.787500", "160835.247500", "160835.707500", "160836.167500", "160836.627500", "160837.087500", "160837.547500", "160838.007500", "160838.467500", "160838.927500", "160839.387500", "160839.847500", "160840.307500", "160840.767500", "160841.227500", "160841.687500", "160842.147500", "160842.607500", "160843.067500", "160843.527500", "160843.987500", "160844.447500", "160844.907500", "160845.367500", "160845.827500", "160846.287500", "160846.747500", "160847.207500", "160847.667500", "160848.127500", "160848.587500", "160849.047500", "160849.507500", "160849.967500", "160850.427500", "160850.887500", "160851.347500", "160851.807500", "160852.267500", "160852.727500", "160853.187500", "160853.647500", "160854.107500", "160854.567500", "160855.027500", "160855.487500", "160855.947500", "160856.407500", "160856.867500", "160857.327500", "160857.787500", "160858.247500", "160858.707500", "160859.167500", "160859.627500", "160900.087500", "160900.547500", "160901.007500", "160901.467500", "160901.927500", "160902.387500", "160902.847500", "160903.307500", "160903.767500", "160904.227500", "160904.687500", "160905.147500", "160905.607500", "160906.067500", "160906.527500", "160906.987500", "160907.447500", "160907.907500", "160908.367500", "160908.827500", "160909.287500", "160909.747500", "160910.207500", "160910.667500", "160911.127500", "160911.587500", "160912.047500", "160912.507500", "160912.967500", "160913.427500", "160913.887500", "160914.347500", "160914.807500", "160915.267500", "160915.727500", "160916.187500", "160916.647500", "160917.107500", "160917.567500", "160918.027500", "160918.487500", "160918.947500", "160919.407500", "160919.867500", "160920.327500", "160920.787500", "160921.247500", "160921.707500", "160922.167500", "160922.627500", "160923.087500", "160923.547500", "160924.007500", "160924.467500", "160924.927500", "160925.387500", "160925.847500", "160926.307500", "160926.767500", "160927.227500", "160927.687500", "160928.147500", "160928.607500", "160929.067500", "160929.527500", "160929.987500", "160930.447500", "160930.907500", "160931.367500", "160931.827500", "160932.287500", "160932.747500", "160933.207500", "160933.667500", "160934.127500", "160934.587500", "160935.047500", "160935.507500", "160935.967500", "160936.427500", "160936.887500", "160937.347500", "160937.807500", "160938.267500", "160938.727500", "160939.187500", "160939.647500", "160940.107500", "160940.567500", "160941.027500", "160941.487500", "160941.947500", "160942.407500", "160942.867500", "160943.327500", "160943.787500", "160944.247500", "160944.707500", "160945.167500", "160945.627500", "160946.087500", "160946.547500", "160947.007500", "160947.467500", "160947.927500", "160948.387500", "160948.847500", "160949.307500", "160949.767500", "160950.227500", "160950.687500", "160951.147500", "160951.607500", "160952.067500", "160952.527500", "160952.987500", "160953.447500", "160953.907500", "160954.367500", "160954.827500", "160955.287500", "160955.747500", "160956.207500", "160956.667500", "160957.127500", "160957.587500", "160958.047500", "160958.507500", "160958.967500", "160959.427500", "160959.887500", "161000.347500", "161000.807500", "161001.267500", "161001.727500", "161002.187500", "161002.647500", "161003.107500", "161003.567500", "161004.027500", "161004.487500", "161004.947500", "161005.407500", "161005.867500", "161006.327500", "161006.787500", "161007.247500", "161007.707500", "161008.167500", "161008.627500", "161009.087500", "161009.547500", "161010.007500", "161010.467500", "161010.927500", "161011.387500", "161011.847500", "161012.307500", "161012.767500", "161013.227500", "161013.687500", "161014.147500", "161014.607500", "161015.067500", "161015.527500", "161015.987500", "161016.447500", "161016.907500", "161017.367500", "161017.827500", "161018.287500", "161018.747500", "161019.207500", "161019.667500", "161020.127500", "161020.587500", "161021.047500", "161021.507500", "161021.967500", "161022.427500", "161022.887500", "161023.347500", "161023.807500", "161024.267500", "161024.727500", "161025.187500", "161025.647500", "161026.107500", "161026.567500", "161027.027500", "161027.487500", "161027.947500", "161028.407500", "161028.867500", "161029.327500", "161029.787500", "161030.247500", "161030.707500", "161031.167500", "161031.627500", "161032.087500", "161032.547500", "161033.007500", "161033.467500", "161033.927500", "161034.387500", "161034.847500", "161035.307500", "161035.767500", "161036.227500", "161036.687500", "161037.147500", "161037.607500", "161038.067500", "161038.527500", "161038.987500", "161039.447500", "161039.907500", "161040.367500", "161040.827500", "161041.287500", "161041.747500", "161042.207500", "161042.667500", "161043.127500", "161043.587500", "161044.047500", "161044.507500", "161044.967500", "161045.427500", "161045.887500", "161046.347500", "161046.807500", "161047.267500", "161047.727500", "161048.187500", "161048.647500", "161049.107500", "161049.567500", "161050.027500", "161050.487500", "161050.947500", "161051.407500", "161051.867500", "161052.327500", "161052.787500", "161053.247500", "161053.707500", "161054.167500", "161054.627500", "161055.087500", "161055.547500", "161056.007500", "161056.467500", "161056.927500", "161057.387500", "161057.847500", "161058.307500", "161058.767500", "161059.227500", "161059.687500", "161100.147500", "161100.607500", "161101.067500", "161101.527500", "161101.987500", "161102.447500", "161102.907500", "161103.367500", "161103.827500", "161104.287500", "161104.747500", "161105.207500", "161105.667500"],
