{
  "AcquisitionMatrixPE": 82,
  "AcquisitionNumber": 1,
  "AcquisitionTime": "15:08:10.977500",
  "BandwidthPerPixelPhaseEncode": 24.888,
  "BaseResolution": 82,
  "BodyPartExamined": "BRAIN",
  "ConsistencyInfo": "N4_VE11E_LATEST_20181129",
  "ConversionSoftware": "dcm2niix",
  "ConversionSoftwareVersion": "v1.0.20201102",
  "DerivedVendorReportedEchoSpacing": 0.00049,
  "DeviceSerialNumber": "66112",
  "DwellTime": 2e-06,
  "EchoTime": 0.0272,
  "EchoTrainLength": 82,
  "EffectiveEchoSpacing": 0.00049,
  "FlipAngle": 44,
  "ImageComments": "Unaliased MB8/PE3",
  "ImageOrientationPatientDICOM": [0.998744, -0.0207963, -0.0455935, 0.0242343, 0.996798, 0.0761982],
  "ImageType": [
    "ORIGINAL",
    "PRIMARY",
    "M",
    "MB",
    "ND",
    "NORM",
    "MOSAIC"
],
  "ImagingFrequency": 123.259,
  "InPlanePhaseEncodingDirectionDICOM": "COL",
  "InstitutionAddress": "Maynard 3,Hanover,NH,US,03755",
  "InstitutionName": "Dartmouth College - PBS",
  "InstitutionalDepartmentName": "Department",
  "MRAcquisitionType": "2D",
  "MagneticFieldStrength": 3,
  "Manufacturer": "Siemens",
  "ManufacturersModelName": "Prisma",
  "Modality": "MR",
  "MultibandAccelerationFactor": 8,
  "PartialFourier": 1,
  "PatientPosition": "HFS",
  "PercentPhaseFOV": 100,
  "PercentSampling": 100,
  "PhaseEncodingDirection": "j-",
  "PhaseEncodingSteps": 82,
  "PhaseResolution": 1,
  "PixelBandwidth": 3050,
  "ProcedureStepDescription": "Wager_Wager^1076_spacetop",
  "ProtocolName": "func_run-01_task-social_acq-ap-mb8",
  "PulseSequenceDetails": "%CustomerSeq%\\cmrr_mbep2d_bold",
  "ReceiveCoilActiveElements": "HEA;HEP",
  "ReceiveCoilName": "Head_32",
  "ReconMatrixPE": 82,
  "RepetitionTime": 0.46,
  "SAR": 0.0750248,
  "ScanOptions": "FS",
  "ScanningSequence": "EP",
  "SequenceName": "epfid2d1_82",
  "SequenceVariant": "SK\\SS",
  "SeriesDescription": "func_run-01_task-social_acq-ap-mb8",
  "SeriesNumber": 12,
  "ShimSetting": [4206, -7743, -7258, 264, -92, 140, 121, 104],
  "SliceThickness": 2.7,
  "SliceTiming": [0, 0.25, 0.0625, 0.315, 0.125, 0.3775, 0.1875, 0, 0.25, 0.0625, 0.315, 0.125, 0.3775, 0.1875, 0, 0.25, 0.0625, 0.315, 0.125, 0.3775, 0.1875, 0, 0.25, 0.0625, 0.315, 0.125, 0.3775, 0.1875, 0, 0.25, 0.0625, 0.315, 0.125, 0.3775, 0.1875, 0, 0.25, 0.0625, 0.315, 0.125, 0.3775, 0.1875, 0, 0.25, 0.0625, 0.315, 0.125, 0.3775, 0.1875, 0, 0.25, 0.0625, 0.315, 0.125, 0.3775, 0.1875],
  "SoftwareVersions": "syngo MR E11",
  "SpacingBetweenSlices": 2.7,
  "StationName": "AWP66112",
  "TaskName": "social",
  "TotalReadoutTime": 0.03969,
  "TxRefAmp": 219.974,
  "WipMemBlock": "f9f917d6-d862-43b2-a3ae-05ad3ba85ee5||Sequence: R016 ve11e/master r/434b28f1; Aug  7 2019 18:53:46 by eja",
  "dcmmeta_affine": [
    [-2.679556131362915, 0.06501895189285278, -0.11842966824769974, 109.1294174194336],
    [0.05579505115747452, 2.6743364334106445, 0.20845991373062134, -100.5362548828125],
    [-0.12232393026351929, -0.20443414151668549, 2.6893343925476074, -59.7269172668457],
    [0.0, 0.0, 0.0, 1.0]
],
  "dcmmeta_reorient_transform": [
    [0.0, -1.0, 0.0, 81.0],
    [1.0, 0.0, 0.0, 0.0],
    [0.0, 0.0, 1.0, 0.0],
    [0.0, 0.0, 0.0, 1.0]
],
  "dcmmeta_shape": [82, 82, 56, 872],
  "dcmmeta_slice_dim": 2,
  "dcmmeta_version": 0.6,
  "global": {
    "const": {
      "AccessionNumber": "A004469",
      "AcquisitionMatrix": [82, 0, 0, 82],
      "AngioFlag": "N",
      "BitsAllocated": 16,
      "BitsStored": 16,
      "BodyPartExamined": "BRAIN",
      "Columns": 656,
      "EchoNumbers": 1,
      "EchoTime": 27.2,
      "EchoTrainLength": 82,
      "FlipAngle": 44.0,
      "HighBit": 15,
      "ImageOrientationPatient": [0.99874358489275, -0.0207963360617, -0.0455934649044, 0.02423433656679, 0.99679814119011, 0.07619818010366],
      "ImagePositionPatient": [-902.08896895999, -867.60641100754, -99.85171331088],
      "ImageType": [
        "ORIGINAL",
        "PRIMARY",
        "M",
        "MB",
        "ND",
        "NORM",
        "MOSAIC"
],
      "ImagedNucleus": "1H",
      "ImagingFrequency": 123.259108,
      "InPlanePhaseEncodingDirection": "COL",
      "MRAcquisitionType": "2D",
      "MagneticFieldStrength": 3.0,
      "Manufacturer": "SIEMENS",
      "ManufacturerModelName": "Prisma",
      "Modality": "MR",
      "NumberOfAverages": 1.0,
      "NumberOfPhaseEncodingSteps": 82,
      "PercentPhaseFieldOfView": 100.0,
      "PercentSampling": 100.0,
      "PerformedProcedureStepStartTime": "141415.783000",
      "PhotometricInterpretation": "MONOCHROME2",
      "PixelBandwidth": 3050.0,
      "PixelRepresentation": 0,
      "PixelSpacing": [2.6829268932343, 2.6829268932343],
      "ProtocolName": "func_run-01_task-social_acq-ap-mb8",
      "RepetitionTime": 460.0,
      "Rows": 656,
      "SAR": 0.07502483036809,
      "SamplesPerPixel": 1,
      "ScanOptions": "FS",
      "ScanningSequence": "EP",
      "SequenceName": "epfid2d1_82",
      "SequenceVariant": [
        "SK",
        "SS"
],
      "SeriesDescription": "func_run-01_task-social_acq-ap-mb8",
      "SeriesNumber": 12,
      "SeriesTime": "150829.071000",
      "SliceLocation": -72.039844922891,
      "SliceThickness": 2.7000000476837,
      "SmallestImagePixelValue": 0,
      "SoftwareVersions": "syngo MR E11",
      "SpacingBetweenSlices": 2.700000099554,
      "SpecificCharacterSet": "ISO_IR 100",
      "StudyID": "1",
      "StudyTime": "141415.726000",
      "TransmitCoilName": "Body",
      "VariableFlipAngleFlag": "N",
      "WindowCenterWidthExplanation": "Algo1"
    },
    "slices": {}
  },
  "time": {
    "samples": {
      "AcquisitionNumber": [1, 2, 3, 4, 5, 6, 7, 8, 9, 10, 11, 12, 13, 14, 15, 16, 17, 18, 19, 20, 21, 22, 23, 24, 25, 26, 27, 28, 29, 30, 31, 32, 33, 34, 35, 36, 37, 38, 39, 40, 41, 42, 43, 44, 45, 46, 47, 48, 49, 50, 51, 52, 53, 54, 55, 56, 57, 58, 59, 60, 61, 62, 63, 64, 65, 66, 67, 68, 69, 70, 71, 72, 73, 74, 75, 76, 77, 78, 79, 80, 81, 82, 83, 84, 85, 86, 87, 88, 89, 90, 91, 92, 93, 94, 95, 96, 97, 98, 99, 100, 101, 102, 103, 104, 105, 106, 107, 108, 109, 110, 111, 112, 113, 114, 115, 116, 117, 118, 119, 120, 121, 122, 123, 124, 125, 126, 127, 128, 129, 130, 131, 132, 133, 134, 135, 136, 137, 138, 139, 140, 141, 142, 143, 144, 145, 146, 147, 148, 149, 150, 151, 152, 153, 154, 155, 156, 157, 158, 159, 160, 161, 162, 163, 164, 165, 166, 167, 168, 169, 170, 171, 172, 173, 174, 175, 176, 177, 178, 179, 180, 181, 182, 183, 184, 185, 186, 187, 188, 189, 190, 191, 192, 193, 194, 195, 196, 197, 198, 199, 200, 201, 202, 203, 204, 205, 206, 207, 208, 209, 210, 211, 212, 213, 214, 215, 216, 217, 218, 219, 220, 221, 222, 223, 224, 225, 226, 227, 228, 229, 230, 231, 232, 233, 234, 235, 236, 237, 238, 239, 240, 241, 242, 243, 244, 245, 246, 247, 248, 249, 250, 251, 252, 253, 254, 255, 256, 257, 258, 259, 260, 261, 262, 263, 264, 265, 266, 267, 268, 269, 270, 271, 272, 273, 274, 275, 276, 277, 278, 279, 280, 281, 282, 283, 284, 285, 286, 287, 288, 289, 290, 291, 292, 293, 294, 295, 296, 297, 298, 299, 300, 301, 302, 303, 304, 305, 306, 307, 308, 309, 310, 311, 312, 313, 314, 315, 316, 317, 318, 319, 320, 321, 322, 323, 324, 325, 326, 327, 328, 329, 330, 331, 332, 333, 334, 335, 336, 337, 338, 339, 340, 341, 342, 343, 344, 345, 346, 347, 348, 349, 350, 351, 352, 353, 354, 355, 356, 357, 358, 359, 360, 361, 362, 363, 364, 365, 366, 367, 368, 369, 370, 371, 372, 373, 374, 375, 376, 377, 378, 379, 380, 381, 382, 383, 384, 385, 386, 387, 388, 389, 390, 391, 392, 393, 394, 395, 396, 397, 398, 399, 400, 401, 402, 403, 404, 405, 406, 407, 408, 409, 410, 411, 412, 413, 414, 415, 416, 417, 418, 419, 420, 421, 422, 423, 424, 425, 426, 427, 428, 429, 430, 431, 432, 433, 434, 435, 436, 437, 438, 439, 440, 441, 442, 443, 444, 445, 446, 447, 448, 449, 450, 451, 452, 453, 454, 455, 456, 457, 458, 459, 460, 461, 462, 463, 464, 465, 466, 467, 468, 469, 470, 471, 472, 473, 474, 475, 476, 477, 478, 479, 480, 481, 482, 483, 484, 485, 486, 487, 488, 489, 490, 491, 492, 493, 494, 495, 496, 497, 498, 499, 500, 501, 502, 503, 504, 505, 506, 507, 508, 509, 510, 511, 512, 513, 514, 515, 516, 517, 518, 519, 520, 521, 522, 523, 524, 525, 526, 527, 528, 529, 530, 531, 532, 533, 534, 535, 536, 537, 538, 539, 540, 541, 542, 543, 544, 545, 546, 547, 548, 549, 550, 551, 552, 553, 554, 555, 556, 557, 558, 559, 560, 561, 562, 563, 564, 565, 566, 567, 568, 569, 570, 571, 572, 573, 574, 575, 576, 577, 578, 579, 580, 581, 582, 583, 584, 585, 586, 587, 588, 589, 590, 591, 592, 593, 594, 595, 596, 597, 598, 599, 600, 601, 602, 603, 604, 605, 606, 607, 608, 609, 610, 611, 612, 613, 614, 615, 616, 617, 618, 619, 620, 621, 622, 623, 624, 625, 626, 627, 628, 629, 630, 631, 632, 633, 634, 635, 636, 637, 638, 639, 640, 641, 642, 643, 644, 645, 646, 647, 648, 649, 650, 651, 652, 653, 654, 655, 656, 657, 658, 659, 660, 661, 662, 663, 664, 665, 666, 667, 668, 669, 670, 671, 672, 673, 674, 675, 676, 677, 678, 679, 680, 681, 682, 683, 684, 685, 686, 687, 688, 689, 690, 691, 692, 693, 694, 695, 696, 697, 698, 699, 700, 701, 702, 703, 704, 705, 706, 707, 708, 709, 710, 711, 712, 713, 714, 715, 716, 717, 718, 719, 720, 721, 722, 723, 724, 725, 726, 727, 728, 729, 730, 731, 732, 733, 734, 735, 736, 737, 738, 739, 740, 741, 742, 743, 744, 745, 746, 747, 748, 749, 750, 751, 752, 753, 754, 755, 756, 757, 758, 759, 760, 761, 762, 763, 764, 765, 766, 767, 768, 769, 770, 771, 772, 773, 774, 775, 776, 777, 778, 779, 780, 781, 782, 783, 784, 785, 786, 787, 788, 789, 790, 791, 792, 793, 794, 795, 796, 797, 798, 799, 800, 801, 802, 803, 804, 805, 806, 807, 808, 809, 810, 811, 812, 813, 814, 815, 816, 817, 818, 819, 820, 821, 822, 823, 824, 825, 826, 827, 828, 829, 830, 831, 832, 833, 834, 835, 836, 837, 838, 839, 840, 841, 842, 843, 844, 845, 846, 847, 848, 849, 850, 851, 852, 853, 854, 855, 856, 857, 858, 859, 860, 861, 862, 863, 864, 865, 866, 867, 868, 869, 870, 871, 872],
      "AcquisitionTime": ["150810.977500", "150811.437500", "150811.897500", "150812.357500", "150812.817500", "150813.277500", "150813.737500", "150814.197500", "150814.657500", "150815.117500", "150815.577500", "150816.037500", "150816.497500", "150816.957500", "150817.417500", "150817.877500", "150818.337500", "150818.797500", "150819.257500", "150819.717500", "150820.177500", "150820.637500", "150821.097500", "150821.557500", "150822.017500", "150822.477500", "150822.937500", "150823.397500", "150823.857500", "150824.317500", "150824.777500", "150825.237500", "150825.697500", "150826.157500", "150826.617500", "150827.077500", "150827.537500", "150827.997500", "150828.457500", "150828.917500", "150829.377500", "150829.837500", "150830.297500", "150830.757500", "150831.217500", "150831.677500", "150832.137500", "150832.597500", "150833.057500", "150833.517500", "150833.977500", "150834.437500", "150834.897500", "150835.357500", "150835.817500", "150836.277500", "150836.737500", "150837.197500", "150837.657500", "150838.117500", "150838.577500", "150839.037500", "150839.497500", "150839.957500", "150840.417500", "150840.877500", "150841.337500", "150841.797500", "150842.257500", "150842.717500", "150843.177500", "150843.637500", "150844.097500", "150844.557500", "150845.017500", "150845.477500", "150845.937500", "150846.397500", "150846.857500", "150847.317500", "150847.777500", "150848.237500", "150848.697500", "150849.157500", "150849.617500", "150850.077500", "150850.537500", "150850.997500", "150851.457500", "150851.917500", "150852.377500", "150852.837500", "150853.297500", "150853.757500", "150854.217500", "150854.677500", "150855.137500", "150855.597500", "150856.057500", "150856.517500", "150856.977500", "150857.437500", "150857.897500", "150858.357500", "150858.817500", "150859.277500", "150859.737500", "150900.197500", "150900.657500", "150901.117500", "150901.577500", "150902.037500", "150902.497500", "150902.957500", "150903.417500", "150903.877500", "150904.337500", "150904.797500", "150905.257500", "150905.717500", "150906.177500", "150906.637500", "150907.097500", "150907.557500", "150908.017500", "150908.477500", "150908.937500", "150909.397500", "150909.857500", "150910.317500", "150910.777500", "150911.237500", "150911.697500", "150912.157500", "150912.617500", "150913.077500", "150913.537500", "150913.997500", "150914.457500", "150914.917500", "150915.377500", "150915.837500", "150916.297500", "150916.757500", "150917.217500", "150917.677500", "150918.137500", "150918.597500", "150919.057500", "150919.517500", "150919.977500", "150920.437500", "150920.897500", "150921.357500", "150921.817500", "150922.277500", "150922.737500", "150923.197500", "150923.657500", "150924.117500", "150924.577500", "150925.037500", "150925.497500", "150925.957500", "150926.417500", "150926.877500", "150927.337500", "150927.797500", "150928.257500", "150928.717500", "150929.177500", "150929.637500", "150930.097500", "150930.557500", "150931.017500", "150931.477500", "150931.937500", "150932.397500", "150932.857500", "150933.317500", "150933.777500", "150934.237500", "150934.697500", "150935.157500", "150935.617500", "150936.077500", "150936.537500", "150936.997500", "150937.457500", "150937.917500", "150938.377500", "150938.837500", "150939.297500", "150939.757500", "150940.217500", "150940.677500", "150941.137500", "150941.597500", "150942.057500", "150942.517500", "150942.977500", "150943.437500", "150943.897500", "150944.357500", "150944.817500", "150945.277500", "150945.737500", "150946.197500", "150946.657500", "150947.117500", "150947.577500", "150948.037500", "150948.497500", "150948.957500", "150949.417500", "150949.877500", "150950.337500", "150950.797500", "150951.257500", "150951.717500", "150952.177500", "150952.637500", "150953.097500", "150953.557500", "150954.017500", "150954.477500", "150954.937500", "150955.397500", "150955.857500", "150956.317500", "150956.777500", "150957.237500", "150957.697500", "150958.157500", "150958.617500", "150959.077500", "150959.537500", "150959.997500", "151000.457500", "151000.917500", "151001.377500", "151001.837500", "151002.297500", "151002.757500", "151003.217500", "151003.677500", "151004.137500", "151004.597500", "151005.057500", "151005.517500", "151005.977500", "151006.437500", "151006.897500", "151007.357500", "151007.817500", "151008.277500", "151008.737500", "151009.197500", "151009.657500", "151010.117500", "151010.577500", "151011.037500", "151011.497500", "151011.957500", "151012.417500", "151012.877500", "151013.337500", "151013.797500", "151014.257500", "151014.717500", "151015.177500", "151015.637500", "151016.097500", "151016.557500", "151017.017500", "151017.477500", "151017.937500", "151018.397500", "151018.857500", "151019.317500", "151019.777500", "151020.237500", "151020.697500", "151021.157500", "151021.617500", "151022.077500", "151022.537500", "151022.997500", "151023.457500", "151023.917500", "151024.377500", "151024.837500", "151025.297500", "151025.757500", "151026.217500", "151026.677500", "151027.137500", "151027.597500", "151028.057500", "151028.517500", "151028.977500", "151029.437500", "151029.897500", "151030.357500", "151030.817500", "151031.277500", "151031.737500", "151032.197500", "151032.657500", "151033.117500", "151033.577500", "151034.037500", "151034.497500", "151034.957500", "151035.417500", "151035.877500", "151036.337500", "151036.797500", "151037.257500", "151037.717500", "151038.177500", "151038.637500", "151039.097500", "151039.557500", "151040.017500", "151040.477500", "151040.937500", "151041.397500", "151041.857500", "151042.317500", "151042.777500", "151043.237500", "151043.697500", "151044.157500", "151044.617500", "151045.077500", "151045.537500", "151045.997500", "151046.457500", "151046.917500", "151047.377500", "151047.837500", "151048.297500", "151048.757500", "151049.217500", "151049.677500", "151050.137500", "151050.597500", "151051.057500", "151051.517500", "151051.977500", "151052.437500", "151052.897500", "151053.357500", "151053.817500", "151054.277500", "151054.737500", "151055.197500", "151055.657500", "151056.117500", "151056.577500", "151057.037500", "151057.497500", "151057.957500", "151058.417500", "151058.877500", "151059.337500", "151059.797500", "151100.257500", "151100.717500", "151101.177500", "151101.637500", "151102.097500", "151102.557500", "151103.017500", "151103.477500", "151103.937500", "151104.397500", "151104.857500", "151105.317500", "151105.777500", "151106.237500", "151106.697500", "151107.157500", "151107.617500", "151108.077500", "151108.537500", "151108.997500", "151109.457500", "151109.917500", "151110.377500", "151110.837500", "151111.297500", "151111.757500", "151112.217500", "151112.677500", "151113.137500", "151113.597500", "151114.057500", "151114.517500", "151114.977500", "151115.437500", "151115.897500", "151116.357500", "151116.817500", "151117.277500", "151117.737500", "151118.197500", "151118.657500", "151119.117500", "151119.577500", "151120.037500", "151120.497500", "151120.957500", "151121.417500", "151121.877500", "151122.337500", "151122.797500", "151123.257500", "151123.717500", "151124.177500", "151124.637500", "151125.097500", "151125.557500", "151126.017500", "151126.477500", "151126.937500", "151127.397500", "151127.857500", "151128.317500", "151128.777500", "151129.237500", "151129.697500", "151130.157500", "151130.617500", "151131.077500", "151131.537500", "151131.997500", "151132.457500", "151132.917500", "151133.377500", "151133.837500", "151134.297500", "151134.757500", "151135.217500", "151135.677500", "151136.137500", "151136.597500", "151137.057500", "151137.517500", "151137.977500", "151138.437500", "151138.897500", "151139.357500", "151139.817500", "151140.277500", "151140.737500", "151141.197500", "151141.657500", "151142.117500", "151142.577500", "151143.037500", "151143.497500", "151143.957500", "151144.417500", "151144.877500", "151145.337500", "151145.797500", "151146.257500", "151146.717500", "151147.177500", "151147.637500", "151148.097500", "151148.557500", "151149.017500", "151149.477500", "151149.937500", "151150.397500", "151150.857500", "151151.317500", "151151.777500", "151152.237500", "151152.697500", "151153.157500", "151153.617500", "151154.077500", "151154.537500", "151154.997500", "151155.457500", "151155.917500", "151156.377500", "151156.837500", "151157.297500", "151157.757500", "151158.217500", "151158.677500", "151159.137500", "151159.597500", "151200.057500", "151200.517500", "151200.977500", "151201.437500", "151201.897500", "151202.357500", "151202.817500", "151203.277500", "151203.737500", "151204.197500", "151204.657500", "151205.117500", "151205.577500", "151206.037500", "151206.497500", "151206.957500", "151207.417500", "151207.877500", "151208.337500", "151208.797500", "151209.257500", "151209.717500", "151210.177500", "151210.637500", "151211.097500", "151211.557500", "151212.017500", "151212.477500", "151212.937500", "151213.397500", "151213.857500", "151214.317500", "151214.777500", "151215.237500", "151215.697500", "151216.157500", "151216.617500", "151217.077500", "151217.537500", "151217.997500", "151218.457500", "151218.917500", "151219.377500", "151219.837500", "151220.297500", "151220.757500", "151221.217500", "151221.677500", "151222.137500", "151222.597500", "151223.057500", "151223.517500", "151223.977500", "151224.437500", "151224.897500", "151225.357500", "151225.817500", "151226.277500", "151226.737500", "151227.197500", "151227.657500", "151228.117500", "151228.577500", "151229.037500", "151229.497500", "151229.957500", "151230.417500", "151230.877500", "151231.337500", "151231.797500", "151232.257500", "151232.717500", "151233.177500", "151233.637500", "151234.097500", "151234.557500", "151235.017500", "151235.477500", "151235.937500", "151236.397500", "151236.857500", "151237.317500", "151237.777500", "151238.237500", "151238.697500", "151239.157500", "151239.617500", "151240.077500", "151240.537500", "151240.997500", "151241.457500", "151241.917500", "151242.377500", "151242.837500", "151243.297500", "151243.757500", "151244.217500", "151244.677500", "151245.137500", "151245.597500", "151246.057500", "151246.517500", "151246.977500", "151247.437500", "151247.897500", "151248.357500", "151248.817500", "151249.277500", "151249.737500", "151250.197500", "151250.657500", "151251.117500", "151251.577500", "151252.037500", "151252.497500", "151252.957500", "151253.417500", "151253.877500", "151254.337500", "151254.797500", "151255.257500", "151255.717500", "151256.177500", "151256.637500", "151257.097500", "151257.557500", "151258.017500", "151258.477500", "151258.937500", "151259.397500", "151259.857500", "151300.317500", "151300.777500", "151301.237500", "151301.697500", "151302.157500", "151302.617500", "151303.077500", "151303.537500", "151303.997500", "151304.457500", "151304.917500", "151305.377500", "151305.837500", "151306.297500", "151306.757500", "151307.217500", "151307.677500", "151308.137500", "151308.597500", "151309.057500", "151309.517500", "151309.977500", "151310.437500", "151310.897500", "151311.357500", "151311.817500", "151312.277500", "151312.737500", "151313.197500", "151313.657500", "151314.117500", "151314.577500", "151315.037500", "151315.497500", "151315.957500", "151316.417500", "151316.877500", "151317.337500", "151317.797500", "151318.257500", "151318.717500", "151319.177500", "151319.637500", "151320.097500", "151320.557500", "151321.017500", "151321.477500", "151321.937500", "151322.397500", "151322.857500", "151323.317500", "151323.777500", "151324.237500", "151324.697500", "151325.157500", "151325.617500", "151326.077500", "151326.537500", "151326.997500", "151327.457500", "151327.917500", "151328.377500", "151328.837500", "151329.297500", "151329.757500", "151330.217500", "151330.677500", "151331.137500", "151331.597500", "151332.057500", "151332.517500", "151332.977500", "151333.437500", "151333.897500", "151334.357500", "151334.817500", "151335.277500", "151335.737500", "151336.197500", "151336.657500", "151337.117500", "151337.577500", "151338.037500", "151338.497500", "151338.957500", "151339.417500", "151339.877500", "151340.337500", "151340.797500", "151341.257500", "151341.717500", "151342.177500", "151342.637500", "151343.097500", "151343.557500", "151344.017500", "151344.477500", "151344.937500", "151345.397500", "151345.857500", "151346.317500", "151346.777500", "151347.237500", "151347.697500", "151348.157500", "151348.617500", "151349.077500", "151349.537500", "151349.997500", "151350.457500", "151350.917500", "151351.377500", "151351.837500", "151352.297500", "151352.757500", "151353.217500", "151353.677500", "151354.137500", "151354.597500", "151355.057500", "151355.517500", "151355.977500", "151356.437500", "151356.897500", "151357.357500", "151357.817500", "151358.277500", "151358.737500", "151359.197500", "151359.657500", "151400.117500", "151400.577500", "151401.037500", "151401.497500", "151401.957500", "151402.417500", "151402.877500", "151403.337500", "151403.797500", "151404.257500", "151404.717500", "151405.177500", "151405.637500", "151406.097500", "151406.557500", "151407.017500", "151407.477500", "151407.937500", "151408.397500", "151408.857500", "151409.317500", "151409.777500", "151410.237500", "151410.697500", "151411.157500", "151411.617500", "151412.077500", "151412.537500", "151412.997500", "151413.457500", "151413.917500", "151414.377500", "151414.837500", "151415.297500", "151415.757500", "151416.217500", "151416.677500", "151417.137500", "151417.597500", "151418.057500", "151418.517500", "151418.977500", "151419.437500", "151419.897500", "151420.357500", "151420.817500", "151421.277500", "151421.737500", "151422.197500", "151422.657500", "151423.117500", "151423.577500", "151424.037500", "151424.497500", "151424.957500", "151425.417500", "151425.877500", "151426.337500", "151426.797500", "151427.257500", "151427.717500", "151428.177500", "151428.637500", "151429.097500", "151429.557500", "151430.017500", "151430.477500", "151430.937500", "151431.397500", "151431.857500", "151432.317500", "151432.777500", "151433.237500", "151433.697500", "151434.157500", "151434.617500", "151435.077500", "151435.537500", "151435.997500", "151436.457500", "151436.917500", "151437.377500", "151437.837500", "151438.297500", "151438.757500", "151439.217500", "151439.677500", "151440.137500", "151440.597500", "151441.057500", "151441.517500", "151441.977500", "151442.437500", "151442.897500", "151443.357500", "151443.817500", "151444.277500", "151444.737500", "151445.197500", "151445.657500", "151446.117500", "151446.577500", "151447.037500", "151447.497500", "151447.957500", "151448.417500", "151448.877500", "151449.337500", "151449.797500", "151450.257500", "151450.717500", "151451.177500", "151451.637500"],
