{
  "AcquisitionMatrixPE": 82,
  "AcquisitionNumber": 1,
  "AcquisitionTime": "17:54:47.510000",
  "BandwidthPerPixelPhaseEncode": 24.888,
  "BaseResolution": 82,
  "BodyPartExamined": "BRAIN",
  "ConsistencyInfo": "N4_VE11C_LATEST_20160120",
  "ConversionSoftware": "dcm2niix",
  "ConversionSoftwareVersion": "v1.0.20201102",
  "DerivedVendorReportedEchoSpacing": 0.00049,
  "DeviceSerialNumber": "66112",
  "DwellTime": 2e-06,
  "EchoTime": 0.0272,
  "EchoTrainLength": 82,
  "EffectiveEchoSpacing": 0.00049,
  "FlipAngle": 44,
  "ImageComments": "Unaliased MB8/PE3",
  "ImageOrientationPatientDICOM": [0.999952, -0.000748617, 0.0097863, 0.00261787, 0.981308, -0.192424],
  "ImageType": [
    "ORIGINAL",
    "PRIMARY",
    "M",
    "MB",
    "ND",
    "NORM",
    "MOSAIC"
],
  "ImagingFrequency": 123.252,
  "InPlanePhaseEncodingDirectionDICOM": "COL",
  "InstitutionAddress": "Maynard 3,Hanover,NH,US,03755",
  "InstitutionName": "Dartmouth College - PBS",
  "InstitutionalDepartmentName": "Department",
  "MRAcquisitionType": "2D",
  "MagneticFieldStrength": 3,
  "Manufacturer": "Siemens",
  "ManufacturersModelName": "Prisma",
  "Modality": "MR",
  "MultibandAccelerationFactor": 8,
  "PartialFourier": 1,
  "PatientPosition": "HFS",
  "PercentPhaseFOV": 100,
  "PercentSampling": 100,
  "PhaseEncodingDirection": "j-",
  "PhaseEncodingSteps": 82,
  "PhaseResolution": 1,
  "PixelBandwidth": 3050,
  "ProcedureStepDescription": "Wager_Wager^1076_spacetop",
  "ProtocolName": "func_run-04_task-social_acq-ap-mb8",
  "PulseSequenceDetails": "%CustomerSeq%\\cmrr_mbep2d_bold",
  "ReceiveCoilActiveElements": "HEA;HEP",
  "ReceiveCoilName": "Head_32",
  "ReconMatrixPE": 82,
  "RepetitionTime": 0.46,
  "SAR": 0.0942942,
  "ScanOptions": "FS",
  "ScanningSequence": "EP",
  "SequenceName": "epfid2d1_82",
  "SequenceVariant": "SK\\SS",
  "SeriesDescription": "func_run-04_task-social_acq-ap-mb8",
  "SeriesNumber": 18,
  "ShimSetting": [4156, -7746, -7246, 498, 1, -125, -149, 56],
  "SliceThickness": 2.7,
  "SliceTiming": [0, 0.2525, 0.0625, 0.315, 0.125, 0.3775, 0.1875, 0, 0.2525, 0.0625, 0.315, 0.125, 0.3775, 0.1875, 0, 0.2525, 0.0625, 0.315, 0.125, 0.3775, 0.1875, 0, 0.2525, 0.0625, 0.315, 0.125, 0.3775, 0.1875, 0, 0.2525, 0.0625, 0.315, 0.125, 0.3775, 0.1875, 0, 0.2525, 0.0625, 0.315, 0.125, 0.3775, 0.1875, 0, 0.2525, 0.0625, 0.315, 0.125, 0.3775, 0.1875, 0, 0.2525, 0.0625, 0.315, 0.125, 0.3775, 0.1875],
  "SoftwareVersions": "syngo MR E11",
  "SpacingBetweenSlices": 2.7,
  "StationName": "AWP66112",
  "TaskName": "social",
  "TotalReadoutTime": 0.03969,
  "TxRefAmp": 241.249,
  "WipMemBlock": "2fdfdbac-41cf-4ec7-a724-a68f78c40723||Sequence: R016 ve11c/master r/e634e98; Dec 19 2017 11:00:25 by eja",
  "dcmmeta_affine": [
    [-2.68279767036438, 0.007023553363978863, 0.0255401860922575, 111.82290649414062],
    [0.0020084844436496496, 2.6327786445617676, -0.5195890069007874, -83.42504119873047],
    [0.026255933567881584, 0.5162596106529236, 2.6494102478027344, -85.66094970703125],
    [0.0, 0.0, 0.0, 1.0]
],
  "dcmmeta_reorient_transform": [
    [0.0, -1.0, 0.0, 81.0],
    [1.0, 0.0, 0.0, 0.0],
    [0.0, 0.0, 1.0, 0.0],
    [0.0, 0.0, 0.0, 1.0]
],
  "dcmmeta_shape": [82, 82, 56, 872],
  "dcmmeta_slice_dim": 2,
  "dcmmeta_version": 0.6,
  "global": {
    "const": {
      "AccessionNumber": "A003652",
      "AcquisitionMatrix": [82, 0, 0, 82],
      "AngioFlag": "N",
      "BitsAllocated": 16,
      "BitsStored": 16,
      "BodyPartExamined": "BRAIN",
      "Columns": 656,
      "EchoNumbers": 1,
      "EchoTime": 27.2,
      "EchoTrainLength": 82,
      "FlipAngle": 44.0,
      "HighBit": 15,
      "ImageOrientationPatient": [0.99995183277282, -0.000748616896, 0.00978630200965, 0.00261786978386, 0.98130838177601, -0.1924240281616],
      "ImagePositionPatient": [-884.37050087284, -884.86106993564, 96.787132258445],
      "ImageType": [
        "ORIGINAL",
        "PRIMARY",
        "M",
        "MB",
        "ND",
        "NORM",
        "MOSAIC"
],
      "ImagedNucleus": "1H",
      "ImagingFrequency": 123.2522,
      "InPlanePhaseEncodingDirection": "COL",
      "MRAcquisitionType": "2D",
      "MagneticFieldStrength": 3.0,
      "Manufacturer": "SIEMENS",
      "ManufacturerModelName": "Prisma",
      "Modality": "MR",
      "NumberOfAverages": 1.0,
      "NumberOfPhaseEncodingSteps": 82,
      "PercentPhaseFieldOfView": 100.0,
      "PercentSampling": 100.0,
      "PerformedProcedureStepStartTime": "163834.146000",
      "PhotometricInterpretation": "MONOCHROME2",
      "PixelBandwidth": 3050.0,
      "PixelRepresentation": 0,
      "PixelSpacing": [2.6829268932343, 2.6829268932343],
      "ProtocolName": "func_run-04_task-social_acq-ap-mb8",
      "RepetitionTime": 460.0,
      "Rows": 656,
      "SAR": 0.09429415440236,
      "SamplesPerPixel": 1,
      "ScanOptions": "FS",
      "ScanningSequence": "EP",
      "SequenceName": "epfid2d1_82",
      "SequenceVariant": [
        "SK",
        "SS"
],
      "SeriesDescription": "func_run-04_task-social_acq-ap-mb8",
      "SeriesNumber": 18,
      "SeriesTime": "175500.468000",
      "SliceLocation": -66.943809664744,
      "SliceThickness": 2.7000000476837,
      "SmallestImagePixelValue": 0,
      "SoftwareVersions": "syngo MR E11",
      "SpacingBetweenSlices": 2.6999999461506,
      "SpecificCharacterSet": "ISO_IR 100",
      "StudyID": "2",
      "StudyTime": "163834.105000",
      "TransmitCoilName": "Body",
      "VariableFlipAngleFlag": "N",
      "WindowCenterWidthExplanation": "Algo1",
      "dBdt": 0.0},
    "slices": {}
  },
  "time": {
    "samples": {
      "AcquisitionNumber": [1, 2, 3, 4, 5, 6, 7, 8, 9, 10, 11, 12, 13, 14, 15, 16, 17, 18, 19, 20, 21, 22, 23, 24, 25, 26, 27, 28, 29, 30, 31, 32, 33, 34, 35, 36, 37, 38, 39, 40, 41, 42, 43, 44, 45, 46, 47, 48, 49, 50, 51, 52, 53, 54, 55, 56, 57, 58, 59, 60, 61, 62, 63, 64, 65, 66, 67, 68, 69, 70, 71, 72, 73, 74, 75, 76, 77, 78, 79, 80, 81, 82, 83, 84, 85, 86, 87, 88, 89, 90, 91, 92, 93, 94, 95, 96, 97, 98, 99, 100, 101, 102, 103, 104, 105, 106, 107, 108, 109, 110, 111, 112, 113, 114, 115, 116, 117, 118, 119, 120, 121, 122, 123, 124, 125, 126, 127, 128, 129, 130, 131, 132, 133, 134, 135, 136, 137, 138, 139, 140, 141, 142, 143, 144, 145, 146, 147, 148, 149, 150, 151, 152, 153, 154, 155, 156, 157, 158, 159, 160, 161, 162, 163, 164, 165, 166, 167, 168, 169, 170, 171, 172, 173, 174, 175, 176, 177, 178, 179, 180, 181, 182, 183, 184, 185, 186, 187, 188, 189, 190, 191, 192, 193, 194, 195, 196, 197, 198, 199, 200, 201, 202, 203, 204, 205, 206, 207, 208, 209, 210, 211, 212, 213, 214, 215, 216, 217, 218, 219, 220, 221, 222, 223, 224, 225, 226, 227, 228, 229, 230, 231, 232, 233, 234, 235, 236, 237, 238, 239, 240, 241, 242, 243, 244, 245, 246, 247, 248, 249, 250, 251, 252, 253, 254, 255, 256, 257, 258, 259, 260, 261, 262, 263, 264, 265, 266, 267, 268, 269, 270, 271, 272, 273, 274, 275, 276, 277, 278, 279, 280, 281, 282, 283, 284, 285, 286, 287, 288, 289, 290, 291, 292, 293, 294, 295, 296, 297, 298, 299, 300, 301, 302, 303, 304, 305, 306, 307, 308, 309, 310, 311, 312, 313, 314, 315, 316, 317, 318, 319, 320, 321, 322, 323, 324, 325, 326, 327, 328, 329, 330, 331, 332, 333, 334, 335, 336, 337, 338, 339, 340, 341, 342, 343, 344, 345, 346, 347, 348, 349, 350, 351, 352, 353, 354, 355, 356, 357, 358, 359, 360, 361, 362, 363, 364, 365, 366, 367, 368, 369, 370, 371, 372, 373, 374, 375, 376, 377, 378, 379, 380, 381, 382, 383, 384, 385, 386, 387, 388, 389, 390, 391, 392, 393, 394, 395, 396, 397, 398, 399, 400, 401, 402, 403, 404, 405, 406, 407, 408, 409, 410, 411, 412, 413, 414, 415, 416, 417, 418, 419, 420, 421, 422, 423, 424, 425, 426, 427, 428, 429, 430, 431, 432, 433, 434, 435, 436, 437, 438, 439, 440, 441, 442, 443, 444, 445, 446, 447, 448, 449, 450, 451, 452, 453, 454, 455, 456, 457, 458, 459, 460, 461, 462, 463, 464, 465, 466, 467, 468, 469, 470, 471, 472, 473, 474, 475, 476, 477, 478, 479, 480, 481, 482, 483, 484, 485, 486, 487, 488, 489, 490, 491, 492, 493, 494, 495, 496, 497, 498, 499, 500, 501, 502, 503, 504, 505, 506, 507, 508, 509, 510, 511, 512, 513, 514, 515, 516, 517, 518, 519, 520, 521, 522, 523, 524, 525, 526, 527, 528, 529, 530, 531, 532, 533, 534, 535, 536, 537, 538, 539, 540, 541, 542, 543, 544, 545, 546, 547, 548, 549, 550, 551, 552, 553, 554, 555, 556, 557, 558, 559, 560, 561, 562, 563, 564, 565, 566, 567, 568, 569, 570, 571, 572, 573, 574, 575, 576, 577, 578, 579, 580, 581, 582, 583, 584, 585, 586, 587, 588, 589, 590, 591, 592, 593, 594, 595, 596, 597, 598, 599, 600, 601, 602, 603, 604, 605, 606, 607, 608, 609, 610, 611, 612, 613, 614, 615, 616, 617, 618, 619, 620, 621, 622, 623, 624, 625, 626, 627, 628, 629, 630, 631, 632, 633, 634, 635, 636, 637, 638, 639, 640, 641, 642, 643, 644, 645, 646, 647, 648, 649, 650, 651, 652, 653, 654, 655, 656, 657, 658, 659, 660, 661, 662, 663, 664, 665, 666, 667, 668, 669, 670, 671, 672, 673, 674, 675, 676, 677, 678, 679, 680, 681, 682, 683, 684, 685, 686, 687, 688, 689, 690, 691, 692, 693, 694, 695, 696, 697, 698, 699, 700, 701, 702, 703, 704, 705, 706, 707, 708, 709, 710, 711, 712, 713, 714, 715, 716, 717, 718, 719, 720, 721, 722, 723, 724, 725, 726, 727, 728, 729, 730, 731, 732, 733, 734, 735, 736, 737, 738, 739, 740, 741, 742, 743, 744, 745, 746, 747, 748, 749, 750, 751, 752, 753, 754, 755, 756, 757, 758, 759, 760, 761, 762, 763, 764, 765, 766, 767, 768, 769, 770, 771, 772, 773, 774, 775, 776, 777, 778, 779, 780, 781, 782, 783, 784, 785, 786, 787, 788, 789, 790, 791, 792, 793, 794, 795, 796, 797, 798, 799, 800, 801, 802, 803, 804, 805, 806, 807, 808, 809, 810, 811, 812, 813, 814, 815, 816, 817, 818, 819, 820, 821, 822, 823, 824, 825, 826, 827, 828, 829, 830, 831, 832, 833, 834, 835, 836, 837, 838, 839, 840, 841, 842, 843, 844, 845, 846, 847, 848, 849, 850, 851, 852, 853, 854, 855, 856, 857, 858, 859, 860, 861, 862, 863, 864, 865, 866, 867, 868, 869, 870, 871, 872],
      "AcquisitionTime": ["175447.510000", "175447.970000", "175448.430000", "175448.890000", "175449.350000", "175449.810000", "175450.270000", "175450.730000", "175451.190000", "175451.650000", "175452.110000", "175452.570000", "175453.030000", "175453.490000", "175453.950000", "175454.410000", "175454.870000", "175455.330000", "175455.790000", "175456.250000", "175456.710000", "175457.170000", "175457.630000", "175458.090000", "175458.550000", "175459.010000", "175459.470000", "175459.930000", "175500.390000", "175500.850000", "175501.310000", "175501.770000", "175502.230000", "175502.690000", "175503.150000", "175503.610000", "175504.070000", "175504.530000", "175504.990000", "175505.450000", "175505.910000", "175506.370000", "175506.830000", "175507.290000", "175507.750000", "175508.210000", "175508.670000", "175509.130000", "175509.590000", "175510.050000", "175510.510000", "175510.970000", "175511.430000", "175511.890000", "175512.350000", "175512.810000", "175513.270000", "175513.730000", "175514.190000", "175514.650000", "175515.110000", "175515.570000", "175516.030000", "175516.490000", "175516.950000", "175517.410000", "175517.870000", "175518.330000", "175518.790000", "175519.250000", "175519.710000", "175520.170000", "175520.630000", "175521.090000", "175521.550000", "175522.010000", "175522.470000", "175522.930000", "175523.390000", "175523.850000", "175524.310000", "175524.770000", "175525.230000", "175525.690000", "175526.150000", "175526.610000", "175527.070000", "175527.530000", "175527.990000", "175528.450000", "175528.910000", "175529.370000", "175529.830000", "175530.290000", "175530.750000", "175531.210000", "175531.670000", "175532.130000", "175532.590000", "175533.050000", "175533.510000", "175533.970000", "175534.430000", "175534.890000", "175535.350000", "175535.810000", "175536.270000", "175536.730000", "175537.190000", "175537.650000", "175538.110000", "175538.570000", "175539.030000", "175539.490000", "175539.950000", "175540.410000", "175540.870000", "175541.330000", "175541.790000", "175542.250000", "175542.710000", "175543.170000", "175543.630000", "175544.090000", "175544.550000", "175545.010000", "175545.470000", "175545.930000", "175546.390000", "175546.850000", "175547.310000", "175547.770000", "175548.230000", "175548.690000", "175549.150000", "175549.610000", "175550.070000", "175550.530000", "175550.990000", "175551.450000", "175551.910000", "175552.370000", "175552.830000", "175553.290000", "175553.750000", "175554.210000", "175554.670000", "175555.130000", "175555.590000", "175556.050000", "175556.510000", "175556.970000", "175557.430000", "175557.890000", "175558.350000", "175558.810000", "175559.270000", "175559.730000", "175600.190000", "175600.650000", "175601.110000", "175601.570000", "175602.030000", "175602.490000", "175602.950000", "175603.410000", "175603.870000", "175604.330000", "175604.790000", "175605.250000", "175605.710000", "175606.170000", "175606.630000", "175607.090000", "175607.550000", "175608.010000", "175608.470000", "175608.930000", "175609.390000", "175609.850000", "175610.310000", "175610.770000", "175611.230000", "175611.690000", "175612.150000", "175612.610000", "175613.070000", "175613.530000", "175613.990000", "175614.450000", "175614.910000", "175615.370000", "175615.830000", "175616.290000", "175616.750000", "175617.210000", "175617.670000", "175618.130000", "175618.590000", "175619.050000", "175619.510000", "175619.970000", "175620.430000", "175620.890000", "175621.350000", "175621.810000", "175622.270000", "175622.730000", "175623.190000", "175623.650000", "175624.110000", "175624.570000", "175625.030000", "175625.490000", "175625.950000", "175626.410000", "175626.870000", "175627.330000", "175627.790000", "175628.250000", "175628.710000", "175629.170000", "175629.630000", "175630.090000", "175630.550000", "175631.010000", "175631.470000", "175631.930000", "175632.390000", "175632.850000", "175633.310000", "175633.770000", "175634.230000", "175634.690000", "175635.150000", "175635.610000", "175636.070000", "175636.530000", "175636.990000", "175637.450000", "175637.910000", "175638.370000", "175638.830000", "175639.290000", "175639.750000", "175640.210000", "175640.670000", "175641.130000", "175641.590000", "175642.050000", "175642.510000", "175642.970000", "175643.430000", "175643.890000", "175644.350000", "175644.810000", "175645.270000", "175645.730000", "175646.190000", "175646.650000", "175647.110000", "175647.570000", "175648.030000", "175648.490000", "175648.950000", "175649.410000", "175649.870000", "175650.330000", "175650.790000", "175651.250000", "175651.710000", "175652.170000", "175652.630000", "175653.090000", "175653.550000", "175654.010000", "175654.470000", "175654.930000", "175655.390000", "175655.850000", "175656.310000", "175656.770000", "175657.230000", "175657.690000", "175658.150000", "175658.610000", "175659.070000", "175659.530000", "175659.990000", "175700.450000", "175700.910000", "175701.370000", "175701.830000", "175702.290000", "175702.750000", "175703.210000", "175703.670000", "175704.130000", "175704.590000", "175705.050000", "175705.510000", "175705.970000", "175706.430000", "175706.890000", "175707.350000", "175707.810000", "175708.270000", "175708.730000", "175709.190000", "175709.650000", "175710.110000", "175710.570000", "175711.030000", "175711.490000", "175711.950000", "175712.410000", "175712.870000", "175713.330000", "175713.790000", "175714.250000", "175714.710000", "175715.170000", "175715.630000", "175716.090000", "175716.550000", "175717.010000", "175717.470000", "175717.930000", "175718.390000", "175718.850000", "175719.310000", "175719.770000", "175720.230000", "175720.690000", "175721.150000", "175721.610000", "175722.070000", "175722.530000", "175722.990000", "175723.450000", "175723.910000", "175724.370000", "175724.830000", "175725.290000", "175725.750000", "175726.210000", "175726.670000", "175727.130000", "175727.590000", "175728.050000", "175728.510000", "175728.970000", "175729.430000", "175729.890000", "175730.350000", "175730.810000", "175731.270000", "175731.730000", "175732.190000", "175732.650000", "175733.110000", "175733.570000", "175734.030000", "175734.490000", "175734.950000", "175735.410000", "175735.870000", "175736.330000", "175736.790000", "175737.250000", "175737.710000", "175738.170000", "175738.630000", "175739.090000", "175739.550000", "175740.010000", "175740.470000", "175740.930000", "175741.390000", "175741.850000", "175742.310000", "175742.770000", "175743.230000", "175743.690000", "175744.150000", "175744.610000", "175745.070000", "175745.530000", "175745.990000", "175746.450000", "175746.910000", "175747.370000", "175747.830000", "175748.290000", "175748.750000", "175749.210000", "175749.670000", "175750.130000", "175750.590000", "175751.050000", "175751.510000", "175751.970000", "175752.430000", "175752.890000", "175753.350000", "175753.810000", "175754.270000", "175754.730000", "175755.190000", "175755.650000", "175756.110000", "175756.570000", "175757.030000", "175757.490000", "175757.950000", "175758.410000", "175758.870000", "175759.330000", "175759.790000", "175800.250000", "175800.710000", "175801.170000", "175801.630000", "175802.090000", "175802.550000", "175803.010000", "175803.470000", "175803.930000", "175804.390000", "175804.850000", "175805.310000", "175805.770000", "175806.230000", "175806.690000", "175807.150000", "175807.610000", "175808.070000", "175808.530000", "175808.990000", "175809.450000", "175809.910000", "175810.370000", "175810.830000", "175811.290000", "175811.750000", "175812.210000", "175812.670000", "175813.130000", "175813.590000", "175814.050000", "175814.510000", "175814.970000", "175815.430000", "175815.890000", "175816.350000", "175816.810000", "175817.270000", "175817.730000", "175818.190000", "175818.650000", "175819.110000", "175819.570000", "175820.030000", "175820.490000", "175820.950000", "175821.410000", "175821.870000", "175822.330000", "175822.790000", "175823.250000", "175823.710000", "175824.170000", "175824.630000", "175825.090000", "175825.550000", "175826.010000", "175826.470000", "175826.930000", "175827.390000", "175827.850000", "175828.310000", "175828.770000", "175829.230000", "175829.690000", "175830.150000", "175830.610000", "175831.070000", "175831.530000", "175831.990000", "175832.450000", "175832.910000", "175833.370000", "175833.830000", "175834.290000", "175834.750000", "175835.210000", "175835.670000", "175836.130000", "175836.590000", "175837.050000", "175837.510000", "175837.970000", "175838.430000", "175838.890000", "175839.350000", "175839.810000", "175840.270000", "175840.730000", "175841.190000", "175841.650000", "175842.110000", "175842.570000", "175843.030000", "175843.490000", "175843.950000", "175844.410000", "175844.870000", "175845.330000", "175845.790000", "175846.250000", "175846.710000", "175847.170000", "175847.630000", "175848.090000", "175848.550000", "175849.010000", "175849.470000", "175849.930000", "175850.390000", "175850.850000", "175851.310000", "175851.770000", "175852.230000", "175852.690000", "175853.150000", "175853.610000", "175854.070000", "175854.530000", "175854.990000", "175855.450000", "175855.910000", "175856.370000", "175856.830000", "175857.290000", "175857.750000", "175858.210000", "175858.670000", "175859.130000", "175859.590000", "175900.050000", "175900.510000", "175900.970000", "175901.430000", "175901.890000", "175902.350000", "175902.810000", "175903.270000", "175903.730000", "175904.190000", "175904.650000", "175905.110000", "175905.570000", "175906.030000", "175906.490000", "175906.950000", "175907.410000", "175907.870000", "175908.330000", "175908.790000", "175909.250000", "175909.710000", "175910.170000", "175910.630000", "175911.090000", "175911.550000", "175912.010000", "175912.470000", "175912.930000", "175913.390000", "175913.850000", "175914.310000", "175914.770000", "175915.230000", "175915.690000", "175916.150000", "175916.610000", "175917.070000", "175917.530000", "175917.990000", "175918.450000", "175918.910000", "175919.370000", "175919.830000", "175920.290000", "175920.750000", "175921.210000", "175921.670000", "175922.130000", "175922.590000", "175923.050000", "175923.510000", "175923.970000", "175924.430000", "175924.890000", "175925.350000", "175925.810000", "175926.270000", "175926.730000", "175927.190000", "175927.650000", "175928.110000", "175928.570000", "175929.030000", "175929.490000", "175929.950000", "175930.410000", "175930.870000", "175931.330000", "175931.790000", "175932.250000", "175932.710000", "175933.170000", "175933.630000", "175934.090000", "175934.550000", "175935.010000", "175935.470000", "175935.930000", "175936.390000", "175936.850000", "175937.310000", "175937.770000", "175938.230000", "175938.690000", "175939.150000", "175939.610000", "175940.070000", "175940.530000", "175940.990000", "175941.450000", "175941.910000", "175942.370000", "175942.830000", "175943.290000", "175943.750000", "175944.210000", "175944.670000", "175945.130000", "175945.590000", "175946.050000", "175946.510000", "175946.970000", "175947.430000", "175947.890000", "175948.350000", "175948.810000", "175949.270000", "175949.730000", "175950.190000", "175950.650000", "175951.110000", "175951.570000", "175952.030000", "175952.490000", "175952.950000", "175953.410000", "175953.870000", "175954.330000", "175954.790000", "175955.250000", "175955.710000", "175956.170000", "175956.630000", "175957.090000", "175957.550000", "175958.010000", "175958.470000", "175958.930000", "175959.390000", "175959.850000", "180000.310000", "180000.770000", "180001.230000", "180001.690000", "180002.150000", "180002.610000", "180003.070000", "180003.530000", "180003.990000", "180004.450000", "180004.910000", "180005.370000", "180005.830000", "180006.290000", "180006.750000", "180007.210000", "180007.670000", "180008.130000", "180008.590000", "180009.050000", "180009.510000", "180009.970000", "180010.430000", "180010.890000", "180011.350000", "180011.810000", "180012.270000", "180012.730000", "180013.190000", "180013.650000", "180014.110000", "180014.570000", "180015.030000", "180015.490000", "180015.950000", "180016.410000", "180016.870000", "180017.330000", "180017.790000", "180018.250000", "180018.710000", "180019.170000", "180019.630000", "180020.090000", "180020.550000", "180021.010000", "180021.470000", "180021.930000", "180022.390000", "180022.850000", "180023.310000", "180023.770000", "180024.230000", "180024.690000", "180025.150000", "180025.610000", "180026.070000", "180026.530000", "180026.990000", "180027.450000", "180027.910000", "180028.370000", "180028.830000", "180029.290000", "180029.750000", "180030.210000", "180030.670000", "180031.130000", "180031.590000", "180032.050000", "180032.510000", "180032.970000", "180033.430000", "180033.890000", "180034.350000", "180034.810000", "180035.270000", "180035.730000", "180036.190000", "180036.650000", "180037.110000", "180037.570000", "180038.030000", "180038.490000", "180038.950000", "180039.410000", "180039.870000", "180040.330000", "180040.790000", "180041.250000", "180041.710000", "180042.170000", "180042.630000", "180043.090000", "180043.550000", "180044.010000", "180044.470000", "180044.930000", "180045.390000", "180045.850000", "180046.310000", "180046.770000", "180047.230000", "180047.690000", "180048.150000", "180048.610000", "180049.070000", "180049.530000", "180049.990000", "180050.450000", "180050.910000", "180051.370000", "180051.830000", "180052.290000", "180052.750000", "180053.210000", "180053.670000", "180054.130000", "180054.590000", "180055.050000", "180055.510000", "180055.970000", "180056.430000", "180056.890000", "180057.350000", "180057.810000", "180058.270000", "180058.730000", "180059.190000", "180059.650000", "180100.110000", "180100.570000", "180101.030000", "180101.490000", "180101.950000", "180102.410000", "180102.870000", "180103.330000", "180103.790000", "180104.250000", "180104.710000", "180105.170000", "180105.630000", "180106.090000", "180106.550000", "180107.010000", "180107.470000", "180107.930000", "180108.390000", "180108.850000", "180109.310000", "180109.770000", "180110.230000", "180110.690000", "180111.150000", "180111.610000", "180112.070000", "180112.530000", "180112.990000", "180113.450000", "180113.910000", "180114.370000", "180114.830000", "180115.290000", "180115.750000", "180116.210000", "180116.670000", "180117.130000", "180117.590000", "180118.050000", "180118.510000", "180118.970000", "180119.430000", "180119.890000", "180120.350000", "180120.810000", "180121.270000", "180121.730000", "180122.190000", "180122.650000", "180123.110000", "180123.570000", "180124.030000", "180124.490000", "180124.950000", "180125.410000", "180125.870000", "180126.330000", "180126.790000", "180127.250000", "180127.710000", "180128.170000"],
