{
  "AcquisitionMatrixPE": 82,
  "AcquisitionNumber": 1,
  "AcquisitionTime": "16:29:33.035000",
  "BandwidthPerPixelPhaseEncode": 24.888,
  "BaseResolution": 82,
  "BodyPartExamined": "BRAIN",
  "ConsistencyInfo": "N4_VE11C_LATEST_20160120",
  "ConversionSoftware": "dcm2niix",
  "ConversionSoftwareVersion": "v1.0.20201102",
  "DerivedVendorReportedEchoSpacing": 0.00049,
  "DeviceSerialNumber": "66112",
  "DwellTime": 2e-06,
  "EchoTime": 0.0272,
  "EchoTrainLength": 82,
  "EffectiveEchoSpacing": 0.00049,
  "FlipAngle": 44,
  "ImageComments": "Unaliased MB8/PE3",
  "ImageOrientationPatientDICOM": [0.99988, 0.015247, -0.00265075, -0.0151837, 0.999632, 0.02247],
  "ImageType": [
    "ORIGINAL",
    "PRIMARY",
    "M",
    "MB",
    "ND",
    "NORM",
    "MOSAIC"
],
  "ImagingFrequency": 123.252,
  "InPlanePhaseEncodingDirectionDICOM": "COL",
  "InstitutionAddress": "Maynard 3,Hanover,NH,US,03755",
  "InstitutionName": "Dartmouth College - PBS",
  "InstitutionalDepartmentName": "Department",
  "MRAcquisitionType": "2D",
  "MagneticFieldStrength": 3,
  "Manufacturer": "Siemens",
  "ManufacturersModelName": "Prisma",
  "Modality": "MR",
  "MultibandAccelerationFactor": 8,
  "PartialFourier": 1,
  "PatientPosition": "HFS",
  "PercentPhaseFOV": 100,
  "PercentSampling": 100,
  "PhaseEncodingDirection": "j-",
  "PhaseEncodingSteps": 82,
  "PhaseResolution": 1,
  "PixelBandwidth": 3050,
  "ProcedureStepDescription": "Wager_Wager^1076_spacetop",
  "ProtocolName": "func_run-03_task-alignvideo_acq-ap-mb8",
  "PulseSequenceDetails": "%CustomerSeq%\\cmrr_mbep2d_bold",
  "ReceiveCoilActiveElements": "HEA;HEP",
  "ReceiveCoilName": "Head_32",
  "ReconMatrixPE": 82,
  "RepetitionTime": 0.46,
  "SAR": 0.100442,
  "ScanOptions": "FS",
  "ScanningSequence": "EP",
  "SequenceName": "epfid2d1_82",
  "SequenceVariant": "SK\\SS",
  "SeriesDescription": "func_run-03_task-alignvideo_acq-ap-mb8",
  "SeriesNumber": 32,
  "ShimSetting": [4145, -7728, -7236, 538, -45, -171, 123, 58],
  "SliceThickness": 2.7,
  "SliceTiming": [0, 0.2525, 0.0625, 0.315, 0.125, 0.3775, 0.19, 0, 0.2525, 0.0625, 0.315, 0.125, 0.3775, 0.19, 0, 0.2525, 0.0625, 0.315, 0.125, 0.3775, 0.19, 0, 0.2525, 0.0625, 0.315, 0.125, 0.3775, 0.19, 0, 0.2525, 0.0625, 0.315, 0.125, 0.3775, 0.19, 0, 0.2525, 0.0625, 0.315, 0.125, 0.3775, 0.19, 0, 0.2525, 0.0625, 0.315, 0.125, 0.3775, 0.19, 0, 0.2525, 0.0625, 0.315, 0.125, 0.3775, 0.19],
  "SoftwareVersions": "syngo MR E11",
  "SpacingBetweenSlices": 2.7,
  "StationName": "AWP66112",
  "TaskName": "alignvideo",
  "TotalReadoutTime": 0.03969,
  "TxRefAmp": 270.39,
  "WipMemBlock": "0823f646-3265-401c-b748-3c6304b4130d||Sequence: R016 ve11c/master r/e634e98; Dec 19 2017 11:00:25 by eja",
  "dcmmeta_affine": [
    [-2.682605504989624, -0.04073673486709595, -0.008079425431787968, 114.77664947509766],
    [-0.04090670496225357, 2.6819400787353516, 0.06055309250950813, -87.54645538330078],
    [-0.007111778017133474, -0.06028539687395096, 2.6993088722229004, -57.52263259887695],
    [0.0, 0.0, 0.0, 1.0]
],
  "dcmmeta_reorient_transform": [
    [0.0, -1.0, 0.0, 81.0],
    [1.0, 0.0, 0.0, 0.0],
    [0.0, 0.0, 1.0, 0.0],
    [0.0, 0.0, 0.0, 1.0]
],
  "dcmmeta_shape": [82, 82, 56, 1065],
  "dcmmeta_slice_dim": 2,
  "dcmmeta_version": 0.6,
  "global": {
    "const": {
      "AccessionNumber": "A003851",
      "AcquisitionMatrix": [82, 0, 0, 82],
      "AngioFlag": "N",
      "BitsAllocated": 16,
      "BitsStored": 16,
      "BodyPartExamined": "BRAIN",
      "Columns": 656,
      "EchoNumbers": 1,
      "EchoTime": 27.2,
      "EchoTrainLength": 82,
      "FlipAngle": 44.0,
      "HighBit": 15,
      "ImageOrientationPatient": [0.99988024340524, 0.01524704409237, -0.0026507535397, -0.0151836922598, 0.99963220941743, 0.02247001078296],
      "ImagePositionPatient": [-869.69333742098, -911.14774234794, -77.666578503768],
      "ImageType": [
        "ORIGINAL",
        "PRIMARY",
        "M",
        "MB",
        "ND",
        "NORM",
        "MOSAIC"
],
      "ImagedNucleus": "1H",
      "ImagingFrequency": 123.252172,
      "InPlanePhaseEncodingDirection": "COL",
      "MRAcquisitionType": "2D",
      "MagneticFieldStrength": 3.0,
      "Manufacturer": "SIEMENS",
      "ManufacturerModelName": "Prisma",
      "Modality": "MR",
      "NumberOfAverages": 1.0,
      "NumberOfPhaseEncodingSteps": 82,
      "PercentPhaseFieldOfView": 100.0,
      "PercentSampling": 100.0,
      "PerformedProcedureStepStartTime": "145142.671000",
      "PhotometricInterpretation": "MONOCHROME2",
      "PixelBandwidth": 3050.0,
      "PixelRepresentation": 0,
      "PixelSpacing": [2.6829268932343, 2.6829268932343],
      "ProtocolName": "func_run-03_task-alignvideo_acq-ap-mb8",
      "RepetitionTime": 460.0,
      "Rows": 656,
      "SAR": 0.10044185171949,
      "SamplesPerPixel": 1,
      "ScanOptions": "FS",
      "ScanningSequence": "EP",
      "SequenceName": "epfid2d1_82",
      "SequenceVariant": [
        "SK",
        "SS"
],
      "SeriesDescription": "func_run-03_task-alignvideo_acq-ap-mb8",
      "SeriesNumber": 32,
      "SeriesTime": "162945.844000",
      "SliceLocation": -59.814773266474,
      "SliceThickness": 2.7000000476837,
      "SmallestImagePixelValue": 0,
      "SoftwareVersions": "syngo MR E11",
      "SpacingBetweenSlices": 2.699999967726,
      "SpecificCharacterSet": "ISO_IR 100",
      "StudyID": "1",
      "StudyTime": "145142.547000",
      "TransmitCoilName": "Body",
      "VariableFlipAngleFlag": "N",
      "WindowCenterWidthExplanation": "Algo1",
      "dBdt": 0.0},
    "slices": {}
  },
  "time": {
    "samples": {
      "AcquisitionNumber": [1, 2, 3, 4, 5, 6, 7, 8, 9, 10, 11, 12, 13, 14, 15, 16, 17, 18, 19, 20, 21, 22, 23, 24, 25, 26, 27, 28, 29, 30, 31, 32, 33, 34, 35, 36, 37, 38, 39, 40, 41, 42, 43, 44, 45, 46, 47, 48, 49, 50, 51, 52, 53, 54, 55, 56, 57, 58, 59, 60, 61, 62, 63, 64, 65, 66, 67, 68, 69, 70, 71, 72, 73, 74, 75, 76, 77, 78, 79, 80, 81, 82, 83, 84, 85, 86, 87, 88, 89, 90, 91, 92, 93, 94, 95, 96, 97, 98, 99, 100, 101, 102, 103, 104, 105, 106, 107, 108, 109, 110, 111, 112, 113, 114, 115, 116, 117, 118, 119, 120, 121, 122, 123, 124, 125, 126, 127, 128, 129, 130, 131, 132, 133, 134, 135, 136, 137, 138, 139, 140, 141, 142, 143, 144, 145, 146, 147, 148, 149, 150, 151, 152, 153, 154, 155, 156, 157, 158, 159, 160, 161, 162, 163, 164, 165, 166, 167, 168, 169, 170, 171, 172, 173, 174, 175, 176, 177, 178, 179, 180, 181, 182, 183, 184, 185, 186, 187, 188, 189, 190, 191, 192, 193, 194, 195, 196, 197, 198, 199, 200, 201, 202, 203, 204, 205, 206, 207, 208, 209, 210, 211, 212, 213, 214, 215, 216, 217, 218, 219, 220, 221, 222, 223, 224, 225, 226, 227, 228, 229, 230, 231, 232, 233, 234, 235, 236, 237, 238, 239, 240, 241, 242, 243, 244, 245, 246, 247, 248, 249, 250, 251, 252, 253, 254, 255, 256, 257, 258, 259, 260, 261, 262, 263, 264, 265, 266, 267, 268, 269, 270, 271, 272, 273, 274, 275, 276, 277, 278, 279, 280, 281, 282, 283, 284, 285, 286, 287, 288, 289, 290, 291, 292, 293, 294, 295, 296, 297, 298, 299, 300, 301, 302, 303, 304, 305, 306, 307, 308, 309, 310, 311, 312, 313, 314, 315, 316, 317, 318, 319, 320, 321, 322, 323, 324, 325, 326, 327, 328, 329, 330, 331, 332, 333, 334, 335, 336, 337, 338, 339, 340, 341, 342, 343, 344, 345, 346, 347, 348, 349, 350, 351, 352, 353, 354, 355, 356, 357, 358, 359, 360, 361, 362, 363, 364, 365, 366, 367, 368, 369, 370, 371, 372, 373, 374, 375, 376, 377, 378, 379, 380, 381, 382, 383, 384, 385, 386, 387, 388, 389, 390, 391, 392, 393, 394, 395, 396, 397, 398, 399, 400, 401, 402, 403, 404, 405, 406, 407, 408, 409, 410, 411, 412, 413, 414, 415, 416, 417, 418, 419, 420, 421, 422, 423, 424, 425, 426, 427, 428, 429, 430, 431, 432, 433, 434, 435, 436, 437, 438, 439, 440, 441, 442, 443, 444, 445, 446, 447, 448, 449, 450, 451, 452, 453, 454, 455, 456, 457, 458, 459, 460, 461, 462, 463, 464, 465, 466, 467, 468, 469, 470, 471, 472, 473, 474, 475, 476, 477, 478, 479, 480, 481, 482, 483, 484, 485, 486, 487, 488, 489, 490, 491, 492, 493, 494, 495, 496, 497, 498, 499, 500, 501, 502, 503, 504, 505, 506, 507, 508, 509, 510, 511, 512, 513, 514, 515, 516, 517, 518, 519, 520, 521, 522, 523, 524, 525, 526, 527, 528, 529, 530, 531, 532, 533, 534, 535, 536, 537, 538, 539, 540, 541, 542, 543, 544, 545, 546, 547, 548, 549, 550, 551, 552, 553, 554, 555, 556, 557, 558, 559, 560, 561, 562, 563, 564, 565, 566, 567, 568, 569, 570, 571, 572, 573, 574, 575, 576, 577, 578, 579, 580, 581, 582, 583, 584, 585, 586, 587, 588, 589, 590, 591, 592, 593, 594, 595, 596, 597, 598, 599, 600, 601, 602, 603, 604, 605, 606, 607, 608, 609, 610, 611, 612, 613, 614, 615, 616, 617, 618, 619, 620, 621, 622, 623, 624, 625, 626, 627, 628, 629, 630, 631, 632, 633, 634, 635, 636, 637, 638, 639, 640, 641, 642, 643, 644, 645, 646, 647, 648, 649, 650, 651, 652, 653, 654, 655, 656, 657, 658, 659, 660, 661, 662, 663, 664, 665, 666, 667, 668, 669, 670, 671, 672, 673, 674, 675, 676, 677, 678, 679, 680, 681, 682, 683, 684, 685, 686, 687, 688, 689, 690, 691, 692, 693, 694, 695, 696, 697, 698, 699, 700, 701, 702, 703, 704, 705, 706, 707, 708, 709, 710, 711, 712, 713, 714, 715, 716, 717, 718, 719, 720, 721, 722, 723, 724, 725, 726, 727, 728, 729, 730, 731, 732, 733, 734, 735, 736, 737, 738, 739, 740, 741, 742, 743, 744, 745, 746, 747, 748, 749, 750, 751, 752, 753, 754, 755, 756, 757, 758, 759, 760, 761, 762, 763, 764, 765, 766, 767, 768, 769, 770, 771, 772, 773, 774, 775, 776, 777, 778, 779, 780, 781, 782, 783, 784, 785, 786, 787, 788, 789, 790, 791, 792, 793, 794, 795, 796, 797, 798, 799, 800, 801, 802, 803, 804, 805, 806, 807, 808, 809, 810, 811, 812, 813, 814, 815, 816, 817, 818, 819, 820, 821, 822, 823, 824, 825, 826, 827, 828, 829, 830, 831, 832, 833, 834, 835, 836, 837, 838, 839, 840, 841, 842, 843, 844, 845, 846, 847, 848, 849, 850, 851, 852, 853, 854, 855, 856, 857, 858, 859, 860, 861, 862, 863, 864, 865, 866, 867, 868, 869, 870, 871, 872, 873, 874, 875, 876, 877, 878, 879, 880, 881, 882, 883, 884, 885, 886, 887, 888, 889, 890, 891, 892, 893, 894, 895, 896, 897, 898, 899, 900, 901, 902, 903, 904, 905, 906, 907, 908, 909, 910, 911, 912, 913, 914, 915, 916, 917, 918, 919, 920, 921, 922, 923, 924, 925, 926, 927, 928, 929, 930, 931, 932, 933, 934, 935, 936, 937, 938, 939, 940, 941, 942, 943, 944, 945, 946, 947, 948, 949, 950, 951, 952, 953, 954, 955, 956, 957, 958, 959, 960, 961, 962, 963, 964, 965, 966, 967, 968, 969, 970, 971, 972, 973, 974, 975, 976, 977, 978, 979, 980, 981, 982, 983, 984, 985, 986, 987, 988, 989, 990, 991, 992, 993, 994, 995, 996, 997, 998, 999, 1000, 1001, 1002, 1003, 1004, 1005, 1006, 1007, 1008, 1009, 1010, 1011, 1012, 1013, 1014, 1015, 1016, 1017, 1018, 1019, 1020, 1021, 1022, 1023, 1024, 1025, 1026, 1027, 1028, 1029, 1030, 1031, 1032, 1033, 1034, 1035, 1036, 1037, 1038, 1039, 1040, 1041, 1042, 1043, 1044, 1045, 1046, 1047, 1048, 1049, 1050, 1051, 1052, 1053, 1054, 1055, 1056, 1057, 1058, 1059, 1060, 1061, 1062, 1063, 1064, 1065],
      "AcquisitionTime": ["162933.035000", "162933.495000", "162933.955000", "162934.415000", "162934.875000", "162935.335000", "162935.795000", "162936.255000", "162936.715000", "162937.175000", "162937.635000", "162938.095000", "162938.555000", "162939.015000", "162939.475000", "162939.935000", "162940.395000", "162940.855000", "162941.315000", "162941.775000", "162942.235000", "162942.695000", "162943.155000", "162943.615000", "162944.075000", "162944.535000", "162944.995000", "162945.455000", "162945.915000", "162946.375000", "162946.835000", "162947.295000", "162947.755000", "162948.215000", "162948.675000", "162949.135000", "162949.595000", "162950.055000", "162950.515000", "162950.975000", "162951.435000", "162951.895000", "162952.355000", "162952.815000", "162953.275000", "162953.735000", "162954.195000", "162954.655000", "162955.115000", "162955.575000", "162956.035000", "162956.495000", "162956.955000", "162957.415000", "162957.875000", "162958.335000", "162958.795000", "162959.255000", "162959.715000", "163000.175000", "163000.635000", "163001.095000", "163001.555000", "163002.015000", "163002.475000", "163002.935000", "163003.395000", "163003.855000", "163004.315000", "163004.775000", "163005.235000", "163005.695000", "163006.155000", "163006.615000", "163007.075000", "163007.535000", "163007.995000", "163008.455000", "163008.915000", "163009.375000", "163009.835000", "163010.295000", "163010.755000", "163011.215000", "163011.675000", "163012.135000", "163012.595000", "163013.055000", "163013.515000", "163013.975000", "163014.435000", "163014.895000", "163015.355000", "163015.815000", "163016.275000", "163016.735000", "163017.195000", "163017.655000", "163018.115000", "163018.575000", "163019.035000", "163019.495000", "163019.955000", "163020.415000", "163020.875000", "163021.335000", "163021.795000", "163022.255000", "163022.715000", "163023.175000", "163023.635000", "163024.095000", "163024.555000", "163025.015000", "163025.475000", "163025.935000", "163026.395000", "163026.855000", "163027.315000", "163027.775000", "163028.235000", "163028.695000", "163029.155000", "163029.615000", "163030.075000", "163030.535000", "163030.995000", "163031.455000", "163031.915000", "163032.375000", "163032.835000", "163033.295000", "163033.755000", "163034.215000", "163034.675000", "163035.135000", "163035.595000", "163036.055000", "163036.515000", "163036.975000", "163037.435000", "163037.895000", "163038.355000", "163038.815000", "163039.275000", "163039.735000", "163040.195000", "163040.655000", "163041.115000", "163041.575000", "163042.035000", "163042.495000", "163042.955000", "163043.415000", "163043.875000", "163044.335000", "163044.795000", "163045.255000", "163045.715000", "163046.175000", "163046.635000", "163047.095000", "163047.555000", "163048.015000", "163048.475000", "163048.935000", "163049.395000", "163049.855000", "163050.315000", "163050.775000", "163051.235000", "163051.695000", "163052.155000", "163052.615000", "163053.075000", "163053.535000", "163053.995000", "163054.455000", "163054.915000", "163055.375000", "163055.835000", "163056.295000", "163056.755000", "163057.215000", "163057.675000", "163058.135000", "163058.595000", "163059.055000", "163059.515000", "163059.975000", "163100.435000", "163100.895000", "163101.355000", "163101.815000", "163102.275000", "163102.735000", "163103.195000", "163103.655000", "163104.115000", "163104.575000", "163105.035000", "163105.495000", "163105.955000", "163106.415000", "163106.875000", "163107.335000", "163107.795000", "163108.255000", "163108.715000", "163109.175000", "163109.635000", "163110.095000", "163110.555000", "163111.015000", "163111.475000", "163111.935000", "163112.395000", "163112.855000", "163113.315000", "163113.775000", "163114.235000", "163114.695000", "163115.155000", "163115.615000", "163116.075000", "163116.535000", "163116.995000", "163117.455000", "163117.915000", "163118.375000", "163118.835000", "163119.295000", "163119.755000", "163120.215000", "163120.675000", "163121.135000", "163121.595000", "163122.055000", "163122.515000", "163122.975000", "163123.435000", "163123.895000", "163124.355000", "163124.815000", "163125.275000", "163125.735000", "163126.195000", "163126.655000", "163127.115000", "163127.575000", "163128.035000", "163128.495000", "163128.955000", "163129.415000", "163129.875000", "163130.335000", "163130.795000", "163131.255000", "163131.715000", "163132.175000", "163132.635000", "163133.095000", "163133.555000", "163134.015000", "163134.475000", "163134.935000", "163135.395000", "163135.855000", "163136.315000", "163136.775000", "163137.235000", "163137.695000", "163138.155000", "163138.615000", "163139.075000", "163139.535000", "163139.995000", "163140.455000", "163140.915000", "163141.375000", "163141.835000", "163142.295000", "163142.755000", "163143.215000", "163143.675000", "163144.135000", "163144.595000", "163145.055000", "163145.515000", "163145.975000", "163146.435000", "163146.895000", "163147.355000", "163147.815000", "163148.275000", "163148.735000", "163149.195000", "163149.655000", "163150.115000", "163150.575000", "163151.035000", "163151.495000", "163151.955000", "163152.415000", "163152.875000", "163153.335000", "163153.795000", "163154.255000", "163154.715000", "163155.175000", "163155.635000", "163156.095000", "163156.555000", "163157.015000", "163157.475000", "163157.935000", "163158.395000", "163158.855000", "163159.315000", "163159.775000", "163200.235000", "163200.695000", "163201.155000", "163201.615000", "163202.075000", "163202.535000", "163202.995000", "163203.455000", "163203.915000", "163204.375000", "163204.835000", "163205.295000", "163205.755000", "163206.215000", "163206.675000", "163207.135000", "163207.595000", "163208.055000", "163208.515000", "163208.975000", "163209.435000", "163209.895000", "163210.355000", "163210.815000", "163211.275000", "163211.735000", "163212.195000", "163212.655000", "163213.115000", "163213.575000", "163214.035000", "163214.495000", "163214.955000", "163215.415000", "163215.875000", "163216.335000", "163216.795000", "163217.255000", "163217.715000", "163218.175000", "163218.635000", "163219.095000", "163219.555000", "163220.015000", "163220.475000", "163220.935000", "163221.395000", "163221.855000", "163222.315000", "163222.775000", "163223.235000", "163223.695000", "163224.155000", "163224.615000", "163225.075000", "163225.535000", "163225.995000", "163226.455000", "163226.915000", "163227.375000", "163227.835000", "163228.295000", "163228.755000", "163229.215000", "163229.675000", "163230.135000", "163230.595000", "163231.055000", "163231.515000", "163231.975000", "163232.435000", "163232.895000", "163233.355000", "163233.815000", "163234.275000", "163234.735000", "163235.195000", "163235.655000", "163236.115000", "163236.575000", "163237.035000", "163237.495000", "163237.955000", "163238.415000", "163238.875000", "163239.335000", "163239.795000", "163240.255000", "163240.715000", "163241.175000", "163241.635000", "163242.095000", "163242.555000", "163243.015000", "163243.475000", "163243.935000", "163244.395000", "163244.855000", "163245.315000", "163245.775000", "163246.235000", "163246.695000", "163247.155000", "163247.615000", "163248.075000", "163248.535000", "163248.995000", "163249.455000", "163249.915000", "163250.375000", "163250.835000", "163251.295000", "163251.755000", "163252.215000", "163252.675000", "163253.135000", "163253.595000", "163254.055000", "163254.515000", "163254.975000", "163255.435000", "163255.895000", "163256.355000", "163256.815000", "163257.275000", "163257.735000", "163258.195000", "163258.655000", "163259.115000", "163259.575000", "163300.035000", "163300.495000", "163300.955000", "163301.415000", "163301.875000", "163302.335000", "163302.795000", "163303.255000", "163303.715000", "163304.175000", "163304.635000", "163305.095000", "163305.555000", "163306.015000", "163306.475000", "163306.935000", "163307.395000", "163307.855000", "163308.315000", "163308.775000", "163309.235000", "163309.695000", "163310.155000", "163310.615000", "163311.075000", "163311.535000", "163311.995000", "163312.455000", "163312.915000", "163313.375000", "163313.835000", "163314.295000", "163314.755000", "163315.215000", "163315.675000", "163316.135000", "163316.595000", "163317.055000", "163317.515000", "163317.975000", "163318.435000", "163318.895000", "163319.355000", "163319.815000", "163320.275000", "163320.735000", "163321.195000", "163321.655000", "163322.115000", "163322.575000", "163323.035000", "163323.495000", "163323.955000", "163324.415000", "163324.875000", "163325.335000", "163325.795000", "163326.255000", "163326.715000", "163327.175000", "163327.635000", "163328.095000", "163328.555000", "163329.015000", "163329.475000", "163329.935000", "163330.395000", "163330.855000", "163331.315000", "163331.775000", "163332.235000", "163332.695000", "163333.155000", "163333.615000", "163334.075000", "163334.535000", "163334.995000", "163335.455000", "163335.915000", "163336.375000", "163336.835000", "163337.295000", "163337.755000", "163338.215000", "163338.675000", "163339.135000", "163339.595000", "163340.055000", "163340.515000", "163340.975000", "163341.435000", "163341.895000", "163342.355000", "163342.815000", "163343.275000", "163343.735000", "163344.195000", "163344.655000", "163345.115000", "163345.575000", "163346.035000", "163346.495000", "163346.955000", "163347.415000", "163347.875000", "163348.335000", "163348.795000", "163349.255000", "163349.715000", "163350.175000", "163350.635000", "163351.095000", "163351.555000", "163352.015000", "163352.475000", "163352.935000", "163353.395000", "163353.855000", "163354.315000", "163354.775000", "163355.235000", "163355.695000", "163356.155000", "163356.615000", "163357.075000", "163357.535000", "163357.995000", "163358.455000", "163358.915000", "163359.375000", "163359.835000", "163400.295000", "163400.755000", "163401.215000", "163401.675000", "163402.135000", "163402.595000", "163403.055000", "163403.515000", "163403.975000", "163404.435000", "163404.895000", "163405.355000", "163405.815000", "163406.275000", "163406.735000", "163407.195000", "163407.655000", "163408.115000", "163408.575000", "163409.035000", "163409.495000", "163409.955000", "163410.415000", "163410.875000", "163411.335000", "163411.795000", "163412.255000", "163412.715000", "163413.175000", "163413.635000", "163414.095000", "163414.555000", "163415.015000", "163415.475000", "163415.935000", "163416.395000", "163416.855000", "163417.315000", "163417.775000", "163418.235000", "163418.695000", "163419.155000", "163419.615000", "163420.075000", "163420.535000", "163420.995000", "163421.455000", "163421.915000", "163422.375000", "163422.835000", "163423.295000", "163423.755000", "163424.215000", "163424.675000", "163425.135000", "163425.595000", "163426.055000", "163426.515000", "163426.975000", "163427.435000", "163427.895000", "163428.355000", "163428.815000", "163429.275000", "163429.735000", "163430.195000", "163430.655000", "163431.115000", "163431.575000", "163432.035000", "163432.495000", "163432.955000", "163433.415000", "163433.875000", "163434.335000", "163434.795000", "163435.255000", "163435.715000", "163436.175000", "163436.635000", "163437.095000", "163437.555000", "163438.015000", "163438.475000", "163438.935000", "163439.395000", "163439.855000", "163440.315000", "163440.775000", "163441.235000", "163441.695000", "163442.155000", "163442.615000", "163443.075000", "163443.535000", "163443.995000", "163444.455000", "163444.915000", "163445.375000", "163445.835000", "163446.295000", "163446.755000", "163447.215000", "163447.675000", "163448.135000", "163448.595000", "163449.055000", "163449.515000", "163449.975000", "163450.435000", "163450.895000", "163451.355000", "163451.815000", "163452.275000", "163452.735000", "163453.195000", "163453.655000", "163454.115000", "163454.575000", "163455.035000", "163455.495000", "163455.955000", "163456.415000", "163456.875000", "163457.335000", "163457.795000", "163458.255000", "163458.715000", "163459.175000", "163459.635000", "163500.095000", "163500.555000", "163501.015000", "163501.475000", "163501.935000", "163502.395000", "163502.855000", "163503.315000", "163503.775000", "163504.235000", "163504.695000", "163505.155000", "163505.615000", "163506.075000", "163506.535000", "163506.995000", "163507.455000", "163507.915000", "163508.375000", "163508.835000", "163509.295000", "163509.755000", "163510.215000", "163510.675000", "163511.135000", "163511.595000", "163512.055000", "163512.515000", "163512.975000", "163513.435000", "163513.895000", "163514.355000", "163514.815000", "163515.275000", "163515.735000", "163516.195000", "163516.655000", "163517.115000", "163517.575000", "163518.035000", "163518.495000", "163518.955000", "163519.415000", "163519.875000", "163520.335000", "163520.795000", "163521.255000", "163521.715000", "163522.175000", "163522.635000", "163523.095000", "163523.555000", "163524.015000", "163524.475000", "163524.935000", "163525.395000", "163525.855000", "163526.315000", "163526.775000", "163527.235000", "163527.695000", "163528.155000", "163528.615000", "163529.075000", "163529.535000", "163529.995000", "163530.455000", "163530.915000", "163531.375000", "163531.835000", "163532.295000", "163532.755000", "163533.215000", "163533.675000", "163534.135000", "163534.595000", "163535.055000", "163535.515000", "163535.975000", "163536.435000", "163536.895000", "163537.355000", "163537.815000", "163538.275000", "163538.735000", "163539.195000", "163539.655000", "163540.115000", "163540.575000", "163541.035000", "163541.495000", "163541.955000", "163542.415000", "163542.875000", "163543.335000", "163543.795000", "163544.255000", "163544.715000", "163545.175000", "163545.635000", "163546.095000", "163546.555000", "163547.015000", "163547.475000", "163547.935000", "163548.395000", "163548.855000", "163549.315000", "163549.775000", "163550.235000", "163550.695000", "163551.155000", "163551.615000", "163552.075000", "163552.535000", "163552.995000", "163553.455000", "163553.915000", "163554.375000", "163554.835000", "163555.295000", "163555.755000", "163556.215000", "163556.675000", "163557.135000", "163557.595000", "163558.055000", "163558.515000", "163558.975000", "163559.435000", "163559.895000", "163600.355000", "163600.815000", "163601.275000", "163601.735000", "163602.195000", "163602.655000", "163603.115000", "163603.575000", "163604.035000", "163604.495000", "163604.955000", "163605.415000", "163605.875000", "163606.335000", "163606.795000", "163607.255000", "163607.715000", "163608.175000", "163608.635000", "163609.095000", "163609.555000", "163610.015000", "163610.475000", "163610.935000", "163611.395000", "163611.855000", "163612.315000", "163612.775000", "163613.235000", "163613.695000", "163614.155000", "163614.615000", "163615.075000", "163615.535000", "163615.995000", "163616.455000", "163616.915000", "163617.375000", "163617.835000", "163618.295000", "163618.755000", "163619.215000", "163619.675000", "163620.135000", "163620.595000", "163621.055000", "163621.515000", "163621.975000", "163622.435000", "163622.895000", "163623.355000", "163623.815000", "163624.275000", "163624.735000", "163625.195000", "163625.655000", "163626.115000", "163626.575000", "163627.035000", "163627.495000", "163627.955000", "163628.415000", "163628.875000", "163629.335000", "163629.795000", "163630.255000", "163630.715000", "163631.175000", "163631.635000", "163632.095000", "163632.555000", "163633.015000", "163633.475000", "163633.935000", "163634.395000", "163634.855000", "163635.315000", "163635.775000", "163636.235000", "163636.695000", "163637.155000", "163637.615000", "163638.075000", "163638.535000", "163638.995000", "163639.455000", "163639.915000", "163640.375000", "163640.835000", "163641.295000", "163641.755000", "163642.215000", "163642.675000", "163643.135000", "163643.595000", "163644.055000", "163644.515000", "163644.975000", "163645.435000", "163645.895000", "163646.355000", "163646.815000", "163647.275000", "163647.735000", "163648.195000", "163648.655000", "163649.115000", "163649.575000", "163650.035000", "163650.495000", "163650.955000", "163651.415000", "163651.875000", "163652.335000", "163652.795000", "163653.255000", "163653.715000", "163654.175000", "163654.635000", "163655.095000", "163655.555000", "163656.015000", "163656.475000", "163656.935000", "163657.395000", "163657.855000", "163658.315000", "163658.775000", "163659.235000", "163659.695000", "163700.155000", "163700.615000", "163701.075000", "163701.535000", "163701.995000", "163702.455000", "163702.915000", "163703.375000", "163703.835000", "163704.295000", "163704.755000", "163705.215000", "163705.675000", "163706.135000", "163706.595000", "163707.055000", "163707.515000", "163707.975000", "163708.435000", "163708.895000", "163709.355000", "163709.815000", "163710.275000", "163710.735000", "163711.195000", "163711.655000", "163712.115000", "163712.575000", "163713.035000", "163713.495000", "163713.955000", "163714.415000", "163714.875000", "163715.335000", "163715.795000", "163716.255000", "163716.715000", "163717.175000", "163717.635000", "163718.095000", "163718.555000", "163719.015000", "163719.475000", "163719.935000", "163720.395000", "163720.855000", "163721.315000", "163721.775000", "163722.235000", "163722.695000", "163723.155000", "163723.615000", "163724.075000", "163724.535000", "163724.995000", "163725.455000", "163725.915000", "163726.375000", "163726.835000", "163727.295000", "163727.755000", "163728.215000", "163728.675000", "163729.135000", "163729.595000", "163730.055000", "163730.515000", "163730.975000", "163731.435000", "163731.895000", "163732.355000", "163732.815000", "163733.275000", "163733.735000", "163734.195000", "163734.655000", "163735.115000", "163735.575000", "163736.035000", "163736.495000", "163736.955000", "163737.415000", "163737.875000", "163738.335000", "163738.795000", "163739.255000", "163739.715000", "163740.175000", "163740.635000", "163741.095000", "163741.555000", "163742.015000", "163742.475000"],
