{
  "AcquisitionMatrixPE": 82,
  "AcquisitionNumber": 1,
  "AcquisitionTime": "15:08:3.600000",
  "BandwidthPerPixelPhaseEncode": 24.888,
  "BaseResolution": 82,
  "BodyPartExamined": "BRAIN",
  "ConsistencyInfo": "N4_VE11C_LATEST_20160120",
  "ConversionSoftware": "dcm2niix",
  "ConversionSoftwareVersion": "v1.0.20201102",
  "DerivedVendorReportedEchoSpacing": 0.00049,
  "DeviceSerialNumber": "66112",
  "DwellTime": 2e-06,
  "EchoTime": 0.0272,
  "EchoTrainLength": 82,
  "EffectiveEchoSpacing": 0.00049,
  "FlipAngle": 44,
  "ImageComments": "Unaliased MB8/PE3",
  "ImageOrientationPatientDICOM": [0.999858, 0.00452161, -0.0162342, -0.00471177, 0.99992, -0.0116947],
  "ImageType": [
    "ORIGINAL",
    "PRIMARY",
    "M",
    "MB",
    "ND",
    "NORM",
    "MOSAIC"
],
  "ImagingFrequency": 123.252,
  "InPlanePhaseEncodingDirectionDICOM": "COL",
  "InstitutionAddress": "Maynard 3,Hanover,NH,US,03755",
  "InstitutionName": "Dartmouth College - PBS",
  "InstitutionalDepartmentName": "Department",
  "MRAcquisitionType": "2D",
  "MagneticFieldStrength": 3,
  "Manufacturer": "Siemens",
  "ManufacturersModelName": "Prisma",
  "Modality": "MR",
  "MultibandAccelerationFactor": 8,
  "PartialFourier": 1,
  "PatientPosition": "HFS",
  "PercentPhaseFOV": 100,
  "PercentSampling": 100,
  "PhaseEncodingDirection": "j-",
  "PhaseEncodingSteps": 82,
  "PhaseResolution": 1,
  "PixelBandwidth": 3050,
  "ProcedureStepDescription": "Wager_Wager^1076_spacetop",
  "ProtocolName": "func_run-01_task-social_acq-ap-mb8",
  "PulseSequenceDetails": "%CustomerSeq%\\cmrr_mbep2d_bold",
  "ReceiveCoilActiveElements": "HEA;HEP",
  "ReceiveCoilName": "Head_32",
  "ReconMatrixPE": 82,
  "RepetitionTime": 0.46,
  "SAR": 0.100329,
  "ScanOptions": "FS",
  "ScanningSequence": "EP",
  "SequenceName": "epfid2d1_82",
  "SequenceVariant": "SK\\SS",
  "SeriesDescription": "func_run-01_task-social_acq-ap-mb8",
  "SeriesNumber": 8,
  "ShimSetting": [4144, -7731, -7235, 527, -47, -182, 123, 57],
  "SliceThickness": 2.7,
  "SliceTiming": [0, 0.2525, 0.0625, 0.315, 0.1275, 0.3775, 0.19, 0, 0.2525, 0.0625, 0.315, 0.1275, 0.3775, 0.19, 0, 0.2525, 0.0625, 0.315, 0.1275, 0.3775, 0.19, 0, 0.2525, 0.0625, 0.315, 0.1275, 0.3775, 0.19, 0, 0.2525, 0.0625, 0.315, 0.1275, 0.3775, 0.19, 0, 0.2525, 0.0625, 0.315, 0.1275, 0.3775, 0.19, 0, 0.2525, 0.0625, 0.315, 0.1275, 0.3775, 0.19, 0, 0.2525, 0.0625, 0.315, 0.1275, 0.3775, 0.19],
  "SoftwareVersions": "syngo MR E11",
  "SpacingBetweenSlices": 2.7,
  "StationName": "AWP66112",
  "TaskName": "social",
  "TotalReadoutTime": 0.03969,
  "TxRefAmp": 270.39,
  "WipMemBlock": "663ffbb8-e7f9-4487-9bcb-db3267b4e3a0||Sequence: R016 ve11c/master r/e634e98; Dec 19 2017 11:00:25 by eja",
  "dcmmeta_affine": [
    [-2.6825459003448486, -0.012641342356801033, -0.043686121702194214, 114.0643081665039],
    [-0.01213114708662033, 2.682713747024536, -0.031777676194906235, -86.28300476074219],
    [-0.043555211275815964, 0.03137596696615219, 2.6994595527648926, -60.388023376464844],
    [0.0, 0.0, 0.0, 1.0]
],
  "dcmmeta_reorient_transform": [
    [0.0, -1.0, 0.0, 81.0],
    [1.0, 0.0, 0.0, 0.0],
    [0.0, 0.0, 1.0, 0.0],
    [0.0, 0.0, 0.0, 1.0]
],
  "dcmmeta_shape": [82, 82, 56, 872],
  "dcmmeta_slice_dim": 2,
  "dcmmeta_version": 0.6,
  "global": {
    "const": {
      "AccessionNumber": "A003851",
      "AcquisitionMatrix": [82, 0, 0, 82],
      "AngioFlag": "N",
      "BitsAllocated": 16,
      "BitsStored": 16,
      "BodyPartExamined": "BRAIN",
      "Columns": 656,
      "EchoNumbers": 1,
      "EchoTime": 27.2,
      "EchoTrainLength": 82,
      "FlipAngle": 44.0,
      "HighBit": 15,
      "ImageOrientationPatient": [0.99985799258329, 0.00452160915568, -0.016234214424, -0.0047117727818, 0.99992051368188, -0.011694678936],
      "ImagePositionPatient": [-879.30296932112, -904.43725498835, -36.341320205523],
      "ImageType": [
        "ORIGINAL",
        "PRIMARY",
        "M",
        "MB",
        "ND",
        "NORM",
        "MOSAIC"
],
      "ImagedNucleus": "1H",
      "ImagingFrequency": 123.252154,
      "InPlanePhaseEncodingDirection": "COL",
      "MRAcquisitionType": "2D",
      "MagneticFieldStrength": 3.0,
      "Manufacturer": "SIEMENS",
      "ManufacturerModelName": "Prisma",
      "Modality": "MR",
      "NumberOfAverages": 1.0,
      "NumberOfPhaseEncodingSteps": 82,
      "PercentPhaseFieldOfView": 100.0,
      "PercentSampling": 100.0,
      "PerformedProcedureStepStartTime": "145142.671000",
      "PhotometricInterpretation": "MONOCHROME2",
      "PixelBandwidth": 3050.0,
      "PixelRepresentation": 0,
      "PixelSpacing": [2.6829268932343, 2.6829268932343],
      "ProtocolName": "func_run-01_task-social_acq-ap-mb8",
      "RepetitionTime": 460.0,
      "Rows": 656,
      "SAR": 0.10032866820767,
      "SamplesPerPixel": 1,
      "ScanOptions": "FS",
      "ScanningSequence": "EP",
      "SequenceName": "epfid2d1_82",
      "SequenceVariant": [
        "SK",
        "SS"
],
      "SeriesDescription": "func_run-01_task-social_acq-ap-mb8",
      "SeriesNumber": 8,
      "SeriesTime": "150825.770000",
      "SliceLocation": -61.205990763668,
      "SliceThickness": 2.7000000476837,
      "SmallestImagePixelValue": 0,
      "SoftwareVersions": "syngo MR E11",
      "SpacingBetweenSlices": 2.7000000410625,
      "SpecificCharacterSet": "ISO_IR 100",
      "StudyID": "1",
      "StudyTime": "145142.547000",
      "TransmitCoilName": "Body",
      "VariableFlipAngleFlag": "N",
      "WindowCenterWidthExplanation": "Algo1",
      "dBdt": 0.0},
    "slices": {}
  },
  "time": {
    "samples": {
      "AcquisitionNumber": [1, 2, 3, 4, 5, 6, 7, 8, 9, 10, 11, 12, 13, 14, 15, 16, 17, 18, 19, 20, 21, 22, 23, 24, 25, 26, 27, 28, 29, 30, 31, 32, 33, 34, 35, 36, 37, 38, 39, 40, 41, 42, 43, 44, 45, 46, 47, 48, 49, 50, 51, 52, 53, 54, 55, 56, 57, 58, 59, 60, 61, 62, 63, 64, 65, 66, 67, 68, 69, 70, 71, 72, 73, 74, 75, 76, 77, 78, 79, 80, 81, 82, 83, 84, 85, 86, 87, 88, 89, 90, 91, 92, 93, 94, 95, 96, 97, 98, 99, 100, 101, 102, 103, 104, 105, 106, 107, 108, 109, 110, 111, 112, 113, 114, 115, 116, 117, 118, 119, 120, 121, 122, 123, 124, 125, 126, 127, 128, 129, 130, 131, 132, 133, 134, 135, 136, 137, 138, 139, 140, 141, 142, 143, 144, 145, 146, 147, 148, 149, 150, 151, 152, 153, 154, 155, 156, 157, 158, 159, 160, 161, 162, 163, 164, 165, 166, 167, 168, 169, 170, 171, 172, 173, 174, 175, 176, 177, 178, 179, 180, 181, 182, 183, 184, 185, 186, 187, 188, 189, 190, 191, 192, 193, 194, 195, 196, 197, 198, 199, 200, 201, 202, 203, 204, 205, 206, 207, 208, 209, 210, 211, 212, 213, 214, 215, 216, 217, 218, 219, 220, 221, 222, 223, 224, 225, 226, 227, 228, 229, 230, 231, 232, 233, 234, 235, 236, 237, 238, 239, 240, 241, 242, 243, 244, 245, 246, 247, 248, 249, 250, 251, 252, 253, 254, 255, 256, 257, 258, 259, 260, 261, 262, 263, 264, 265, 266, 267, 268, 269, 270, 271, 272, 273, 274, 275, 276, 277, 278, 279, 280, 281, 282, 283, 284, 285, 286, 287, 288, 289, 290, 291, 292, 293, 294, 295, 296, 297, 298, 299, 300, 301, 302, 303, 304, 305, 306, 307, 308, 309, 310, 311, 312, 313, 314, 315, 316, 317, 318, 319, 320, 321, 322, 323, 324, 325, 326, 327, 328, 329, 330, 331, 332, 333, 334, 335, 336, 337, 338, 339, 340, 341, 342, 343, 344, 345, 346, 347, 348, 349, 350, 351, 352, 353, 354, 355, 356, 357, 358, 359, 360, 361, 362, 363, 364, 365, 366, 367, 368, 369, 370, 371, 372, 373, 374, 375, 376, 377, 378, 379, 380, 381, 382, 383, 384, 385, 386, 387, 388, 389, 390, 391, 392, 393, 394, 395, 396, 397, 398, 399, 400, 401, 402, 403, 404, 405, 406, 407, 408, 409, 410, 411, 412, 413, 414, 415, 416, 417, 418, 419, 420, 421, 422, 423, 424, 425, 426, 427, 428, 429, 430, 431, 432, 433, 434, 435, 436, 437, 438, 439, 440, 441, 442, 443, 444, 445, 446, 447, 448, 449, 450, 451, 452, 453, 454, 455, 456, 457, 458, 459, 460, 461, 462, 463, 464, 465, 466, 467, 468, 469, 470, 471, 472, 473, 474, 475, 476, 477, 478, 479, 480, 481, 482, 483, 484, 485, 486, 487, 488, 489, 490, 491, 492, 493, 494, 495, 496, 497, 498, 499, 500, 501, 502, 503, 504, 505, 506, 507, 508, 509, 510, 511, 512, 513, 514, 515, 516, 517, 518, 519, 520, 521, 522, 523, 524, 525, 526, 527, 528, 529, 530, 531, 532, 533, 534, 535, 536, 537, 538, 539, 540, 541, 542, 543, 544, 545, 546, 547, 548, 549, 550, 551, 552, 553, 554, 555, 556, 557, 558, 559, 560, 561, 562, 563, 564, 565, 566, 567, 568, 569, 570, 571, 572, 573, 574, 575, 576, 577, 578, 579, 580, 581, 582, 583, 584, 585, 586, 587, 588, 589, 590, 591, 592, 593, 594, 595, 596, 597, 598, 599, 600, 601, 602, 603, 604, 605, 606, 607, 608, 609, 610, 611, 612, 613, 614, 615, 616, 617, 618, 619, 620, 621, 622, 623, 624, 625, 626, 627, 628, 629, 630, 631, 632, 633, 634, 635, 636, 637, 638, 639, 640, 641, 642, 643, 644, 645, 646, 647, 648, 649, 650, 651, 652, 653, 654, 655, 656, 657, 658, 659, 660, 661, 662, 663, 664, 665, 666, 667, 668, 669, 670, 671, 672, 673, 674, 675, 676, 677, 678, 679, 680, 681, 682, 683, 684, 685, 686, 687, 688, 689, 690, 691, 692, 693, 694, 695, 696, 697, 698, 699, 700, 701, 702, 703, 704, 705, 706, 707, 708, 709, 710, 711, 712, 713, 714, 715, 716, 717, 718, 719, 720, 721, 722, 723, 724, 725, 726, 727, 728, 729, 730, 731, 732, 733, 734, 735, 736, 737, 738, 739, 740, 741, 742, 743, 744, 745, 746, 747, 748, 749, 750, 751, 752, 753, 754, 755, 756, 757, 758, 759, 760, 761, 762, 763, 764, 765, 766, 767, 768, 769, 770, 771, 772, 773, 774, 775, 776, 777, 778, 779, 780, 781, 782, 783, 784, 785, 786, 787, 788, 789, 790, 791, 792, 793, 794, 795, 796, 797, 798, 799, 800, 801, 802, 803, 804, 805, 806, 807, 808, 809, 810, 811, 812, 813, 814, 815, 816, 817, 818, 819, 820, 821, 822, 823, 824, 825, 826, 827, 828, 829, 830, 831, 832, 833, 834, 835, 836, 837, 838, 839, 840, 841, 842, 843, 844, 845, 846, 847, 848, 849, 850, 851, 852, 853, 854, 855, 856, 857, 858, 859, 860, 861, 862, 863, 864, 865, 866, 867, 868, 869, 870, 871, 872],
      "AcquisitionTime": ["150803.600000", "150804.060000", "150804.520000", "150804.980000", "150805.440000", "150805.900000", "150806.360000", "150806.820000", "150807.280000", "150807.740000", "150808.200000", "150808.660000", "150809.120000", "150809.580000", "150810.040000", "150810.500000", "150810.960000", "150811.420000", "150811.880000", "150812.340000", "150812.800000", "150813.260000", "150813.720000", "150814.180000", "150814.640000", "150815.100000", "150815.560000", "150816.020000", "150816.480000", "150816.940000", "150817.400000", "150817.860000", "150818.320000", "150818.780000", "150819.240000", "150819.700000", "150820.160000", "150820.620000", "150821.080000", "150821.540000", "150822.000000", "150822.460000", "150822.920000", "150823.380000", "150823.840000", "150824.300000", "150824.760000", "150825.220000", "150825.680000", "150826.140000", "150826.600000", "150827.060000", "150827.520000", "150827.980000", "150828.440000", "150828.900000", "150829.360000", "150829.820000", "150830.280000", "150830.740000", "150831.200000", "150831.660000", "150832.120000", "150832.580000", "150833.040000", "150833.500000", "150833.960000", "150834.420000", "150834.880000", "150835.340000", "150835.800000", "150836.260000", "150836.720000", "150837.180000", "150837.640000", "150838.100000", "150838.560000", "150839.020000", "150839.480000", "150839.940000", "150840.400000", "150840.860000", "150841.320000", "150841.780000", "150842.240000", "150842.700000", "150843.160000", "150843.620000", "150844.080000", "150844.540000", "150845.000000", "150845.460000", "150845.920000", "150846.380000", "150846.840000", "150847.300000", "150847.760000", "150848.220000", "150848.680000", "150849.140000", "150849.600000", "150850.060000", "150850.520000", "150850.980000", "150851.440000", "150851.900000", "150852.360000", "150852.820000", "150853.280000", "150853.740000", "150854.200000", "150854.660000", "150855.120000", "150855.580000", "150856.040000", "150856.500000", "150856.960000", "150857.420000", "150857.880000", "150858.340000", "150858.800000", "150859.260000", "150859.720000", "150900.180000", "150900.640000", "150901.100000", "150901.560000", "150902.020000", "150902.480000", "150902.940000", "150903.400000", "150903.860000", "150904.320000", "150904.780000", "150905.240000", "150905.700000", "150906.160000", "150906.620000", "150907.080000", "150907.540000", "150908.000000", "150908.460000", "150908.920000", "150909.380000", "150909.840000", "150910.300000", "150910.760000", "150911.220000", "150911.680000", "150912.140000", "150912.600000", "150913.060000", "150913.520000", "150913.980000", "150914.440000", "150914.900000", "150915.360000", "150915.820000", "150916.280000", "150916.740000", "150917.200000", "150917.660000", "150918.120000", "150918.580000", "150919.040000", "150919.500000", "150919.960000", "150920.420000", "150920.880000", "150921.340000", "150921.800000", "150922.260000", "150922.720000", "150923.180000", "150923.640000", "150924.100000", "150924.560000", "150925.020000", "150925.480000", "150925.940000", "150926.400000", "150926.860000", "150927.320000", "150927.780000", "150928.240000", "150928.700000", "150929.160000", "150929.620000", "150930.080000", "150930.540000", "150931.000000", "150931.460000", "150931.920000", "150932.380000", "150932.840000", "150933.300000", "150933.760000", "150934.220000", "150934.680000", "150935.140000", "150935.600000", "150936.060000", "150936.520000", "150936.980000", "150937.440000", "150937.900000", "150938.360000", "150938.820000", "150939.280000", "150939.740000", "150940.200000", "150940.660000", "150941.120000", "150941.580000", "150942.040000", "150942.500000", "150942.960000", "150943.420000", "150943.880000", "150944.340000", "150944.800000", "150945.260000", "150945.720000", "150946.180000", "150946.640000", "150947.100000", "150947.560000", "150948.020000", "150948.480000", "150948.940000", "150949.400000", "150949.860000", "150950.320000", "150950.780000", "150951.240000", "150951.700000", "150952.160000", "150952.620000", "150953.080000", "150953.540000", "150954.000000", "150954.460000", "150954.920000", "150955.380000", "150955.840000", "150956.300000", "150956.760000", "150957.220000", "150957.680000", "150958.140000", "150958.600000", "150959.060000", "150959.520000", "150959.980000", "151000.440000", "151000.900000", "151001.360000", "151001.820000", "151002.280000", "151002.740000", "151003.200000", "151003.660000", "151004.120000", "151004.580000", "151005.040000", "151005.500000", "151005.960000", "151006.420000", "151006.880000", "151007.340000", "151007.800000", "151008.260000", "151008.720000", "151009.180000", "151009.640000", "151010.100000", "151010.560000", "151011.020000", "151011.480000", "151011.940000", "151012.400000", "151012.860000", "151013.320000", "151013.780000", "151014.240000", "151014.700000", "151015.160000", "151015.620000", "151016.080000", "151016.540000", "151017.000000", "151017.460000", "151017.920000", "151018.380000", "151018.840000", "151019.300000", "151019.760000", "151020.220000", "151020.680000", "151021.140000", "151021.600000", "151022.060000", "151022.520000", "151022.980000", "151023.440000", "151023.900000", "151024.360000", "151024.820000", "151025.280000", "151025.740000", "151026.200000", "151026.660000", "151027.120000", "151027.580000", "151028.040000", "151028.500000", "151028.960000", "151029.420000", "151029.880000", "151030.340000", "151030.800000", "151031.260000", "151031.720000", "151032.180000", "151032.640000", "151033.100000", "151033.560000", "151034.020000", "151034.480000", "151034.940000", "151035.400000", "151035.860000", "151036.320000", "151036.780000", "151037.240000", "151037.700000", "151038.160000", "151038.620000", "151039.080000", "151039.540000", "151040.000000", "151040.460000", "151040.920000", "151041.380000", "151041.840000", "151042.300000", "151042.760000", "151043.220000", "151043.680000", "151044.140000", "151044.600000", "151045.060000", "151045.520000", "151045.980000", "151046.440000", "151046.900000", "151047.360000", "151047.820000", "151048.280000", "151048.740000", "151049.200000", "151049.660000", "151050.120000", "151050.580000", "151051.040000", "151051.500000", "151051.960000", "151052.420000", "151052.880000", "151053.340000", "151053.800000", "151054.260000", "151054.720000", "151055.180000", "151055.640000", "151056.100000", "151056.560000", "151057.020000", "151057.480000", "151057.940000", "151058.400000", "151058.860000", "151059.320000", "151059.780000", "151100.240000", "151100.700000", "151101.160000", "151101.620000", "151102.080000", "151102.540000", "151103.000000", "151103.460000", "151103.920000", "151104.380000", "151104.840000", "151105.300000", "151105.760000", "151106.220000", "151106.680000", "151107.140000", "151107.600000", "151108.060000", "151108.520000", "151108.980000", "151109.440000", "151109.900000", "151110.360000", "151110.820000", "151111.280000", "151111.740000", "151112.200000", "151112.660000", "151113.120000", "151113.580000", "151114.040000", "151114.500000", "151114.960000", "151115.420000", "151115.880000", "151116.340000", "151116.800000", "151117.260000", "151117.720000", "151118.180000", "151118.640000", "151119.100000", "151119.560000", "151120.020000", "151120.480000", "151120.940000", "151121.400000", "151121.860000", "151122.320000", "151122.780000", "151123.240000", "151123.700000", "151124.160000", "151124.620000", "151125.080000", "151125.540000", "151126.000000", "151126.460000", "151126.920000", "151127.380000", "151127.840000", "151128.300000", "151128.760000", "151129.220000", "151129.680000", "151130.140000", "151130.600000", "151131.060000", "151131.520000", "151131.980000", "151132.440000", "151132.900000", "151133.360000", "151133.820000", "151134.280000", "151134.740000", "151135.200000", "151135.660000", "151136.120000", "151136.580000", "151137.040000", "151137.500000", "151137.960000", "151138.420000", "151138.880000", "151139.340000", "151139.800000", "151140.260000", "151140.720000", "151141.180000", "151141.640000", "151142.100000", "151142.560000", "151143.020000", "151143.480000", "151143.940000", "151144.400000", "151144.860000", "151145.320000", "151145.780000", "151146.240000", "151146.700000", "151147.160000", "151147.620000", "151148.080000", "151148.540000", "151149.000000", "151149.460000", "151149.920000", "151150.380000", "151150.840000", "151151.300000", "151151.760000", "151152.220000", "151152.680000", "151153.140000", "151153.600000", "151154.060000", "151154.520000", "151154.980000", "151155.440000", "151155.900000", "151156.360000", "151156.820000", "151157.280000", "151157.740000", "151158.200000", "151158.660000", "151159.120000", "151159.580000", "151200.040000", "151200.500000", "151200.960000", "151201.420000", "151201.880000", "151202.340000", "151202.800000", "151203.260000", "151203.720000", "151204.180000", "151204.640000", "151205.100000", "151205.560000", "151206.020000", "151206.480000", "151206.940000", "151207.400000", "151207.860000", "151208.320000", "151208.780000", "151209.240000", "151209.700000", "151210.160000", "151210.620000", "151211.080000", "151211.540000", "151212.000000", "151212.460000", "151212.920000", "151213.380000", "151213.840000", "151214.300000", "151214.760000", "151215.220000", "151215.680000", "151216.140000", "151216.600000", "151217.060000", "151217.520000", "151217.980000", "151218.440000", "151218.900000", "151219.360000", "151219.820000", "151220.280000", "151220.740000", "151221.200000", "151221.660000", "151222.120000", "151222.580000", "151223.040000", "151223.500000", "151223.960000", "151224.420000", "151224.880000", "151225.340000", "151225.800000", "151226.260000", "151226.720000", "151227.180000", "151227.640000", "151228.100000", "151228.560000", "151229.020000", "151229.480000", "151229.940000", "151230.400000", "151230.860000", "151231.320000", "151231.780000", "151232.240000", "151232.700000", "151233.160000", "151233.620000", "151234.080000", "151234.540000", "151235.000000", "151235.460000", "151235.920000", "151236.380000", "151236.840000", "151237.300000", "151237.760000", "151238.220000", "151238.680000", "151239.140000", "151239.600000", "151240.060000", "151240.520000", "151240.980000", "151241.440000", "151241.900000", "151242.360000", "151242.820000", "151243.280000", "151243.740000", "151244.200000", "151244.660000", "151245.120000", "151245.580000", "151246.040000", "151246.500000", "151246.960000", "151247.420000", "151247.880000", "151248.340000", "151248.800000", "151249.260000", "151249.720000", "151250.180000", "151250.640000", "151251.100000", "151251.560000", "151252.020000", "151252.480000", "151252.940000", "151253.400000", "151253.860000", "151254.320000", "151254.780000", "151255.240000", "151255.700000", "151256.160000", "151256.620000", "151257.080000", "151257.540000", "151258.000000", "151258.460000", "151258.920000", "151259.380000", "151259.840000", "151300.300000", "151300.760000", "151301.220000", "151301.680000", "151302.140000", "151302.600000", "151303.060000", "151303.520000", "151303.980000", "151304.440000", "151304.900000", "151305.360000", "151305.820000", "151306.280000", "151306.740000", "151307.200000", "151307.660000", "151308.120000", "151308.580000", "151309.040000", "151309.500000", "151309.960000", "151310.420000", "151310.880000", "151311.340000", "151311.800000", "151312.260000", "151312.720000", "151313.180000", "151313.640000", "151314.100000", "151314.560000", "151315.020000", "151315.480000", "151315.940000", "151316.400000", "151316.860000", "151317.320000", "151317.780000", "151318.240000", "151318.700000", "151319.160000", "151319.620000", "151320.080000", "151320.540000", "151321.000000", "151321.460000", "151321.920000", "151322.380000", "151322.840000", "151323.300000", "151323.760000", "151324.220000", "151324.680000", "151325.140000", "151325.600000", "151326.060000", "151326.520000", "151326.980000", "151327.440000", "151327.900000", "151328.360000", "151328.820000", "151329.280000", "151329.740000", "151330.200000", "151330.660000", "151331.120000", "151331.580000", "151332.040000", "151332.500000", "151332.960000", "151333.420000", "151333.880000", "151334.340000", "151334.800000", "151335.260000", "151335.720000", "151336.180000", "151336.640000", "151337.100000", "151337.560000", "151338.020000", "151338.480000", "151338.940000", "151339.400000", "151339.860000", "151340.320000", "151340.780000", "151341.240000", "151341.700000", "151342.160000", "151342.620000", "151343.080000", "151343.540000", "151344.000000", "151344.460000", "151344.920000", "151345.380000", "151345.840000", "151346.300000", "151346.760000", "151347.220000", "151347.680000", "151348.140000", "151348.600000", "151349.060000", "151349.520000", "151349.980000", "151350.440000", "151350.900000", "151351.360000", "151351.820000", "151352.280000", "151352.740000", "151353.200000", "151353.660000", "151354.120000", "151354.580000", "151355.040000", "151355.500000", "151355.960000", "151356.420000", "151356.880000", "151357.340000", "151357.800000", "151358.260000", "151358.720000", "151359.180000", "151359.640000", "151400.100000", "151400.560000", "151401.020000", "151401.480000", "151401.940000", "151402.400000", "151402.860000", "151403.320000", "151403.780000", "151404.240000", "151404.700000", "151405.160000", "151405.620000", "151406.080000", "151406.540000", "151407.000000", "151407.460000", "151407.920000", "151408.380000", "151408.840000", "151409.300000", "151409.760000", "151410.220000", "151410.680000", "151411.140000", "151411.600000", "151412.060000", "151412.520000", "151412.980000", "151413.440000", "151413.900000", "151414.360000", "151414.820000", "151415.280000", "151415.740000", "151416.200000", "151416.660000", "151417.120000", "151417.580000", "151418.040000", "151418.500000", "151418.960000", "151419.420000", "151419.880000", "151420.340000", "151420.800000", "151421.260000", "151421.720000", "151422.180000", "151422.640000", "151423.100000", "151423.560000", "151424.020000", "151424.480000", "151424.940000", "151425.400000", "151425.860000", "151426.320000", "151426.780000", "151427.240000", "151427.700000", "151428.160000", "151428.620000", "151429.080000", "151429.540000", "151430.000000", "151430.460000", "151430.920000", "151431.380000", "151431.840000", "151432.300000", "151432.760000", "151433.220000", "151433.680000", "151434.140000", "151434.600000", "151435.060000", "151435.520000", "151435.980000", "151436.440000", "151436.900000", "151437.360000", "151437.820000", "151438.280000", "151438.740000", "151439.200000", "151439.660000", "151440.120000", "151440.580000", "151441.040000", "151441.500000", "151441.960000", "151442.420000", "151442.880000", "151443.340000", "151443.800000", "151444.260000"],
