{
  "AcquisitionMatrixPE": 82,
  "AcquisitionNumber": 1,
  "AcquisitionTime": "15:46:52.462500",
  "BandwidthPerPixelPhaseEncode": 24.888,
  "BaseResolution": 82,
  "BodyPartExamined": "BRAIN",
  "ConsistencyInfo": "N4_VE11C_LATEST_20160120",
  "ConversionSoftware": "dcm2niix",
  "ConversionSoftwareVersion": "v1.0.20201102",
  "DerivedVendorReportedEchoSpacing": 0.00049,
  "DeviceSerialNumber": "66112",
  "DwellTime": 2e-06,
  "EchoTime": 0.0272,
  "EchoTrainLength": 82,
  "EffectiveEchoSpacing": 0.00049,
  "FlipAngle": 44,
  "ImageComments": "Unaliased MB8/PE3",
  "ImageOrientationPatientDICOM": [0.999858, 0.00452161, -0.0162342, -0.00471177, 0.99992, -0.0116947],
  "ImageType": [
    "ORIGINAL",
    "PRIMARY",
    "M",
    "MB",
    "ND",
    "NORM",
    "MOSAIC"
],
  "ImagingFrequency": 123.252,
  "InPlanePhaseEncodingDirectionDICOM": "COL",
  "InstitutionAddress": "Maynard 3,Hanover,NH,US,03755",
  "InstitutionName": "Dartmouth College - PBS",
  "InstitutionalDepartmentName": "Department",
  "MRAcquisitionType": "2D",
  "MagneticFieldStrength": 3,
  "Manufacturer": "Siemens",
  "ManufacturersModelName": "Prisma",
  "Modality": "MR",
  "MultibandAccelerationFactor": 8,
  "PartialFourier": 1,
  "PatientPosition": "HFS",
  "PercentPhaseFOV": 100,
  "PercentSampling": 100,
  "PhaseEncodingDirection": "j-",
  "PhaseEncodingSteps": 82,
  "PhaseResolution": 1,
  "PixelBandwidth": 3050,
  "ProcedureStepDescription": "Wager_Wager^1076_spacetop",
  "ProtocolName": "func_run-06_task-social_acq-ap-mb8",
  "PulseSequenceDetails": "%CustomerSeq%\\cmrr_mbep2d_bold",
  "ReceiveCoilActiveElements": "HEA;HEP",
  "ReceiveCoilName": "Head_32",
  "ReconMatrixPE": 82,
  "RepetitionTime": 0.46,
  "SAR": 0.100329,
  "ScanOptions": "FS",
  "ScanningSequence": "EP",
  "SequenceName": "epfid2d1_82",
  "SequenceVariant": "SK\\SS",
  "SeriesDescription": "func_run-06_task-social_acq-ap-mb8",
  "SeriesNumber": 18,
  "ShimSetting": [4144, -7731, -7235, 527, -47, -182, 123, 57],
  "SliceThickness": 2.7,
  "SliceTiming": [0, 0.2525, 0.0625, 0.315, 0.125, 0.3775, 0.1875, 0, 0.2525, 0.0625, 0.315, 0.125, 0.3775, 0.1875, 0, 0.2525, 0.0625, 0.315, 0.125, 0.3775, 0.1875, 0, 0.2525, 0.0625, 0.315, 0.125, 0.3775, 0.1875, 0, 0.2525, 0.0625, 0.315, 0.125, 0.3775, 0.1875, 0, 0.2525, 0.0625, 0.315, 0.125, 0.3775, 0.1875, 0, 0.2525, 0.0625, 0.315, 0.125, 0.3775, 0.1875, 0, 0.2525, 0.0625, 0.315, 0.125, 0.3775, 0.1875],
  "SoftwareVersions": "syngo MR E11",
  "SpacingBetweenSlices": 2.7,
  "StationName": "AWP66112",
  "TaskName": "social",
  "TotalReadoutTime": 0.03969,
  "TxRefAmp": 270.39,
  "WipMemBlock": "75681cc4-b8ed-40fd-9c39-fbabe33f25d3||Sequence: R016 ve11c/master r/e634e98; Dec 19 2017 11:00:25 by eja",
  "dcmmeta_affine": [
    [-2.6825459003448486, -0.012641342356801033, -0.043686121702194214, 114.0643081665039],
    [-0.01213114708662033, 2.682713747024536, -0.031777676194906235, -86.28300476074219],
    [-0.043555211275815964, 0.03137596696615219, 2.6994595527648926, -60.388023376464844],
    [0.0, 0.0, 0.0, 1.0]
],
  "dcmmeta_reorient_transform": [
    [0.0, -1.0, 0.0, 81.0],
    [1.0, 0.0, 0.0, 0.0],
    [0.0, 0.0, 1.0, 0.0],
    [0.0, 0.0, 0.0, 1.0]
],
  "dcmmeta_shape": [82, 82, 56, 872],
  "dcmmeta_slice_dim": 2,
  "dcmmeta_version": 0.6,
  "global": {
    "const": {
      "AccessionNumber": "A003851",
      "AcquisitionMatrix": [82, 0, 0, 82],
      "AngioFlag": "N",
      "BitsAllocated": 16,
      "BitsStored": 16,
      "BodyPartExamined": "BRAIN",
      "Columns": 656,
      "EchoNumbers": 1,
      "EchoTime": 27.2,
      "EchoTrainLength": 82,
      "FlipAngle": 44.0,
      "HighBit": 15,
      "ImageOrientationPatient": [0.99985799258329, 0.00452160915568, -0.016234214424, -0.0047117727818, 0.99992051368188, -0.011694678936],
      "ImagePositionPatient": [-879.30296932112, -904.43725498835, -36.341320205523],
      "ImageType": [
        "ORIGINAL",
        "PRIMARY",
        "M",
        "MB",
        "ND",
        "NORM",
        "MOSAIC"
],
      "ImagedNucleus": "1H",
      "ImagingFrequency": 123.252166,
      "InPlanePhaseEncodingDirection": "COL",
      "MRAcquisitionType": "2D",
      "MagneticFieldStrength": 3.0,
      "Manufacturer": "SIEMENS",
      "ManufacturerModelName": "Prisma",
      "Modality": "MR",
      "NumberOfAverages": 1.0,
      "NumberOfPhaseEncodingSteps": 82,
      "PercentPhaseFieldOfView": 100.0,
      "PercentSampling": 100.0,
      "PerformedProcedureStepStartTime": "145142.671000",
      "PhotometricInterpretation": "MONOCHROME2",
      "PixelBandwidth": 3050.0,
      "PixelRepresentation": 0,
      "PixelSpacing": [2.6829268932343, 2.6829268932343],
      "ProtocolName": "func_run-06_task-social_acq-ap-mb8",
      "RepetitionTime": 460.0,
      "Rows": 656,
      "SAR": 0.10032866820767,
      "SamplesPerPixel": 1,
      "ScanOptions": "FS",
      "ScanningSequence": "EP",
      "SequenceName": "epfid2d1_82",
      "SequenceVariant": [
        "SK",
        "SS"
],
      "SeriesDescription": "func_run-06_task-social_acq-ap-mb8",
      "SeriesNumber": 18,
      "SeriesTime": "154705.785000",
      "SliceLocation": -61.205990763668,
      "SliceThickness": 2.7000000476837,
      "SmallestImagePixelValue": 0,
      "SoftwareVersions": "syngo MR E11",
      "SpacingBetweenSlices": 2.7000000410625,
      "SpecificCharacterSet": "ISO_IR 100",
      "StudyID": "1",
      "StudyTime": "145142.547000",
      "TransmitCoilName": "Body",
      "VariableFlipAngleFlag": "N",
      "WindowCenterWidthExplanation": "Algo1",
      "dBdt": 0.0},
    "slices": {}
  },
  "time": {
    "samples": {
      "AcquisitionNumber": [1, 2, 3, 4, 5, 6, 7, 8, 9, 10, 11, 12, 13, 14, 15, 16, 17, 18, 19, 20, 21, 22, 23, 24, 25, 26, 27, 28, 29, 30, 31, 32, 33, 34, 35, 36, 37, 38, 39, 40, 41, 42, 43, 44, 45, 46, 47, 48, 49, 50, 51, 52, 53, 54, 55, 56, 57, 58, 59, 60, 61, 62, 63, 64, 65, 66, 67, 68, 69, 70, 71, 72, 73, 74, 75, 76, 77, 78, 79, 80, 81, 82, 83, 84, 85, 86, 87, 88, 89, 90, 91, 92, 93, 94, 95, 96, 97, 98, 99, 100, 101, 102, 103, 104, 105, 106, 107, 108, 109, 110, 111, 112, 113, 114, 115, 116, 117, 118, 119, 120, 121, 122, 123, 124, 125, 126, 127, 128, 129, 130, 131, 132, 133, 134, 135, 136, 137, 138, 139, 140, 141, 142, 143, 144, 145, 146, 147, 148, 149, 150, 151, 152, 153, 154, 155, 156, 157, 158, 159, 160, 161, 162, 163, 164, 165, 166, 167, 168, 169, 170, 171, 172, 173, 174, 175, 176, 177, 178, 179, 180, 181, 182, 183, 184, 185, 186, 187, 188, 189, 190, 191, 192, 193, 194, 195, 196, 197, 198, 199, 200, 201, 202, 203, 204, 205, 206, 207, 208, 209, 210, 211, 212, 213, 214, 215, 216, 217, 218, 219, 220, 221, 222, 223, 224, 225, 226, 227, 228, 229, 230, 231, 232, 233, 234, 235, 236, 237, 238, 239, 240, 241, 242, 243, 244, 245, 246, 247, 248, 249, 250, 251, 252, 253, 254, 255, 256, 257, 258, 259, 260, 261, 262, 263, 264, 265, 266, 267, 268, 269, 270, 271, 272, 273, 274, 275, 276, 277, 278, 279, 280, 281, 282, 283, 284, 285, 286, 287, 288, 289, 290, 291, 292, 293, 294, 295, 296, 297, 298, 299, 300, 301, 302, 303, 304, 305, 306, 307, 308, 309, 310, 311, 312, 313, 314, 315, 316, 317, 318, 319, 320, 321, 322, 323, 324, 325, 326, 327, 328, 329, 330, 331, 332, 333, 334, 335, 336, 337, 338, 339, 340, 341, 342, 343, 344, 345, 346, 347, 348, 349, 350, 351, 352, 353, 354, 355, 356, 357, 358, 359, 360, 361, 362, 363, 364, 365, 366, 367, 368, 369, 370, 371, 372, 373, 374, 375, 376, 377, 378, 379, 380, 381, 382, 383, 384, 385, 386, 387, 388, 389, 390, 391, 392, 393, 394, 395, 396, 397, 398, 399, 400, 401, 402, 403, 404, 405, 406, 407, 408, 409, 410, 411, 412, 413, 414, 415, 416, 417, 418, 419, 420, 421, 422, 423, 424, 425, 426, 427, 428, 429, 430, 431, 432, 433, 434, 435, 436, 437, 438, 439, 440, 441, 442, 443, 444, 445, 446, 447, 448, 449, 450, 451, 452, 453, 454, 455, 456, 457, 458, 459, 460, 461, 462, 463, 464, 465, 466, 467, 468, 469, 470, 471, 472, 473, 474, 475, 476, 477, 478, 479, 480, 481, 482, 483, 484, 485, 486, 487, 488, 489, 490, 491, 492, 493, 494, 495, 496, 497, 498, 499, 500, 501, 502, 503, 504, 505, 506, 507, 508, 509, 510, 511, 512, 513, 514, 515, 516, 517, 518, 519, 520, 521, 522, 523, 524, 525, 526, 527, 528, 529, 530, 531, 532, 533, 534, 535, 536, 537, 538, 539, 540, 541, 542, 543, 544, 545, 546, 547, 548, 549, 550, 551, 552, 553, 554, 555, 556, 557, 558, 559, 560, 561, 562, 563, 564, 565, 566, 567, 568, 569, 570, 571, 572, 573, 574, 575, 576, 577, 578, 579, 580, 581, 582, 583, 584, 585, 586, 587, 588, 589, 590, 591, 592, 593, 594, 595, 596, 597, 598, 599, 600, 601, 602, 603, 604, 605, 606, 607, 608, 609, 610, 611, 612, 613, 614, 615, 616, 617, 618, 619, 620, 621, 622, 623, 624, 625, 626, 627, 628, 629, 630, 631, 632, 633, 634, 635, 636, 637, 638, 639, 640, 641, 642, 643, 644, 645, 646, 647, 648, 649, 650, 651, 652, 653, 654, 655, 656, 657, 658, 659, 660, 661, 662, 663, 664, 665, 666, 667, 668, 669, 670, 671, 672, 673, 674, 675, 676, 677, 678, 679, 680, 681, 682, 683, 684, 685, 686, 687, 688, 689, 690, 691, 692, 693, 694, 695, 696, 697, 698, 699, 700, 701, 702, 703, 704, 705, 706, 707, 708, 709, 710, 711, 712, 713, 714, 715, 716, 717, 718, 719, 720, 721, 722, 723, 724, 725, 726, 727, 728, 729, 730, 731, 732, 733, 734, 735, 736, 737, 738, 739, 740, 741, 742, 743, 744, 745, 746, 747, 748, 749, 750, 751, 752, 753, 754, 755, 756, 757, 758, 759, 760, 761, 762, 763, 764, 765, 766, 767, 768, 769, 770, 771, 772, 773, 774, 775, 776, 777, 778, 779, 780, 781, 782, 783, 784, 785, 786, 787, 788, 789, 790, 791, 792, 793, 794, 795, 796, 797, 798, 799, 800, 801, 802, 803, 804, 805, 806, 807, 808, 809, 810, 811, 812, 813, 814, 815, 816, 817, 818, 819, 820, 821, 822, 823, 824, 825, 826, 827, 828, 829, 830, 831, 832, 833, 834, 835, 836, 837, 838, 839, 840, 841, 842, 843, 844, 845, 846, 847, 848, 849, 850, 851, 852, 853, 854, 855, 856, 857, 858, 859, 860, 861, 862, 863, 864, 865, 866, 867, 868, 869, 870, 871, 872],
      "AcquisitionTime": ["154652.462500", "154652.922500", "154653.382500", "154653.842500", "154654.302500", "154654.762500", "154655.222500", "154655.682500", "154656.142500", "154656.602500", "154657.062500", "154657.522500", "154657.982500", "154658.442500", "154658.902500", "154659.362500", "154659.822500", "154700.282500", "154700.742500", "154701.202500", "154701.662500", "154702.122500", "154702.582500", "154703.042500", "154703.502500", "154703.962500", "154704.422500", "154704.882500", "154705.342500", "154705.802500", "154706.262500", "154706.722500", "154707.182500", "154707.642500", "154708.102500", "154708.562500", "154709.022500", "154709.482500", "154709.942500", "154710.402500", "154710.862500", "154711.322500", "154711.782500", "154712.242500", "154712.702500", "154713.162500", "154713.622500", "154714.082500", "154714.542500", "154715.002500", "154715.462500", "154715.922500", "154716.382500", "154716.842500", "154717.302500", "154717.762500", "154718.222500", "154718.682500", "154719.142500", "154719.602500", "154720.062500", "154720.522500", "154720.982500", "154721.442500", "154721.902500", "154722.362500", "154722.822500", "154723.282500", "154723.742500", "154724.202500", "154724.662500", "154725.122500", "154725.582500", "154726.042500", "154726.502500", "154726.962500", "154727.422500", "154727.882500", "154728.342500", "154728.802500", "154729.262500", "154729.722500", "154730.182500", "154730.642500", "154731.102500", "154731.562500", "154732.022500", "154732.482500", "154732.942500", "154733.402500", "154733.862500", "154734.322500", "154734.782500", "154735.242500", "154735.702500", "154736.162500", "154736.622500", "154737.082500", "154737.542500", "154738.002500", "154738.462500", "154738.922500", "154739.382500", "154739.842500", "154740.302500", "154740.762500", "154741.222500", "154741.682500", "154742.142500", "154742.602500", "154743.062500", "154743.522500", "154743.982500", "154744.442500", "154744.902500", "154745.362500", "154745.822500", "154746.282500", "154746.742500", "154747.202500", "154747.662500", "154748.122500", "154748.582500", "154749.042500", "154749.502500", "154749.962500", "154750.422500", "154750.882500", "154751.342500", "154751.802500", "154752.262500", "154752.722500", "154753.182500", "154753.642500", "154754.102500", "154754.562500", "154755.022500", "154755.482500", "154755.942500", "154756.402500", "154756.862500", "154757.322500", "154757.782500", "154758.242500", "154758.702500", "154759.162500", "154759.622500", "154800.082500", "154800.542500", "154801.002500", "154801.462500", "154801.922500", "154802.382500", "154802.842500", "154803.302500", "154803.762500", "154804.222500", "154804.682500", "154805.142500", "154805.602500", "154806.062500", "154806.522500", "154806.982500", "154807.442500", "154807.902500", "154808.362500", "154808.822500", "154809.282500", "154809.742500", "154810.202500", "154810.662500", "154811.122500", "154811.582500", "154812.042500", "154812.502500", "154812.962500", "154813.422500", "154813.882500", "154814.342500", "154814.802500", "154815.262500", "154815.722500", "154816.182500", "154816.642500", "154817.102500", "154817.562500", "154818.022500", "154818.482500", "154818.942500", "154819.402500", "154819.862500", "154820.322500", "154820.782500", "154821.242500", "154821.702500", "154822.162500", "154822.622500", "154823.082500", "154823.542500", "154824.002500", "154824.462500", "154824.922500", "154825.382500", "154825.842500", "154826.302500", "154826.762500", "154827.222500", "154827.682500", "154828.142500", "154828.602500", "154829.062500", "154829.522500", "154829.982500", "154830.442500", "154830.902500", "154831.362500", "154831.822500", "154832.282500", "154832.742500", "154833.202500", "154833.662500", "154834.122500", "154834.582500", "154835.042500", "154835.502500", "154835.962500", "154836.422500", "154836.882500", "154837.342500", "154837.802500", "154838.262500", "154838.722500", "154839.182500", "154839.642500", "154840.102500", "154840.562500", "154841.022500", "154841.482500", "154841.942500", "154842.402500", "154842.862500", "154843.322500", "154843.782500", "154844.242500", "154844.702500", "154845.162500", "154845.622500", "154846.082500", "154846.542500", "154847.002500", "154847.462500", "154847.922500", "154848.382500", "154848.842500", "154849.302500", "154849.762500", "154850.222500", "154850.682500", "154851.142500", "154851.602500", "154852.062500", "154852.522500", "154852.982500", "154853.442500", "154853.902500", "154854.362500", "154854.822500", "154855.282500", "154855.742500", "154856.202500", "154856.662500", "154857.122500", "154857.582500", "154858.042500", "154858.502500", "154858.962500", "154859.422500", "154859.882500", "154900.342500", "154900.802500", "154901.262500", "154901.722500", "154902.182500", "154902.642500", "154903.102500", "154903.562500", "154904.022500", "154904.482500", "154904.942500", "154905.402500", "154905.862500", "154906.322500", "154906.782500", "154907.242500", "154907.702500", "154908.162500", "154908.622500", "154909.082500", "154909.542500", "154910.002500", "154910.462500", "154910.922500", "154911.382500", "154911.842500", "154912.302500", "154912.762500", "154913.222500", "154913.682500", "154914.142500", "154914.602500", "154915.062500", "154915.522500", "154915.982500", "154916.442500", "154916.902500", "154917.362500", "154917.822500", "154918.282500", "154918.742500", "154919.202500", "154919.662500", "154920.122500", "154920.582500", "154921.042500", "154921.502500", "154921.962500", "154922.422500", "154922.882500", "154923.342500", "154923.802500", "154924.262500", "154924.722500", "154925.182500", "154925.642500", "154926.102500", "154926.562500", "154927.022500", "154927.482500", "154927.942500", "154928.402500", "154928.862500", "154929.322500", "154929.782500", "154930.242500", "154930.702500", "154931.162500", "154931.622500", "154932.082500", "154932.542500", "154933.002500", "154933.462500", "154933.922500", "154934.382500", "154934.842500", "154935.302500", "154935.762500", "154936.222500", "154936.682500", "154937.142500", "154937.602500", "154938.062500", "154938.522500", "154938.982500", "154939.442500", "154939.902500", "154940.362500", "154940.822500", "154941.282500", "154941.742500", "154942.202500", "154942.662500", "154943.122500", "154943.582500", "154944.042500", "154944.502500", "154944.962500", "154945.422500", "154945.882500", "154946.342500", "154946.802500", "154947.262500", "154947.722500", "154948.182500", "154948.642500", "154949.102500", "154949.562500", "154950.022500", "154950.482500", "154950.942500", "154951.402500", "154951.862500", "154952.322500", "154952.782500", "154953.242500", "154953.702500", "154954.162500", "154954.622500", "154955.082500", "154955.542500", "154956.002500", "154956.462500", "154956.922500", "154957.382500", "154957.842500", "154958.302500", "154958.762500", "154959.222500", "154959.682500", "155000.142500", "155000.602500", "155001.062500", "155001.522500", "155001.982500", "155002.442500", "155002.902500", "155003.362500", "155003.822500", "155004.282500", "155004.742500", "155005.202500", "155005.662500", "155006.122500", "155006.582500", "155007.042500", "155007.502500", "155007.962500", "155008.422500", "155008.882500", "155009.342500", "155009.802500", "155010.262500", "155010.722500", "155011.182500", "155011.642500", "155012.102500", "155012.562500", "155013.022500", "155013.482500", "155013.942500", "155014.402500", "155014.862500", "155015.322500", "155015.782500", "155016.242500", "155016.702500", "155017.162500", "155017.622500", "155018.082500", "155018.542500", "155019.002500", "155019.462500", "155019.922500", "155020.382500", "155020.842500", "155021.302500", "155021.762500", "155022.222500", "155022.682500", "155023.142500", "155023.602500", "155024.062500", "155024.522500", "155024.982500", "155025.442500", "155025.902500", "155026.362500", "155026.822500", "155027.282500", "155027.742500", "155028.202500", "155028.662500", "155029.122500", "155029.582500", "155030.042500", "155030.502500", "155030.962500", "155031.422500", "155031.882500", "155032.342500", "155032.802500", "155033.262500", "155033.722500", "155034.182500", "155034.642500", "155035.102500", "155035.562500", "155036.022500", "155036.482500", "155036.942500", "155037.402500", "155037.862500", "155038.322500", "155038.782500", "155039.242500", "155039.702500", "155040.162500", "155040.622500", "155041.082500", "155041.542500", "155042.002500", "155042.462500", "155042.922500", "155043.382500", "155043.842500", "155044.302500", "155044.762500", "155045.222500", "155045.682500", "155046.142500", "155046.602500", "155047.062500", "155047.522500", "155047.982500", "155048.442500", "155048.902500", "155049.362500", "155049.822500", "155050.282500", "155050.742500", "155051.202500", "155051.662500", "155052.122500", "155052.582500", "155053.042500", "155053.502500", "155053.962500", "155054.422500", "155054.882500", "155055.342500", "155055.802500", "155056.262500", "155056.722500", "155057.182500", "155057.642500", "155058.102500", "155058.562500", "155059.022500", "155059.482500", "155059.942500", "155100.402500", "155100.862500", "155101.322500", "155101.782500", "155102.242500", "155102.702500", "155103.162500", "155103.622500", "155104.082500", "155104.542500", "155105.002500", "155105.462500", "155105.922500", "155106.382500", "155106.842500", "155107.302500", "155107.762500", "155108.222500", "155108.682500", "155109.142500", "155109.602500", "155110.062500", "155110.522500", "155110.982500", "155111.442500", "155111.902500", "155112.362500", "155112.822500", "155113.282500", "155113.742500", "155114.202500", "155114.662500", "155115.122500", "155115.582500", "155116.042500", "155116.502500", "155116.962500", "155117.422500", "155117.882500", "155118.342500", "155118.802500", "155119.262500", "155119.722500", "155120.182500", "155120.642500", "155121.102500", "155121.562500", "155122.022500", "155122.482500", "155122.942500", "155123.402500", "155123.862500", "155124.322500", "155124.782500", "155125.242500", "155125.702500", "155126.162500", "155126.622500", "155127.082500", "155127.542500", "155128.002500", "155128.462500", "155128.922500", "155129.382500", "155129.842500", "155130.302500", "155130.762500", "155131.222500", "155131.682500", "155132.142500", "155132.602500", "155133.062500", "155133.522500", "155133.982500", "155134.442500", "155134.902500", "155135.362500", "155135.822500", "155136.282500", "155136.742500", "155137.202500", "155137.662500", "155138.122500", "155138.582500", "155139.042500", "155139.502500", "155139.962500", "155140.422500", "155140.882500", "155141.342500", "155141.802500", "155142.262500", "155142.722500", "155143.182500", "155143.642500", "155144.102500", "155144.562500", "155145.022500", "155145.482500", "155145.942500", "155146.402500", "155146.862500", "155147.322500", "155147.782500", "155148.242500", "155148.702500", "155149.162500", "155149.622500", "155150.082500", "155150.542500", "155151.002500", "155151.462500", "155151.922500", "155152.382500", "155152.842500", "155153.302500", "155153.762500", "155154.222500", "155154.682500", "155155.142500", "155155.602500", "155156.062500", "155156.522500", "155156.982500", "155157.442500", "155157.902500", "155158.362500", "155158.822500", "155159.282500", "155159.742500", "155200.202500", "155200.662500", "155201.122500", "155201.582500", "155202.042500", "155202.502500", "155202.962500", "155203.422500", "155203.882500", "155204.342500", "155204.802500", "155205.262500", "155205.722500", "155206.182500", "155206.642500", "155207.102500", "155207.562500", "155208.022500", "155208.482500", "155208.942500", "155209.402500", "155209.862500", "155210.322500", "155210.782500", "155211.242500", "155211.702500", "155212.162500", "155212.622500", "155213.082500", "155213.542500", "155214.002500", "155214.462500", "155214.922500", "155215.382500", "155215.842500", "155216.302500", "155216.762500", "155217.222500", "155217.682500", "155218.142500", "155218.602500", "155219.062500", "155219.522500", "155219.982500", "155220.442500", "155220.902500", "155221.362500", "155221.822500", "155222.282500", "155222.742500", "155223.202500", "155223.662500", "155224.122500", "155224.582500", "155225.042500", "155225.502500", "155225.962500", "155226.422500", "155226.882500", "155227.342500", "155227.802500", "155228.262500", "155228.722500", "155229.182500", "155229.642500", "155230.102500", "155230.562500", "155231.022500", "155231.482500", "155231.942500", "155232.402500", "155232.862500", "155233.322500", "155233.782500", "155234.242500", "155234.702500", "155235.162500", "155235.622500", "155236.082500", "155236.542500", "155237.002500", "155237.462500", "155237.922500", "155238.382500", "155238.842500", "155239.302500", "155239.762500", "155240.222500", "155240.682500", "155241.142500", "155241.602500", "155242.062500", "155242.522500", "155242.982500", "155243.442500", "155243.902500", "155244.362500", "155244.822500", "155245.282500", "155245.742500", "155246.202500", "155246.662500", "155247.122500", "155247.582500", "155248.042500", "155248.502500", "155248.962500", "155249.422500", "155249.882500", "155250.342500", "155250.802500", "155251.262500", "155251.722500", "155252.182500", "155252.642500", "155253.102500", "155253.562500", "155254.022500", "155254.482500", "155254.942500", "155255.402500", "155255.862500", "155256.322500", "155256.782500", "155257.242500", "155257.702500", "155258.162500", "155258.622500", "155259.082500", "155259.542500", "155300.002500", "155300.462500", "155300.922500", "155301.382500", "155301.842500", "155302.302500", "155302.762500", "155303.222500", "155303.682500", "155304.142500", "155304.602500", "155305.062500", "155305.522500", "155305.982500", "155306.442500", "155306.902500", "155307.362500", "155307.822500", "155308.282500", "155308.742500", "155309.202500", "155309.662500", "155310.122500", "155310.582500", "155311.042500", "155311.502500", "155311.962500", "155312.422500", "155312.882500", "155313.342500", "155313.802500", "155314.262500", "155314.722500", "155315.182500", "155315.642500", "155316.102500", "155316.562500", "155317.022500", "155317.482500", "155317.942500", "155318.402500", "155318.862500", "155319.322500", "155319.782500", "155320.242500", "155320.702500", "155321.162500", "155321.622500", "155322.082500", "155322.542500", "155323.002500", "155323.462500", "155323.922500", "155324.382500", "155324.842500", "155325.302500", "155325.762500", "155326.222500", "155326.682500", "155327.142500", "155327.602500", "155328.062500", "155328.522500", "155328.982500", "155329.442500", "155329.902500", "155330.362500", "155330.822500", "155331.282500", "155331.742500", "155332.202500", "155332.662500", "155333.122500"],
