{
  "AcquisitionMatrixPE": 82,
  "AcquisitionNumber": 1,
  "AcquisitionTime": "13:30:46.505000",
  "BandwidthPerPixelPhaseEncode": 24.888,
  "BaseResolution": 82,
  "BodyPartExamined": "BRAIN",
  "ConsistencyInfo": "N4_VE11E_LATEST_20181129",
  "ConversionSoftware": "dcm2niix",
  "ConversionSoftwareVersion": "v1.0.20201102",
  "DerivedVendorReportedEchoSpacing": 0.00049,
  "DeviceSerialNumber": "66112",
  "DwellTime": 2e-06,
  "EchoTime": 0.0272,
  "EchoTrainLength": 82,
  "EffectiveEchoSpacing": 0.00049,
  "FlipAngle": 44,
  "ImageComments": "Unaliased MB8/PE3",
  "ImageOrientationPatientDICOM": [0.999458, 0.00320625, 0.0327591, -0.00418649, 0.999544, 0.0298981],
  "ImageType": [
    "ORIGINAL",
    "PRIMARY",
    "M",
    "MB",
    "ND",
    "NORM",
    "MOSAIC"
],
  "ImagingFrequency": 123.252,
  "InPlanePhaseEncodingDirectionDICOM": "COL",
  "InstitutionAddress": "Maynard 3,Hanover,NH,US,03755",
  "InstitutionName": "Dartmouth College - PBS",
  "InstitutionalDepartmentName": "Department",
  "MRAcquisitionType": "2D",
  "MagneticFieldStrength": 3,
  "Manufacturer": "Siemens",
  "ManufacturersModelName": "Prisma",
  "Modality": "MR",
  "MultibandAccelerationFactor": 8,
  "PartialFourier": 1,
  "PatientPosition": "HFS",
  "PercentPhaseFOV": 100,
  "PercentSampling": 100,
  "PhaseEncodingDirection": "j-",
  "PhaseEncodingSteps": 82,
  "PhaseResolution": 1,
  "PixelBandwidth": 3050,
  "ProcedureStepDescription": "Wager_Wager^1076_spacetop",
  "ProtocolName": "func_run-03_task-faces_acq-ap-mb8",
  "PulseSequenceDetails": "%CustomerSeq%\\cmrr_mbep2d_bold",
  "ReceiveCoilActiveElements": "HEA;HEP",
  "ReceiveCoilName": "Head_32",
  "ReconMatrixPE": 82,
  "RepetitionTime": 0.46,
  "SAR": 0.0984047,
  "ScanOptions": "FS",
  "ScanningSequence": "EP",
  "SequenceName": "epfid2d1_82",
  "SequenceVariant": "SK\\SS",
  "SeriesDescription": "func_run-03_task-faces_acq-ap-mb8",
  "SeriesNumber": 26,
  "ShimSetting": [4175, -7742, -7278, 530, 41, -47, 112, 55],
  "SliceThickness": 2.7,
  "SliceTiming": [0, 0.2525, 0.0625, 0.315, 0.125, 0.3775, 0.1875, 0, 0.2525, 0.0625, 0.315, 0.125, 0.3775, 0.1875, 0, 0.2525, 0.0625, 0.315, 0.125, 0.3775, 0.1875, 0, 0.2525, 0.0625, 0.315, 0.125, 0.3775, 0.1875, 0, 0.2525, 0.0625, 0.315, 0.125, 0.3775, 0.1875, 0, 0.2525, 0.0625, 0.315, 0.125, 0.3775, 0.1875, 0, 0.2525, 0.0625, 0.315, 0.125, 0.3775, 0.1875, 0, 0.2525, 0.0625, 0.315, 0.125, 0.3775, 0.1875],
  "SoftwareVersions": "syngo MR E11",
  "SpacingBetweenSlices": 2.7,
  "StationName": "AWP66112",
  "TaskName": "faces",
  "TotalReadoutTime": 0.03969,
  "TxRefAmp": 251.486,
  "WipMemBlock": "026dd53c-80a6-427c-a594-33729ad5c42b||Sequence: R016 ve11e/master r/434b28f1; Aug  7 2019 18:53:46 by eja",
  "dcmmeta_affine": [
    [-2.6814730167388916, -0.011232059448957443, 0.08815042674541473, 110.06917572021484],
    [-0.008602144196629524, 2.681704044342041, 0.08105132728815079, -95.18183135986328],
    [0.08789026737213135, -0.08021432161331177, 2.697343111038208, -58.18257522583008],
    [0.0, 0.0, 0.0, 1.0]
],
  "dcmmeta_reorient_transform": [
    [0.0, -1.0, 0.0, 81.0],
    [1.0, 0.0, 0.0, 0.0],
    [0.0, 0.0, 1.0, 0.0],
    [0.0, 0.0, 0.0, 1.0]
],
  "dcmmeta_shape": [82, 82, 56, 914],
  "dcmmeta_slice_dim": 2,
  "dcmmeta_version": 0.6,
  "global": {
    "const": {
      "AccessionNumber": "A004037",
      "AcquisitionMatrix": [82, 0, 0, 82],
      "AngioFlag": "N",
      "BitsAllocated": 16,
      "BitsStored": 16,
      "BodyPartExamined": "BRAIN",
      "Columns": 656,
      "EchoNumbers": 1,
      "EchoTime": 27.2,
      "EchoTrainLength": 82,
      "FlipAngle": 44.0,
      "HighBit": 15,
      "ImageOrientationPatient": [0.99945813383766, 0.00320625381955, 0.03275910014307, -0.0041864946142, 0.99954418557873, 0.02989806580041],
      "ImagePositionPatient": [-875.51856046141, -894.1540445651, -112.92595459217],
      "ImageType": [
        "ORIGINAL",
        "PRIMARY",
        "M",
        "MB",
        "ND",
        "NORM",
        "MOSAIC"
],
      "ImagedNucleus": "1H",
      "ImagingFrequency": 123.252221,
      "InPlanePhaseEncodingDirection": "COL",
      "MRAcquisitionType": "2D",
      "MagneticFieldStrength": 3.0,
      "Manufacturer": "SIEMENS",
      "ManufacturerModelName": "Prisma",
      "Modality": "MR",
      "NumberOfAverages": 1.0,
      "NumberOfPhaseEncodingSteps": 82,
      "PercentPhaseFieldOfView": 100.0,
      "PercentSampling": 100.0,
      "PerformedProcedureStepStartTime": "122435.789000",
      "PhotometricInterpretation": "MONOCHROME2",
      "PixelBandwidth": 3050.0,
      "PixelRepresentation": 0,
      "PixelSpacing": [2.6829268932343, 2.6829268932343],
      "ProtocolName": "func_run-03_task-faces_acq-ap-mb8",
      "RepetitionTime": 460.0,
      "Rows": 656,
      "SAR": 0.09840473033764,
      "SamplesPerPixel": 1,
      "ScanOptions": "FS",
      "ScanningSequence": "EP",
      "SequenceName": "epfid2d1_82",
      "SequenceVariant": [
        "SK",
        "SS"
],
      "SeriesDescription": "func_run-03_task-faces_acq-ap-mb8",
      "SeriesNumber": 26,
      "SeriesTime": "133116.606000",
      "SliceLocation": -57.389015294522,
      "SliceThickness": 2.7000000476837,
      "SmallestImagePixelValue": 0,
      "SoftwareVersions": "syngo MR E11",
      "SpacingBetweenSlices": 2.6999999265295,
      "SpecificCharacterSet": "ISO_IR 100",
      "StudyID": "1",
      "StudyTime": "122435.731000",
      "TransmitCoilName": "Body",
      "VariableFlipAngleFlag": "N",
      "WindowCenterWidthExplanation": "Algo1"
    },
    "slices": {}
  },
  "time": {
    "samples": {
      "AcquisitionNumber": [1, 2, 3, 4, 5, 6, 7, 8, 9, 10, 11, 12, 13, 14, 15, 16, 17, 18, 19, 20, 21, 22, 23, 24, 25, 26, 27, 28, 29, 30, 31, 32, 33, 34, 35, 36, 37, 38, 39, 40, 41, 42, 43, 44, 45, 46, 47, 48, 49, 50, 51, 52, 53, 54, 55, 56, 57, 58, 59, 60, 61, 62, 63, 64, 65, 66, 67, 68, 69, 70, 71, 72, 73, 74, 75, 76, 77, 78, 79, 80, 81, 82, 83, 84, 85, 86, 87, 88, 89, 90, 91, 92, 93, 94, 95, 96, 97, 98, 99, 100, 101, 102, 103, 104, 105, 106, 107, 108, 109, 110, 111, 112, 113, 114, 115, 116, 117, 118, 119, 120, 121, 122, 123, 124, 125, 126, 127, 128, 129, 130, 131, 132, 133, 134, 135, 136, 137, 138, 139, 140, 141, 142, 143, 144, 145, 146, 147, 148, 149, 150, 151, 152, 153, 154, 155, 156, 157, 158, 159, 160, 161, 162, 163, 164, 165, 166, 167, 168, 169, 170, 171, 172, 173, 174, 175, 176, 177, 178, 179, 180, 181, 182, 183, 184, 185, 186, 187, 188, 189, 190, 191, 192, 193, 194, 195, 196, 197, 198, 199, 200, 201, 202, 203, 204, 205, 206, 207, 208, 209, 210, 211, 212, 213, 214, 215, 216, 217, 218, 219, 220, 221, 222, 223, 224, 225, 226, 227, 228, 229, 230, 231, 232, 233, 234, 235, 236, 237, 238, 239, 240, 241, 242, 243, 244, 245, 246, 247, 248, 249, 250, 251, 252, 253, 254, 255, 256, 257, 258, 259, 260, 261, 262, 263, 264, 265, 266, 267, 268, 269, 270, 271, 272, 273, 274, 275, 276, 277, 278, 279, 280, 281, 282, 283, 284, 285, 286, 287, 288, 289, 290, 291, 292, 293, 294, 295, 296, 297, 298, 299, 300, 301, 302, 303, 304, 305, 306, 307, 308, 309, 310, 311, 312, 313, 314, 315, 316, 317, 318, 319, 320, 321, 322, 323, 324, 325, 326, 327, 328, 329, 330, 331, 332, 333, 334, 335, 336, 337, 338, 339, 340, 341, 342, 343, 344, 345, 346, 347, 348, 349, 350, 351, 352, 353, 354, 355, 356, 357, 358, 359, 360, 361, 362, 363, 364, 365, 366, 367, 368, 369, 370, 371, 372, 373, 374, 375, 376, 377, 378, 379, 380, 381, 382, 383, 384, 385, 386, 387, 388, 389, 390, 391, 392, 393, 394, 395, 396, 397, 398, 399, 400, 401, 402, 403, 404, 405, 406, 407, 408, 409, 410, 411, 412, 413, 414, 415, 416, 417, 418, 419, 420, 421, 422, 423, 424, 425, 426, 427, 428, 429, 430, 431, 432, 433, 434, 435, 436, 437, 438, 439, 440, 441, 442, 443, 444, 445, 446, 447, 448, 449, 450, 451, 452, 453, 454, 455, 456, 457, 458, 459, 460, 461, 462, 463, 464, 465, 466, 467, 468, 469, 470, 471, 472, 473, 474, 475, 476, 477, 478, 479, 480, 481, 482, 483, 484, 485, 486, 487, 488, 489, 490, 491, 492, 493, 494, 495, 496, 497, 498, 499, 500, 501, 502, 503, 504, 505, 506, 507, 508, 509, 510, 511, 512, 513, 514, 515, 516, 517, 518, 519, 520, 521, 522, 523, 524, 525, 526, 527, 528, 529, 530, 531, 532, 533, 534, 535, 536, 537, 538, 539, 540, 541, 542, 543, 544, 545, 546, 547, 548, 549, 550, 551, 552, 553, 554, 555, 556, 557, 558, 559, 560, 561, 562, 563, 564, 565, 566, 567, 568, 569, 570, 571, 572, 573, 574, 575, 576, 577, 578, 579, 580, 581, 582, 583, 584, 585, 586, 587, 588, 589, 590, 591, 592, 593, 594, 595, 596, 597, 598, 599, 600, 601, 602, 603, 604, 605, 606, 607, 608, 609, 610, 611, 612, 613, 614, 615, 616, 617, 618, 619, 620, 621, 622, 623, 624, 625, 626, 627, 628, 629, 630, 631, 632, 633, 634, 635, 636, 637, 638, 639, 640, 641, 642, 643, 644, 645, 646, 647, 648, 649, 650, 651, 652, 653, 654, 655, 656, 657, 658, 659, 660, 661, 662, 663, 664, 665, 666, 667, 668, 669, 670, 671, 672, 673, 674, 675, 676, 677, 678, 679, 680, 681, 682, 683, 684, 685, 686, 687, 688, 689, 690, 691, 692, 693, 694, 695, 696, 697, 698, 699, 700, 701, 702, 703, 704, 705, 706, 707, 708, 709, 710, 711, 712, 713, 714, 715, 716, 717, 718, 719, 720, 721, 722, 723, 724, 725, 726, 727, 728, 729, 730, 731, 732, 733, 734, 735, 736, 737, 738, 739, 740, 741, 742, 743, 744, 745, 746, 747, 748, 749, 750, 751, 752, 753, 754, 755, 756, 757, 758, 759, 760, 761, 762, 763, 764, 765, 766, 767, 768, 769, 770, 771, 772, 773, 774, 775, 776, 777, 778, 779, 780, 781, 782, 783, 784, 785, 786, 787, 788, 789, 790, 791, 792, 793, 794, 795, 796, 797, 798, 799, 800, 801, 802, 803, 804, 805, 806, 807, 808, 809, 810, 811, 812, 813, 814, 815, 816, 817, 818, 819, 820, 821, 822, 823, 824, 825, 826, 827, 828, 829, 830, 831, 832, 833, 834, 835, 836, 837, 838, 839, 840, 841, 842, 843, 844, 845, 846, 847, 848, 849, 850, 851, 852, 853, 854, 855, 856, 857, 858, 859, 860, 861, 862, 863, 864, 865, 866, 867, 868, 869, 870, 871, 872, 873, 874, 875, 876, 877, 878, 879, 880, 881, 882, 883, 884, 885, 886, 887, 888, 889, 890, 891, 892, 893, 894, 895, 896, 897, 898, 899, 900, 901, 902, 903, 904, 905, 906, 907, 908, 909, 910, 911, 912, 913, 914],
      "AcquisitionTime": ["133046.505000", "133046.965000", "133047.425000", "133047.885000", "133048.345000", "133048.805000", "133049.265000", "133049.725000", "133050.185000", "133050.645000", "133051.105000", "133051.565000", "133052.025000", "133052.485000", "133052.945000", "133053.405000", "133053.865000", "133054.325000", "133054.785000", "133055.245000", "133055.705000", "133056.165000", "133056.625000", "133057.085000", "133057.545000", "133058.005000", "133058.465000", "133058.925000", "133059.385000", "133059.845000", "133100.305000", "133100.765000", "133101.225000", "133101.685000", "133102.145000", "133102.605000", "133103.065000", "133103.525000", "133103.985000", "133104.445000", "133104.905000", "133105.365000", "133105.825000", "133106.285000", "133106.745000", "133107.205000", "133107.665000", "133108.125000", "133108.585000", "133109.045000", "133109.505000", "133109.965000", "133110.425000", "133110.885000", "133111.345000", "133111.805000", "133112.265000", "133112.725000", "133113.185000", "133113.645000", "133114.105000", "133114.565000", "133115.025000", "133115.485000", "133115.945000", "133116.405000", "133116.865000", "133117.325000", "133117.785000", "133118.245000", "133118.705000", "133119.165000", "133119.625000", "133120.085000", "133120.545000", "133121.005000", "133121.465000", "133121.925000", "133122.385000", "133122.845000", "133123.305000", "133123.765000", "133124.225000", "133124.685000", "133125.145000", "133125.605000", "133126.065000", "133126.525000", "133126.985000", "133127.445000", "133127.905000", "133128.365000", "133128.825000", "133129.285000", "133129.745000", "133130.205000", "133130.665000", "133131.125000", "133131.585000", "133132.045000", "133132.505000", "133132.965000", "133133.425000", "133133.885000", "133134.345000", "133134.805000", "133135.265000", "133135.725000", "133136.185000", "133136.645000", "133137.105000", "133137.565000", "133138.025000", "133138.485000", "133138.945000", "133139.405000", "133139.865000", "133140.325000", "133140.785000", "133141.245000", "133141.705000", "133142.165000", "133142.625000", "133143.085000", "133143.545000", "133144.005000", "133144.465000", "133144.925000", "133145.385000", "133145.845000", "133146.305000", "133146.765000", "133147.225000", "133147.685000", "133148.145000", "133148.605000", "133149.065000", "133149.525000", "133149.985000", "133150.445000", "133150.905000", "133151.365000", "133151.825000", "133152.285000", "133152.745000", "133153.205000", "133153.665000", "133154.125000", "133154.585000", "133155.045000", "133155.505000", "133155.965000", "133156.425000", "133156.885000", "133157.345000", "133157.805000", "133158.265000", "133158.725000", "133159.185000", "133159.645000", "133200.105000", "133200.565000", "133201.025000", "133201.485000", "133201.945000", "133202.405000", "133202.865000", "133203.325000", "133203.785000", "133204.245000", "133204.705000", "133205.165000", "133205.625000", "133206.085000", "133206.545000", "133207.005000", "133207.465000", "133207.925000", "133208.385000", "133208.845000", "133209.305000", "133209.765000", "133210.225000", "133210.685000", "133211.145000", "133211.605000", "133212.065000", "133212.525000", "133212.985000", "133213.445000", "133213.905000", "133214.365000", "133214.825000", "133215.285000", "133215.745000", "133216.205000", "133216.665000", "133217.125000", "133217.585000", "133218.045000", "133218.505000", "133218.965000", "133219.425000", "133219.885000", "133220.345000", "133220.805000", "133221.265000", "133221.725000", "133222.185000", "133222.645000", "133223.105000", "133223.565000", "133224.025000", "133224.485000", "133224.945000", "133225.405000", "133225.865000", "133226.325000", "133226.785000", "133227.245000", "133227.705000", "133228.165000", "133228.625000", "133229.085000", "133229.545000", "133230.005000", "133230.465000", "133230.925000", "133231.385000", "133231.845000", "133232.305000", "133232.765000", "133233.225000", "133233.685000", "133234.145000", "133234.605000", "133235.065000", "133235.525000", "133235.985000", "133236.445000", "133236.905000", "133237.365000", "133237.825000", "133238.285000", "133238.745000", "133239.205000", "133239.665000", "133240.125000", "133240.585000", "133241.045000", "133241.505000", "133241.965000", "133242.425000", "133242.885000", "133243.345000", "133243.805000", "133244.265000", "133244.725000", "133245.185000", "133245.645000", "133246.105000", "133246.565000", "133247.025000", "133247.485000", "133247.945000", "133248.405000", "133248.865000", "133249.325000", "133249.785000", "133250.245000", "133250.705000", "133251.165000", "133251.625000", "133252.085000", "133252.545000", "133253.005000", "133253.465000", "133253.925000", "133254.385000", "133254.845000", "133255.305000", "133255.765000", "133256.225000", "133256.685000", "133257.145000", "133257.605000", "133258.065000", "133258.525000", "133258.985000", "133259.445000", "133259.905000", "133300.365000", "133300.825000", "133301.285000", "133301.745000", "133302.205000", "133302.665000", "133303.125000", "133303.585000", "133304.045000", "133304.505000", "133304.965000", "133305.425000", "133305.885000", "133306.345000", "133306.805000", "133307.265000", "133307.725000", "133308.185000", "133308.645000", "133309.105000", "133309.565000", "133310.025000", "133310.485000", "133310.945000", "133311.405000", "133311.865000", "133312.325000", "133312.785000", "133313.245000", "133313.705000", "133314.165000", "133314.625000", "133315.085000", "133315.545000", "133316.005000", "133316.465000", "133316.925000", "133317.385000", "133317.845000", "133318.305000", "133318.765000", "133319.225000", "133319.685000", "133320.145000", "133320.605000", "133321.065000", "133321.525000", "133321.985000", "133322.445000", "133322.905000", "133323.365000", "133323.825000", "133324.285000", "133324.745000", "133325.205000", "133325.665000", "133326.125000", "133326.585000", "133327.045000", "133327.505000", "133327.965000", "133328.425000", "133328.885000", "133329.345000", "133329.805000", "133330.265000", "133330.725000", "133331.185000", "133331.645000", "133332.105000", "133332.565000", "133333.025000", "133333.485000", "133333.945000", "133334.405000", "133334.865000", "133335.325000", "133335.785000", "133336.245000", "133336.705000", "133337.165000", "133337.625000", "133338.085000", "133338.545000", "133339.005000", "133339.465000", "133339.925000", "133340.385000", "133340.845000", "133341.305000", "133341.765000", "133342.225000", "133342.685000", "133343.145000", "133343.605000", "133344.065000", "133344.525000", "133344.985000", "133345.445000", "133345.905000", "133346.365000", "133346.825000", "133347.285000", "133347.745000", "133348.205000", "133348.665000", "133349.125000", "133349.585000", "133350.045000", "133350.505000", "133350.965000", "133351.425000", "133351.885000", "133352.345000", "133352.805000", "133353.265000", "133353.725000", "133354.185000", "133354.645000", "133355.105000", "133355.565000", "133356.025000", "133356.485000", "133356.945000", "133357.405000", "133357.865000", "133358.325000", "133358.785000", "133359.245000", "133359.705000", "133400.165000", "133400.625000", "133401.085000", "133401.545000", "133402.005000", "133402.465000", "133402.925000", "133403.385000", "133403.845000", "133404.305000", "133404.765000", "133405.225000", "133405.685000", "133406.145000", "133406.605000", "133407.065000", "133407.525000", "133407.985000", "133408.445000", "133408.905000", "133409.365000", "133409.825000", "133410.285000", "133410.745000", "133411.205000", "133411.665000", "133412.125000", "133412.585000", "133413.045000", "133413.505000", "133413.965000", "133414.425000", "133414.885000", "133415.345000", "133415.805000", "133416.265000", "133416.725000", "133417.185000", "133417.645000", "133418.105000", "133418.565000", "133419.025000", "133419.485000", "133419.945000", "133420.405000", "133420.865000", "133421.325000", "133421.785000", "133422.245000", "133422.705000", "133423.165000", "133423.625000", "133424.085000", "133424.545000", "133425.005000", "133425.465000", "133425.925000", "133426.385000", "133426.845000", "133427.305000", "133427.765000", "133428.225000", "133428.685000", "133429.145000", "133429.605000", "133430.065000", "133430.525000", "133430.985000", "133431.445000", "133431.905000", "133432.365000", "133432.825000", "133433.285000", "133433.745000", "133434.205000", "133434.665000", "133435.125000", "133435.585000", "133436.045000", "133436.505000", "133436.965000", "133437.425000", "133437.885000", "133438.345000", "133438.805000", "133439.265000", "133439.725000", "133440.185000", "133440.645000", "133441.105000", "133441.565000", "133442.025000", "133442.485000", "133442.945000", "133443.405000", "133443.865000", "133444.325000", "133444.785000", "133445.245000", "133445.705000", "133446.165000", "133446.625000", "133447.085000", "133447.545000", "133448.005000", "133448.465000", "133448.925000", "133449.385000", "133449.845000", "133450.305000", "133450.765000", "133451.225000", "133451.685000", "133452.145000", "133452.605000", "133453.065000", "133453.525000", "133453.985000", "133454.445000", "133454.905000", "133455.365000", "133455.825000", "133456.285000", "133456.745000", "133457.205000", "133457.665000", "133458.125000", "133458.585000", "133459.045000", "133459.505000", "133459.965000", "133500.425000", "133500.885000", "133501.345000", "133501.805000", "133502.265000", "133502.725000", "133503.185000", "133503.645000", "133504.105000", "133504.565000", "133505.025000", "133505.485000", "133505.945000", "133506.405000", "133506.865000", "133507.325000", "133507.785000", "133508.245000", "133508.705000", "133509.165000", "133509.625000", "133510.085000", "133510.545000", "133511.005000", "133511.465000", "133511.925000", "133512.385000", "133512.845000", "133513.305000", "133513.765000", "133514.225000", "133514.685000", "133515.145000", "133515.605000", "133516.065000", "133516.525000", "133516.985000", "133517.445000", "133517.905000", "133518.365000", "133518.825000", "133519.285000", "133519.745000", "133520.205000", "133520.665000", "133521.125000", "133521.585000", "133522.045000", "133522.505000", "133522.965000", "133523.425000", "133523.885000", "133524.345000", "133524.805000", "133525.265000", "133525.725000", "133526.185000", "133526.645000", "133527.105000", "133527.565000", "133528.025000", "133528.485000", "133528.945000", "133529.405000", "133529.865000", "133530.325000", "133530.785000", "133531.245000", "133531.705000", "133532.165000", "133532.625000", "133533.085000", "133533.545000", "133534.005000", "133534.465000", "133534.925000", "133535.385000", "133535.845000", "133536.305000", "133536.765000", "133537.225000", "133537.685000", "133538.145000", "133538.605000", "133539.065000", "133539.525000", "133539.985000", "133540.445000", "133540.905000", "133541.365000", "133541.825000", "133542.285000", "133542.745000", "133543.205000", "133543.665000", "133544.125000", "133544.585000", "133545.045000", "133545.505000", "133545.965000", "133546.425000", "133546.885000", "133547.345000", "133547.805000", "133548.265000", "133548.725000", "133549.185000", "133549.645000", "133550.105000", "133550.565000", "133551.025000", "133551.485000", "133551.945000", "133552.405000", "133552.865000", "133553.325000", "133553.785000", "133554.245000", "133554.705000", "133555.165000", "133555.625000", "133556.085000", "133556.545000", "133557.005000", "133557.465000", "133557.925000", "133558.385000", "133558.845000", "133559.305000", "133559.765000", "133600.225000", "133600.685000", "133601.145000", "133601.605000", "133602.065000", "133602.525000", "133602.985000", "133603.445000", "133603.905000", "133604.365000", "133604.825000", "133605.285000", "133605.745000", "133606.205000", "133606.665000", "133607.125000", "133607.585000", "133608.045000", "133608.505000", "133608.965000", "133609.425000", "133609.885000", "133610.345000", "133610.805000", "133611.265000", "133611.725000", "133612.185000", "133612.645000", "133613.105000", "133613.565000", "133614.025000", "133614.485000", "133614.945000", "133615.405000", "133615.865000", "133616.325000", "133616.785000", "133617.245000", "133617.705000", "133618.165000", "133618.625000", "133619.085000", "133619.545000", "133620.005000", "133620.465000", "133620.925000", "133621.385000", "133621.845000", "133622.305000", "133622.765000", "133623.225000", "133623.685000", "133624.145000", "133624.605000", "133625.065000", "133625.525000", "133625.985000", "133626.445000", "133626.905000", "133627.365000", "133627.825000", "133628.285000", "133628.745000", "133629.205000", "133629.665000", "133630.125000", "133630.585000", "133631.045000", "133631.505000", "133631.965000", "133632.425000", "133632.885000", "133633.345000", "133633.805000", "133634.265000", "133634.725000", "133635.185000", "133635.645000", "133636.105000", "133636.565000", "133637.025000", "133637.485000", "133637.945000", "133638.405000", "133638.865000", "133639.325000", "133639.785000", "133640.245000", "133640.705000", "133641.165000", "133641.625000", "133642.085000", "133642.545000", "133643.005000", "133643.465000", "133643.925000", "133644.385000", "133644.845000", "133645.305000", "133645.765000", "133646.225000", "133646.685000", "133647.145000", "133647.605000", "133648.065000", "133648.525000", "133648.985000", "133649.445000", "133649.905000", "133650.365000", "133650.825000", "133651.285000", "133651.745000", "133652.205000", "133652.665000", "133653.125000", "133653.585000", "133654.045000", "133654.505000", "133654.965000", "133655.425000", "133655.885000", "133656.345000", "133656.805000", "133657.265000", "133657.725000", "133658.185000", "133658.645000", "133659.105000", "133659.565000", "133700.025000", "133700.485000", "133700.945000", "133701.405000", "133701.865000", "133702.325000", "133702.785000", "133703.245000", "133703.705000", "133704.165000", "133704.625000", "133705.085000", "133705.545000", "133706.005000", "133706.465000", "133706.925000", "133707.385000", "133707.845000", "133708.305000", "133708.765000", "133709.225000", "133709.685000", "133710.145000", "133710.605000", "133711.065000", "133711.525000", "133711.985000", "133712.445000", "133712.905000", "133713.365000", "133713.825000", "133714.285000", "133714.745000", "133715.205000", "133715.665000", "133716.125000", "133716.585000", "133717.045000", "133717.505000", "133717.965000", "133718.425000", "133718.885000", "133719.345000", "133719.805000", "133720.265000", "133720.725000", "133721.185000", "133721.645000", "133722.105000", "133722.565000", "133723.025000", "133723.485000", "133723.945000", "133724.405000", "133724.865000", "133725.325000", "133725.785000", "133726.245000", "133726.705000", "133727.165000", "133727.625000", "133728.085000", "133728.545000", "133729.005000", "133729.465000", "133729.925000", "133730.385000", "133730.845000", "133731.305000", "133731.765000", "133732.225000", "133732.685000", "133733.145000", "133733.605000", "133734.065000", "133734.525000", "133734.985000", "133735.445000", "133735.905000", "133736.365000", "133736.825000", "133737.285000", "133737.745000", "133738.205000", "133738.665000", "133739.125000", "133739.585000", "133740.045000", "133740.505000", "133740.965000", "133741.425000", "133741.885000", "133742.345000", "133742.805000", "133743.265000", "133743.725000", "133744.185000", "133744.645000", "133745.105000", "133745.565000", "133746.025000", "133746.485000"],
