{
  "AcquisitionMatrixPE": 82,
  "AcquisitionNumber": 1,
  "AcquisitionTime": "12:30:1.622500",
  "BandwidthPerPixelPhaseEncode": 24.888,
  "BaseResolution": 82,
  "BodyPartExamined": "BRAIN",
  "ConsistencyInfo": "N4_VE11E_LATEST_20181129",
  "ConversionSoftware": "dcm2niix",
  "ConversionSoftwareVersion": "v1.0.20201102",
  "DerivedVendorReportedEchoSpacing": 0.00049,
  "DeviceSerialNumber": "66112",
  "DwellTime": 2e-06,
  "EchoTime": 0.0272,
  "EchoTrainLength": 82,
  "EffectiveEchoSpacing": 0.00049,
  "FlipAngle": 44,
  "ImageComments": "Unaliased MB8/PE3",
  "ImageOrientationPatientDICOM": [0.999458, 0.00320625, 0.0327591, -0.00418649, 0.999544, 0.0298981],
  "ImageType": [
    "ORIGINAL",
    "PRIMARY",
    "M",
    "MB",
    "ND",
    "NORM",
    "MOSAIC"
],
  "ImagingFrequency": 123.252,
  "InPlanePhaseEncodingDirectionDICOM": "COL",
  "InstitutionAddress": "Maynard 3,Hanover,NH,US,03755",
  "InstitutionName": "Dartmouth College - PBS",
  "InstitutionalDepartmentName": "Department",
  "MRAcquisitionType": "2D",
  "MagneticFieldStrength": 3,
  "Manufacturer": "Siemens",
  "ManufacturersModelName": "Prisma",
  "Modality": "MR",
  "MultibandAccelerationFactor": 8,
  "PartialFourier": 1,
  "PatientPosition": "HFS",
  "PercentPhaseFOV": 100,
  "PercentSampling": 100,
  "PhaseEncodingDirection": "j-",
  "PhaseEncodingSteps": 82,
  "PhaseResolution": 1,
  "PixelBandwidth": 3050,
  "ProcedureStepDescription": "Wager_Wager^1076_spacetop",
  "ProtocolName": "func_run-01_task-narratives_acq-ap-mb8",
  "PulseSequenceDetails": "%CustomerSeq%\\cmrr_mbep2d_bold",
  "ReceiveCoilActiveElements": "HEA;HEP",
  "ReceiveCoilName": "Head_32",
  "ReconMatrixPE": 82,
  "RepetitionTime": 0.46,
  "SAR": 0.0984367,
  "ScanOptions": "FS",
  "ScanningSequence": "EP",
  "SequenceName": "epfid2d1_82",
  "SequenceVariant": "SK\\SS",
  "SeriesDescription": "func_run-01_task-narratives_acq-ap-mb8",
  "SeriesNumber": 8,
  "ShimSetting": [4175, -7742, -7278, 530, 41, -47, 112, 55],
  "SliceThickness": 2.7,
  "SliceTiming": [0, 0.2525, 0.0625, 0.315, 0.125, 0.3775, 0.19, 0, 0.2525, 0.0625, 0.315, 0.125, 0.3775, 0.19, 0, 0.2525, 0.0625, 0.315, 0.125, 0.3775, 0.19, 0, 0.2525, 0.0625, 0.315, 0.125, 0.3775, 0.19, 0, 0.2525, 0.0625, 0.315, 0.125, 0.3775, 0.19, 0, 0.2525, 0.0625, 0.315, 0.125, 0.3775, 0.19, 0, 0.2525, 0.0625, 0.315, 0.125, 0.3775, 0.19, 0, 0.2525, 0.0625, 0.315, 0.125, 0.3775, 0.19],
  "SoftwareVersions": "syngo MR E11",
  "SpacingBetweenSlices": 2.7,
  "StationName": "AWP66112",
  "TaskName": "narratives",
  "TotalReadoutTime": 0.03969,
  "TxRefAmp": 251.486,
  "WipMemBlock": "2debc403-86ae-426e-ae75-db60c44dadd1||Sequence: R016 ve11e/master r/434b28f1; Aug  7 2019 18:53:46 by eja",
  "dcmmeta_affine": [
    [-2.6814730167388916, -0.011232059448957443, 0.08815042674541473, 110.06917572021484],
    [-0.008602144196629524, 2.681704044342041, 0.08105132728815079, -95.18183135986328],
    [0.08789026737213135, -0.08021432161331177, 2.697343111038208, -58.18257522583008],
    [0.0, 0.0, 0.0, 1.0]
],
  "dcmmeta_reorient_transform": [
    [0.0, -1.0, 0.0, 81.0],
    [1.0, 0.0, 0.0, 0.0],
    [0.0, 0.0, 1.0, 0.0],
    [0.0, 0.0, 0.0, 1.0]
],
  "dcmmeta_shape": [82, 82, 56, 967],
  "dcmmeta_slice_dim": 2,
  "dcmmeta_version": 0.6,
  "global": {
    "const": {
      "AccessionNumber": "A004037",
      "AcquisitionMatrix": [82, 0, 0, 82],
      "AngioFlag": "N",
      "BitsAllocated": 16,
      "BitsStored": 16,
      "BodyPartExamined": "BRAIN",
      "Columns": 656,
      "EchoNumbers": 1,
      "EchoTime": 27.2,
      "EchoTrainLength": 82,
      "FlipAngle": 44.0,
      "HighBit": 15,
      "ImageOrientationPatient": [0.99945813383766, 0.00320625381955, 0.03275910014307, -0.0041864946142, 0.99954418557873, 0.02989806580041],
      "ImagePositionPatient": [-875.51856046141, -894.1540445651, -112.92595459217],
      "ImageType": [
        "ORIGINAL",
        "PRIMARY",
        "M",
        "MB",
        "ND",
        "NORM",
        "MOSAIC"
],
      "ImagedNucleus": "1H",
      "ImagingFrequency": 123.252185,
      "InPlanePhaseEncodingDirection": "COL",
      "MRAcquisitionType": "2D",
      "MagneticFieldStrength": 3.0,
      "Manufacturer": "SIEMENS",
      "ManufacturerModelName": "Prisma",
      "Modality": "MR",
      "NumberOfAverages": 1.0,
      "NumberOfPhaseEncodingSteps": 82,
      "PercentPhaseFieldOfView": 100.0,
      "PercentSampling": 100.0,
      "PerformedProcedureStepStartTime": "122435.789000",
      "PhotometricInterpretation": "MONOCHROME2",
      "PixelBandwidth": 3050.0,
      "PixelRepresentation": 0,
      "PixelSpacing": [2.6829268932343, 2.6829268932343],
      "ProtocolName": "func_run-01_task-narratives_acq-ap-mb8",
      "RepetitionTime": 460.0,
      "Rows": 656,
      "SAR": 0.09843673282347,
      "SamplesPerPixel": 1,
      "ScanOptions": "FS",
      "ScanningSequence": "EP",
      "SequenceName": "epfid2d1_82",
      "SequenceVariant": [
        "SK",
        "SS"
],
      "SeriesDescription": "func_run-01_task-narratives_acq-ap-mb8",
      "SeriesNumber": 8,
      "SeriesTime": "123016.501000",
      "SliceLocation": -57.389015294522,
      "SliceThickness": 2.7000000476837,
      "SmallestImagePixelValue": 0,
      "SoftwareVersions": "syngo MR E11",
      "SpacingBetweenSlices": 2.6999999265295,
      "SpecificCharacterSet": "ISO_IR 100",
      "StudyID": "1",
      "StudyTime": "122435.731000",
      "TransmitCoilName": "Body",
      "VariableFlipAngleFlag": "N",
      "WindowCenterWidthExplanation": "Algo1"
    },
    "slices": {}
  },
  "time": {
    "samples": {
      "AcquisitionNumber": [1, 2, 3, 4, 5, 6, 7, 8, 9, 10, 11, 12, 13, 14, 15, 16, 17, 18, 19, 20, 21, 22, 23, 24, 25, 26, 27, 28, 29, 30, 31, 32, 33, 34, 35, 36, 37, 38, 39, 40, 41, 42, 43, 44, 45, 46, 47, 48, 49, 50, 51, 52, 53, 54, 55, 56, 57, 58, 59, 60, 61, 62, 63, 64, 65, 66, 67, 68, 69, 70, 71, 72, 73, 74, 75, 76, 77, 78, 79, 80, 81, 82, 83, 84, 85, 86, 87, 88, 89, 90, 91, 92, 93, 94, 95, 96, 97, 98, 99, 100, 101, 102, 103, 104, 105, 106, 107, 108, 109, 110, 111, 112, 113, 114, 115, 116, 117, 118, 119, 120, 121, 122, 123, 124, 125, 126, 127, 128, 129, 130, 131, 132, 133, 134, 135, 136, 137, 138, 139, 140, 141, 142, 143, 144, 145, 146, 147, 148, 149, 150, 151, 152, 153, 154, 155, 156, 157, 158, 159, 160, 161, 162, 163, 164, 165, 166, 167, 168, 169, 170, 171, 172, 173, 174, 175, 176, 177, 178, 179, 180, 181, 182, 183, 184, 185, 186, 187, 188, 189, 190, 191, 192, 193, 194, 195, 196, 197, 198, 199, 200, 201, 202, 203, 204, 205, 206, 207, 208, 209, 210, 211, 212, 213, 214, 215, 216, 217, 218, 219, 220, 221, 222, 223, 224, 225, 226, 227, 228, 229, 230, 231, 232, 233, 234, 235, 236, 237, 238, 239, 240, 241, 242, 243, 244, 245, 246, 247, 248, 249, 250, 251, 252, 253, 254, 255, 256, 257, 258, 259, 260, 261, 262, 263, 264, 265, 266, 267, 268, 269, 270, 271, 272, 273, 274, 275, 276, 277, 278, 279, 280, 281, 282, 283, 284, 285, 286, 287, 288, 289, 290, 291, 292, 293, 294, 295, 296, 297, 298, 299, 300, 301, 302, 303, 304, 305, 306, 307, 308, 309, 310, 311, 312, 313, 314, 315, 316, 317, 318, 319, 320, 321, 322, 323, 324, 325, 326, 327, 328, 329, 330, 331, 332, 333, 334, 335, 336, 337, 338, 339, 340, 341, 342, 343, 344, 345, 346, 347, 348, 349, 350, 351, 352, 353, 354, 355, 356, 357, 358, 359, 360, 361, 362, 363, 364, 365, 366, 367, 368, 369, 370, 371, 372, 373, 374, 375, 376, 377, 378, 379, 380, 381, 382, 383, 384, 385, 386, 387, 388, 389, 390, 391, 392, 393, 394, 395, 396, 397, 398, 399, 400, 401, 402, 403, 404, 405, 406, 407, 408, 409, 410, 411, 412, 413, 414, 415, 416, 417, 418, 419, 420, 421, 422, 423, 424, 425, 426, 427, 428, 429, 430, 431, 432, 433, 434, 435, 436, 437, 438, 439, 440, 441, 442, 443, 444, 445, 446, 447, 448, 449, 450, 451, 452, 453, 454, 455, 456, 457, 458, 459, 460, 461, 462, 463, 464, 465, 466, 467, 468, 469, 470, 471, 472, 473, 474, 475, 476, 477, 478, 479, 480, 481, 482, 483, 484, 485, 486, 487, 488, 489, 490, 491, 492, 493, 494, 495, 496, 497, 498, 499, 500, 501, 502, 503, 504, 505, 506, 507, 508, 509, 510, 511, 512, 513, 514, 515, 516, 517, 518, 519, 520, 521, 522, 523, 524, 525, 526, 527, 528, 529, 530, 531, 532, 533, 534, 535, 536, 537, 538, 539, 540, 541, 542, 543, 544, 545, 546, 547, 548, 549, 550, 551, 552, 553, 554, 555, 556, 557, 558, 559, 560, 561, 562, 563, 564, 565, 566, 567, 568, 569, 570, 571, 572, 573, 574, 575, 576, 577, 578, 579, 580, 581, 582, 583, 584, 585, 586, 587, 588, 589, 590, 591, 592, 593, 594, 595, 596, 597, 598, 599, 600, 601, 602, 603, 604, 605, 606, 607, 608, 609, 610, 611, 612, 613, 614, 615, 616, 617, 618, 619, 620, 621, 622, 623, 624, 625, 626, 627, 628, 629, 630, 631, 632, 633, 634, 635, 636, 637, 638, 639, 640, 641, 642, 643, 644, 645, 646, 647, 648, 649, 650, 651, 652, 653, 654, 655, 656, 657, 658, 659, 660, 661, 662, 663, 664, 665, 666, 667, 668, 669, 670, 671, 672, 673, 674, 675, 676, 677, 678, 679, 680, 681, 682, 683, 684, 685, 686, 687, 688, 689, 690, 691, 692, 693, 694, 695, 696, 697, 698, 699, 700, 701, 702, 703, 704, 705, 706, 707, 708, 709, 710, 711, 712, 713, 714, 715, 716, 717, 718, 719, 720, 721, 722, 723, 724, 725, 726, 727, 728, 729, 730, 731, 732, 733, 734, 735, 736, 737, 738, 739, 740, 741, 742, 743, 744, 745, 746, 747, 748, 749, 750, 751, 752, 753, 754, 755, 756, 757, 758, 759, 760, 761, 762, 763, 764, 765, 766, 767, 768, 769, 770, 771, 772, 773, 774, 775, 776, 777, 778, 779, 780, 781, 782, 783, 784, 785, 786, 787, 788, 789, 790, 791, 792, 793, 794, 795, 796, 797, 798, 799, 800, 801, 802, 803, 804, 805, 806, 807, 808, 809, 810, 811, 812, 813, 814, 815, 816, 817, 818, 819, 820, 821, 822, 823, 824, 825, 826, 827, 828, 829, 830, 831, 832, 833, 834, 835, 836, 837, 838, 839, 840, 841, 842, 843, 844, 845, 846, 847, 848, 849, 850, 851, 852, 853, 854, 855, 856, 857, 858, 859, 860, 861, 862, 863, 864, 865, 866, 867, 868, 869, 870, 871, 872, 873, 874, 875, 876, 877, 878, 879, 880, 881, 882, 883, 884, 885, 886, 887, 888, 889, 890, 891, 892, 893, 894, 895, 896, 897, 898, 899, 900, 901, 902, 903, 904, 905, 906, 907, 908, 909, 910, 911, 912, 913, 914, 915, 916, 917, 918, 919, 920, 921, 922, 923, 924, 925, 926, 927, 928, 929, 930, 931, 932, 933, 934, 935, 936, 937, 938, 939, 940, 941, 942, 943, 944, 945, 946, 947, 948, 949, 950, 951, 952, 953, 954, 955, 956, 957, 958, 959, 960, 961, 962, 963, 964, 965, 966, 967],
      "AcquisitionTime": ["123001.622500", "123002.082500", "123002.542500", "123003.002500", "123003.462500", "123003.922500", "123004.382500", "123004.842500", "123005.302500", "123005.762500", "123006.222500", "123006.682500", "123007.142500", "123007.602500", "123008.062500", "123008.522500", "123008.982500", "123009.442500", "123009.902500", "123010.362500", "123010.822500", "123011.282500", "123011.742500", "123012.202500", "123012.662500", "123013.122500", "123013.582500", "123014.042500", "123014.502500", "123014.962500", "123015.422500", "123015.882500", "123016.342500", "123016.802500", "123017.262500", "123017.722500", "123018.182500", "123018.642500", "123019.102500", "123019.562500", "123020.022500", "123020.482500", "123020.942500", "123021.402500", "123021.862500", "123022.322500", "123022.782500", "123023.242500", "123023.702500", "123024.162500", "123024.622500", "123025.082500", "123025.542500", "123026.002500", "123026.462500", "123026.922500", "123027.382500", "123027.842500", "123028.302500", "123028.762500", "123029.222500", "123029.682500", "123030.142500", "123030.602500", "123031.062500", "123031.522500", "123031.982500", "123032.442500", "123032.902500", "123033.362500", "123033.822500", "123034.282500", "123034.742500", "123035.202500", "123035.662500", "123036.122500", "123036.582500", "123037.042500", "123037.502500", "123037.962500", "123038.422500", "123038.882500", "123039.342500", "123039.802500", "123040.262500", "123040.722500", "123041.182500", "123041.642500", "123042.102500", "123042.562500", "123043.022500", "123043.482500", "123043.942500", "123044.402500", "123044.862500", "123045.322500", "123045.782500", "123046.242500", "123046.702500", "123047.162500", "123047.622500", "123048.082500", "123048.542500", "123049.002500", "123049.462500", "123049.922500", "123050.382500", "123050.842500", "123051.302500", "123051.762500", "123052.222500", "123052.682500", "123053.142500", "123053.602500", "123054.062500", "123054.522500", "123054.982500", "123055.442500", "123055.902500", "123056.362500", "123056.822500", "123057.282500", "123057.742500", "123058.202500", "123058.662500", "123059.122500", "123059.582500", "123100.042500", "123100.502500", "123100.962500", "123101.422500", "123101.882500", "123102.342500", "123102.802500", "123103.262500", "123103.722500", "123104.182500", "123104.642500", "123105.102500", "123105.562500", "123106.022500", "123106.482500", "123106.942500", "123107.402500", "123107.862500", "123108.322500", "123108.782500", "123109.242500", "123109.702500", "123110.162500", "123110.622500", "123111.082500", "123111.542500", "123112.002500", "123112.462500", "123112.922500", "123113.382500", "123113.842500", "123114.302500", "123114.762500", "123115.222500", "123115.682500", "123116.142500", "123116.602500", "123117.062500", "123117.522500", "123117.982500", "123118.442500", "123118.902500", "123119.362500", "123119.822500", "123120.282500", "123120.742500", "123121.202500", "123121.662500", "123122.122500", "123122.582500", "123123.042500", "123123.502500", "123123.962500", "123124.422500", "123124.882500", "123125.342500", "123125.802500", "123126.262500", "123126.722500", "123127.182500", "123127.642500", "123128.102500", "123128.562500", "123129.022500", "123129.482500", "123129.942500", "123130.402500", "123130.862500", "123131.322500", "123131.782500", "123132.242500", "123132.702500", "123133.162500", "123133.622500", "123134.082500", "123134.542500", "123135.002500", "123135.462500", "123135.922500", "123136.382500", "123136.842500", "123137.302500", "123137.762500", "123138.222500", "123138.682500", "123139.142500", "123139.602500", "123140.062500", "123140.522500", "123140.982500", "123141.442500", "123141.902500", "123142.362500", "123142.822500", "123143.282500", "123143.742500", "123144.202500", "123144.662500", "123145.122500", "123145.582500", "123146.042500", "123146.502500", "123146.962500", "123147.422500", "123147.882500", "123148.342500", "123148.802500", "123149.262500", "123149.722500", "123150.182500", "123150.642500", "123151.102500", "123151.562500", "123152.022500", "123152.482500", "123152.942500", "123153.402500", "123153.862500", "123154.322500", "123154.782500", "123155.242500", "123155.702500", "123156.162500", "123156.622500", "123157.082500", "123157.542500", "123158.002500", "123158.462500", "123158.922500", "123159.382500", "123159.842500", "123200.302500", "123200.762500", "123201.222500", "123201.682500", "123202.142500", "123202.602500", "123203.062500", "123203.522500", "123203.982500", "123204.442500", "123204.902500", "123205.362500", "123205.822500", "123206.282500", "123206.742500", "123207.202500", "123207.662500", "123208.122500", "123208.582500", "123209.042500", "123209.502500", "123209.962500", "123210.422500", "123210.882500", "123211.342500", "123211.802500", "123212.262500", "123212.722500", "123213.182500", "123213.642500", "123214.102500", "123214.562500", "123215.022500", "123215.482500", "123215.942500", "123216.402500", "123216.862500", "123217.322500", "123217.782500", "123218.242500", "123218.702500", "123219.162500", "123219.622500", "123220.082500", "123220.542500", "123221.002500", "123221.462500", "123221.922500", "123222.382500", "123222.842500", "123223.302500", "123223.762500", "123224.222500", "123224.682500", "123225.142500", "123225.602500", "123226.062500", "123226.522500", "123226.982500", "123227.442500", "123227.902500", "123228.362500", "123228.822500", "123229.282500", "123229.742500", "123230.202500", "123230.662500", "123231.122500", "123231.582500", "123232.042500", "123232.502500", "123232.962500", "123233.422500", "123233.882500", "123234.342500", "123234.802500", "123235.262500", "123235.722500", "123236.182500", "123236.642500", "123237.102500", "123237.562500", "123238.022500", "123238.482500", "123238.942500", "123239.402500", "123239.862500", "123240.322500", "123240.782500", "123241.242500", "123241.702500", "123242.162500", "123242.622500", "123243.082500", "123243.542500", "123244.002500", "123244.462500", "123244.922500", "123245.382500", "123245.842500", "123246.302500", "123246.762500", "123247.222500", "123247.682500", "123248.142500", "123248.602500", "123249.062500", "123249.522500", "123249.982500", "123250.442500", "123250.902500", "123251.362500", "123251.822500", "123252.282500", "123252.742500", "123253.202500", "123253.662500", "123254.122500", "123254.582500", "123255.042500", "123255.502500", "123255.962500", "123256.422500", "123256.882500", "123257.342500", "123257.802500", "123258.262500", "123258.722500", "123259.182500", "123259.642500", "123300.102500", "123300.562500", "123301.022500", "123301.482500", "123301.942500", "123302.402500", "123302.862500", "123303.322500", "123303.782500", "123304.242500", "123304.702500", "123305.162500", "123305.622500", "123306.082500", "123306.542500", "123307.002500", "123307.462500", "123307.922500", "123308.382500", "123308.842500", "123309.302500", "123309.762500", "123310.222500", "123310.682500", "123311.142500", "123311.602500", "123312.062500", "123312.522500", "123312.982500", "123313.442500", "123313.902500", "123314.362500", "123314.822500", "123315.282500", "123315.742500", "123316.202500", "123316.662500", "123317.122500", "123317.582500", "123318.042500", "123318.502500", "123318.962500", "123319.422500", "123319.882500", "123320.342500", "123320.802500", "123321.262500", "123321.722500", "123322.182500", "123322.642500", "123323.102500", "123323.562500", "123324.022500", "123324.482500", "123324.942500", "123325.402500", "123325.862500", "123326.322500", "123326.782500", "123327.242500", "123327.702500", "123328.162500", "123328.622500", "123329.082500", "123329.542500", "123330.002500", "123330.462500", "123330.922500", "123331.382500", "123331.842500", "123332.302500", "123332.762500", "123333.222500", "123333.682500", "123334.142500", "123334.602500", "123335.062500", "123335.522500", "123335.982500", "123336.442500", "123336.902500", "123337.362500", "123337.822500", "123338.282500", "123338.742500", "123339.202500", "123339.662500", "123340.122500", "123340.582500", "123341.042500", "123341.502500", "123341.962500", "123342.422500", "123342.882500", "123343.342500", "123343.802500", "123344.262500", "123344.722500", "123345.182500", "123345.642500", "123346.102500", "123346.562500", "123347.022500", "123347.482500", "123347.942500", "123348.402500", "123348.862500", "123349.322500", "123349.782500", "123350.242500", "123350.702500", "123351.162500", "123351.622500", "123352.082500", "123352.542500", "123353.002500", "123353.462500", "123353.922500", "123354.382500", "123354.842500", "123355.302500", "123355.762500", "123356.222500", "123356.682500", "123357.142500", "123357.602500", "123358.062500", "123358.522500", "123358.982500", "123359.442500", "123359.902500", "123400.362500", "123400.822500", "123401.282500", "123401.742500", "123402.202500", "123402.662500", "123403.122500", "123403.582500", "123404.042500", "123404.502500", "123404.962500", "123405.422500", "123405.882500", "123406.342500", "123406.802500", "123407.262500", "123407.722500", "123408.182500", "123408.642500", "123409.102500", "123409.562500", "123410.022500", "123410.482500", "123410.942500", "123411.402500", "123411.862500", "123412.322500", "123412.782500", "123413.242500", "123413.702500", "123414.162500", "123414.622500", "123415.082500", "123415.542500", "123416.002500", "123416.462500", "123416.922500", "123417.382500", "123417.842500", "123418.302500", "123418.762500", "123419.222500", "123419.682500", "123420.142500", "123420.602500", "123421.062500", "123421.522500", "123421.982500", "123422.442500", "123422.902500", "123423.362500", "123423.822500", "123424.282500", "123424.742500", "123425.202500", "123425.662500", "123426.122500", "123426.582500", "123427.042500", "123427.502500", "123427.962500", "123428.422500", "123428.882500", "123429.342500", "123429.802500", "123430.262500", "123430.722500", "123431.182500", "123431.642500", "123432.102500", "123432.562500", "123433.022500", "123433.482500", "123433.942500", "123434.402500", "123434.862500", "123435.322500", "123435.782500", "123436.242500", "123436.702500", "123437.162500", "123437.622500", "123438.082500", "123438.542500", "123439.002500", "123439.462500", "123439.922500", "123440.382500", "123440.842500", "123441.302500", "123441.762500", "123442.222500", "123442.682500", "123443.142500", "123443.602500", "123444.062500", "123444.522500", "123444.982500", "123445.442500", "123445.902500", "123446.362500", "123446.822500", "123447.282500", "123447.742500", "123448.202500", "123448.662500", "123449.122500", "123449.582500", "123450.042500", "123450.502500", "123450.962500", "123451.422500", "123451.882500", "123452.342500", "123452.802500", "123453.262500", "123453.722500", "123454.182500", "123454.642500", "123455.102500", "123455.562500", "123456.022500", "123456.482500", "123456.942500", "123457.402500", "123457.862500", "123458.322500", "123458.782500", "123459.242500", "123459.702500", "123500.162500", "123500.622500", "123501.082500", "123501.542500", "123502.002500", "123502.462500", "123502.922500", "123503.382500", "123503.842500", "123504.302500", "123504.762500", "123505.222500", "123505.682500", "123506.142500", "123506.602500", "123507.062500", "123507.522500", "123507.982500", "123508.442500", "123508.902500", "123509.362500", "123509.822500", "123510.282500", "123510.742500", "123511.202500", "123511.662500", "123512.122500", "123512.582500", "123513.042500", "123513.502500", "123513.962500", "123514.422500", "123514.882500", "123515.342500", "123515.802500", "123516.262500", "123516.722500", "123517.182500", "123517.642500", "123518.102500", "123518.562500", "123519.022500", "123519.482500", "123519.942500", "123520.402500", "123520.862500", "123521.322500", "123521.782500", "123522.242500", "123522.702500", "123523.162500", "123523.622500", "123524.082500", "123524.542500", "123525.002500", "123525.462500", "123525.922500", "123526.382500", "123526.842500", "123527.302500", "123527.762500", "123528.222500", "123528.682500", "123529.142500", "123529.602500", "123530.062500", "123530.522500", "123530.982500", "123531.442500", "123531.902500", "123532.362500", "123532.822500", "123533.282500", "123533.742500", "123534.202500", "123534.662500", "123535.122500", "123535.582500", "123536.042500", "123536.502500", "123536.962500", "123537.422500", "123537.882500", "123538.342500", "123538.802500", "123539.262500", "123539.722500", "123540.182500", "123540.642500", "123541.102500", "123541.562500", "123542.022500", "123542.482500", "123542.942500", "123543.402500", "123543.862500", "123544.322500", "123544.782500", "123545.242500", "123545.702500", "123546.162500", "123546.622500", "123547.082500", "123547.542500", "123548.002500", "123548.462500", "123548.922500", "123549.382500", "123549.842500", "123550.302500", "123550.762500", "123551.222500", "123551.682500", "123552.142500", "123552.602500", "123553.062500", "123553.522500", "123553.982500", "123554.442500", "123554.902500", "123555.362500", "123555.822500", "123556.282500", "123556.742500", "123557.202500", "123557.662500", "123558.122500", "123558.582500", "123559.042500", "123559.502500", "123559.962500", "123600.422500", "123600.882500", "123601.342500", "123601.802500", "123602.262500", "123602.722500", "123603.182500", "123603.642500", "123604.102500", "123604.562500", "123605.022500", "123605.482500", "123605.942500", "123606.402500", "123606.862500", "123607.322500", "123607.782500", "123608.242500", "123608.702500", "123609.162500", "123609.622500", "123610.082500", "123610.542500", "123611.002500", "123611.462500", "123611.922500", "123612.382500", "123612.842500", "123613.302500", "123613.762500", "123614.222500", "123614.682500", "123615.142500", "123615.602500", "123616.062500", "123616.522500", "123616.982500", "123617.442500", "123617.902500", "123618.362500", "123618.822500", "123619.282500", "123619.742500", "123620.202500", "123620.662500", "123621.122500", "123621.582500", "123622.042500", "123622.502500", "123622.962500", "123623.422500", "123623.882500", "123624.342500", "123624.802500", "123625.262500", "123625.722500", "123626.182500", "123626.642500", "123627.102500", "123627.562500", "123628.022500", "123628.482500", "123628.942500", "123629.402500", "123629.862500", "123630.322500", "123630.782500", "123631.242500", "123631.702500", "123632.162500", "123632.622500", "123633.082500", "123633.542500", "123634.002500", "123634.462500", "123634.922500", "123635.382500", "123635.842500", "123636.302500", "123636.762500", "123637.222500", "123637.682500", "123638.142500", "123638.602500", "123639.062500", "123639.522500", "123639.982500", "123640.442500", "123640.902500", "123641.362500", "123641.822500", "123642.282500", "123642.742500", "123643.202500", "123643.662500", "123644.122500", "123644.582500", "123645.042500", "123645.502500", "123645.962500", "123646.422500", "123646.882500", "123647.342500", "123647.802500", "123648.262500", "123648.722500", "123649.182500", "123649.642500", "123650.102500", "123650.562500", "123651.022500", "123651.482500", "123651.942500", "123652.402500", "123652.862500", "123653.322500", "123653.782500", "123654.242500", "123654.702500", "123655.162500", "123655.622500", "123656.082500", "123656.542500", "123657.002500", "123657.462500", "123657.922500", "123658.382500", "123658.842500", "123659.302500", "123659.762500", "123700.222500", "123700.682500", "123701.142500", "123701.602500", "123702.062500", "123702.522500", "123702.982500", "123703.442500", "123703.902500", "123704.362500", "123704.822500", "123705.282500", "123705.742500", "123706.202500", "123706.662500", "123707.122500", "123707.582500", "123708.042500", "123708.502500", "123708.962500", "123709.422500", "123709.882500", "123710.342500", "123710.802500", "123711.262500", "123711.722500", "123712.182500", "123712.642500", "123713.102500", "123713.562500", "123714.022500", "123714.482500", "123714.942500", "123715.402500", "123715.862500", "123716.322500", "123716.782500", "123717.242500", "123717.702500", "123718.162500", "123718.622500", "123719.082500", "123719.542500", "123720.002500", "123720.462500", "123720.922500", "123721.382500", "123721.842500", "123722.302500", "123722.762500", "123723.222500", "123723.682500", "123724.142500", "123724.602500", "123725.062500", "123725.522500", "123725.982500"],
