{
  "AcquisitionMatrixPE": 82,
  "AcquisitionNumber": 1,
  "AcquisitionTime": "14:11:8.977500",
  "BandwidthPerPixelPhaseEncode": 24.888,
  "BaseResolution": 82,
  "BodyPartExamined": "BRAIN",
  "ConsistencyInfo": "N4_VE11E_LATEST_20181129",
  "ConversionSoftware": "dcm2niix",
  "ConversionSoftwareVersion": "v1.0.20201102",
  "DerivedVendorReportedEchoSpacing": 0.00049,
  "DeviceSerialNumber": "66112",
  "DwellTime": 2e-06,
  "EchoTime": 0.0272,
  "EchoTrainLength": 82,
  "EffectiveEchoSpacing": 0.00049,
  "FlipAngle": 44,
  "ImageComments": "Unaliased MB8/PE3",
  "ImageOrientationPatientDICOM": [0.997754, -0.00660424, 0.0666654, 0.00383113, 0.999125, 0.0416399],
  "ImageType": [
    "ORIGINAL",
    "PRIMARY",
    "M",
    "MB",
    "ND",
    "NORM",
    "MOSAIC"
],
  "ImagingFrequency": 123.252,
  "InPlanePhaseEncodingDirectionDICOM": "COL",
  "InstitutionAddress": "Maynard 3,Hanover,NH,US,03755",
  "InstitutionName": "Dartmouth College - PBS",
  "InstitutionalDepartmentName": "Department",
  "MRAcquisitionType": "2D",
  "MagneticFieldStrength": 3,
  "Manufacturer": "Siemens",
  "ManufacturersModelName": "Prisma",
  "Modality": "MR",
  "MultibandAccelerationFactor": 8,
  "PartialFourier": 1,
  "PatientPosition": "HFS",
  "PercentPhaseFOV": 100,
  "PercentSampling": 100,
  "PhaseEncodingDirection": "j-",
  "PhaseEncodingSteps": 82,
  "PhaseResolution": 1,
  "PixelBandwidth": 3050,
  "ProcedureStepDescription": "Wager_Wager^1076_spacetop",
  "ProtocolName": "func_run-04_task-alignvideo_acq-ap-mb8",
  "PulseSequenceDetails": "%CustomerSeq%\\cmrr_mbep2d_bold",
  "ReceiveCoilActiveElements": "HEA;HEP",
  "ReceiveCoilName": "Head_32",
  "ReconMatrixPE": 82,
  "RepetitionTime": 0.46,
  "SAR": 0.0984047,
  "ScanOptions": "FS",
  "ScanningSequence": "EP",
  "SequenceName": "epfid2d1_82",
  "SequenceVariant": "SK\\SS",
  "SeriesDescription": "func_run-04_task-alignvideo_acq-ap-mb8",
  "SeriesNumber": 40,
  "ShimSetting": [4175, -7749, -7280, 499, 46, -97, 117, 45],
  "SliceThickness": 2.7,
  "SliceTiming": [0, 0.2525, 0.065, 0.315, 0.1275, 0.3775, 0.19, 0, 0.2525, 0.065, 0.315, 0.1275, 0.3775, 0.19, 0, 0.2525, 0.065, 0.315, 0.1275, 0.3775, 0.19, 0, 0.2525, 0.065, 0.315, 0.1275, 0.3775, 0.19, 0, 0.2525, 0.065, 0.315, 0.1275, 0.3775, 0.19, 0, 0.2525, 0.065, 0.315, 0.1275, 0.3775, 0.19, 0, 0.2525, 0.065, 0.315, 0.1275, 0.3775, 0.19, 0, 0.2525, 0.065, 0.315, 0.1275, 0.3775, 0.19],
  "SoftwareVersions": "syngo MR E11",
  "SpacingBetweenSlices": 2.7,
  "StationName": "AWP66112",
  "TaskName": "alignvideo",
  "TotalReadoutTime": 0.03969,
  "TxRefAmp": 251.486,
  "WipMemBlock": "4b292d3d-466c-4bb0-8d68-c2cc9046850f||Sequence: R016 ve11e/master r/434b28f1; Aug  7 2019 18:53:46 by eja",
  "dcmmeta_affine": [
    [-2.6768996715545654, 0.010278635658323765, 0.18058161437511444, 106.04688262939453],
    [0.017718689516186714, 2.6805801391601562, 0.11148562282323837, -92.37077331542969],
    [0.17885836958885193, -0.1117168515920639, 2.6916465759277344, -76.86799621582031],
    [0.0, 0.0, 0.0, 1.0]
],
  "dcmmeta_reorient_transform": [
    [0.0, -1.0, 0.0, 81.0],
    [1.0, 0.0, 0.0, 0.0],
    [0.0, 0.0, 1.0, 0.0],
    [0.0, 0.0, 0.0, 1.0]
],
  "dcmmeta_shape": [82, 82, 56, 914],
  "dcmmeta_slice_dim": 2,
  "dcmmeta_version": 0.6,
  "global": {
    "const": {
      "AccessionNumber": "A004037",
      "AcquisitionMatrix": [82, 0, 0, 82],
      "AngioFlag": "N",
      "BitsAllocated": 16,
      "BitsStored": 16,
      "BodyPartExamined": "BRAIN",
      "Columns": 656,
      "EchoNumbers": 1,
      "EchoTime": 27.2,
      "EchoTrainLength": 82,
      "FlipAngle": 44.0,
      "HighBit": 15,
      "ImageOrientationPatient": [0.99775353170895, -0.0066042389493, 0.06666538824765, 0.00383112777925, 0.99912533739196, 0.04163991644249],
      "ImagePositionPatient": [-878.09965575548, -888.99748683703, -169.31214940357],
      "ImageType": [
        "ORIGINAL",
        "PRIMARY",
        "M",
        "MB",
        "ND",
        "NORM",
        "MOSAIC"
],
      "ImagedNucleus": "1H",
      "ImagingFrequency": 123.252229,
      "InPlanePhaseEncodingDirection": "COL",
      "MRAcquisitionType": "2D",
      "MagneticFieldStrength": 3.0,
      "Manufacturer": "SIEMENS",
      "ManufacturerModelName": "Prisma",
      "Modality": "MR",
      "NumberOfAverages": 1.0,
      "NumberOfPhaseEncodingSteps": 82,
      "PercentPhaseFieldOfView": 100.0,
      "PercentSampling": 100.0,
      "PerformedProcedureStepStartTime": "122435.789000",
      "PhotometricInterpretation": "MONOCHROME2",
      "PixelBandwidth": 3050.0,
      "PixelRepresentation": 0,
      "PixelSpacing": [2.6829268932343, 2.6829268932343],
      "ProtocolName": "func_run-04_task-alignvideo_acq-ap-mb8",
      "RepetitionTime": 460.0,
      "Rows": 656,
      "SAR": 0.09840473033764,
      "SamplesPerPixel": 1,
      "ScanOptions": "FS",
      "ScanningSequence": "EP",
      "SequenceName": "epfid2d1_82",
      "SequenceVariant": [
        "SK",
        "SS"
],
      "SeriesDescription": "func_run-04_task-alignvideo_acq-ap-mb8",
      "SeriesNumber": 40,
      "SeriesTime": "141116.449000",
      "SliceLocation": -73.351621873142,
      "SliceThickness": 2.7000000476837,
      "SmallestImagePixelValue": 0,
      "SoftwareVersions": "syngo MR E11",
      "SpacingBetweenSlices": 2.7000000780806,
      "SpecificCharacterSet": "ISO_IR 100",
      "StudyID": "1",
      "StudyTime": "122435.731000",
      "TransmitCoilName": "Body",
      "VariableFlipAngleFlag": "N",
      "WindowCenterWidthExplanation": "Algo1"
    },
    "slices": {}
  },
  "time": {
    "samples": {
      "AcquisitionNumber": [1, 2, 3, 4, 5, 6, 7, 8, 9, 10, 11, 12, 13, 14, 15, 16, 17, 18, 19, 20, 21, 22, 23, 24, 25, 26, 27, 28, 29, 30, 31, 32, 33, 34, 35, 36, 37, 38, 39, 40, 41, 42, 43, 44, 45, 46, 47, 48, 49, 50, 51, 52, 53, 54, 55, 56, 57, 58, 59, 60, 61, 62, 63, 64, 65, 66, 67, 68, 69, 70, 71, 72, 73, 74, 75, 76, 77, 78, 79, 80, 81, 82, 83, 84, 85, 86, 87, 88, 89, 90, 91, 92, 93, 94, 95, 96, 97, 98, 99, 100, 101, 102, 103, 104, 105, 106, 107, 108, 109, 110, 111, 112, 113, 114, 115, 116, 117, 118, 119, 120, 121, 122, 123, 124, 125, 126, 127, 128, 129, 130, 131, 132, 133, 134, 135, 136, 137, 138, 139, 140, 141, 142, 143, 144, 145, 146, 147, 148, 149, 150, 151, 152, 153, 154, 155, 156, 157, 158, 159, 160, 161, 162, 163, 164, 165, 166, 167, 168, 169, 170, 171, 172, 173, 174, 175, 176, 177, 178, 179, 180, 181, 182, 183, 184, 185, 186, 187, 188, 189, 190, 191, 192, 193, 194, 195, 196, 197, 198, 199, 200, 201, 202, 203, 204, 205, 206, 207, 208, 209, 210, 211, 212, 213, 214, 215, 216, 217, 218, 219, 220, 221, 222, 223, 224, 225, 226, 227, 228, 229, 230, 231, 232, 233, 234, 235, 236, 237, 238, 239, 240, 241, 242, 243, 244, 245, 246, 247, 248, 249, 250, 251, 252, 253, 254, 255, 256, 257, 258, 259, 260, 261, 262, 263, 264, 265, 266, 267, 268, 269, 270, 271, 272, 273, 274, 275, 276, 277, 278, 279, 280, 281, 282, 283, 284, 285, 286, 287, 288, 289, 290, 291, 292, 293, 294, 295, 296, 297, 298, 299, 300, 301, 302, 303, 304, 305, 306, 307, 308, 309, 310, 311, 312, 313, 314, 315, 316, 317, 318, 319, 320, 321, 322, 323, 324, 325, 326, 327, 328, 329, 330, 331, 332, 333, 334, 335, 336, 337, 338, 339, 340, 341, 342, 343, 344, 345, 346, 347, 348, 349, 350, 351, 352, 353, 354, 355, 356, 357, 358, 359, 360, 361, 362, 363, 364, 365, 366, 367, 368, 369, 370, 371, 372, 373, 374, 375, 376, 377, 378, 379, 380, 381, 382, 383, 384, 385, 386, 387, 388, 389, 390, 391, 392, 393, 394, 395, 396, 397, 398, 399, 400, 401, 402, 403, 404, 405, 406, 407, 408, 409, 410, 411, 412, 413, 414, 415, 416, 417, 418, 419, 420, 421, 422, 423, 424, 425, 426, 427, 428, 429, 430, 431, 432, 433, 434, 435, 436, 437, 438, 439, 440, 441, 442, 443, 444, 445, 446, 447, 448, 449, 450, 451, 452, 453, 454, 455, 456, 457, 458, 459, 460, 461, 462, 463, 464, 465, 466, 467, 468, 469, 470, 471, 472, 473, 474, 475, 476, 477, 478, 479, 480, 481, 482, 483, 484, 485, 486, 487, 488, 489, 490, 491, 492, 493, 494, 495, 496, 497, 498, 499, 500, 501, 502, 503, 504, 505, 506, 507, 508, 509, 510, 511, 512, 513, 514, 515, 516, 517, 518, 519, 520, 521, 522, 523, 524, 525, 526, 527, 528, 529, 530, 531, 532, 533, 534, 535, 536, 537, 538, 539, 540, 541, 542, 543, 544, 545, 546, 547, 548, 549, 550, 551, 552, 553, 554, 555, 556, 557, 558, 559, 560, 561, 562, 563, 564, 565, 566, 567, 568, 569, 570, 571, 572, 573, 574, 575, 576, 577, 578, 579, 580, 581, 582, 583, 584, 585, 586, 587, 588, 589, 590, 591, 592, 593, 594, 595, 596, 597, 598, 599, 600, 601, 602, 603, 604, 605, 606, 607, 608, 609, 610, 611, 612, 613, 614, 615, 616, 617, 618, 619, 620, 621, 622, 623, 624, 625, 626, 627, 628, 629, 630, 631, 632, 633, 634, 635, 636, 637, 638, 639, 640, 641, 642, 643, 644, 645, 646, 647, 648, 649, 650, 651, 652, 653, 654, 655, 656, 657, 658, 659, 660, 661, 662, 663, 664, 665, 666, 667, 668, 669, 670, 671, 672, 673, 674, 675, 676, 677, 678, 679, 680, 681, 682, 683, 684, 685, 686, 687, 688, 689, 690, 691, 692, 693, 694, 695, 696, 697, 698, 699, 700, 701, 702, 703, 704, 705, 706, 707, 708, 709, 710, 711, 712, 713, 714, 715, 716, 717, 718, 719, 720, 721, 722, 723, 724, 725, 726, 727, 728, 729, 730, 731, 732, 733, 734, 735, 736, 737, 738, 739, 740, 741, 742, 743, 744, 745, 746, 747, 748, 749, 750, 751, 752, 753, 754, 755, 756, 757, 758, 759, 760, 761, 762, 763, 764, 765, 766, 767, 768, 769, 770, 771, 772, 773, 774, 775, 776, 777, 778, 779, 780, 781, 782, 783, 784, 785, 786, 787, 788, 789, 790, 791, 792, 793, 794, 795, 796, 797, 798, 799, 800, 801, 802, 803, 804, 805, 806, 807, 808, 809, 810, 811, 812, 813, 814, 815, 816, 817, 818, 819, 820, 821, 822, 823, 824, 825, 826, 827, 828, 829, 830, 831, 832, 833, 834, 835, 836, 837, 838, 839, 840, 841, 842, 843, 844, 845, 846, 847, 848, 849, 850, 851, 852, 853, 854, 855, 856, 857, 858, 859, 860, 861, 862, 863, 864, 865, 866, 867, 868, 869, 870, 871, 872, 873, 874, 875, 876, 877, 878, 879, 880, 881, 882, 883, 884, 885, 886, 887, 888, 889, 890, 891, 892, 893, 894, 895, 896, 897, 898, 899, 900, 901, 902, 903, 904, 905, 906, 907, 908, 909, 910, 911, 912, 913, 914],
      "AcquisitionTime": ["141108.977500", "141109.437500", "141109.897500", "141110.357500", "141110.817500", "141111.277500", "141111.737500", "141112.197500", "141112.657500", "141113.117500", "141113.577500", "141114.037500", "141114.497500", "141114.957500", "141115.417500", "141115.877500", "141116.337500", "141116.797500", "141117.257500", "141117.717500", "141118.177500", "141118.637500", "141119.097500", "141119.557500", "141120.017500", "141120.477500", "141120.937500", "141121.397500", "141121.857500", "141122.317500", "141122.777500", "141123.237500", "141123.697500", "141124.157500", "141124.617500", "141125.077500", "141125.537500", "141125.997500", "141126.457500", "141126.917500", "141127.377500", "141127.837500", "141128.297500", "141128.757500", "141129.217500", "141129.677500", "141130.137500", "141130.597500", "141131.057500", "141131.517500", "141131.977500", "141132.437500", "141132.897500", "141133.357500", "141133.817500", "141134.277500", "141134.737500", "141135.197500", "141135.657500", "141136.117500", "141136.577500", "141137.037500", "141137.497500", "141137.957500", "141138.417500", "141138.877500", "141139.337500", "141139.797500", "141140.257500", "141140.717500", "141141.177500", "141141.637500", "141142.097500", "141142.557500", "141143.017500", "141143.477500", "141143.937500", "141144.397500", "141144.857500", "141145.317500", "141145.777500", "141146.237500", "141146.697500", "141147.157500", "141147.617500", "141148.077500", "141148.537500", "141148.997500", "141149.457500", "141149.917500", "141150.377500", "141150.837500", "141151.297500", "141151.757500", "141152.217500", "141152.677500", "141153.137500", "141153.597500", "141154.057500", "141154.517500", "141154.977500", "141155.437500", "141155.897500", "141156.357500", "141156.817500", "141157.277500", "141157.737500", "141158.197500", "141158.657500", "141159.117500", "141159.577500", "141200.037500", "141200.497500", "141200.957500", "141201.417500", "141201.877500", "141202.337500", "141202.797500", "141203.257500", "141203.717500", "141204.177500", "141204.637500", "141205.097500", "141205.557500", "141206.017500", "141206.477500", "141206.937500", "141207.397500", "141207.857500", "141208.317500", "141208.777500", "141209.237500", "141209.697500", "141210.157500", "141210.617500", "141211.077500", "141211.537500", "141211.997500", "141212.457500", "141212.917500", "141213.377500", "141213.837500", "141214.297500", "141214.757500", "141215.217500", "141215.677500", "141216.137500", "141216.597500", "141217.057500", "141217.517500", "141217.977500", "141218.437500", "141218.897500", "141219.357500", "141219.817500", "141220.277500", "141220.737500", "141221.197500", "141221.657500", "141222.117500", "141222.577500", "141223.037500", "141223.497500", "141223.957500", "141224.417500", "141224.877500", "141225.337500", "141225.797500", "141226.257500", "141226.717500", "141227.177500", "141227.637500", "141228.097500", "141228.557500", "141229.017500", "141229.477500", "141229.937500", "141230.397500", "141230.857500", "141231.317500", "141231.777500", "141232.237500", "141232.697500", "141233.157500", "141233.617500", "141234.077500", "141234.537500", "141234.997500", "141235.457500", "141235.917500", "141236.377500", "141236.837500", "141237.297500", "141237.757500", "141238.217500", "141238.677500", "141239.137500", "141239.597500", "141240.057500", "141240.517500", "141240.977500", "141241.437500", "141241.897500", "141242.357500", "141242.817500", "141243.277500", "141243.737500", "141244.197500", "141244.657500", "141245.117500", "141245.577500", "141246.037500", "141246.497500", "141246.957500", "141247.417500", "141247.877500", "141248.337500", "141248.797500", "141249.257500", "141249.717500", "141250.177500", "141250.637500", "141251.097500", "141251.557500", "141252.017500", "141252.477500", "141252.937500", "141253.397500", "141253.857500", "141254.317500", "141254.777500", "141255.237500", "141255.697500", "141256.157500", "141256.617500", "141257.077500", "141257.537500", "141257.997500", "141258.457500", "141258.917500", "141259.377500", "141259.837500", "141300.297500", "141300.757500", "141301.217500", "141301.677500", "141302.137500", "141302.597500", "141303.057500", "141303.517500", "141303.977500", "141304.437500", "141304.897500", "141305.357500", "141305.817500", "141306.277500", "141306.737500", "141307.197500", "141307.657500", "141308.117500", "141308.577500", "141309.037500", "141309.497500", "141309.957500", "141310.417500", "141310.877500", "141311.337500", "141311.797500", "141312.257500", "141312.717500", "141313.177500", "141313.637500", "141314.097500", "141314.557500", "141315.017500", "141315.477500", "141315.937500", "141316.397500", "141316.857500", "141317.317500", "141317.777500", "141318.237500", "141318.697500", "141319.157500", "141319.617500", "141320.077500", "141320.537500", "141320.997500", "141321.457500", "141321.917500", "141322.377500", "141322.837500", "141323.297500", "141323.757500", "141324.217500", "141324.677500", "141325.137500", "141325.597500", "141326.057500", "141326.517500", "141326.977500", "141327.437500", "141327.897500", "141328.357500", "141328.817500", "141329.277500", "141329.737500", "141330.197500", "141330.657500", "141331.117500", "141331.577500", "141332.037500", "141332.497500", "141332.957500", "141333.417500", "141333.877500", "141334.337500", "141334.797500", "141335.257500", "141335.717500", "141336.177500", "141336.637500", "141337.097500", "141337.557500", "141338.017500", "141338.477500", "141338.937500", "141339.397500", "141339.857500", "141340.317500", "141340.777500", "141341.237500", "141341.697500", "141342.157500", "141342.617500", "141343.077500", "141343.537500", "141343.997500", "141344.457500", "141344.917500", "141345.377500", "141345.837500", "141346.297500", "141346.757500", "141347.217500", "141347.677500", "141348.137500", "141348.597500", "141349.057500", "141349.517500", "141349.977500", "141350.437500", "141350.897500", "141351.357500", "141351.817500", "141352.277500", "141352.737500", "141353.197500", "141353.657500", "141354.117500", "141354.577500", "141355.037500", "141355.497500", "141355.957500", "141356.417500", "141356.877500", "141357.337500", "141357.797500", "141358.257500", "141358.717500", "141359.177500", "141359.637500", "141400.097500", "141400.557500", "141401.017500", "141401.477500", "141401.937500", "141402.397500", "141402.857500", "141403.317500", "141403.777500", "141404.237500", "141404.697500", "141405.157500", "141405.617500", "141406.077500", "141406.537500", "141406.997500", "141407.457500", "141407.917500", "141408.377500", "141408.837500", "141409.297500", "141409.757500", "141410.217500", "141410.677500", "141411.137500", "141411.597500", "141412.057500", "141412.517500", "141412.977500", "141413.437500", "141413.897500", "141414.357500", "141414.817500", "141415.277500", "141415.737500", "141416.197500", "141416.657500", "141417.117500", "141417.577500", "141418.037500", "141418.497500", "141418.957500", "141419.417500", "141419.877500", "141420.337500", "141420.797500", "141421.257500", "141421.717500", "141422.177500", "141422.637500", "141423.097500", "141423.557500", "141424.017500", "141424.477500", "141424.937500", "141425.397500", "141425.857500", "141426.317500", "141426.777500", "141427.237500", "141427.697500", "141428.157500", "141428.617500", "141429.077500", "141429.537500", "141429.997500", "141430.457500", "141430.917500", "141431.377500", "141431.837500", "141432.297500", "141432.757500", "141433.217500", "141433.677500", "141434.137500", "141434.597500", "141435.057500", "141435.517500", "141435.977500", "141436.437500", "141436.897500", "141437.357500", "141437.817500", "141438.277500", "141438.737500", "141439.197500", "141439.657500", "141440.117500", "141440.577500", "141441.037500", "141441.497500", "141441.957500", "141442.417500", "141442.877500", "141443.337500", "141443.797500", "141444.257500", "141444.717500", "141445.177500", "141445.637500", "141446.097500", "141446.557500", "141447.017500", "141447.477500", "141447.937500", "141448.397500", "141448.857500", "141449.317500", "141449.777500", "141450.237500", "141450.697500", "141451.157500", "141451.617500", "141452.077500", "141452.537500", "141452.997500", "141453.457500", "141453.917500", "141454.377500", "141454.837500", "141455.297500", "141455.757500", "141456.217500", "141456.677500", "141457.137500", "141457.597500", "141458.057500", "141458.517500", "141458.977500", "141459.437500", "141459.897500", "141500.357500", "141500.817500", "141501.277500", "141501.737500", "141502.197500", "141502.657500", "141503.117500", "141503.577500", "141504.037500", "141504.497500", "141504.957500", "141505.417500", "141505.877500", "141506.337500", "141506.797500", "141507.257500", "141507.717500", "141508.177500", "141508.637500", "141509.097500", "141509.557500", "141510.017500", "141510.477500", "141510.937500", "141511.397500", "141511.857500", "141512.317500", "141512.777500", "141513.237500", "141513.697500", "141514.157500", "141514.617500", "141515.077500", "141515.537500", "141515.997500", "141516.457500", "141516.917500", "141517.377500", "141517.837500", "141518.297500", "141518.757500", "141519.217500", "141519.677500", "141520.137500", "141520.597500", "141521.057500", "141521.517500", "141521.977500", "141522.437500", "141522.897500", "141523.357500", "141523.817500", "141524.277500", "141524.737500", "141525.197500", "141525.657500", "141526.117500", "141526.577500", "141527.037500", "141527.497500", "141527.957500", "141528.417500", "141528.877500", "141529.337500", "141529.797500", "141530.257500", "141530.717500", "141531.177500", "141531.637500", "141532.097500", "141532.557500", "141533.017500", "141533.477500", "141533.937500", "141534.397500", "141534.857500", "141535.317500", "141535.777500", "141536.237500", "141536.697500", "141537.157500", "141537.617500", "141538.077500", "141538.537500", "141538.997500", "141539.457500", "141539.917500", "141540.377500", "141540.837500", "141541.297500", "141541.757500", "141542.217500", "141542.677500", "141543.137500", "141543.597500", "141544.057500", "141544.517500", "141544.977500", "141545.437500", "141545.897500", "141546.357500", "141546.817500", "141547.277500", "141547.737500", "141548.197500", "141548.657500", "141549.117500", "141549.577500", "141550.037500", "141550.497500", "141550.957500", "141551.417500", "141551.877500", "141552.337500", "141552.797500", "141553.257500", "141553.717500", "141554.177500", "141554.637500", "141555.097500", "141555.557500", "141556.017500", "141556.477500", "141556.937500", "141557.397500", "141557.857500", "141558.317500", "141558.777500", "141559.237500", "141559.697500", "141600.157500", "141600.617500", "141601.077500", "141601.537500", "141601.997500", "141602.457500", "141602.917500", "141603.377500", "141603.837500", "141604.297500", "141604.757500", "141605.217500", "141605.677500", "141606.137500", "141606.597500", "141607.057500", "141607.517500", "141607.977500", "141608.437500", "141608.897500", "141609.357500", "141609.817500", "141610.277500", "141610.737500", "141611.197500", "141611.657500", "141612.117500", "141612.577500", "141613.037500", "141613.497500", "141613.957500", "141614.417500", "141614.877500", "141615.337500", "141615.797500", "141616.257500", "141616.717500", "141617.177500", "141617.637500", "141618.097500", "141618.557500", "141619.017500", "141619.477500", "141619.937500", "141620.397500", "141620.857500", "141621.317500", "141621.777500", "141622.237500", "141622.697500", "141623.157500", "141623.617500", "141624.077500", "141624.537500", "141624.997500", "141625.457500", "141625.917500", "141626.377500", "141626.837500", "141627.297500", "141627.757500", "141628.217500", "141628.677500", "141629.137500", "141629.597500", "141630.057500", "141630.517500", "141630.977500", "141631.437500", "141631.897500", "141632.357500", "141632.817500", "141633.277500", "141633.737500", "141634.197500", "141634.657500", "141635.117500", "141635.577500", "141636.037500", "141636.497500", "141636.957500", "141637.417500", "141637.877500", "141638.337500", "141638.797500", "141639.257500", "141639.717500", "141640.177500", "141640.637500", "141641.097500", "141641.557500", "141642.017500", "141642.477500", "141642.937500", "141643.397500", "141643.857500", "141644.317500", "141644.777500", "141645.237500", "141645.697500", "141646.157500", "141646.617500", "141647.077500", "141647.537500", "141647.997500", "141648.457500", "141648.917500", "141649.377500", "141649.837500", "141650.297500", "141650.757500", "141651.217500", "141651.677500", "141652.137500", "141652.597500", "141653.057500", "141653.517500", "141653.977500", "141654.437500", "141654.897500", "141655.357500", "141655.817500", "141656.277500", "141656.737500", "141657.197500", "141657.657500", "141658.117500", "141658.577500", "141659.037500", "141659.497500", "141659.957500", "141700.417500", "141700.877500", "141701.337500", "141701.797500", "141702.257500", "141702.717500", "141703.177500", "141703.637500", "141704.097500", "141704.557500", "141705.017500", "141705.477500", "141705.937500", "141706.397500", "141706.857500", "141707.317500", "141707.777500", "141708.237500", "141708.697500", "141709.157500", "141709.617500", "141710.077500", "141710.537500", "141710.997500", "141711.457500", "141711.917500", "141712.377500", "141712.837500", "141713.297500", "141713.757500", "141714.217500", "141714.677500", "141715.137500", "141715.597500", "141716.057500", "141716.517500", "141716.977500", "141717.437500", "141717.897500", "141718.357500", "141718.817500", "141719.277500", "141719.737500", "141720.197500", "141720.657500", "141721.117500", "141721.577500", "141722.037500", "141722.497500", "141722.957500", "141723.417500", "141723.877500", "141724.337500", "141724.797500", "141725.257500", "141725.717500", "141726.177500", "141726.637500", "141727.097500", "141727.557500", "141728.017500", "141728.477500", "141728.937500", "141729.397500", "141729.857500", "141730.317500", "141730.777500", "141731.237500", "141731.697500", "141732.157500", "141732.617500", "141733.077500", "141733.537500", "141733.997500", "141734.457500", "141734.917500", "141735.377500", "141735.837500", "141736.297500", "141736.757500", "141737.217500", "141737.677500", "141738.137500", "141738.597500", "141739.057500", "141739.517500", "141739.977500", "141740.437500", "141740.897500", "141741.357500", "141741.817500", "141742.277500", "141742.737500", "141743.197500", "141743.657500", "141744.117500", "141744.577500", "141745.037500", "141745.497500", "141745.957500", "141746.417500", "141746.877500", "141747.337500", "141747.797500", "141748.257500", "141748.717500", "141749.177500", "141749.637500", "141750.097500", "141750.557500", "141751.017500", "141751.477500", "141751.937500", "141752.397500", "141752.857500", "141753.317500", "141753.777500", "141754.237500", "141754.697500", "141755.157500", "141755.617500", "141756.077500", "141756.537500", "141756.997500", "141757.457500", "141757.917500", "141758.377500", "141758.837500", "141759.297500", "141759.757500", "141800.217500", "141800.677500", "141801.137500", "141801.597500", "141802.057500", "141802.517500", "141802.977500", "141803.437500", "141803.897500", "141804.357500", "141804.817500", "141805.277500", "141805.737500", "141806.197500", "141806.657500", "141807.117500", "141807.577500", "141808.037500", "141808.497500", "141808.957500"],
