{
  "AcquisitionMatrixPE": 82,
  "AcquisitionNumber": 1,
  "AcquisitionTime": "21:30:1.987500",
  "BandwidthPerPixelPhaseEncode": 24.888,
  "BaseResolution": 82,
  "BodyPartExamined": "BRAIN",
  "ConsistencyInfo": "N4_VE11E_LATEST_20181129",
  "ConversionSoftware": "dcm2niix",
  "ConversionSoftwareVersion": "v1.0.20201102",
  "DerivedVendorReportedEchoSpacing": 0.00049,
  "DeviceSerialNumber": "66112",
  "DwellTime": 2e-06,
  "EchoTime": 0.0272,
  "EchoTrainLength": 82,
  "EffectiveEchoSpacing": 0.00049,
  "FlipAngle": 44,
  "ImageComments": "Unaliased MB8/PE3",
  "ImageOrientationPatientDICOM": [0.998908, 0.00498159, -0.0464476, -0.0012204, 0.996741, 0.0806562],
  "ImageType": [
    "ORIGINAL",
    "PRIMARY",
    "M",
    "MB",
    "ND",
    "NORM",
    "MOSAIC"
],
  "ImagingFrequency": 123.259,
  "InPlanePhaseEncodingDirectionDICOM": "COL",
  "InstitutionAddress": "Maynard 3,Hanover,NH,US,03755",
  "InstitutionName": "Dartmouth College - PBS",
  "InstitutionalDepartmentName": "Department",
  "MRAcquisitionType": "2D",
  "MagneticFieldStrength": 3,
  "Manufacturer": "Siemens",
  "ManufacturersModelName": "Prisma",
  "Modality": "MR",
  "MultibandAccelerationFactor": 8,
  "PartialFourier": 1,
  "PatientPosition": "HFS",
  "PercentPhaseFOV": 100,
  "PercentSampling": 100,
  "PhaseEncodingDirection": "j-",
  "PhaseEncodingSteps": 82,
  "PhaseResolution": 1,
  "PixelBandwidth": 3050,
  "ProcedureStepDescription": "Wager_Wager^1076_spacetop",
  "ProtocolName": "func_run-02_task-social_acq-ap-mb8",
  "PulseSequenceDetails": "%CustomerSeq%\\cmrr_mbep2d_bold",
  "ReceiveCoilActiveElements": "HEA;HEP",
  "ReceiveCoilName": "Head_32",
  "ReconMatrixPE": 82,
  "RepetitionTime": 0.46,
  "SAR": 0.09794,
  "ScanOptions": "FS",
  "ScanningSequence": "EP",
  "SequenceName": "epfid2d1_82",
  "SequenceVariant": "SK\\SS",
  "SeriesDescription": "func_run-02_task-social_acq-ap-mb8",
  "SeriesNumber": 16,
  "ShimSetting": [4211, -7794, -7258, 404, -166, 19, 2, 98],
  "SliceThickness": 2.7,
  "SliceTiming": [0, 0.2525, 0.0625, 0.315, 0.125, 0.3775, 0.19, 0, 0.2525, 0.0625, 0.315, 0.125, 0.3775, 0.19, 0, 0.2525, 0.0625, 0.315, 0.125, 0.3775, 0.19, 0, 0.2525, 0.0625, 0.315, 0.125, 0.3775, 0.19, 0, 0.2525, 0.0625, 0.315, 0.125, 0.3775, 0.19, 0, 0.2525, 0.0625, 0.315, 0.125, 0.3775, 0.19, 0, 0.2525, 0.0625, 0.315, 0.125, 0.3775, 0.19, 0, 0.2525, 0.0625, 0.315, 0.125, 0.3775, 0.19],
  "SoftwareVersions": "syngo MR E11",
  "SpacingBetweenSlices": 2.7,
  "StationName": "AWP66112",
  "TaskName": "social",
  "TotalReadoutTime": 0.03969,
  "TxRefAmp": 236.539,
  "WipMemBlock": "886f05ae-f05d-4e14-8456-6ffe81cd1d37||Sequence: R016 ve11e/master r/434b28f1; Aug  7 2019 18:53:46 by eja",
  "dcmmeta_affine": [
    [-2.6799979209899902, -0.0032742468174546957, -0.1260846108198166, 113.48704528808594],
    [-0.01336523238569498, 2.6741838455200195, 0.21738091111183167, -106.43962860107422],
    [-0.12461543828248978, -0.21639464795589447, 2.688279628753662, -57.43107223510742],
    [0.0, 0.0, 0.0, 1.0]
],
  "dcmmeta_reorient_transform": [
    [0.0, -1.0, 0.0, 81.0],
    [1.0, 0.0, 0.0, 0.0],
    [0.0, 0.0, 1.0, 0.0],
    [0.0, 0.0, 0.0, 1.0]
],
  "dcmmeta_shape": [82, 82, 56, 872],
  "dcmmeta_slice_dim": 2,
  "dcmmeta_version": 0.6,
  "global": {
    "const": {
      "AccessionNumber": "A004858",
      "AcquisitionMatrix": [82, 0, 0, 82],
      "AngioFlag": "N",
      "BitsAllocated": 16,
      "BitsStored": 16,
      "BodyPartExamined": "BRAIN",
      "Columns": 656,
      "EchoNumbers": 1,
      "EchoTime": 27.2,
      "EchoTrainLength": 82,
      "FlipAngle": 44.0,
      "HighBit": 15,
      "ImageOrientationPatient": [0.99890830759407, 0.00498158649967, -0.0464475706093, -0.001220401049, 0.99674123529635, 0.08065618687486],
      "ImagePositionPatient": [-881.44153683405, -881.49585522001, -101.29967372968],
      "ImageType": [
        "ORIGINAL",
        "PRIMARY",
        "M",
        "MB",
        "ND",
        "NORM",
        "MOSAIC"
],
      "ImagedNucleus": "1H",
      "ImagingFrequency": 123.259086,
      "InPlanePhaseEncodingDirection": "COL",
      "MRAcquisitionType": "2D",
      "MagneticFieldStrength": 3.0,
      "Manufacturer": "SIEMENS",
      "ManufacturerModelName": "Prisma",
      "Modality": "MR",
      "NumberOfAverages": 1.0,
      "NumberOfPhaseEncodingSteps": 82,
      "PercentPhaseFieldOfView": 100.0,
      "PercentSampling": 100.0,
      "PerformedProcedureStepStartTime": "204135.083000",
      "PhotometricInterpretation": "MONOCHROME2",
      "PixelBandwidth": 3050.0,
      "PixelRepresentation": 0,
      "PixelSpacing": [2.6829268932343, 2.6829268932343],
      "ProtocolName": "func_run-02_task-social_acq-ap-mb8",
      "RepetitionTime": 460.0,
      "Rows": 656,
      "SAR": 0.09794000956847,
      "SamplesPerPixel": 1,
      "ScanOptions": "FS",
      "ScanningSequence": "EP",
      "SequenceName": "epfid2d1_82",
      "SequenceVariant": [
        "SK",
        "SS"
],
      "SeriesDescription": "func_run-02_task-social_acq-ap-mb8",
      "SeriesNumber": 16,
      "SeriesTime": "213030.079000",
      "SliceLocation": -71.051001207007,
      "SliceThickness": 2.7000000476837,
      "SmallestImagePixelValue": 0,
      "SoftwareVersions": "syngo MR E11",
      "SpacingBetweenSlices": 2.6999999383969,
      "SpecificCharacterSet": "ISO_IR 100",
      "StudyID": "1",
      "StudyTime": "204135.031000",
      "TransmitCoilName": "Body",
      "VariableFlipAngleFlag": "N",
      "WindowCenterWidthExplanation": "Algo1"
    },
    "slices": {}
  },
  "time": {
    "samples": {
      "AcquisitionNumber": [1, 2, 3, 4, 5, 6, 7, 8, 9, 10, 11, 12, 13, 14, 15, 16, 17, 18, 19, 20, 21, 22, 23, 24, 25, 26, 27, 28, 29, 30, 31, 32, 33, 34, 35, 36, 37, 38, 39, 40, 41, 42, 43, 44, 45, 46, 47, 48, 49, 50, 51, 52, 53, 54, 55, 56, 57, 58, 59, 60, 61, 62, 63, 64, 65, 66, 67, 68, 69, 70, 71, 72, 73, 74, 75, 76, 77, 78, 79, 80, 81, 82, 83, 84, 85, 86, 87, 88, 89, 90, 91, 92, 93, 94, 95, 96, 97, 98, 99, 100, 101, 102, 103, 104, 105, 106, 107, 108, 109, 110, 111, 112, 113, 114, 115, 116, 117, 118, 119, 120, 121, 122, 123, 124, 125, 126, 127, 128, 129, 130, 131, 132, 133, 134, 135, 136, 137, 138, 139, 140, 141, 142, 143, 144, 145, 146, 147, 148, 149, 150, 151, 152, 153, 154, 155, 156, 157, 158, 159, 160, 161, 162, 163, 164, 165, 166, 167, 168, 169, 170, 171, 172, 173, 174, 175, 176, 177, 178, 179, 180, 181, 182, 183, 184, 185, 186, 187, 188, 189, 190, 191, 192, 193, 194, 195, 196, 197, 198, 199, 200, 201, 202, 203, 204, 205, 206, 207, 208, 209, 210, 211, 212, 213, 214, 215, 216, 217, 218, 219, 220, 221, 222, 223, 224, 225, 226, 227, 228, 229, 230, 231, 232, 233, 234, 235, 236, 237, 238, 239, 240, 241, 242, 243, 244, 245, 246, 247, 248, 249, 250, 251, 252, 253, 254, 255, 256, 257, 258, 259, 260, 261, 262, 263, 264, 265, 266, 267, 268, 269, 270, 271, 272, 273, 274, 275, 276, 277, 278, 279, 280, 281, 282, 283, 284, 285, 286, 287, 288, 289, 290, 291, 292, 293, 294, 295, 296, 297, 298, 299, 300, 301, 302, 303, 304, 305, 306, 307, 308, 309, 310, 311, 312, 313, 314, 315, 316, 317, 318, 319, 320, 321, 322, 323, 324, 325, 326, 327, 328, 329, 330, 331, 332, 333, 334, 335, 336, 337, 338, 339, 340, 341, 342, 343, 344, 345, 346, 347, 348, 349, 350, 351, 352, 353, 354, 355, 356, 357, 358, 359, 360, 361, 362, 363, 364, 365, 366, 367, 368, 369, 370, 371, 372, 373, 374, 375, 376, 377, 378, 379, 380, 381, 382, 383, 384, 385, 386, 387, 388, 389, 390, 391, 392, 393, 394, 395, 396, 397, 398, 399, 400, 401, 402, 403, 404, 405, 406, 407, 408, 409, 410, 411, 412, 413, 414, 415, 416, 417, 418, 419, 420, 421, 422, 423, 424, 425, 426, 427, 428, 429, 430, 431, 432, 433, 434, 435, 436, 437, 438, 439, 440, 441, 442, 443, 444, 445, 446, 447, 448, 449, 450, 451, 452, 453, 454, 455, 456, 457, 458, 459, 460, 461, 462, 463, 464, 465, 466, 467, 468, 469, 470, 471, 472, 473, 474, 475, 476, 477, 478, 479, 480, 481, 482, 483, 484, 485, 486, 487, 488, 489, 490, 491, 492, 493, 494, 495, 496, 497, 498, 499, 500, 501, 502, 503, 504, 505, 506, 507, 508, 509, 510, 511, 512, 513, 514, 515, 516, 517, 518, 519, 520, 521, 522, 523, 524, 525, 526, 527, 528, 529, 530, 531, 532, 533, 534, 535, 536, 537, 538, 539, 540, 541, 542, 543, 544, 545, 546, 547, 548, 549, 550, 551, 552, 553, 554, 555, 556, 557, 558, 559, 560, 561, 562, 563, 564, 565, 566, 567, 568, 569, 570, 571, 572, 573, 574, 575, 576, 577, 578, 579, 580, 581, 582, 583, 584, 585, 586, 587, 588, 589, 590, 591, 592, 593, 594, 595, 596, 597, 598, 599, 600, 601, 602, 603, 604, 605, 606, 607, 608, 609, 610, 611, 612, 613, 614, 615, 616, 617, 618, 619, 620, 621, 622, 623, 624, 625, 626, 627, 628, 629, 630, 631, 632, 633, 634, 635, 636, 637, 638, 639, 640, 641, 642, 643, 644, 645, 646, 647, 648, 649, 650, 651, 652, 653, 654, 655, 656, 657, 658, 659, 660, 661, 662, 663, 664, 665, 666, 667, 668, 669, 670, 671, 672, 673, 674, 675, 676, 677, 678, 679, 680, 681, 682, 683, 684, 685, 686, 687, 688, 689, 690, 691, 692, 693, 694, 695, 696, 697, 698, 699, 700, 701, 702, 703, 704, 705, 706, 707, 708, 709, 710, 711, 712, 713, 714, 715, 716, 717, 718, 719, 720, 721, 722, 723, 724, 725, 726, 727, 728, 729, 730, 731, 732, 733, 734, 735, 736, 737, 738, 739, 740, 741, 742, 743, 744, 745, 746, 747, 748, 749, 750, 751, 752, 753, 754, 755, 756, 757, 758, 759, 760, 761, 762, 763, 764, 765, 766, 767, 768, 769, 770, 771, 772, 773, 774, 775, 776, 777, 778, 779, 780, 781, 782, 783, 784, 785, 786, 787, 788, 789, 790, 791, 792, 793, 794, 795, 796, 797, 798, 799, 800, 801, 802, 803, 804, 805, 806, 807, 808, 809, 810, 811, 812, 813, 814, 815, 816, 817, 818, 819, 820, 821, 822, 823, 824, 825, 826, 827, 828, 829, 830, 831, 832, 833, 834, 835, 836, 837, 838, 839, 840, 841, 842, 843, 844, 845, 846, 847, 848, 849, 850, 851, 852, 853, 854, 855, 856, 857, 858, 859, 860, 861, 862, 863, 864, 865, 866, 867, 868, 869, 870, 871, 872],
      "AcquisitionTime": ["213001.987500", "213002.447500", "213002.907500", "213003.367500", "213003.827500", "213004.287500", "213004.747500", "213005.207500", "213005.667500", "213006.127500", "213006.587500", "213007.047500", "213007.507500", "213007.967500", "213008.427500", "213008.887500", "213009.347500", "213009.807500", "213010.267500", "213010.727500", "213011.187500", "213011.647500", "213012.107500", "213012.567500", "213013.027500", "213013.487500", "213013.947500", "213014.407500", "213014.867500", "213015.327500", "213015.787500", "213016.247500", "213016.707500", "213017.167500", "213017.627500", "213018.087500", "213018.547500", "213019.007500", "213019.467500", "213019.927500", "213020.387500", "213020.847500", "213021.307500", "213021.767500", "213022.227500", "213022.687500", "213023.147500", "213023.607500", "213024.067500", "213024.527500", "213024.987500", "213025.447500", "213025.907500", "213026.367500", "213026.827500", "213027.287500", "213027.747500", "213028.207500", "213028.667500", "213029.127500", "213029.587500", "213030.047500", "213030.507500", "213030.967500", "213031.427500", "213031.887500", "213032.347500", "213032.807500", "213033.267500", "213033.727500", "213034.187500", "213034.647500", "213035.107500", "213035.567500", "213036.027500", "213036.487500", "213036.947500", "213037.407500", "213037.867500", "213038.327500", "213038.787500", "213039.247500", "213039.707500", "213040.167500", "213040.627500", "213041.087500", "213041.547500", "213042.007500", "213042.467500", "213042.927500", "213043.387500", "213043.847500", "213044.307500", "213044.767500", "213045.227500", "213045.687500", "213046.147500", "213046.607500", "213047.067500", "213047.527500", "213047.987500", "213048.447500", "213048.907500", "213049.367500", "213049.827500", "213050.287500", "213050.747500", "213051.207500", "213051.667500", "213052.127500", "213052.587500", "213053.047500", "213053.507500", "213053.967500", "213054.427500", "213054.887500", "213055.347500", "213055.807500", "213056.267500", "213056.727500", "213057.187500", "213057.647500", "213058.107500", "213058.567500", "213059.027500", "213059.487500", "213059.947500", "213100.407500", "213100.867500", "213101.327500", "213101.787500", "213102.247500", "213102.707500", "213103.167500", "213103.627500", "213104.087500", "213104.547500", "213105.007500", "213105.467500", "213105.927500", "213106.387500", "213106.847500", "213107.307500", "213107.767500", "213108.227500", "213108.687500", "213109.147500", "213109.607500", "213110.067500", "213110.527500", "213110.987500", "213111.447500", "213111.907500", "213112.367500", "213112.827500", "213113.287500", "213113.747500", "213114.207500", "213114.667500", "213115.127500", "213115.587500", "213116.047500", "213116.507500", "213116.967500", "213117.427500", "213117.887500", "213118.347500", "213118.807500", "213119.267500", "213119.727500", "213120.187500", "213120.647500", "213121.107500", "213121.567500", "213122.027500", "213122.487500", "213122.947500", "213123.407500", "213123.867500", "213124.327500", "213124.787500", "213125.247500", "213125.707500", "213126.167500", "213126.627500", "213127.087500", "213127.547500", "213128.007500", "213128.467500", "213128.927500", "213129.387500", "213129.847500", "213130.307500", "213130.767500", "213131.227500", "213131.687500", "213132.147500", "213132.607500", "213133.067500", "213133.527500", "213133.987500", "213134.447500", "213134.907500", "213135.367500", "213135.827500", "213136.287500", "213136.747500", "213137.207500", "213137.667500", "213138.127500", "213138.587500", "213139.047500", "213139.507500", "213139.967500", "213140.427500", "213140.887500", "213141.347500", "213141.807500", "213142.267500", "213142.727500", "213143.187500", "213143.647500", "213144.107500", "213144.567500", "213145.027500", "213145.487500", "213145.947500", "213146.407500", "213146.867500", "213147.327500", "213147.787500", "213148.247500", "213148.707500", "213149.167500", "213149.627500", "213150.087500", "213150.547500", "213151.007500", "213151.467500", "213151.927500", "213152.387500", "213152.847500", "213153.307500", "213153.767500", "213154.227500", "213154.687500", "213155.147500", "213155.607500", "213156.067500", "213156.527500", "213156.987500", "213157.447500", "213157.907500", "213158.367500", "213158.827500", "213159.287500", "213159.747500", "213200.207500", "213200.667500", "213201.127500", "213201.587500", "213202.047500", "213202.507500", "213202.967500", "213203.427500", "213203.887500", "213204.347500", "213204.807500", "213205.267500", "213205.727500", "213206.187500", "213206.647500", "213207.107500", "213207.567500", "213208.027500", "213208.487500", "213208.947500", "213209.407500", "213209.867500", "213210.327500", "213210.787500", "213211.247500", "213211.707500", "213212.167500", "213212.627500", "213213.087500", "213213.547500", "213214.007500", "213214.467500", "213214.927500", "213215.387500", "213215.847500", "213216.307500", "213216.767500", "213217.227500", "213217.687500", "213218.147500", "213218.607500", "213219.067500", "213219.527500", "213219.987500", "213220.447500", "213220.907500", "213221.367500", "213221.827500", "213222.287500", "213222.747500", "213223.207500", "213223.667500", "213224.127500", "213224.587500", "213225.047500", "213225.507500", "213225.967500", "213226.427500", "213226.887500", "213227.347500", "213227.807500", "213228.267500", "213228.727500", "213229.187500", "213229.647500", "213230.107500", "213230.567500", "213231.027500", "213231.487500", "213231.947500", "213232.407500", "213232.867500", "213233.327500", "213233.787500", "213234.247500", "213234.707500", "213235.167500", "213235.627500", "213236.087500", "213236.547500", "213237.007500", "213237.467500", "213237.927500", "213238.387500", "213238.847500", "213239.307500", "213239.767500", "213240.227500", "213240.687500", "213241.147500", "213241.607500", "213242.067500", "213242.527500", "213242.987500", "213243.447500", "213243.907500", "213244.367500", "213244.827500", "213245.287500", "213245.747500", "213246.207500", "213246.667500", "213247.127500", "213247.587500", "213248.047500", "213248.507500", "213248.967500", "213249.427500", "213249.887500", "213250.347500", "213250.807500", "213251.267500", "213251.727500", "213252.187500", "213252.647500", "213253.107500", "213253.567500", "213254.027500", "213254.487500", "213254.947500", "213255.407500", "213255.867500", "213256.327500", "213256.787500", "213257.247500", "213257.707500", "213258.167500", "213258.627500", "213259.087500", "213259.547500", "213300.007500", "213300.467500", "213300.927500", "213301.387500", "213301.847500", "213302.307500", "213302.767500", "213303.227500", "213303.687500", "213304.147500", "213304.607500", "213305.067500", "213305.527500", "213305.987500", "213306.447500", "213306.907500", "213307.367500", "213307.827500", "213308.287500", "213308.747500", "213309.207500", "213309.667500", "213310.127500", "213310.587500", "213311.047500", "213311.507500", "213311.967500", "213312.427500", "213312.887500", "213313.347500", "213313.807500", "213314.267500", "213314.727500", "213315.187500", "213315.647500", "213316.107500", "213316.567500", "213317.027500", "213317.487500", "213317.947500", "213318.407500", "213318.867500", "213319.327500", "213319.787500", "213320.247500", "213320.707500", "213321.167500", "213321.627500", "213322.087500", "213322.547500", "213323.007500", "213323.467500", "213323.927500", "213324.387500", "213324.847500", "213325.307500", "213325.767500", "213326.227500", "213326.687500", "213327.147500", "213327.607500", "213328.067500", "213328.527500", "213328.987500", "213329.447500", "213329.907500", "213330.367500", "213330.827500", "213331.287500", "213331.747500", "213332.207500", "213332.667500", "213333.127500", "213333.587500", "213334.047500", "213334.507500", "213334.967500", "213335.427500", "213335.887500", "213336.347500", "213336.807500", "213337.267500", "213337.727500", "213338.187500", "213338.647500", "213339.107500", "213339.567500", "213340.027500", "213340.487500", "213340.947500", "213341.407500", "213341.867500", "213342.327500", "213342.787500", "213343.247500", "213343.707500", "213344.167500", "213344.627500", "213345.087500", "213345.547500", "213346.007500", "213346.467500", "213346.927500", "213347.387500", "213347.847500", "213348.307500", "213348.767500", "213349.227500", "213349.687500", "213350.147500", "213350.607500", "213351.067500", "213351.527500", "213351.987500", "213352.447500", "213352.907500", "213353.367500", "213353.827500", "213354.287500", "213354.747500", "213355.207500", "213355.667500", "213356.127500", "213356.587500", "213357.047500", "213357.507500", "213357.967500", "213358.427500", "213358.887500", "213359.347500", "213359.807500", "213400.267500", "213400.727500", "213401.187500", "213401.647500", "213402.107500", "213402.567500", "213403.027500", "213403.487500", "213403.947500", "213404.407500", "213404.867500", "213405.327500", "213405.787500", "213406.247500", "213406.707500", "213407.167500", "213407.627500", "213408.087500", "213408.547500", "213409.007500", "213409.467500", "213409.927500", "213410.387500", "213410.847500", "213411.307500", "213411.767500", "213412.227500", "213412.687500", "213413.147500", "213413.607500", "213414.067500", "213414.527500", "213414.987500", "213415.447500", "213415.907500", "213416.367500", "213416.827500", "213417.287500", "213417.747500", "213418.207500", "213418.667500", "213419.127500", "213419.587500", "213420.047500", "213420.507500", "213420.967500", "213421.427500", "213421.887500", "213422.347500", "213422.807500", "213423.267500", "213423.727500", "213424.187500", "213424.647500", "213425.107500", "213425.567500", "213426.027500", "213426.487500", "213426.947500", "213427.407500", "213427.867500", "213428.327500", "213428.787500", "213429.247500", "213429.707500", "213430.167500", "213430.627500", "213431.087500", "213431.547500", "213432.007500", "213432.467500", "213432.927500", "213433.387500", "213433.847500", "213434.307500", "213434.767500", "213435.227500", "213435.687500", "213436.147500", "213436.607500", "213437.067500", "213437.527500", "213437.987500", "213438.447500", "213438.907500", "213439.367500", "213439.827500", "213440.287500", "213440.747500", "213441.207500", "213441.667500", "213442.127500", "213442.587500", "213443.047500", "213443.507500", "213443.967500", "213444.427500", "213444.887500", "213445.347500", "213445.807500", "213446.267500", "213446.727500", "213447.187500", "213447.647500", "213448.107500", "213448.567500", "213449.027500", "213449.487500", "213449.947500", "213450.407500", "213450.867500", "213451.327500", "213451.787500", "213452.247500", "213452.707500", "213453.167500", "213453.627500", "213454.087500", "213454.547500", "213455.007500", "213455.467500", "213455.927500", "213456.387500", "213456.847500", "213457.307500", "213457.767500", "213458.227500", "213458.687500", "213459.147500", "213459.607500", "213500.067500", "213500.527500", "213500.987500", "213501.447500", "213501.907500", "213502.367500", "213502.827500", "213503.287500", "213503.747500", "213504.207500", "213504.667500", "213505.127500", "213505.587500", "213506.047500", "213506.507500", "213506.967500", "213507.427500", "213507.887500", "213508.347500", "213508.807500", "213509.267500", "213509.727500", "213510.187500", "213510.647500", "213511.107500", "213511.567500", "213512.027500", "213512.487500", "213512.947500", "213513.407500", "213513.867500", "213514.327500", "213514.787500", "213515.247500", "213515.707500", "213516.167500", "213516.627500", "213517.087500", "213517.547500", "213518.007500", "213518.467500", "213518.927500", "213519.387500", "213519.847500", "213520.307500", "213520.767500", "213521.227500", "213521.687500", "213522.147500", "213522.607500", "213523.067500", "213523.527500", "213523.987500", "213524.447500", "213524.907500", "213525.367500", "213525.827500", "213526.287500", "213526.747500", "213527.207500", "213527.667500", "213528.127500", "213528.587500", "213529.047500", "213529.507500", "213529.967500", "213530.427500", "213530.887500", "213531.347500", "213531.807500", "213532.267500", "213532.727500", "213533.187500", "213533.647500", "213534.107500", "213534.567500", "213535.027500", "213535.487500", "213535.947500", "213536.407500", "213536.867500", "213537.327500", "213537.787500", "213538.247500", "213538.707500", "213539.167500", "213539.627500", "213540.087500", "213540.547500", "213541.007500", "213541.467500", "213541.927500", "213542.387500", "213542.847500", "213543.307500", "213543.767500", "213544.227500", "213544.687500", "213545.147500", "213545.607500", "213546.067500", "213546.527500", "213546.987500", "213547.447500", "213547.907500", "213548.367500", "213548.827500", "213549.287500", "213549.747500", "213550.207500", "213550.667500", "213551.127500", "213551.587500", "213552.047500", "213552.507500", "213552.967500", "213553.427500", "213553.887500", "213554.347500", "213554.807500", "213555.267500", "213555.727500", "213556.187500", "213556.647500", "213557.107500", "213557.567500", "213558.027500", "213558.487500", "213558.947500", "213559.407500", "213559.867500", "213600.327500", "213600.787500", "213601.247500", "213601.707500", "213602.167500", "213602.627500", "213603.087500", "213603.547500", "213604.007500", "213604.467500", "213604.927500", "213605.387500", "213605.847500", "213606.307500", "213606.767500", "213607.227500", "213607.687500", "213608.147500", "213608.607500", "213609.067500", "213609.527500", "213609.987500", "213610.447500", "213610.907500", "213611.367500", "213611.827500", "213612.287500", "213612.747500", "213613.207500", "213613.667500", "213614.127500", "213614.587500", "213615.047500", "213615.507500", "213615.967500", "213616.427500", "213616.887500", "213617.347500", "213617.807500", "213618.267500", "213618.727500", "213619.187500", "213619.647500", "213620.107500", "213620.567500", "213621.027500", "213621.487500", "213621.947500", "213622.407500", "213622.867500", "213623.327500", "213623.787500", "213624.247500", "213624.707500", "213625.167500", "213625.627500", "213626.087500", "213626.547500", "213627.007500", "213627.467500", "213627.927500", "213628.387500", "213628.847500", "213629.307500", "213629.767500", "213630.227500", "213630.687500", "213631.147500", "213631.607500", "213632.067500", "213632.527500", "213632.987500", "213633.447500", "213633.907500", "213634.367500", "213634.827500", "213635.287500", "213635.747500", "213636.207500", "213636.667500", "213637.127500", "213637.587500", "213638.047500", "213638.507500", "213638.967500", "213639.427500", "213639.887500", "213640.347500", "213640.807500", "213641.267500", "213641.727500", "213642.187500", "213642.647500"],
