{
  "AcquisitionMatrixPE": 82,
  "AcquisitionNumber": 1,
  "AcquisitionTime": "21:51:26.527500",
  "BandwidthPerPixelPhaseEncode": 24.888,
  "BaseResolution": 82,
  "BodyPartExamined": "BRAIN",
  "ConsistencyInfo": "N4_VE11E_LATEST_20181129",
  "ConversionSoftware": "dcm2niix",
  "ConversionSoftwareVersion": "v1.0.20201102",
  "DerivedVendorReportedEchoSpacing": 0.00049,
  "DeviceSerialNumber": "66112",
  "DwellTime": 2e-06,
  "EchoTime": 0.0272,
  "EchoTrainLength": 82,
  "EffectiveEchoSpacing": 0.00049,
  "FlipAngle": 44,
  "ImageComments": "Unaliased MB8/PE3",
  "ImageOrientationPatientDICOM": [0.998908, 0.00498159, -0.0464476, -0.0012204, 0.996741, 0.0806562],
  "ImageType": [
    "ORIGINAL",
    "PRIMARY",
    "M",
    "MB",
    "ND",
    "NORM",
    "MOSAIC"
],
  "ImagingFrequency": 123.259,
  "InPlanePhaseEncodingDirectionDICOM": "COL",
  "InstitutionAddress": "Maynard 3,Hanover,NH,US,03755",
  "InstitutionName": "Dartmouth College - PBS",
  "InstitutionalDepartmentName": "Department",
  "MRAcquisitionType": "2D",
  "MagneticFieldStrength": 3,
  "Manufacturer": "Siemens",
  "ManufacturersModelName": "Prisma",
  "Modality": "MR",
  "MultibandAccelerationFactor": 8,
  "PartialFourier": 1,
  "PatientPosition": "HFS",
  "PercentPhaseFOV": 100,
  "PercentSampling": 100,
  "PhaseEncodingDirection": "j-",
  "PhaseEncodingSteps": 82,
  "PhaseResolution": 1,
  "PixelBandwidth": 3050,
  "ProcedureStepDescription": "Wager_Wager^1076_spacetop",
  "ProtocolName": "func_run-05_task-social_acq-ap-mb8",
  "PulseSequenceDetails": "%CustomerSeq%\\cmrr_mbep2d_bold",
  "ReceiveCoilActiveElements": "HEA;HEP",
  "ReceiveCoilName": "Head_32",
  "ReconMatrixPE": 82,
  "RepetitionTime": 0.46,
  "SAR": 0.09794,
  "ScanOptions": "FS",
  "ScanningSequence": "EP",
  "SequenceName": "epfid2d1_82",
  "SequenceVariant": "SK\\SS",
  "SeriesDescription": "func_run-05_task-social_acq-ap-mb8",
  "SeriesNumber": 22,
  "ShimSetting": [4211, -7794, -7258, 404, -166, 19, 2, 98],
  "SliceThickness": 2.7,
  "SliceTiming": [0, 0.2525, 0.0625, 0.315, 0.1275, 0.3775, 0.19, 0, 0.2525, 0.0625, 0.315, 0.1275, 0.3775, 0.19, 0, 0.2525, 0.0625, 0.315, 0.1275, 0.3775, 0.19, 0, 0.2525, 0.0625, 0.315, 0.1275, 0.3775, 0.19, 0, 0.2525, 0.0625, 0.315, 0.1275, 0.3775, 0.19, 0, 0.2525, 0.0625, 0.315, 0.1275, 0.3775, 0.19, 0, 0.2525, 0.0625, 0.315, 0.1275, 0.3775, 0.19, 0, 0.2525, 0.0625, 0.315, 0.1275, 0.3775, 0.19],
  "SoftwareVersions": "syngo MR E11",
  "SpacingBetweenSlices": 2.7,
  "StationName": "AWP66112",
  "TaskName": "social",
  "TotalReadoutTime": 0.03969,
  "TxRefAmp": 236.539,
  "WipMemBlock": "11ca470c-73d2-4992-98b9-fdf142e1c1ab||Sequence: R016 ve11e/master r/434b28f1; Aug  7 2019 18:53:46 by eja",
  "dcmmeta_affine": [
    [-2.6799979209899902, -0.0032742468174546957, -0.1260846108198166, 113.48704528808594],
    [-0.01336523238569498, 2.6741838455200195, 0.21738091111183167, -106.43962860107422],
    [-0.12461543828248978, -0.21639464795589447, 2.688279628753662, -57.43107223510742],
    [0.0, 0.0, 0.0, 1.0]
],
  "dcmmeta_reorient_transform": [
    [0.0, -1.0, 0.0, 81.0],
    [1.0, 0.0, 0.0, 0.0],
    [0.0, 0.0, 1.0, 0.0],
    [0.0, 0.0, 0.0, 1.0]
],
  "dcmmeta_shape": [82, 82, 56, 872],
  "dcmmeta_slice_dim": 2,
  "dcmmeta_version": 0.6,
  "global": {
    "const": {
      "AccessionNumber": "A004858",
      "AcquisitionMatrix": [82, 0, 0, 82],
      "AngioFlag": "N",
      "BitsAllocated": 16,
      "BitsStored": 16,
      "BodyPartExamined": "BRAIN",
      "Columns": 656,
      "EchoNumbers": 1,
      "EchoTime": 27.2,
      "EchoTrainLength": 82,
      "FlipAngle": 44.0,
      "HighBit": 15,
      "ImageOrientationPatient": [0.99890830759407, 0.00498158649967, -0.0464475706093, -0.001220401049, 0.99674123529635, 0.08065618687486],
      "ImagePositionPatient": [-881.44153683405, -881.49585522001, -101.29967372968],
      "ImageType": [
        "ORIGINAL",
        "PRIMARY",
        "M",
        "MB",
        "ND",
        "NORM",
        "MOSAIC"
],
      "ImagedNucleus": "1H",
      "ImagingFrequency": 123.259101,
      "InPlanePhaseEncodingDirection": "COL",
      "MRAcquisitionType": "2D",
      "MagneticFieldStrength": 3.0,
      "Manufacturer": "SIEMENS",
      "ManufacturerModelName": "Prisma",
      "Modality": "MR",
      "NumberOfAverages": 1.0,
      "NumberOfPhaseEncodingSteps": 82,
      "PercentPhaseFieldOfView": 100.0,
      "PercentSampling": 100.0,
      "PerformedProcedureStepStartTime": "204135.083000",
      "PhotometricInterpretation": "MONOCHROME2",
      "PixelBandwidth": 3050.0,
      "PixelRepresentation": 0,
      "PixelSpacing": [2.6829268932343, 2.6829268932343],
      "ProtocolName": "func_run-05_task-social_acq-ap-mb8",
      "RepetitionTime": 460.0,
      "Rows": 656,
      "SAR": 0.09794000956847,
      "SamplesPerPixel": 1,
      "ScanOptions": "FS",
      "ScanningSequence": "EP",
      "SequenceName": "epfid2d1_82",
      "SequenceVariant": [
        "SK",
        "SS"
],
      "SeriesDescription": "func_run-05_task-social_acq-ap-mb8",
      "SeriesNumber": 22,
      "SeriesTime": "215150.107000",
      "SliceLocation": -71.051001207007,
      "SliceThickness": 2.7000000476837,
      "SmallestImagePixelValue": 0,
      "SoftwareVersions": "syngo MR E11",
      "SpacingBetweenSlices": 2.6999999383969,
      "SpecificCharacterSet": "ISO_IR 100",
      "StudyID": "1",
      "StudyTime": "204135.031000",
      "TransmitCoilName": "Body",
      "VariableFlipAngleFlag": "N",
      "WindowCenterWidthExplanation": "Algo1"
    },
    "slices": {}
  },
  "time": {
    "samples": {
      "AcquisitionNumber": [1, 2, 3, 4, 5, 6, 7, 8, 9, 10, 11, 12, 13, 14, 15, 16, 17, 18, 19, 20, 21, 22, 23, 24, 25, 26, 27, 28, 29, 30, 31, 32, 33, 34, 35, 36, 37, 38, 39, 40, 41, 42, 43, 44, 45, 46, 47, 48, 49, 50, 51, 52, 53, 54, 55, 56, 57, 58, 59, 60, 61, 62, 63, 64, 65, 66, 67, 68, 69, 70, 71, 72, 73, 74, 75, 76, 77, 78, 79, 80, 81, 82, 83, 84, 85, 86, 87, 88, 89, 90, 91, 92, 93, 94, 95, 96, 97, 98, 99, 100, 101, 102, 103, 104, 105, 106, 107, 108, 109, 110, 111, 112, 113, 114, 115, 116, 117, 118, 119, 120, 121, 122, 123, 124, 125, 126, 127, 128, 129, 130, 131, 132, 133, 134, 135, 136, 137, 138, 139, 140, 141, 142, 143, 144, 145, 146, 147, 148, 149, 150, 151, 152, 153, 154, 155, 156, 157, 158, 159, 160, 161, 162, 163, 164, 165, 166, 167, 168, 169, 170, 171, 172, 173, 174, 175, 176, 177, 178, 179, 180, 181, 182, 183, 184, 185, 186, 187, 188, 189, 190, 191, 192, 193, 194, 195, 196, 197, 198, 199, 200, 201, 202, 203, 204, 205, 206, 207, 208, 209, 210, 211, 212, 213, 214, 215, 216, 217, 218, 219, 220, 221, 222, 223, 224, 225, 226, 227, 228, 229, 230, 231, 232, 233, 234, 235, 236, 237, 238, 239, 240, 241, 242, 243, 244, 245, 246, 247, 248, 249, 250, 251, 252, 253, 254, 255, 256, 257, 258, 259, 260, 261, 262, 263, 264, 265, 266, 267, 268, 269, 270, 271, 272, 273, 274, 275, 276, 277, 278, 279, 280, 281, 282, 283, 284, 285, 286, 287, 288, 289, 290, 291, 292, 293, 294, 295, 296, 297, 298, 299, 300, 301, 302, 303, 304, 305, 306, 307, 308, 309, 310, 311, 312, 313, 314, 315, 316, 317, 318, 319, 320, 321, 322, 323, 324, 325, 326, 327, 328, 329, 330, 331, 332, 333, 334, 335, 336, 337, 338, 339, 340, 341, 342, 343, 344, 345, 346, 347, 348, 349, 350, 351, 352, 353, 354, 355, 356, 357, 358, 359, 360, 361, 362, 363, 364, 365, 366, 367, 368, 369, 370, 371, 372, 373, 374, 375, 376, 377, 378, 379, 380, 381, 382, 383, 384, 385, 386, 387, 388, 389, 390, 391, 392, 393, 394, 395, 396, 397, 398, 399, 400, 401, 402, 403, 404, 405, 406, 407, 408, 409, 410, 411, 412, 413, 414, 415, 416, 417, 418, 419, 420, 421, 422, 423, 424, 425, 426, 427, 428, 429, 430, 431, 432, 433, 434, 435, 436, 437, 438, 439, 440, 441, 442, 443, 444, 445, 446, 447, 448, 449, 450, 451, 452, 453, 454, 455, 456, 457, 458, 459, 460, 461, 462, 463, 464, 465, 466, 467, 468, 469, 470, 471, 472, 473, 474, 475, 476, 477, 478, 479, 480, 481, 482, 483, 484, 485, 486, 487, 488, 489, 490, 491, 492, 493, 494, 495, 496, 497, 498, 499, 500, 501, 502, 503, 504, 505, 506, 507, 508, 509, 510, 511, 512, 513, 514, 515, 516, 517, 518, 519, 520, 521, 522, 523, 524, 525, 526, 527, 528, 529, 530, 531, 532, 533, 534, 535, 536, 537, 538, 539, 540, 541, 542, 543, 544, 545, 546, 547, 548, 549, 550, 551, 552, 553, 554, 555, 556, 557, 558, 559, 560, 561, 562, 563, 564, 565, 566, 567, 568, 569, 570, 571, 572, 573, 574, 575, 576, 577, 578, 579, 580, 581, 582, 583, 584, 585, 586, 587, 588, 589, 590, 591, 592, 593, 594, 595, 596, 597, 598, 599, 600, 601, 602, 603, 604, 605, 606, 607, 608, 609, 610, 611, 612, 613, 614, 615, 616, 617, 618, 619, 620, 621, 622, 623, 624, 625, 626, 627, 628, 629, 630, 631, 632, 633, 634, 635, 636, 637, 638, 639, 640, 641, 642, 643, 644, 645, 646, 647, 648, 649, 650, 651, 652, 653, 654, 655, 656, 657, 658, 659, 660, 661, 662, 663, 664, 665, 666, 667, 668, 669, 670, 671, 672, 673, 674, 675, 676, 677, 678, 679, 680, 681, 682, 683, 684, 685, 686, 687, 688, 689, 690, 691, 692, 693, 694, 695, 696, 697, 698, 699, 700, 701, 702, 703, 704, 705, 706, 707, 708, 709, 710, 711, 712, 713, 714, 715, 716, 717, 718, 719, 720, 721, 722, 723, 724, 725, 726, 727, 728, 729, 730, 731, 732, 733, 734, 735, 736, 737, 738, 739, 740, 741, 742, 743, 744, 745, 746, 747, 748, 749, 750, 751, 752, 753, 754, 755, 756, 757, 758, 759, 760, 761, 762, 763, 764, 765, 766, 767, 768, 769, 770, 771, 772, 773, 774, 775, 776, 777, 778, 779, 780, 781, 782, 783, 784, 785, 786, 787, 788, 789, 790, 791, 792, 793, 794, 795, 796, 797, 798, 799, 800, 801, 802, 803, 804, 805, 806, 807, 808, 809, 810, 811, 812, 813, 814, 815, 816, 817, 818, 819, 820, 821, 822, 823, 824, 825, 826, 827, 828, 829, 830, 831, 832, 833, 834, 835, 836, 837, 838, 839, 840, 841, 842, 843, 844, 845, 846, 847, 848, 849, 850, 851, 852, 853, 854, 855, 856, 857, 858, 859, 860, 861, 862, 863, 864, 865, 866, 867, 868, 869, 870, 871, 872],
      "AcquisitionTime": ["215126.527500", "215126.987500", "215127.447500", "215127.907500", "215128.367500", "215128.827500", "215129.287500", "215129.747500", "215130.207500", "215130.667500", "215131.127500", "215131.587500", "215132.047500", "215132.507500", "215132.967500", "215133.427500", "215133.887500", "215134.347500", "215134.807500", "215135.267500", "215135.727500", "215136.187500", "215136.647500", "215137.107500", "215137.567500", "215138.027500", "215138.487500", "215138.947500", "215139.407500", "215139.867500", "215140.327500", "215140.787500", "215141.247500", "215141.707500", "215142.167500", "215142.627500", "215143.087500", "215143.547500", "215144.007500", "215144.467500", "215144.927500", "215145.387500", "215145.847500", "215146.307500", "215146.767500", "215147.227500", "215147.687500", "215148.147500", "215148.607500", "215149.067500", "215149.527500", "215149.987500", "215150.447500", "215150.907500", "215151.367500", "215151.827500", "215152.287500", "215152.747500", "215153.207500", "215153.667500", "215154.127500", "215154.587500", "215155.047500", "215155.507500", "215155.967500", "215156.427500", "215156.887500", "215157.347500", "215157.807500", "215158.267500", "215158.727500", "215159.187500", "215159.647500", "215200.107500", "215200.567500", "215201.027500", "215201.487500", "215201.947500", "215202.407500", "215202.867500", "215203.327500", "215203.787500", "215204.247500", "215204.707500", "215205.167500", "215205.627500", "215206.087500", "215206.547500", "215207.007500", "215207.467500", "215207.927500", "215208.387500", "215208.847500", "215209.307500", "215209.767500", "215210.227500", "215210.687500", "215211.147500", "215211.607500", "215212.067500", "215212.527500", "215212.987500", "215213.447500", "215213.907500", "215214.367500", "215214.827500", "215215.287500", "215215.747500", "215216.207500", "215216.667500", "215217.127500", "215217.587500", "215218.047500", "215218.507500", "215218.967500", "215219.427500", "215219.887500", "215220.347500", "215220.807500", "215221.267500", "215221.727500", "215222.187500", "215222.647500", "215223.107500", "215223.567500", "215224.027500", "215224.487500", "215224.947500", "215225.407500", "215225.867500", "215226.327500", "215226.787500", "215227.247500", "215227.707500", "215228.167500", "215228.627500", "215229.087500", "215229.547500", "215230.007500", "215230.467500", "215230.927500", "215231.387500", "215231.847500", "215232.307500", "215232.767500", "215233.227500", "215233.687500", "215234.147500", "215234.607500", "215235.067500", "215235.527500", "215235.987500", "215236.447500", "215236.907500", "215237.367500", "215237.827500", "215238.287500", "215238.747500", "215239.207500", "215239.667500", "215240.127500", "215240.587500", "215241.047500", "215241.507500", "215241.967500", "215242.427500", "215242.887500", "215243.347500", "215243.807500", "215244.267500", "215244.727500", "215245.187500", "215245.647500", "215246.107500", "215246.567500", "215247.027500", "215247.487500", "215247.947500", "215248.407500", "215248.867500", "215249.327500", "215249.787500", "215250.247500", "215250.707500", "215251.167500", "215251.627500", "215252.087500", "215252.547500", "215253.007500", "215253.467500", "215253.927500", "215254.387500", "215254.847500", "215255.307500", "215255.767500", "215256.227500", "215256.687500", "215257.147500", "215257.607500", "215258.067500", "215258.527500", "215258.987500", "215259.447500", "215259.907500", "215300.367500", "215300.827500", "215301.287500", "215301.747500", "215302.207500", "215302.667500", "215303.127500", "215303.587500", "215304.047500", "215304.507500", "215304.967500", "215305.427500", "215305.887500", "215306.347500", "215306.807500", "215307.267500", "215307.727500", "215308.187500", "215308.647500", "215309.107500", "215309.567500", "215310.027500", "215310.487500", "215310.947500", "215311.407500", "215311.867500", "215312.327500", "215312.787500", "215313.247500", "215313.707500", "215314.167500", "215314.627500", "215315.087500", "215315.547500", "215316.007500", "215316.467500", "215316.927500", "215317.387500", "215317.847500", "215318.307500", "215318.767500", "215319.227500", "215319.687500", "215320.147500", "215320.607500", "215321.067500", "215321.527500", "215321.987500", "215322.447500", "215322.907500", "215323.367500", "215323.827500", "215324.287500", "215324.747500", "215325.207500", "215325.667500", "215326.127500", "215326.587500", "215327.047500", "215327.507500", "215327.967500", "215328.427500", "215328.887500", "215329.347500", "215329.807500", "215330.267500", "215330.727500", "215331.187500", "215331.647500", "215332.107500", "215332.567500", "215333.027500", "215333.487500", "215333.947500", "215334.407500", "215334.867500", "215335.327500", "215335.787500", "215336.247500", "215336.707500", "215337.167500", "215337.627500", "215338.087500", "215338.547500", "215339.007500", "215339.467500", "215339.927500", "215340.387500", "215340.847500", "215341.307500", "215341.767500", "215342.227500", "215342.687500", "215343.147500", "215343.607500", "215344.067500", "215344.527500", "215344.987500", "215345.447500", "215345.907500", "215346.367500", "215346.827500", "215347.287500", "215347.747500", "215348.207500", "215348.667500", "215349.127500", "215349.587500", "215350.047500", "215350.507500", "215350.967500", "215351.427500", "215351.887500", "215352.347500", "215352.807500", "215353.267500", "215353.727500", "215354.187500", "215354.647500", "215355.107500", "215355.567500", "215356.027500", "215356.487500", "215356.947500", "215357.407500", "215357.867500", "215358.327500", "215358.787500", "215359.247500", "215359.707500", "215400.167500", "215400.627500", "215401.087500", "215401.547500", "215402.007500", "215402.467500", "215402.927500", "215403.387500", "215403.847500", "215404.307500", "215404.767500", "215405.227500", "215405.687500", "215406.147500", "215406.607500", "215407.067500", "215407.527500", "215407.987500", "215408.447500", "215408.907500", "215409.367500", "215409.827500", "215410.287500", "215410.747500", "215411.207500", "215411.667500", "215412.127500", "215412.587500", "215413.047500", "215413.507500", "215413.967500", "215414.427500", "215414.887500", "215415.347500", "215415.807500", "215416.267500", "215416.727500", "215417.187500", "215417.647500", "215418.107500", "215418.567500", "215419.027500", "215419.487500", "215419.947500", "215420.407500", "215420.867500", "215421.327500", "215421.787500", "215422.247500", "215422.707500", "215423.167500", "215423.627500", "215424.087500", "215424.547500", "215425.007500", "215425.467500", "215425.927500", "215426.387500", "215426.847500", "215427.307500", "215427.767500", "215428.227500", "215428.687500", "215429.147500", "215429.607500", "215430.067500", "215430.527500", "215430.987500", "215431.447500", "215431.907500", "215432.367500", "215432.827500", "215433.287500", "215433.747500", "215434.207500", "215434.667500", "215435.127500", "215435.587500", "215436.047500", "215436.507500", "215436.967500", "215437.427500", "215437.887500", "215438.347500", "215438.807500", "215439.267500", "215439.727500", "215440.187500", "215440.647500", "215441.107500", "215441.567500", "215442.027500", "215442.487500", "215442.947500", "215443.407500", "215443.867500", "215444.327500", "215444.787500", "215445.247500", "215445.707500", "215446.167500", "215446.627500", "215447.087500", "215447.547500", "215448.007500", "215448.467500", "215448.927500", "215449.387500", "215449.847500", "215450.307500", "215450.767500", "215451.227500", "215451.687500", "215452.147500", "215452.607500", "215453.067500", "215453.527500", "215453.987500", "215454.447500", "215454.907500", "215455.367500", "215455.827500", "215456.287500", "215456.747500", "215457.207500", "215457.667500", "215458.127500", "215458.587500", "215459.047500", "215459.507500", "215459.967500", "215500.427500", "215500.887500", "215501.347500", "215501.807500", "215502.267500", "215502.727500", "215503.187500", "215503.647500", "215504.107500", "215504.567500", "215505.027500", "215505.487500", "215505.947500", "215506.407500", "215506.867500", "215507.327500", "215507.787500", "215508.247500", "215508.707500", "215509.167500", "215509.627500", "215510.087500", "215510.547500", "215511.007500", "215511.467500", "215511.927500", "215512.387500", "215512.847500", "215513.307500", "215513.767500", "215514.227500", "215514.687500", "215515.147500", "215515.607500", "215516.067500", "215516.527500", "215516.987500", "215517.447500", "215517.907500", "215518.367500", "215518.827500", "215519.287500", "215519.747500", "215520.207500", "215520.667500", "215521.127500", "215521.587500", "215522.047500", "215522.507500", "215522.967500", "215523.427500", "215523.887500", "215524.347500", "215524.807500", "215525.267500", "215525.727500", "215526.187500", "215526.647500", "215527.107500", "215527.567500", "215528.027500", "215528.487500", "215528.947500", "215529.407500", "215529.867500", "215530.327500", "215530.787500", "215531.247500", "215531.707500", "215532.167500", "215532.627500", "215533.087500", "215533.547500", "215534.007500", "215534.467500", "215534.927500", "215535.387500", "215535.847500", "215536.307500", "215536.767500", "215537.227500", "215537.687500", "215538.147500", "215538.607500", "215539.067500", "215539.527500", "215539.987500", "215540.447500", "215540.907500", "215541.367500", "215541.827500", "215542.287500", "215542.747500", "215543.207500", "215543.667500", "215544.127500", "215544.587500", "215545.047500", "215545.507500", "215545.967500", "215546.427500", "215546.887500", "215547.347500", "215547.807500", "215548.267500", "215548.727500", "215549.187500", "215549.647500", "215550.107500", "215550.567500", "215551.027500", "215551.487500", "215551.947500", "215552.407500", "215552.867500", "215553.327500", "215553.787500", "215554.247500", "215554.707500", "215555.167500", "215555.627500", "215556.087500", "215556.547500", "215557.007500", "215557.467500", "215557.927500", "215558.387500", "215558.847500", "215559.307500", "215559.767500", "215600.227500", "215600.687500", "215601.147500", "215601.607500", "215602.067500", "215602.527500", "215602.987500", "215603.447500", "215603.907500", "215604.367500", "215604.827500", "215605.287500", "215605.747500", "215606.207500", "215606.667500", "215607.127500", "215607.587500", "215608.047500", "215608.507500", "215608.967500", "215609.427500", "215609.887500", "215610.347500", "215610.807500", "215611.267500", "215611.727500", "215612.187500", "215612.647500", "215613.107500", "215613.567500", "215614.027500", "215614.487500", "215614.947500", "215615.407500", "215615.867500", "215616.327500", "215616.787500", "215617.247500", "215617.707500", "215618.167500", "215618.627500", "215619.087500", "215619.547500", "215620.007500", "215620.467500", "215620.927500", "215621.387500", "215621.847500", "215622.307500", "215622.767500", "215623.227500", "215623.687500", "215624.147500", "215624.607500", "215625.067500", "215625.527500", "215625.987500", "215626.447500", "215626.907500", "215627.367500", "215627.827500", "215628.287500", "215628.747500", "215629.207500", "215629.667500", "215630.127500", "215630.587500", "215631.047500", "215631.507500", "215631.967500", "215632.427500", "215632.887500", "215633.347500", "215633.807500", "215634.267500", "215634.727500", "215635.187500", "215635.647500", "215636.107500", "215636.567500", "215637.027500", "215637.487500", "215637.947500", "215638.407500", "215638.867500", "215639.327500", "215639.787500", "215640.247500", "215640.707500", "215641.167500", "215641.627500", "215642.087500", "215642.547500", "215643.007500", "215643.467500", "215643.927500", "215644.387500", "215644.847500", "215645.307500", "215645.767500", "215646.227500", "215646.687500", "215647.147500", "215647.607500", "215648.067500", "215648.527500", "215648.987500", "215649.447500", "215649.907500", "215650.367500", "215650.827500", "215651.287500", "215651.747500", "215652.207500", "215652.667500", "215653.127500", "215653.587500", "215654.047500", "215654.507500", "215654.967500", "215655.427500", "215655.887500", "215656.347500", "215656.807500", "215657.267500", "215657.727500", "215658.187500", "215658.647500", "215659.107500", "215659.567500", "215700.027500", "215700.487500", "215700.947500", "215701.407500", "215701.867500", "215702.327500", "215702.787500", "215703.247500", "215703.707500", "215704.167500", "215704.627500", "215705.087500", "215705.547500", "215706.007500", "215706.467500", "215706.927500", "215707.387500", "215707.847500", "215708.307500", "215708.767500", "215709.227500", "215709.687500", "215710.147500", "215710.607500", "215711.067500", "215711.527500", "215711.987500", "215712.447500", "215712.907500", "215713.367500", "215713.827500", "215714.287500", "215714.747500", "215715.207500", "215715.667500", "215716.127500", "215716.587500", "215717.047500", "215717.507500", "215717.967500", "215718.427500", "215718.887500", "215719.347500", "215719.807500", "215720.267500", "215720.727500", "215721.187500", "215721.647500", "215722.107500", "215722.567500", "215723.027500", "215723.487500", "215723.947500", "215724.407500", "215724.867500", "215725.327500", "215725.787500", "215726.247500", "215726.707500", "215727.167500", "215727.627500", "215728.087500", "215728.547500", "215729.007500", "215729.467500", "215729.927500", "215730.387500", "215730.847500", "215731.307500", "215731.767500", "215732.227500", "215732.687500", "215733.147500", "215733.607500", "215734.067500", "215734.527500", "215734.987500", "215735.447500", "215735.907500", "215736.367500", "215736.827500", "215737.287500", "215737.747500", "215738.207500", "215738.667500", "215739.127500", "215739.587500", "215740.047500", "215740.507500", "215740.967500", "215741.427500", "215741.887500", "215742.347500", "215742.807500", "215743.267500", "215743.727500", "215744.187500", "215744.647500", "215745.107500", "215745.567500", "215746.027500", "215746.487500", "215746.947500", "215747.407500", "215747.867500", "215748.327500", "215748.787500", "215749.247500", "215749.707500", "215750.167500", "215750.627500", "215751.087500", "215751.547500", "215752.007500", "215752.467500", "215752.927500", "215753.387500", "215753.847500", "215754.307500", "215754.767500", "215755.227500", "215755.687500", "215756.147500", "215756.607500", "215757.067500", "215757.527500", "215757.987500", "215758.447500", "215758.907500", "215759.367500", "215759.827500", "215800.287500", "215800.747500", "215801.207500", "215801.667500", "215802.127500", "215802.587500", "215803.047500", "215803.507500", "215803.967500", "215804.427500", "215804.887500", "215805.347500", "215805.807500", "215806.267500", "215806.727500", "215807.187500"],
