{
  "AcquisitionMatrixPE": 82,
  "AcquisitionNumber": 1,
  "AcquisitionTime": "21:59:18.882500",
  "BandwidthPerPixelPhaseEncode": 24.888,
  "BaseResolution": 82,
  "BodyPartExamined": "BRAIN",
  "ConsistencyInfo": "N4_VE11E_LATEST_20181129",
  "ConversionSoftware": "dcm2niix",
  "ConversionSoftwareVersion": "v1.0.20201102",
  "DerivedVendorReportedEchoSpacing": 0.00049,
  "DeviceSerialNumber": "66112",
  "DwellTime": 2e-06,
  "EchoTime": 0.0272,
  "EchoTrainLength": 82,
  "EffectiveEchoSpacing": 0.00049,
  "FlipAngle": 44,
  "ImageComments": "Unaliased MB8/PE3",
  "ImageOrientationPatientDICOM": [0.998908, 0.00498159, -0.0464476, -0.0012204, 0.996741, 0.0806562],
  "ImageType": [
    "ORIGINAL",
    "PRIMARY",
    "M",
    "MB",
    "ND",
    "NORM",
    "MOSAIC"
],
  "ImagingFrequency": 123.259,
  "InPlanePhaseEncodingDirectionDICOM": "COL",
  "InstitutionAddress": "Maynard 3,Hanover,NH,US,03755",
  "InstitutionName": "Dartmouth College - PBS",
  "InstitutionalDepartmentName": "Department",
  "MRAcquisitionType": "2D",
  "MagneticFieldStrength": 3,
  "Manufacturer": "Siemens",
  "ManufacturersModelName": "Prisma",
  "Modality": "MR",
  "MultibandAccelerationFactor": 8,
  "PartialFourier": 1,
  "PatientPosition": "HFS",
  "PercentPhaseFOV": 100,
  "PercentSampling": 100,
  "PhaseEncodingDirection": "j-",
  "PhaseEncodingSteps": 82,
  "PhaseResolution": 1,
  "PixelBandwidth": 3050,
  "ProcedureStepDescription": "Wager_Wager^1076_spacetop",
  "ProtocolName": "func_run-06_task-social_acq-ap-mb8",
  "PulseSequenceDetails": "%CustomerSeq%\\cmrr_mbep2d_bold",
  "ReceiveCoilActiveElements": "HEA;HEP",
  "ReceiveCoilName": "Head_32",
  "ReconMatrixPE": 82,
  "RepetitionTime": 0.46,
  "SAR": 0.09794,
  "ScanOptions": "FS",
  "ScanningSequence": "EP",
  "SequenceName": "epfid2d1_82",
  "SequenceVariant": "SK\\SS",
  "SeriesDescription": "func_run-06_task-social_acq-ap-mb8",
  "SeriesNumber": 24,
  "ShimSetting": [4211, -7794, -7258, 404, -166, 19, 2, 98],
  "SliceThickness": 2.7,
  "SliceTiming": [0, 0.2525, 0.065, 0.315, 0.1275, 0.3775, 0.19, 0, 0.2525, 0.065, 0.315, 0.1275, 0.3775, 0.19, 0, 0.2525, 0.065, 0.315, 0.1275, 0.3775, 0.19, 0, 0.2525, 0.065, 0.315, 0.1275, 0.3775, 0.19, 0, 0.2525, 0.065, 0.315, 0.1275, 0.3775, 0.19, 0, 0.2525, 0.065, 0.315, 0.1275, 0.3775, 0.19, 0, 0.2525, 0.065, 0.315, 0.1275, 0.3775, 0.19, 0, 0.2525, 0.065, 0.315, 0.1275, 0.3775, 0.19],
  "SoftwareVersions": "syngo MR E11",
  "SpacingBetweenSlices": 2.7,
  "StationName": "AWP66112",
  "TaskName": "social",
  "TotalReadoutTime": 0.03969,
  "TxRefAmp": 236.539,
  "WipMemBlock": "79afcf54-e54c-469c-a664-16960c4ec700||Sequence: R016 ve11e/master r/434b28f1; Aug  7 2019 18:53:46 by eja",
  "dcmmeta_affine": [
    [-2.6799979209899902, -0.0032742468174546957, -0.1260846108198166, 113.48704528808594],
    [-0.01336523238569498, 2.6741838455200195, 0.21738091111183167, -106.43962860107422],
    [-0.12461543828248978, -0.21639464795589447, 2.688279628753662, -57.43107223510742],
    [0.0, 0.0, 0.0, 1.0]
],
  "dcmmeta_reorient_transform": [
    [0.0, -1.0, 0.0, 81.0],
    [1.0, 0.0, 0.0, 0.0],
    [0.0, 0.0, 1.0, 0.0],
    [0.0, 0.0, 0.0, 1.0]
],
  "dcmmeta_shape": [82, 82, 56, 872],
  "dcmmeta_slice_dim": 2,
  "dcmmeta_version": 0.6,
  "global": {
    "const": {
      "AccessionNumber": "A004858",
      "AcquisitionMatrix": [82, 0, 0, 82],
      "AngioFlag": "N",
      "BitsAllocated": 16,
      "BitsStored": 16,
      "BodyPartExamined": "BRAIN",
      "Columns": 656,
      "EchoNumbers": 1,
      "EchoTime": 27.2,
      "EchoTrainLength": 82,
      "FlipAngle": 44.0,
      "HighBit": 15,
      "ImageOrientationPatient": [0.99890830759407, 0.00498158649967, -0.0464475706093, -0.001220401049, 0.99674123529635, 0.08065618687486],
      "ImagePositionPatient": [-881.44153683405, -881.49585522001, -101.29967372968],
      "ImageType": [
        "ORIGINAL",
        "PRIMARY",
        "M",
        "MB",
        "ND",
        "NORM",
        "MOSAIC"
],
      "ImagedNucleus": "1H",
      "ImagingFrequency": 123.259103,
      "InPlanePhaseEncodingDirection": "COL",
      "MRAcquisitionType": "2D",
      "MagneticFieldStrength": 3.0,
      "Manufacturer": "SIEMENS",
      "ManufacturerModelName": "Prisma",
      "Modality": "MR",
      "NumberOfAverages": 1.0,
      "NumberOfPhaseEncodingSteps": 82,
      "PercentPhaseFieldOfView": 100.0,
      "PercentSampling": 100.0,
      "PerformedProcedureStepStartTime": "204135.083000",
      "PhotometricInterpretation": "MONOCHROME2",
      "PixelBandwidth": 3050.0,
      "PixelRepresentation": 0,
      "PixelSpacing": [2.6829268932343, 2.6829268932343],
      "ProtocolName": "func_run-06_task-social_acq-ap-mb8",
      "RepetitionTime": 460.0,
      "Rows": 656,
      "SAR": 0.09794000956847,
      "SamplesPerPixel": 1,
      "ScanOptions": "FS",
      "ScanningSequence": "EP",
      "SequenceName": "epfid2d1_82",
      "SequenceVariant": [
        "SK",
        "SS"
],
      "SeriesDescription": "func_run-06_task-social_acq-ap-mb8",
      "SeriesNumber": 24,
      "SeriesTime": "215929.914000",
      "SliceLocation": -71.051001207007,
      "SliceThickness": 2.7000000476837,
      "SmallestImagePixelValue": 0,
      "SoftwareVersions": "syngo MR E11",
      "SpacingBetweenSlices": 2.6999999383969,
      "SpecificCharacterSet": "ISO_IR 100",
      "StudyID": "1",
      "StudyTime": "204135.031000",
      "TransmitCoilName": "Body",
      "VariableFlipAngleFlag": "N",
      "WindowCenterWidthExplanation": "Algo1"
    },
    "slices": {}
  },
  "time": {
    "samples": {
      "AcquisitionNumber": [1, 2, 3, 4, 5, 6, 7, 8, 9, 10, 11, 12, 13, 14, 15, 16, 17, 18, 19, 20, 21, 22, 23, 24, 25, 26, 27, 28, 29, 30, 31, 32, 33, 34, 35, 36, 37, 38, 39, 40, 41, 42, 43, 44, 45, 46, 47, 48, 49, 50, 51, 52, 53, 54, 55, 56, 57, 58, 59, 60, 61, 62, 63, 64, 65, 66, 67, 68, 69, 70, 71, 72, 73, 74, 75, 76, 77, 78, 79, 80, 81, 82, 83, 84, 85, 86, 87, 88, 89, 90, 91, 92, 93, 94, 95, 96, 97, 98, 99, 100, 101, 102, 103, 104, 105, 106, 107, 108, 109, 110, 111, 112, 113, 114, 115, 116, 117, 118, 119, 120, 121, 122, 123, 124, 125, 126, 127, 128, 129, 130, 131, 132, 133, 134, 135, 136, 137, 138, 139, 140, 141, 142, 143, 144, 145, 146, 147, 148, 149, 150, 151, 152, 153, 154, 155, 156, 157, 158, 159, 160, 161, 162, 163, 164, 165, 166, 167, 168, 169, 170, 171, 172, 173, 174, 175, 176, 177, 178, 179, 180, 181, 182, 183, 184, 185, 186, 187, 188, 189, 190, 191, 192, 193, 194, 195, 196, 197, 198, 199, 200, 201, 202, 203, 204, 205, 206, 207, 208, 209, 210, 211, 212, 213, 214, 215, 216, 217, 218, 219, 220, 221, 222, 223, 224, 225, 226, 227, 228, 229, 230, 231, 232, 233, 234, 235, 236, 237, 238, 239, 240, 241, 242, 243, 244, 245, 246, 247, 248, 249, 250, 251, 252, 253, 254, 255, 256, 257, 258, 259, 260, 261, 262, 263, 264, 265, 266, 267, 268, 269, 270, 271, 272, 273, 274, 275, 276, 277, 278, 279, 280, 281, 282, 283, 284, 285, 286, 287, 288, 289, 290, 291, 292, 293, 294, 295, 296, 297, 298, 299, 300, 301, 302, 303, 304, 305, 306, 307, 308, 309, 310, 311, 312, 313, 314, 315, 316, 317, 318, 319, 320, 321, 322, 323, 324, 325, 326, 327, 328, 329, 330, 331, 332, 333, 334, 335, 336, 337, 338, 339, 340, 341, 342, 343, 344, 345, 346, 347, 348, 349, 350, 351, 352, 353, 354, 355, 356, 357, 358, 359, 360, 361, 362, 363, 364, 365, 366, 367, 368, 369, 370, 371, 372, 373, 374, 375, 376, 377, 378, 379, 380, 381, 382, 383, 384, 385, 386, 387, 388, 389, 390, 391, 392, 393, 394, 395, 396, 397, 398, 399, 400, 401, 402, 403, 404, 405, 406, 407, 408, 409, 410, 411, 412, 413, 414, 415, 416, 417, 418, 419, 420, 421, 422, 423, 424, 425, 426, 427, 428, 429, 430, 431, 432, 433, 434, 435, 436, 437, 438, 439, 440, 441, 442, 443, 444, 445, 446, 447, 448, 449, 450, 451, 452, 453, 454, 455, 456, 457, 458, 459, 460, 461, 462, 463, 464, 465, 466, 467, 468, 469, 470, 471, 472, 473, 474, 475, 476, 477, 478, 479, 480, 481, 482, 483, 484, 485, 486, 487, 488, 489, 490, 491, 492, 493, 494, 495, 496, 497, 498, 499, 500, 501, 502, 503, 504, 505, 506, 507, 508, 509, 510, 511, 512, 513, 514, 515, 516, 517, 518, 519, 520, 521, 522, 523, 524, 525, 526, 527, 528, 529, 530, 531, 532, 533, 534, 535, 536, 537, 538, 539, 540, 541, 542, 543, 544, 545, 546, 547, 548, 549, 550, 551, 552, 553, 554, 555, 556, 557, 558, 559, 560, 561, 562, 563, 564, 565, 566, 567, 568, 569, 570, 571, 572, 573, 574, 575, 576, 577, 578, 579, 580, 581, 582, 583, 584, 585, 586, 587, 588, 589, 590, 591, 592, 593, 594, 595, 596, 597, 598, 599, 600, 601, 602, 603, 604, 605, 606, 607, 608, 609, 610, 611, 612, 613, 614, 615, 616, 617, 618, 619, 620, 621, 622, 623, 624, 625, 626, 627, 628, 629, 630, 631, 632, 633, 634, 635, 636, 637, 638, 639, 640, 641, 642, 643, 644, 645, 646, 647, 648, 649, 650, 651, 652, 653, 654, 655, 656, 657, 658, 659, 660, 661, 662, 663, 664, 665, 666, 667, 668, 669, 670, 671, 672, 673, 674, 675, 676, 677, 678, 679, 680, 681, 682, 683, 684, 685, 686, 687, 688, 689, 690, 691, 692, 693, 694, 695, 696, 697, 698, 699, 700, 701, 702, 703, 704, 705, 706, 707, 708, 709, 710, 711, 712, 713, 714, 715, 716, 717, 718, 719, 720, 721, 722, 723, 724, 725, 726, 727, 728, 729, 730, 731, 732, 733, 734, 735, 736, 737, 738, 739, 740, 741, 742, 743, 744, 745, 746, 747, 748, 749, 750, 751, 752, 753, 754, 755, 756, 757, 758, 759, 760, 761, 762, 763, 764, 765, 766, 767, 768, 769, 770, 771, 772, 773, 774, 775, 776, 777, 778, 779, 780, 781, 782, 783, 784, 785, 786, 787, 788, 789, 790, 791, 792, 793, 794, 795, 796, 797, 798, 799, 800, 801, 802, 803, 804, 805, 806, 807, 808, 809, 810, 811, 812, 813, 814, 815, 816, 817, 818, 819, 820, 821, 822, 823, 824, 825, 826, 827, 828, 829, 830, 831, 832, 833, 834, 835, 836, 837, 838, 839, 840, 841, 842, 843, 844, 845, 846, 847, 848, 849, 850, 851, 852, 853, 854, 855, 856, 857, 858, 859, 860, 861, 862, 863, 864, 865, 866, 867, 868, 869, 870, 871, 872],
      "AcquisitionTime": ["215918.882500", "215919.342500", "215919.802500", "215920.262500", "215920.722500", "215921.182500", "215921.642500", "215922.102500", "215922.562500", "215923.022500", "215923.482500", "215923.942500", "215924.402500", "215924.862500", "215925.322500", "215925.782500", "215926.242500", "215926.702500", "215927.162500", "215927.622500", "215928.082500", "215928.542500", "215929.002500", "215929.462500", "215929.922500", "215930.382500", "215930.842500", "215931.302500", "215931.762500", "215932.222500", "215932.682500", "215933.142500", "215933.602500", "215934.062500", "215934.522500", "215934.982500", "215935.442500", "215935.902500", "215936.362500", "215936.822500", "215937.282500", "215937.742500", "215938.202500", "215938.662500", "215939.122500", "215939.582500", "215940.042500", "215940.502500", "215940.962500", "215941.422500", "215941.882500", "215942.342500", "215942.802500", "215943.262500", "215943.722500", "215944.182500", "215944.642500", "215945.102500", "215945.562500", "215946.022500", "215946.482500", "215946.942500", "215947.402500", "215947.862500", "215948.322500", "215948.782500", "215949.242500", "215949.702500", "215950.162500", "215950.622500", "215951.082500", "215951.542500", "215952.002500", "215952.462500", "215952.922500", "215953.382500", "215953.842500", "215954.302500", "215954.762500", "215955.222500", "215955.682500", "215956.142500", "215956.602500", "215957.062500", "215957.522500", "215957.982500", "215958.442500", "215958.902500", "215959.362500", "215959.822500", "220000.282500", "220000.742500", "220001.202500", "220001.662500", "220002.122500", "220002.582500", "220003.042500", "220003.502500", "220003.962500", "220004.422500", "220004.882500", "220005.342500", "220005.802500", "220006.262500", "220006.722500", "220007.182500", "220007.642500", "220008.102500", "220008.562500", "220009.022500", "220009.482500", "220009.942500", "220010.402500", "220010.862500", "220011.322500", "220011.782500", "220012.242500", "220012.702500", "220013.162500", "220013.622500", "220014.082500", "220014.542500", "220015.002500", "220015.462500", "220015.922500", "220016.382500", "220016.842500", "220017.302500", "220017.762500", "220018.222500", "220018.682500", "220019.142500", "220019.602500", "220020.062500", "220020.522500", "220020.982500", "220021.442500", "220021.902500", "220022.362500", "220022.822500", "220023.282500", "220023.742500", "220024.202500", "220024.662500", "220025.122500", "220025.582500", "220026.042500", "220026.502500", "220026.962500", "220027.422500", "220027.882500", "220028.342500", "220028.802500", "220029.262500", "220029.722500", "220030.182500", "220030.642500", "220031.102500", "220031.562500", "220032.022500", "220032.482500", "220032.942500", "220033.402500", "220033.862500", "220034.322500", "220034.782500", "220035.242500", "220035.702500", "220036.162500", "220036.622500", "220037.082500", "220037.542500", "220038.002500", "220038.462500", "220038.922500", "220039.382500", "220039.842500", "220040.302500", "220040.762500", "220041.222500", "220041.682500", "220042.142500", "220042.602500", "220043.062500", "220043.522500", "220043.982500", "220044.442500", "220044.902500", "220045.362500", "220045.822500", "220046.282500", "220046.742500", "220047.202500", "220047.662500", "220048.122500", "220048.582500", "220049.042500", "220049.502500", "220049.962500", "220050.422500", "220050.882500", "220051.342500", "220051.802500", "220052.262500", "220052.722500", "220053.182500", "220053.642500", "220054.102500", "220054.562500", "220055.022500", "220055.482500", "220055.942500", "220056.402500", "220056.862500", "220057.322500", "220057.782500", "220058.242500", "220058.702500", "220059.162500", "220059.622500", "220100.082500", "220100.542500", "220101.002500", "220101.462500", "220101.922500", "220102.382500", "220102.842500", "220103.302500", "220103.762500", "220104.222500", "220104.682500", "220105.142500", "220105.602500", "220106.062500", "220106.522500", "220106.982500", "220107.442500", "220107.902500", "220108.362500", "220108.822500", "220109.282500", "220109.742500", "220110.202500", "220110.662500", "220111.122500", "220111.582500", "220112.042500", "220112.502500", "220112.962500", "220113.422500", "220113.882500", "220114.342500", "220114.802500", "220115.262500", "220115.722500", "220116.182500", "220116.642500", "220117.102500", "220117.562500", "220118.022500", "220118.482500", "220118.942500", "220119.402500", "220119.862500", "220120.322500", "220120.782500", "220121.242500", "220121.702500", "220122.162500", "220122.622500", "220123.082500", "220123.542500", "220124.002500", "220124.462500", "220124.922500", "220125.382500", "220125.842500", "220126.302500", "220126.762500", "220127.222500", "220127.682500", "220128.142500", "220128.602500", "220129.062500", "220129.522500", "220129.982500", "220130.442500", "220130.902500", "220131.362500", "220131.822500", "220132.282500", "220132.742500", "220133.202500", "220133.662500", "220134.122500", "220134.582500", "220135.042500", "220135.502500", "220135.962500", "220136.422500", "220136.882500", "220137.342500", "220137.802500", "220138.262500", "220138.722500", "220139.182500", "220139.642500", "220140.102500", "220140.562500", "220141.022500", "220141.482500", "220141.942500", "220142.402500", "220142.862500", "220143.322500", "220143.782500", "220144.242500", "220144.702500", "220145.162500", "220145.622500", "220146.082500", "220146.542500", "220147.002500", "220147.462500", "220147.922500", "220148.382500", "220148.842500", "220149.302500", "220149.762500", "220150.222500", "220150.682500", "220151.142500", "220151.602500", "220152.062500", "220152.522500", "220152.982500", "220153.442500", "220153.902500", "220154.362500", "220154.822500", "220155.282500", "220155.742500", "220156.202500", "220156.662500", "220157.122500", "220157.582500", "220158.042500", "220158.502500", "220158.962500", "220159.422500", "220159.882500", "220200.342500", "220200.802500", "220201.262500", "220201.722500", "220202.182500", "220202.642500", "220203.102500", "220203.562500", "220204.022500", "220204.482500", "220204.942500", "220205.402500", "220205.862500", "220206.322500", "220206.782500", "220207.242500", "220207.702500", "220208.162500", "220208.622500", "220209.082500", "220209.542500", "220210.002500", "220210.462500", "220210.922500", "220211.382500", "220211.842500", "220212.302500", "220212.762500", "220213.222500", "220213.682500", "220214.142500", "220214.602500", "220215.062500", "220215.522500", "220215.982500", "220216.442500", "220216.902500", "220217.362500", "220217.822500", "220218.282500", "220218.742500", "220219.202500", "220219.662500", "220220.122500", "220220.582500", "220221.042500", "220221.502500", "220221.962500", "220222.422500", "220222.882500", "220223.342500", "220223.802500", "220224.262500", "220224.722500", "220225.182500", "220225.642500", "220226.102500", "220226.562500", "220227.022500", "220227.482500", "220227.942500", "220228.402500", "220228.862500", "220229.322500", "220229.782500", "220230.242500", "220230.702500", "220231.162500", "220231.622500", "220232.082500", "220232.542500", "220233.002500", "220233.462500", "220233.922500", "220234.382500", "220234.842500", "220235.302500", "220235.762500", "220236.222500", "220236.682500", "220237.142500", "220237.602500", "220238.062500", "220238.522500", "220238.982500", "220239.442500", "220239.902500", "220240.362500", "220240.822500", "220241.282500", "220241.742500", "220242.202500", "220242.662500", "220243.122500", "220243.582500", "220244.042500", "220244.502500", "220244.962500", "220245.422500", "220245.882500", "220246.342500", "220246.802500", "220247.262500", "220247.722500", "220248.182500", "220248.642500", "220249.102500", "220249.562500", "220250.022500", "220250.482500", "220250.942500", "220251.402500", "220251.862500", "220252.322500", "220252.782500", "220253.242500", "220253.702500", "220254.162500", "220254.622500", "220255.082500", "220255.542500", "220256.002500", "220256.462500", "220256.922500", "220257.382500", "220257.842500", "220258.302500", "220258.762500", "220259.222500", "220259.682500", "220300.142500", "220300.602500", "220301.062500", "220301.522500", "220301.982500", "220302.442500", "220302.902500", "220303.362500", "220303.822500", "220304.282500", "220304.742500", "220305.202500", "220305.662500", "220306.122500", "220306.582500", "220307.042500", "220307.502500", "220307.962500", "220308.422500", "220308.882500", "220309.342500", "220309.802500", "220310.262500", "220310.722500", "220311.182500", "220311.642500", "220312.102500", "220312.562500", "220313.022500", "220313.482500", "220313.942500", "220314.402500", "220314.862500", "220315.322500", "220315.782500", "220316.242500", "220316.702500", "220317.162500", "220317.622500", "220318.082500", "220318.542500", "220319.002500", "220319.462500", "220319.922500", "220320.382500", "220320.842500", "220321.302500", "220321.762500", "220322.222500", "220322.682500", "220323.142500", "220323.602500", "220324.062500", "220324.522500", "220324.982500", "220325.442500", "220325.902500", "220326.362500", "220326.822500", "220327.282500", "220327.742500", "220328.202500", "220328.662500", "220329.122500", "220329.582500", "220330.042500", "220330.502500", "220330.962500", "220331.422500", "220331.882500", "220332.342500", "220332.802500", "220333.262500", "220333.722500", "220334.182500", "220334.642500", "220335.102500", "220335.562500", "220336.022500", "220336.482500", "220336.942500", "220337.402500", "220337.862500", "220338.322500", "220338.782500", "220339.242500", "220339.702500", "220340.162500", "220340.622500", "220341.082500", "220341.542500", "220342.002500", "220342.462500", "220342.922500", "220343.382500", "220343.842500", "220344.302500", "220344.762500", "220345.222500", "220345.682500", "220346.142500", "220346.602500", "220347.062500", "220347.522500", "220347.982500", "220348.442500", "220348.902500", "220349.362500", "220349.822500", "220350.282500", "220350.742500", "220351.202500", "220351.662500", "220352.122500", "220352.582500", "220353.042500", "220353.502500", "220353.962500", "220354.422500", "220354.882500", "220355.342500", "220355.802500", "220356.262500", "220356.722500", "220357.182500", "220357.642500", "220358.102500", "220358.562500", "220359.022500", "220359.482500", "220359.942500", "220400.402500", "220400.862500", "220401.322500", "220401.782500", "220402.242500", "220402.702500", "220403.162500", "220403.622500", "220404.082500", "220404.542500", "220405.002500", "220405.462500", "220405.922500", "220406.382500", "220406.842500", "220407.302500", "220407.762500", "220408.222500", "220408.682500", "220409.142500", "220409.602500", "220410.062500", "220410.522500", "220410.982500", "220411.442500", "220411.902500", "220412.362500", "220412.822500", "220413.282500", "220413.742500", "220414.202500", "220414.662500", "220415.122500", "220415.582500", "220416.042500", "220416.502500", "220416.962500", "220417.422500", "220417.882500", "220418.342500", "220418.802500", "220419.262500", "220419.722500", "220420.182500", "220420.642500", "220421.102500", "220421.562500", "220422.022500", "220422.482500", "220422.942500", "220423.402500", "220423.862500", "220424.322500", "220424.782500", "220425.242500", "220425.702500", "220426.162500", "220426.622500", "220427.082500", "220427.542500", "220428.002500", "220428.462500", "220428.922500", "220429.382500", "220429.842500", "220430.302500", "220430.762500", "220431.222500", "220431.682500", "220432.142500", "220432.602500", "220433.062500", "220433.522500", "220433.982500", "220434.442500", "220434.902500", "220435.362500", "220435.822500", "220436.282500", "220436.742500", "220437.202500", "220437.662500", "220438.122500", "220438.582500", "220439.042500", "220439.502500", "220439.962500", "220440.422500", "220440.882500", "220441.342500", "220441.802500", "220442.262500", "220442.722500", "220443.182500", "220443.642500", "220444.102500", "220444.562500", "220445.022500", "220445.482500", "220445.942500", "220446.402500", "220446.862500", "220447.322500", "220447.782500", "220448.242500", "220448.702500", "220449.162500", "220449.622500", "220450.082500", "220450.542500", "220451.002500", "220451.462500", "220451.922500", "220452.382500", "220452.842500", "220453.302500", "220453.762500", "220454.222500", "220454.682500", "220455.142500", "220455.602500", "220456.062500", "220456.522500", "220456.982500", "220457.442500", "220457.902500", "220458.362500", "220458.822500", "220459.282500", "220459.742500", "220500.202500", "220500.662500", "220501.122500", "220501.582500", "220502.042500", "220502.502500", "220502.962500", "220503.422500", "220503.882500", "220504.342500", "220504.802500", "220505.262500", "220505.722500", "220506.182500", "220506.642500", "220507.102500", "220507.562500", "220508.022500", "220508.482500", "220508.942500", "220509.402500", "220509.862500", "220510.322500", "220510.782500", "220511.242500", "220511.702500", "220512.162500", "220512.622500", "220513.082500", "220513.542500", "220514.002500", "220514.462500", "220514.922500", "220515.382500", "220515.842500", "220516.302500", "220516.762500", "220517.222500", "220517.682500", "220518.142500", "220518.602500", "220519.062500", "220519.522500", "220519.982500", "220520.442500", "220520.902500", "220521.362500", "220521.822500", "220522.282500", "220522.742500", "220523.202500", "220523.662500", "220524.122500", "220524.582500", "220525.042500", "220525.502500", "220525.962500", "220526.422500", "220526.882500", "220527.342500", "220527.802500", "220528.262500", "220528.722500", "220529.182500", "220529.642500", "220530.102500", "220530.562500", "220531.022500", "220531.482500", "220531.942500", "220532.402500", "220532.862500", "220533.322500", "220533.782500", "220534.242500", "220534.702500", "220535.162500", "220535.622500", "220536.082500", "220536.542500", "220537.002500", "220537.462500", "220537.922500", "220538.382500", "220538.842500", "220539.302500", "220539.762500", "220540.222500", "220540.682500", "220541.142500", "220541.602500", "220542.062500", "220542.522500", "220542.982500", "220543.442500", "220543.902500", "220544.362500", "220544.822500", "220545.282500", "220545.742500", "220546.202500", "220546.662500", "220547.122500", "220547.582500", "220548.042500", "220548.502500", "220548.962500", "220549.422500", "220549.882500", "220550.342500", "220550.802500", "220551.262500", "220551.722500", "220552.182500", "220552.642500", "220553.102500", "220553.562500", "220554.022500", "220554.482500", "220554.942500", "220555.402500", "220555.862500", "220556.322500", "220556.782500", "220557.242500", "220557.702500", "220558.162500", "220558.622500", "220559.082500", "220559.542500"],
