{
  "AcquisitionMatrixPE": 82,
  "AcquisitionNumber": 1,
  "AcquisitionTime": "21:37:8.310000",
  "BandwidthPerPixelPhaseEncode": 24.888,
  "BaseResolution": 82,
  "BodyPartExamined": "BRAIN",
  "ConsistencyInfo": "N4_VE11E_LATEST_20181129",
  "ConversionSoftware": "dcm2niix",
  "ConversionSoftwareVersion": "v1.0.20201102",
  "DerivedVendorReportedEchoSpacing": 0.00049,
  "DeviceSerialNumber": "66112",
  "DwellTime": 2e-06,
  "EchoTime": 0.0272,
  "EchoTrainLength": 82,
  "EffectiveEchoSpacing": 0.00049,
  "FlipAngle": 44,
  "ImageComments": "Unaliased MB8/PE3",
  "ImageOrientationPatientDICOM": [0.998908, 0.00498159, -0.0464476, -0.0012204, 0.996741, 0.0806562],
  "ImageType": [
    "ORIGINAL",
    "PRIMARY",
    "M",
    "MB",
    "ND",
    "NORM",
    "MOSAIC"
],
  "ImagingFrequency": 123.259,
  "InPlanePhaseEncodingDirectionDICOM": "COL",
  "InstitutionAddress": "Maynard 3,Hanover,NH,US,03755",
  "InstitutionName": "Dartmouth College - PBS",
  "InstitutionalDepartmentName": "Department",
  "MRAcquisitionType": "2D",
  "MagneticFieldStrength": 3,
  "Manufacturer": "Siemens",
  "ManufacturersModelName": "Prisma",
  "Modality": "MR",
  "MultibandAccelerationFactor": 8,
  "PartialFourier": 1,
  "PatientPosition": "HFS",
  "PercentPhaseFOV": 100,
  "PercentSampling": 100,
  "PhaseEncodingDirection": "j-",
  "PhaseEncodingSteps": 82,
  "PhaseResolution": 1,
  "PixelBandwidth": 3050,
  "ProcedureStepDescription": "Wager_Wager^1076_spacetop",
  "ProtocolName": "func_run-03_task-social_acq-ap-mb8",
  "PulseSequenceDetails": "%CustomerSeq%\\cmrr_mbep2d_bold",
  "ReceiveCoilActiveElements": "HEA;HEP",
  "ReceiveCoilName": "Head_32",
  "ReconMatrixPE": 82,
  "RepetitionTime": 0.46,
  "SAR": 0.09794,
  "ScanOptions": "FS",
  "ScanningSequence": "EP",
  "SequenceName": "epfid2d1_82",
  "SequenceVariant": "SK\\SS",
  "SeriesDescription": "func_run-03_task-social_acq-ap-mb8",
  "SeriesNumber": 18,
  "ShimSetting": [4211, -7794, -7258, 404, -166, 19, 2, 98],
  "SliceThickness": 2.7,
  "SliceTiming": [0, 0.2525, 0.0625, 0.315, 0.1275, 0.3775, 0.19, 0, 0.2525, 0.0625, 0.315, 0.1275, 0.3775, 0.19, 0, 0.2525, 0.0625, 0.315, 0.1275, 0.3775, 0.19, 0, 0.2525, 0.0625, 0.315, 0.1275, 0.3775, 0.19, 0, 0.2525, 0.0625, 0.315, 0.1275, 0.3775, 0.19, 0, 0.2525, 0.0625, 0.315, 0.1275, 0.3775, 0.19, 0, 0.2525, 0.0625, 0.315, 0.1275, 0.3775, 0.19, 0, 0.2525, 0.0625, 0.315, 0.1275, 0.3775, 0.19],
  "SoftwareVersions": "syngo MR E11",
  "SpacingBetweenSlices": 2.7,
  "StationName": "AWP66112",
  "TaskName": "social",
  "TotalReadoutTime": 0.03969,
  "TxRefAmp": 236.539,
  "WipMemBlock": "64284850-7eb5-4899-a2ec-230e828db858||Sequence: R016 ve11e/master r/434b28f1; Aug  7 2019 18:53:46 by eja",
  "dcmmeta_affine": [
    [-2.6799979209899902, -0.0032742468174546957, -0.1260846108198166, 113.48704528808594],
    [-0.01336523238569498, 2.6741838455200195, 0.21738091111183167, -106.43962860107422],
    [-0.12461543828248978, -0.21639464795589447, 2.688279628753662, -57.43107223510742],
    [0.0, 0.0, 0.0, 1.0]
],
  "dcmmeta_reorient_transform": [
    [0.0, -1.0, 0.0, 81.0],
    [1.0, 0.0, 0.0, 0.0],
    [0.0, 0.0, 1.0, 0.0],
    [0.0, 0.0, 0.0, 1.0]
],
  "dcmmeta_shape": [82, 82, 56, 872],
  "dcmmeta_slice_dim": 2,
  "dcmmeta_version": 0.6,
  "global": {
    "const": {
      "AccessionNumber": "A004858",
      "AcquisitionMatrix": [82, 0, 0, 82],
      "AngioFlag": "N",
      "BitsAllocated": 16,
      "BitsStored": 16,
      "BodyPartExamined": "BRAIN",
      "Columns": 656,
      "EchoNumbers": 1,
      "EchoTime": 27.2,
      "EchoTrainLength": 82,
      "FlipAngle": 44.0,
      "HighBit": 15,
      "ImageOrientationPatient": [0.99890830759407, 0.00498158649967, -0.0464475706093, -0.001220401049, 0.99674123529635, 0.08065618687486],
      "ImagePositionPatient": [-881.44153683405, -881.49585522001, -101.29967372968],
      "ImageType": [
        "ORIGINAL",
        "PRIMARY",
        "M",
        "MB",
        "ND",
        "NORM",
        "MOSAIC"
],
      "ImagedNucleus": "1H",
      "ImagingFrequency": 123.259096,
      "InPlanePhaseEncodingDirection": "COL",
      "MRAcquisitionType": "2D",
      "MagneticFieldStrength": 3.0,
      "Manufacturer": "SIEMENS",
      "ManufacturerModelName": "Prisma",
      "Modality": "MR",
      "NumberOfAverages": 1.0,
      "NumberOfPhaseEncodingSteps": 82,
      "PercentPhaseFieldOfView": 100.0,
      "PercentSampling": 100.0,
      "PerformedProcedureStepStartTime": "204135.083000",
      "PhotometricInterpretation": "MONOCHROME2",
      "PixelBandwidth": 3050.0,
      "PixelRepresentation": 0,
      "PixelSpacing": [2.6829268932343, 2.6829268932343],
      "ProtocolName": "func_run-03_task-social_acq-ap-mb8",
      "RepetitionTime": 460.0,
      "Rows": 656,
      "SAR": 0.09794000956847,
      "SamplesPerPixel": 1,
      "ScanOptions": "FS",
      "ScanningSequence": "EP",
      "SequenceName": "epfid2d1_82",
      "SequenceVariant": [
        "SK",
        "SS"
],
      "SeriesDescription": "func_run-03_task-social_acq-ap-mb8",
      "SeriesNumber": 18,
      "SeriesTime": "213729.899000",
      "SliceLocation": -71.051001207007,
      "SliceThickness": 2.7000000476837,
      "SmallestImagePixelValue": 0,
      "SoftwareVersions": "syngo MR E11",
      "SpacingBetweenSlices": 2.6999999383969,
      "SpecificCharacterSet": "ISO_IR 100",
      "StudyID": "1",
      "StudyTime": "204135.031000",
      "TransmitCoilName": "Body",
      "VariableFlipAngleFlag": "N",
      "WindowCenterWidthExplanation": "Algo1"
    },
    "slices": {}
  },
  "time": {
    "samples": {
      "AcquisitionNumber": [1, 2, 3, 4, 5, 6, 7, 8, 9, 10, 11, 12, 13, 14, 15, 16, 17, 18, 19, 20, 21, 22, 23, 24, 25, 26, 27, 28, 29, 30, 31, 32, 33, 34, 35, 36, 37, 38, 39, 40, 41, 42, 43, 44, 45, 46, 47, 48, 49, 50, 51, 52, 53, 54, 55, 56, 57, 58, 59, 60, 61, 62, 63, 64, 65, 66, 67, 68, 69, 70, 71, 72, 73, 74, 75, 76, 77, 78, 79, 80, 81, 82, 83, 84, 85, 86, 87, 88, 89, 90, 91, 92, 93, 94, 95, 96, 97, 98, 99, 100, 101, 102, 103, 104, 105, 106, 107, 108, 109, 110, 111, 112, 113, 114, 115, 116, 117, 118, 119, 120, 121, 122, 123, 124, 125, 126, 127, 128, 129, 130, 131, 132, 133, 134, 135, 136, 137, 138, 139, 140, 141, 142, 143, 144, 145, 146, 147, 148, 149, 150, 151, 152, 153, 154, 155, 156, 157, 158, 159, 160, 161, 162, 163, 164, 165, 166, 167, 168, 169, 170, 171, 172, 173, 174, 175, 176, 177, 178, 179, 180, 181, 182, 183, 184, 185, 186, 187, 188, 189, 190, 191, 192, 193, 194, 195, 196, 197, 198, 199, 200, 201, 202, 203, 204, 205, 206, 207, 208, 209, 210, 211, 212, 213, 214, 215, 216, 217, 218, 219, 220, 221, 222, 223, 224, 225, 226, 227, 228, 229, 230, 231, 232, 233, 234, 235, 236, 237, 238, 239, 240, 241, 242, 243, 244, 245, 246, 247, 248, 249, 250, 251, 252, 253, 254, 255, 256, 257, 258, 259, 260, 261, 262, 263, 264, 265, 266, 267, 268, 269, 270, 271, 272, 273, 274, 275, 276, 277, 278, 279, 280, 281, 282, 283, 284, 285, 286, 287, 288, 289, 290, 291, 292, 293, 294, 295, 296, 297, 298, 299, 300, 301, 302, 303, 304, 305, 306, 307, 308, 309, 310, 311, 312, 313, 314, 315, 316, 317, 318, 319, 320, 321, 322, 323, 324, 325, 326, 327, 328, 329, 330, 331, 332, 333, 334, 335, 336, 337, 338, 339, 340, 341, 342, 343, 344, 345, 346, 347, 348, 349, 350, 351, 352, 353, 354, 355, 356, 357, 358, 359, 360, 361, 362, 363, 364, 365, 366, 367, 368, 369, 370, 371, 372, 373, 374, 375, 376, 377, 378, 379, 380, 381, 382, 383, 384, 385, 386, 387, 388, 389, 390, 391, 392, 393, 394, 395, 396, 397, 398, 399, 400, 401, 402, 403, 404, 405, 406, 407, 408, 409, 410, 411, 412, 413, 414, 415, 416, 417, 418, 419, 420, 421, 422, 423, 424, 425, 426, 427, 428, 429, 430, 431, 432, 433, 434, 435, 436, 437, 438, 439, 440, 441, 442, 443, 444, 445, 446, 447, 448, 449, 450, 451, 452, 453, 454, 455, 456, 457, 458, 459, 460, 461, 462, 463, 464, 465, 466, 467, 468, 469, 470, 471, 472, 473, 474, 475, 476, 477, 478, 479, 480, 481, 482, 483, 484, 485, 486, 487, 488, 489, 490, 491, 492, 493, 494, 495, 496, 497, 498, 499, 500, 501, 502, 503, 504, 505, 506, 507, 508, 509, 510, 511, 512, 513, 514, 515, 516, 517, 518, 519, 520, 521, 522, 523, 524, 525, 526, 527, 528, 529, 530, 531, 532, 533, 534, 535, 536, 537, 538, 539, 540, 541, 542, 543, 544, 545, 546, 547, 548, 549, 550, 551, 552, 553, 554, 555, 556, 557, 558, 559, 560, 561, 562, 563, 564, 565, 566, 567, 568, 569, 570, 571, 572, 573, 574, 575, 576, 577, 578, 579, 580, 581, 582, 583, 584, 585, 586, 587, 588, 589, 590, 591, 592, 593, 594, 595, 596, 597, 598, 599, 600, 601, 602, 603, 604, 605, 606, 607, 608, 609, 610, 611, 612, 613, 614, 615, 616, 617, 618, 619, 620, 621, 622, 623, 624, 625, 626, 627, 628, 629, 630, 631, 632, 633, 634, 635, 636, 637, 638, 639, 640, 641, 642, 643, 644, 645, 646, 647, 648, 649, 650, 651, 652, 653, 654, 655, 656, 657, 658, 659, 660, 661, 662, 663, 664, 665, 666, 667, 668, 669, 670, 671, 672, 673, 674, 675, 676, 677, 678, 679, 680, 681, 682, 683, 684, 685, 686, 687, 688, 689, 690, 691, 692, 693, 694, 695, 696, 697, 698, 699, 700, 701, 702, 703, 704, 705, 706, 707, 708, 709, 710, 711, 712, 713, 714, 715, 716, 717, 718, 719, 720, 721, 722, 723, 724, 725, 726, 727, 728, 729, 730, 731, 732, 733, 734, 735, 736, 737, 738, 739, 740, 741, 742, 743, 744, 745, 746, 747, 748, 749, 750, 751, 752, 753, 754, 755, 756, 757, 758, 759, 760, 761, 762, 763, 764, 765, 766, 767, 768, 769, 770, 771, 772, 773, 774, 775, 776, 777, 778, 779, 780, 781, 782, 783, 784, 785, 786, 787, 788, 789, 790, 791, 792, 793, 794, 795, 796, 797, 798, 799, 800, 801, 802, 803, 804, 805, 806, 807, 808, 809, 810, 811, 812, 813, 814, 815, 816, 817, 818, 819, 820, 821, 822, 823, 824, 825, 826, 827, 828, 829, 830, 831, 832, 833, 834, 835, 836, 837, 838, 839, 840, 841, 842, 843, 844, 845, 846, 847, 848, 849, 850, 851, 852, 853, 854, 855, 856, 857, 858, 859, 860, 861, 862, 863, 864, 865, 866, 867, 868, 869, 870, 871, 872],
      "AcquisitionTime": ["213708.310000", "213708.770000", "213709.230000", "213709.690000", "213710.150000", "213710.610000", "213711.070000", "213711.530000", "213711.990000", "213712.450000", "213712.910000", "213713.370000", "213713.830000", "213714.290000", "213714.750000", "213715.210000", "213715.670000", "213716.130000", "213716.590000", "213717.050000", "213717.510000", "213717.970000", "213718.430000", "213718.890000", "213719.350000", "213719.810000", "213720.270000", "213720.730000", "213721.190000", "213721.650000", "213722.110000", "213722.570000", "213723.030000", "213723.490000", "213723.950000", "213724.410000", "213724.870000", "213725.330000", "213725.790000", "213726.250000", "213726.710000", "213727.170000", "213727.630000", "213728.090000", "213728.550000", "213729.010000", "213729.470000", "213729.930000", "213730.390000", "213730.850000", "213731.310000", "213731.770000", "213732.230000", "213732.690000", "213733.150000", "213733.610000", "213734.070000", "213734.530000", "213734.990000", "213735.450000", "213735.910000", "213736.370000", "213736.830000", "213737.290000", "213737.750000", "213738.210000", "213738.670000", "213739.130000", "213739.590000", "213740.050000", "213740.510000", "213740.970000", "213741.430000", "213741.890000", "213742.350000", "213742.810000", "213743.270000", "213743.730000", "213744.190000", "213744.650000", "213745.110000", "213745.570000", "213746.030000", "213746.490000", "213746.950000", "213747.410000", "213747.870000", "213748.330000", "213748.790000", "213749.250000", "213749.710000", "213750.170000", "213750.630000", "213751.090000", "213751.550000", "213752.010000", "213752.470000", "213752.930000", "213753.390000", "213753.850000", "213754.310000", "213754.770000", "213755.230000", "213755.690000", "213756.150000", "213756.610000", "213757.070000", "213757.530000", "213757.990000", "213758.450000", "213758.910000", "213759.370000", "213759.830000", "213800.290000", "213800.750000", "213801.210000", "213801.670000", "213802.130000", "213802.590000", "213803.050000", "213803.510000", "213803.970000", "213804.430000", "213804.890000", "213805.350000", "213805.810000", "213806.270000", "213806.730000", "213807.190000", "213807.650000", "213808.110000", "213808.570000", "213809.030000", "213809.490000", "213809.950000", "213810.410000", "213810.870000", "213811.330000", "213811.790000", "213812.250000", "213812.710000", "213813.170000", "213813.630000", "213814.090000", "213814.550000", "213815.010000", "213815.470000", "213815.930000", "213816.390000", "213816.850000", "213817.310000", "213817.770000", "213818.230000", "213818.690000", "213819.150000", "213819.610000", "213820.070000", "213820.530000", "213820.990000", "213821.450000", "213821.910000", "213822.370000", "213822.830000", "213823.290000", "213823.750000", "213824.210000", "213824.670000", "213825.130000", "213825.590000", "213826.050000", "213826.510000", "213826.970000", "213827.430000", "213827.890000", "213828.350000", "213828.810000", "213829.270000", "213829.730000", "213830.190000", "213830.650000", "213831.110000", "213831.570000", "213832.030000", "213832.490000", "213832.950000", "213833.410000", "213833.870000", "213834.330000", "213834.790000", "213835.250000", "213835.710000", "213836.170000", "213836.630000", "213837.090000", "213837.550000", "213838.010000", "213838.470000", "213838.930000", "213839.390000", "213839.850000", "213840.310000", "213840.770000", "213841.230000", "213841.690000", "213842.150000", "213842.610000", "213843.070000", "213843.530000", "213843.990000", "213844.450000", "213844.910000", "213845.370000", "213845.830000", "213846.290000", "213846.750000", "213847.210000", "213847.670000", "213848.130000", "213848.590000", "213849.050000", "213849.510000", "213849.970000", "213850.430000", "213850.890000", "213851.350000", "213851.810000", "213852.270000", "213852.730000", "213853.190000", "213853.650000", "213854.110000", "213854.570000", "213855.030000", "213855.490000", "213855.950000", "213856.410000", "213856.870000", "213857.330000", "213857.790000", "213858.250000", "213858.710000", "213859.170000", "213859.630000", "213900.090000", "213900.550000", "213901.010000", "213901.470000", "213901.930000", "213902.390000", "213902.850000", "213903.310000", "213903.770000", "213904.230000", "213904.690000", "213905.150000", "213905.610000", "213906.070000", "213906.530000", "213906.990000", "213907.450000", "213907.910000", "213908.370000", "213908.830000", "213909.290000", "213909.750000", "213910.210000", "213910.670000", "213911.130000", "213911.590000", "213912.050000", "213912.510000", "213912.970000", "213913.430000", "213913.890000", "213914.350000", "213914.810000", "213915.270000", "213915.730000", "213916.190000", "213916.650000", "213917.110000", "213917.570000", "213918.030000", "213918.490000", "213918.950000", "213919.410000", "213919.870000", "213920.330000", "213920.790000", "213921.250000", "213921.710000", "213922.170000", "213922.630000", "213923.090000", "213923.550000", "213924.010000", "213924.470000", "213924.930000", "213925.390000", "213925.850000", "213926.310000", "213926.770000", "213927.230000", "213927.690000", "213928.150000", "213928.610000", "213929.070000", "213929.530000", "213929.990000", "213930.450000", "213930.910000", "213931.370000", "213931.830000", "213932.290000", "213932.750000", "213933.210000", "213933.670000", "213934.130000", "213934.590000", "213935.050000", "213935.510000", "213935.970000", "213936.430000", "213936.890000", "213937.350000", "213937.810000", "213938.270000", "213938.730000", "213939.190000", "213939.650000", "213940.110000", "213940.570000", "213941.030000", "213941.490000", "213941.950000", "213942.410000", "213942.870000", "213943.330000", "213943.790000", "213944.250000", "213944.710000", "213945.170000", "213945.630000", "213946.090000", "213946.550000", "213947.010000", "213947.470000", "213947.930000", "213948.390000", "213948.850000", "213949.310000", "213949.770000", "213950.230000", "213950.690000", "213951.150000", "213951.610000", "213952.070000", "213952.530000", "213952.990000", "213953.450000", "213953.910000", "213954.370000", "213954.830000", "213955.290000", "213955.750000", "213956.210000", "213956.670000", "213957.130000", "213957.590000", "213958.050000", "213958.510000", "213958.970000", "213959.430000", "213959.890000", "214000.350000", "214000.810000", "214001.270000", "214001.730000", "214002.190000", "214002.650000", "214003.110000", "214003.570000", "214004.030000", "214004.490000", "214004.950000", "214005.410000", "214005.870000", "214006.330000", "214006.790000", "214007.250000", "214007.710000", "214008.170000", "214008.630000", "214009.090000", "214009.550000", "214010.010000", "214010.470000", "214010.930000", "214011.390000", "214011.850000", "214012.310000", "214012.770000", "214013.230000", "214013.690000", "214014.150000", "214014.610000", "214015.070000", "214015.530000", "214015.990000", "214016.450000", "214016.910000", "214017.370000", "214017.830000", "214018.290000", "214018.750000", "214019.210000", "214019.670000", "214020.130000", "214020.590000", "214021.050000", "214021.510000", "214021.970000", "214022.430000", "214022.890000", "214023.350000", "214023.810000", "214024.270000", "214024.730000", "214025.190000", "214025.650000", "214026.110000", "214026.570000", "214027.030000", "214027.490000", "214027.950000", "214028.410000", "214028.870000", "214029.330000", "214029.790000", "214030.250000", "214030.710000", "214031.170000", "214031.630000", "214032.090000", "214032.550000", "214033.010000", "214033.470000", "214033.930000", "214034.390000", "214034.850000", "214035.310000", "214035.770000", "214036.230000", "214036.690000", "214037.150000", "214037.610000", "214038.070000", "214038.530000", "214038.990000", "214039.450000", "214039.910000", "214040.370000", "214040.830000", "214041.290000", "214041.750000", "214042.210000", "214042.670000", "214043.130000", "214043.590000", "214044.050000", "214044.510000", "214044.970000", "214045.430000", "214045.890000", "214046.350000", "214046.810000", "214047.270000", "214047.730000", "214048.190000", "214048.650000", "214049.110000", "214049.570000", "214050.030000", "214050.490000", "214050.950000", "214051.410000", "214051.870000", "214052.330000", "214052.790000", "214053.250000", "214053.710000", "214054.170000", "214054.630000", "214055.090000", "214055.550000", "214056.010000", "214056.470000", "214056.930000", "214057.390000", "214057.850000", "214058.310000", "214058.770000", "214059.230000", "214059.690000", "214100.150000", "214100.610000", "214101.070000", "214101.530000", "214101.990000", "214102.450000", "214102.910000", "214103.370000", "214103.830000", "214104.290000", "214104.750000", "214105.210000", "214105.670000", "214106.130000", "214106.590000", "214107.050000", "214107.510000", "214107.970000", "214108.430000", "214108.890000", "214109.350000", "214109.810000", "214110.270000", "214110.730000", "214111.190000", "214111.650000", "214112.110000", "214112.570000", "214113.030000", "214113.490000", "214113.950000", "214114.410000", "214114.870000", "214115.330000", "214115.790000", "214116.250000", "214116.710000", "214117.170000", "214117.630000", "214118.090000", "214118.550000", "214119.010000", "214119.470000", "214119.930000", "214120.390000", "214120.850000", "214121.310000", "214121.770000", "214122.230000", "214122.690000", "214123.150000", "214123.610000", "214124.070000", "214124.530000", "214124.990000", "214125.450000", "214125.910000", "214126.370000", "214126.830000", "214127.290000", "214127.750000", "214128.210000", "214128.670000", "214129.130000", "214129.590000", "214130.050000", "214130.510000", "214130.970000", "214131.430000", "214131.890000", "214132.350000", "214132.810000", "214133.270000", "214133.730000", "214134.190000", "214134.650000", "214135.110000", "214135.570000", "214136.030000", "214136.490000", "214136.950000", "214137.410000", "214137.870000", "214138.330000", "214138.790000", "214139.250000", "214139.710000", "214140.170000", "214140.630000", "214141.090000", "214141.550000", "214142.010000", "214142.470000", "214142.930000", "214143.390000", "214143.850000", "214144.310000", "214144.770000", "214145.230000", "214145.690000", "214146.150000", "214146.610000", "214147.070000", "214147.530000", "214147.990000", "214148.450000", "214148.910000", "214149.370000", "214149.830000", "214150.290000", "214150.750000", "214151.210000", "214151.670000", "214152.130000", "214152.590000", "214153.050000", "214153.510000", "214153.970000", "214154.430000", "214154.890000", "214155.350000", "214155.810000", "214156.270000", "214156.730000", "214157.190000", "214157.650000", "214158.110000", "214158.570000", "214159.030000", "214159.490000", "214159.950000", "214200.410000", "214200.870000", "214201.330000", "214201.790000", "214202.250000", "214202.710000", "214203.170000", "214203.630000", "214204.090000", "214204.550000", "214205.010000", "214205.470000", "214205.930000", "214206.390000", "214206.850000", "214207.310000", "214207.770000", "214208.230000", "214208.690000", "214209.150000", "214209.610000", "214210.070000", "214210.530000", "214210.990000", "214211.450000", "214211.910000", "214212.370000", "214212.830000", "214213.290000", "214213.750000", "214214.210000", "214214.670000", "214215.130000", "214215.590000", "214216.050000", "214216.510000", "214216.970000", "214217.430000", "214217.890000", "214218.350000", "214218.810000", "214219.270000", "214219.730000", "214220.190000", "214220.650000", "214221.110000", "214221.570000", "214222.030000", "214222.490000", "214222.950000", "214223.410000", "214223.870000", "214224.330000", "214224.790000", "214225.250000", "214225.710000", "214226.170000", "214226.630000", "214227.090000", "214227.550000", "214228.010000", "214228.470000", "214228.930000", "214229.390000", "214229.850000", "214230.310000", "214230.770000", "214231.230000", "214231.690000", "214232.150000", "214232.610000", "214233.070000", "214233.530000", "214233.990000", "214234.450000", "214234.910000", "214235.370000", "214235.830000", "214236.290000", "214236.750000", "214237.210000", "214237.670000", "214238.130000", "214238.590000", "214239.050000", "214239.510000", "214239.970000", "214240.430000", "214240.890000", "214241.350000", "214241.810000", "214242.270000", "214242.730000", "214243.190000", "214243.650000", "214244.110000", "214244.570000", "214245.030000", "214245.490000", "214245.950000", "214246.410000", "214246.870000", "214247.330000", "214247.790000", "214248.250000", "214248.710000", "214249.170000", "214249.630000", "214250.090000", "214250.550000", "214251.010000", "214251.470000", "214251.930000", "214252.390000", "214252.850000", "214253.310000", "214253.770000", "214254.230000", "214254.690000", "214255.150000", "214255.610000", "214256.070000", "214256.530000", "214256.990000", "214257.450000", "214257.910000", "214258.370000", "214258.830000", "214259.290000", "214259.750000", "214300.210000", "214300.670000", "214301.130000", "214301.590000", "214302.050000", "214302.510000", "214302.970000", "214303.430000", "214303.890000", "214304.350000", "214304.810000", "214305.270000", "214305.730000", "214306.190000", "214306.650000", "214307.110000", "214307.570000", "214308.030000", "214308.490000", "214308.950000", "214309.410000", "214309.870000", "214310.330000", "214310.790000", "214311.250000", "214311.710000", "214312.170000", "214312.630000", "214313.090000", "214313.550000", "214314.010000", "214314.470000", "214314.930000", "214315.390000", "214315.850000", "214316.310000", "214316.770000", "214317.230000", "214317.690000", "214318.150000", "214318.610000", "214319.070000", "214319.530000", "214319.990000", "214320.450000", "214320.910000", "214321.370000", "214321.830000", "214322.290000", "214322.750000", "214323.210000", "214323.670000", "214324.130000", "214324.590000", "214325.050000", "214325.510000", "214325.970000", "214326.430000", "214326.890000", "214327.350000", "214327.810000", "214328.270000", "214328.730000", "214329.190000", "214329.650000", "214330.110000", "214330.570000", "214331.030000", "214331.490000", "214331.950000", "214332.410000", "214332.870000", "214333.330000", "214333.790000", "214334.250000", "214334.710000", "214335.170000", "214335.630000", "214336.090000", "214336.550000", "214337.010000", "214337.470000", "214337.930000", "214338.390000", "214338.850000", "214339.310000", "214339.770000", "214340.230000", "214340.690000", "214341.150000", "214341.610000", "214342.070000", "214342.530000", "214342.990000", "214343.450000", "214343.910000", "214344.370000", "214344.830000", "214345.290000", "214345.750000", "214346.210000", "214346.670000", "214347.130000", "214347.590000", "214348.050000", "214348.510000", "214348.970000"],
