{
  "AcquisitionMatrixPE": 82,
  "AcquisitionNumber": 1,
  "AcquisitionTime": "13:50:37.782500",
  "BandwidthPerPixelPhaseEncode": 24.888,
  "BaseResolution": 82,
  "BodyPartExamined": "BRAIN",
  "ConsistencyInfo": "N4_VE11E_LATEST_20181129",
  "ConversionSoftware": "dcm2niix",
  "ConversionSoftwareVersion": "v1.0.20201102",
  "DerivedVendorReportedEchoSpacing": 0.00049,
  "DeviceSerialNumber": "66112",
  "DwellTime": 2e-06,
  "EchoTime": 0.0272,
  "EchoTrainLength": 82,
  "EffectiveEchoSpacing": 0.00049,
  "FlipAngle": 44,
  "ImageComments": "Unaliased MB8/PE3",
  "ImageOrientationPatientDICOM": [0.999811, 0.0066076, 0.0182899, -0.0122156, 0.945189, 0.326294],
  "ImageType": [
    "ORIGINAL",
    "PRIMARY",
    "M",
    "MB",
    "ND",
    "NORM",
    "MOSAIC"
],
  "ImagingFrequency": 123.252,
  "InPlanePhaseEncodingDirectionDICOM": "COL",
  "InstitutionAddress": "Maynard 3,Hanover,NH,US,03755",
  "InstitutionName": "Dartmouth College - PBS",
  "InstitutionalDepartmentName": "Department",
  "MRAcquisitionType": "2D",
  "MagneticFieldStrength": 3,
  "Manufacturer": "Siemens",
  "ManufacturersModelName": "Prisma",
  "Modality": "MR",
  "MultibandAccelerationFactor": 8,
  "PartialFourier": 1,
  "PatientPosition": "HFS",
  "PercentPhaseFOV": 100,
  "PercentSampling": 100,
  "PhaseEncodingDirection": "j-",
  "PhaseEncodingSteps": 82,
  "PhaseResolution": 1,
  "PixelBandwidth": 3050,
  "ProcedureStepDescription": "Wager_Wager^1076_spacetop",
  "ProtocolName": "func_run-01_task-social_acq-ap-mb8",
  "PulseSequenceDetails": "%CustomerSeq%\\cmrr_mbep2d_bold",
  "ReceiveCoilActiveElements": "HEA;HEP",
  "ReceiveCoilName": "Head_32",
  "ReconMatrixPE": 82,
  "RepetitionTime": 0.46,
  "SAR": 0.0928545,
  "ScanOptions": "FS",
  "ScanningSequence": "EP",
  "SequenceName": "epfid2d1_82",
  "SequenceVariant": "SK\\SS",
  "SeriesDescription": "func_run-01_task-social_acq-ap-mb8",
  "SeriesNumber": 8,
  "ShimSetting": [4148, -7805, -7267, 620, -36, -270, 39, 116],
  "SliceThickness": 2.7,
  "SliceTiming": [0, 0.2525, 0.0625, 0.315, 0.125, 0.3775, 0.1875, 0, 0.2525, 0.0625, 0.315, 0.125, 0.3775, 0.1875, 0, 0.2525, 0.0625, 0.315, 0.125, 0.3775, 0.1875, 0, 0.2525, 0.0625, 0.315, 0.125, 0.3775, 0.1875, 0, 0.2525, 0.0625, 0.315, 0.125, 0.3775, 0.1875, 0, 0.2525, 0.0625, 0.315, 0.125, 0.3775, 0.1875, 0, 0.2525, 0.0625, 0.315, 0.125, 0.3775, 0.1875, 0, 0.2525, 0.0625, 0.315, 0.125, 0.3775, 0.1875],
  "SoftwareVersions": "syngo MR E11",
  "SpacingBetweenSlices": 2.7,
  "StationName": "AWP66112",
  "TaskName": "social",
  "TotalReadoutTime": 0.03969,
  "TxRefAmp": 229.77,
  "WipMemBlock": "9393b5ca-6023-4156-90fb-030b648bdcb3||Sequence: R016 ve11e/master r/434b28f1; Aug  7 2019 18:53:46 by eja",
  "dcmmeta_affine": [
    [-2.682419538497925, -0.03277366980910301, 0.04085487127304077, 112.1220474243164],
    [-0.017727700993418694, 2.5358738899230957, 0.8814308047294617, -115.52774810791016],
    [0.0490705668926239, -0.8754233121871948, 2.5517466068267822, -30.62375259399414],
    [0.0, 0.0, 0.0, 1.0]
],
  "dcmmeta_reorient_transform": [
    [0.0, -1.0, 0.0, 81.0],
    [1.0, 0.0, 0.0, 0.0],
    [0.0, 0.0, 1.0, 0.0],
    [0.0, 0.0, 0.0, 1.0]
],
  "dcmmeta_shape": [82, 82, 56, 872],
  "dcmmeta_slice_dim": 2,
  "dcmmeta_version": 0.6,
  "global": {
    "const": {
      "AccessionNumber": "A004253",
      "AcquisitionMatrix": [82, 0, 0, 82],
      "AngioFlag": "N",
      "BitsAllocated": 16,
      "BitsStored": 16,
      "BodyPartExamined": "BRAIN",
      "Columns": 656,
      "EchoNumbers": 1,
      "EchoTime": 27.2,
      "EchoTrainLength": 82,
      "FlipAngle": 44.0,
      "HighBit": 15,
      "ImageOrientationPatient": [0.99981089103012, 0.00660759756172, 0.01828993799955, -0.0122156404337, 0.94518935490923, 0.32629413340586],
      "ImagePositionPatient": [-869.91574219971, -822.76171515047, -366.8627818755],
      "ImageType": [
        "ORIGINAL",
        "PRIMARY",
        "M",
        "MB",
        "ND",
        "NORM",
        "MOSAIC"
],
      "ImagedNucleus": "1H",
      "ImagingFrequency": 123.252171,
      "InPlanePhaseEncodingDirection": "COL",
      "MRAcquisitionType": "2D",
      "MagneticFieldStrength": 3.0,
      "Manufacturer": "SIEMENS",
      "ManufacturerModelName": "Prisma",
      "Modality": "MR",
      "NumberOfAverages": 1.0,
      "NumberOfPhaseEncodingSteps": 82,
      "PercentPhaseFieldOfView": 100.0,
      "PercentSampling": 100.0,
      "PerformedProcedureStepStartTime": "132706.194000",
      "PhotometricInterpretation": "MONOCHROME2",
      "PixelBandwidth": 3050.0,
      "PixelRepresentation": 0,
      "PixelSpacing": [2.6829268932343, 2.6829268932343],
      "ProtocolName": "func_run-01_task-social_acq-ap-mb8",
      "RepetitionTime": 460.0,
      "Rows": 656,
      "SAR": 0.09285454528455,
      "SamplesPerPixel": 1,
      "ScanOptions": "FS",
      "ScanningSequence": "EP",
      "SequenceName": "epfid2d1_82",
      "SequenceVariant": [
        "SK",
        "SS"
],
      "SeriesDescription": "func_run-01_task-social_acq-ap-mb8",
      "SeriesNumber": 8,
      "SeriesTime": "135048.491000",
      "SliceLocation": -64.960384085927,
      "SliceThickness": 2.7000000476837,
      "SmallestImagePixelValue": 0,
      "SoftwareVersions": "syngo MR E11",
      "SpacingBetweenSlices": 2.6999999826861,
      "SpecificCharacterSet": "ISO_IR 100",
      "StudyID": "1",
      "StudyTime": "132706.115000",
      "TransmitCoilName": "Body",
      "VariableFlipAngleFlag": "N",
      "WindowCenterWidthExplanation": "Algo1"
    },
    "slices": {}
  },
  "time": {
    "samples": {
      "AcquisitionNumber": [1, 2, 3, 4, 5, 6, 7, 8, 9, 10, 11, 12, 13, 14, 15, 16, 17, 18, 19, 20, 21, 22, 23, 24, 25, 26, 27, 28, 29, 30, 31, 32, 33, 34, 35, 36, 37, 38, 39, 40, 41, 42, 43, 44, 45, 46, 47, 48, 49, 50, 51, 52, 53, 54, 55, 56, 57, 58, 59, 60, 61, 62, 63, 64, 65, 66, 67, 68, 69, 70, 71, 72, 73, 74, 75, 76, 77, 78, 79, 80, 81, 82, 83, 84, 85, 86, 87, 88, 89, 90, 91, 92, 93, 94, 95, 96, 97, 98, 99, 100, 101, 102, 103, 104, 105, 106, 107, 108, 109, 110, 111, 112, 113, 114, 115, 116, 117, 118, 119, 120, 121, 122, 123, 124, 125, 126, 127, 128, 129, 130, 131, 132, 133, 134, 135, 136, 137, 138, 139, 140, 141, 142, 143, 144, 145, 146, 147, 148, 149, 150, 151, 152, 153, 154, 155, 156, 157, 158, 159, 160, 161, 162, 163, 164, 165, 166, 167, 168, 169, 170, 171, 172, 173, 174, 175, 176, 177, 178, 179, 180, 181, 182, 183, 184, 185, 186, 187, 188, 189, 190, 191, 192, 193, 194, 195, 196, 197, 198, 199, 200, 201, 202, 203, 204, 205, 206, 207, 208, 209, 210, 211, 212, 213, 214, 215, 216, 217, 218, 219, 220, 221, 222, 223, 224, 225, 226, 227, 228, 229, 230, 231, 232, 233, 234, 235, 236, 237, 238, 239, 240, 241, 242, 243, 244, 245, 246, 247, 248, 249, 250, 251, 252, 253, 254, 255, 256, 257, 258, 259, 260, 261, 262, 263, 264, 265, 266, 267, 268, 269, 270, 271, 272, 273, 274, 275, 276, 277, 278, 279, 280, 281, 282, 283, 284, 285, 286, 287, 288, 289, 290, 291, 292, 293, 294, 295, 296, 297, 298, 299, 300, 301, 302, 303, 304, 305, 306, 307, 308, 309, 310, 311, 312, 313, 314, 315, 316, 317, 318, 319, 320, 321, 322, 323, 324, 325, 326, 327, 328, 329, 330, 331, 332, 333, 334, 335, 336, 337, 338, 339, 340, 341, 342, 343, 344, 345, 346, 347, 348, 349, 350, 351, 352, 353, 354, 355, 356, 357, 358, 359, 360, 361, 362, 363, 364, 365, 366, 367, 368, 369, 370, 371, 372, 373, 374, 375, 376, 377, 378, 379, 380, 381, 382, 383, 384, 385, 386, 387, 388, 389, 390, 391, 392, 393, 394, 395, 396, 397, 398, 399, 400, 401, 402, 403, 404, 405, 406, 407, 408, 409, 410, 411, 412, 413, 414, 415, 416, 417, 418, 419, 420, 421, 422, 423, 424, 425, 426, 427, 428, 429, 430, 431, 432, 433, 434, 435, 436, 437, 438, 439, 440, 441, 442, 443, 444, 445, 446, 447, 448, 449, 450, 451, 452, 453, 454, 455, 456, 457, 458, 459, 460, 461, 462, 463, 464, 465, 466, 467, 468, 469, 470, 471, 472, 473, 474, 475, 476, 477, 478, 479, 480, 481, 482, 483, 484, 485, 486, 487, 488, 489, 490, 491, 492, 493, 494, 495, 496, 497, 498, 499, 500, 501, 502, 503, 504, 505, 506, 507, 508, 509, 510, 511, 512, 513, 514, 515, 516, 517, 518, 519, 520, 521, 522, 523, 524, 525, 526, 527, 528, 529, 530, 531, 532, 533, 534, 535, 536, 537, 538, 539, 540, 541, 542, 543, 544, 545, 546, 547, 548, 549, 550, 551, 552, 553, 554, 555, 556, 557, 558, 559, 560, 561, 562, 563, 564, 565, 566, 567, 568, 569, 570, 571, 572, 573, 574, 575, 576, 577, 578, 579, 580, 581, 582, 583, 584, 585, 586, 587, 588, 589, 590, 591, 592, 593, 594, 595, 596, 597, 598, 599, 600, 601, 602, 603, 604, 605, 606, 607, 608, 609, 610, 611, 612, 613, 614, 615, 616, 617, 618, 619, 620, 621, 622, 623, 624, 625, 626, 627, 628, 629, 630, 631, 632, 633, 634, 635, 636, 637, 638, 639, 640, 641, 642, 643, 644, 645, 646, 647, 648, 649, 650, 651, 652, 653, 654, 655, 656, 657, 658, 659, 660, 661, 662, 663, 664, 665, 666, 667, 668, 669, 670, 671, 672, 673, 674, 675, 676, 677, 678, 679, 680, 681, 682, 683, 684, 685, 686, 687, 688, 689, 690, 691, 692, 693, 694, 695, 696, 697, 698, 699, 700, 701, 702, 703, 704, 705, 706, 707, 708, 709, 710, 711, 712, 713, 714, 715, 716, 717, 718, 719, 720, 721, 722, 723, 724, 725, 726, 727, 728, 729, 730, 731, 732, 733, 734, 735, 736, 737, 738, 739, 740, 741, 742, 743, 744, 745, 746, 747, 748, 749, 750, 751, 752, 753, 754, 755, 756, 757, 758, 759, 760, 761, 762, 763, 764, 765, 766, 767, 768, 769, 770, 771, 772, 773, 774, 775, 776, 777, 778, 779, 780, 781, 782, 783, 784, 785, 786, 787, 788, 789, 790, 791, 792, 793, 794, 795, 796, 797, 798, 799, 800, 801, 802, 803, 804, 805, 806, 807, 808, 809, 810, 811, 812, 813, 814, 815, 816, 817, 818, 819, 820, 821, 822, 823, 824, 825, 826, 827, 828, 829, 830, 831, 832, 833, 834, 835, 836, 837, 838, 839, 840, 841, 842, 843, 844, 845, 846, 847, 848, 849, 850, 851, 852, 853, 854, 855, 856, 857, 858, 859, 860, 861, 862, 863, 864, 865, 866, 867, 868, 869, 870, 871, 872],
      "AcquisitionTime": ["135037.782500", "135038.242500", "135038.702500", "135039.162500", "135039.622500", "135040.082500", "135040.542500", "135041.002500", "135041.462500", "135041.922500", "135042.382500", "135042.842500", "135043.302500", "135043.762500", "135044.222500", "135044.682500", "135045.142500", "135045.602500", "135046.062500", "135046.522500", "135046.982500", "135047.442500", "135047.902500", "135048.362500", "135048.822500", "135049.282500", "135049.742500", "135050.202500", "135050.662500", "135051.122500", "135051.582500", "135052.042500", "135052.502500", "135052.962500", "135053.422500", "135053.882500", "135054.342500", "135054.802500", "135055.262500", "135055.722500", "135056.182500", "135056.642500", "135057.102500", "135057.562500", "135058.022500", "135058.482500", "135058.942500", "135059.402500", "135059.862500", "135100.322500", "135100.782500", "135101.242500", "135101.702500", "135102.162500", "135102.622500", "135103.082500", "135103.542500", "135104.002500", "135104.462500", "135104.922500", "135105.382500", "135105.842500", "135106.302500", "135106.762500", "135107.222500", "135107.682500", "135108.142500", "135108.602500", "135109.062500", "135109.522500", "135109.982500", "135110.442500", "135110.902500", "135111.362500", "135111.822500", "135112.282500", "135112.742500", "135113.202500", "135113.662500", "135114.122500", "135114.582500", "135115.042500", "135115.502500", "135115.962500", "135116.422500", "135116.882500", "135117.342500", "135117.802500", "135118.262500", "135118.722500", "135119.182500", "135119.642500", "135120.102500", "135120.562500", "135121.022500", "135121.482500", "135121.942500", "135122.402500", "135122.862500", "135123.322500", "135123.782500", "135124.242500", "135124.702500", "135125.162500", "135125.622500", "135126.082500", "135126.542500", "135127.002500", "135127.462500", "135127.922500", "135128.382500", "135128.842500", "135129.302500", "135129.762500", "135130.222500", "135130.682500", "135131.142500", "135131.602500", "135132.062500", "135132.522500", "135132.982500", "135133.442500", "135133.902500", "135134.362500", "135134.822500", "135135.282500", "135135.742500", "135136.202500", "135136.662500", "135137.122500", "135137.582500", "135138.042500", "135138.502500", "135138.962500", "135139.422500", "135139.882500", "135140.342500", "135140.802500", "135141.262500", "135141.722500", "135142.182500", "135142.642500", "135143.102500", "135143.562500", "135144.022500", "135144.482500", "135144.942500", "135145.402500", "135145.862500", "135146.322500", "135146.782500", "135147.242500", "135147.702500", "135148.162500", "135148.622500", "135149.082500", "135149.542500", "135150.002500", "135150.462500", "135150.922500", "135151.382500", "135151.842500", "135152.302500", "135152.762500", "135153.222500", "135153.682500", "135154.142500", "135154.602500", "135155.062500", "135155.522500", "135155.982500", "135156.442500", "135156.902500", "135157.362500", "135157.822500", "135158.282500", "135158.742500", "135159.202500", "135159.662500", "135200.122500", "135200.582500", "135201.042500", "135201.502500", "135201.962500", "135202.422500", "135202.882500", "135203.342500", "135203.802500", "135204.262500", "135204.722500", "135205.182500", "135205.642500", "135206.102500", "135206.562500", "135207.022500", "135207.482500", "135207.942500", "135208.402500", "135208.862500", "135209.322500", "135209.782500", "135210.242500", "135210.702500", "135211.162500", "135211.622500", "135212.082500", "135212.542500", "135213.002500", "135213.462500", "135213.922500", "135214.382500", "135214.842500", "135215.302500", "135215.762500", "135216.222500", "135216.682500", "135217.142500", "135217.602500", "135218.062500", "135218.522500", "135218.982500", "135219.442500", "135219.902500", "135220.362500", "135220.822500", "135221.282500", "135221.742500", "135222.202500", "135222.662500", "135223.122500", "135223.582500", "135224.042500", "135224.502500", "135224.962500", "135225.422500", "135225.882500", "135226.342500", "135226.802500", "135227.262500", "135227.722500", "135228.182500", "135228.642500", "135229.102500", "135229.562500", "135230.022500", "135230.482500", "135230.942500", "135231.402500", "135231.862500", "135232.322500", "135232.782500", "135233.242500", "135233.702500", "135234.162500", "135234.622500", "135235.082500", "135235.542500", "135236.002500", "135236.462500", "135236.922500", "135237.382500", "135237.842500", "135238.302500", "135238.762500", "135239.222500", "135239.682500", "135240.142500", "135240.602500", "135241.062500", "135241.522500", "135241.982500", "135242.442500", "135242.902500", "135243.362500", "135243.822500", "135244.282500", "135244.742500", "135245.202500", "135245.662500", "135246.122500", "135246.582500", "135247.042500", "135247.502500", "135247.962500", "135248.422500", "135248.882500", "135249.342500", "135249.802500", "135250.262500", "135250.722500", "135251.182500", "135251.642500", "135252.102500", "135252.562500", "135253.022500", "135253.482500", "135253.942500", "135254.402500", "135254.862500", "135255.322500", "135255.782500", "135256.242500", "135256.702500", "135257.162500", "135257.622500", "135258.082500", "135258.542500", "135259.002500", "135259.462500", "135259.922500", "135300.382500", "135300.842500", "135301.302500", "135301.762500", "135302.222500", "135302.682500", "135303.142500", "135303.602500", "135304.062500", "135304.522500", "135304.982500", "135305.442500", "135305.902500", "135306.362500", "135306.822500", "135307.282500", "135307.742500", "135308.202500", "135308.662500", "135309.122500", "135309.582500", "135310.042500", "135310.502500", "135310.962500", "135311.422500", "135311.882500", "135312.342500", "135312.802500", "135313.262500", "135313.722500", "135314.182500", "135314.642500", "135315.102500", "135315.562500", "135316.022500", "135316.482500", "135316.942500", "135317.402500", "135317.862500", "135318.322500", "135318.782500", "135319.242500", "135319.702500", "135320.162500", "135320.622500", "135321.082500", "135321.542500", "135322.002500", "135322.462500", "135322.922500", "135323.382500", "135323.842500", "135324.302500", "135324.762500", "135325.222500", "135325.682500", "135326.142500", "135326.602500", "135327.062500", "135327.522500", "135327.982500", "135328.442500", "135328.902500", "135329.362500", "135329.822500", "135330.282500", "135330.742500", "135331.202500", "135331.662500", "135332.122500", "135332.582500", "135333.042500", "135333.502500", "135333.962500", "135334.422500", "135334.882500", "135335.342500", "135335.802500", "135336.262500", "135336.722500", "135337.182500", "135337.642500", "135338.102500", "135338.562500", "135339.022500", "135339.482500", "135339.942500", "135340.402500", "135340.862500", "135341.322500", "135341.782500", "135342.242500", "135342.702500", "135343.162500", "135343.622500", "135344.082500", "135344.542500", "135345.002500", "135345.462500", "135345.922500", "135346.382500", "135346.842500", "135347.302500", "135347.762500", "135348.222500", "135348.682500", "135349.142500", "135349.602500", "135350.062500", "135350.522500", "135350.982500", "135351.442500", "135351.902500", "135352.362500", "135352.822500", "135353.282500", "135353.742500", "135354.202500", "135354.662500", "135355.122500", "135355.582500", "135356.042500", "135356.502500", "135356.962500", "135357.422500", "135357.882500", "135358.342500", "135358.802500", "135359.262500", "135359.722500", "135400.182500", "135400.642500", "135401.102500", "135401.562500", "135402.022500", "135402.482500", "135402.942500", "135403.402500", "135403.862500", "135404.322500", "135404.782500", "135405.242500", "135405.702500", "135406.162500", "135406.622500", "135407.082500", "135407.542500", "135408.002500", "135408.462500", "135408.922500", "135409.382500", "135409.842500", "135410.302500", "135410.762500", "135411.222500", "135411.682500", "135412.142500", "135412.602500", "135413.062500", "135413.522500", "135413.982500", "135414.442500", "135414.902500", "135415.362500", "135415.822500", "135416.282500", "135416.742500", "135417.202500", "135417.662500", "135418.122500", "135418.582500", "135419.042500", "135419.502500", "135419.962500", "135420.422500", "135420.882500", "135421.342500", "135421.802500", "135422.262500", "135422.722500", "135423.182500", "135423.642500", "135424.102500", "135424.562500", "135425.022500", "135425.482500", "135425.942500", "135426.402500", "135426.862500", "135427.322500", "135427.782500", "135428.242500", "135428.702500", "135429.162500", "135429.622500", "135430.082500", "135430.542500", "135431.002500", "135431.462500", "135431.922500", "135432.382500", "135432.842500", "135433.302500", "135433.762500", "135434.222500", "135434.682500", "135435.142500", "135435.602500", "135436.062500", "135436.522500", "135436.982500", "135437.442500", "135437.902500", "135438.362500", "135438.822500", "135439.282500", "135439.742500", "135440.202500", "135440.662500", "135441.122500", "135441.582500", "135442.042500", "135442.502500", "135442.962500", "135443.422500", "135443.882500", "135444.342500", "135444.802500", "135445.262500", "135445.722500", "135446.182500", "135446.642500", "135447.102500", "135447.562500", "135448.022500", "135448.482500", "135448.942500", "135449.402500", "135449.862500", "135450.322500", "135450.782500", "135451.242500", "135451.702500", "135452.162500", "135452.622500", "135453.082500", "135453.542500", "135454.002500", "135454.462500", "135454.922500", "135455.382500", "135455.842500", "135456.302500", "135456.762500", "135457.222500", "135457.682500", "135458.142500", "135458.602500", "135459.062500", "135459.522500", "135459.982500", "135500.442500", "135500.902500", "135501.362500", "135501.822500", "135502.282500", "135502.742500", "135503.202500", "135503.662500", "135504.122500", "135504.582500", "135505.042500", "135505.502500", "135505.962500", "135506.422500", "135506.882500", "135507.342500", "135507.802500", "135508.262500", "135508.722500", "135509.182500", "135509.642500", "135510.102500", "135510.562500", "135511.022500", "135511.482500", "135511.942500", "135512.402500", "135512.862500", "135513.322500", "135513.782500", "135514.242500", "135514.702500", "135515.162500", "135515.622500", "135516.082500", "135516.542500", "135517.002500", "135517.462500", "135517.922500", "135518.382500", "135518.842500", "135519.302500", "135519.762500", "135520.222500", "135520.682500", "135521.142500", "135521.602500", "135522.062500", "135522.522500", "135522.982500", "135523.442500", "135523.902500", "135524.362500", "135524.822500", "135525.282500", "135525.742500", "135526.202500", "135526.662500", "135527.122500", "135527.582500", "135528.042500", "135528.502500", "135528.962500", "135529.422500", "135529.882500", "135530.342500", "135530.802500", "135531.262500", "135531.722500", "135532.182500", "135532.642500", "135533.102500", "135533.562500", "135534.022500", "135534.482500", "135534.942500", "135535.402500", "135535.862500", "135536.322500", "135536.782500", "135537.242500", "135537.702500", "135538.162500", "135538.622500", "135539.082500", "135539.542500", "135540.002500", "135540.462500", "135540.922500", "135541.382500", "135541.842500", "135542.302500", "135542.762500", "135543.222500", "135543.682500", "135544.142500", "135544.602500", "135545.062500", "135545.522500", "135545.982500", "135546.442500", "135546.902500", "135547.362500", "135547.822500", "135548.282500", "135548.742500", "135549.202500", "135549.662500", "135550.122500", "135550.582500", "135551.042500", "135551.502500", "135551.962500", "135552.422500", "135552.882500", "135553.342500", "135553.802500", "135554.262500", "135554.722500", "135555.182500", "135555.642500", "135556.102500", "135556.562500", "135557.022500", "135557.482500", "135557.942500", "135558.402500", "135558.862500", "135559.322500", "135559.782500", "135600.242500", "135600.702500", "135601.162500", "135601.622500", "135602.082500", "135602.542500", "135603.002500", "135603.462500", "135603.922500", "135604.382500", "135604.842500", "135605.302500", "135605.762500", "135606.222500", "135606.682500", "135607.142500", "135607.602500", "135608.062500", "135608.522500", "135608.982500", "135609.442500", "135609.902500", "135610.362500", "135610.822500", "135611.282500", "135611.742500", "135612.202500", "135612.662500", "135613.122500", "135613.582500", "135614.042500", "135614.502500", "135614.962500", "135615.422500", "135615.882500", "135616.342500", "135616.802500", "135617.262500", "135617.722500", "135618.182500", "135618.642500", "135619.102500", "135619.562500", "135620.022500", "135620.482500", "135620.942500", "135621.402500", "135621.862500", "135622.322500", "135622.782500", "135623.242500", "135623.702500", "135624.162500", "135624.622500", "135625.082500", "135625.542500", "135626.002500", "135626.462500", "135626.922500", "135627.382500", "135627.842500", "135628.302500", "135628.762500", "135629.222500", "135629.682500", "135630.142500", "135630.602500", "135631.062500", "135631.522500", "135631.982500", "135632.442500", "135632.902500", "135633.362500", "135633.822500", "135634.282500", "135634.742500", "135635.202500", "135635.662500", "135636.122500", "135636.582500", "135637.042500", "135637.502500", "135637.962500", "135638.422500", "135638.882500", "135639.342500", "135639.802500", "135640.262500", "135640.722500", "135641.182500", "135641.642500", "135642.102500", "135642.562500", "135643.022500", "135643.482500", "135643.942500", "135644.402500", "135644.862500", "135645.322500", "135645.782500", "135646.242500", "135646.702500", "135647.162500", "135647.622500", "135648.082500", "135648.542500", "135649.002500", "135649.462500", "135649.922500", "135650.382500", "135650.842500", "135651.302500", "135651.762500", "135652.222500", "135652.682500", "135653.142500", "135653.602500", "135654.062500", "135654.522500", "135654.982500", "135655.442500", "135655.902500", "135656.362500", "135656.822500", "135657.282500", "135657.742500", "135658.202500", "135658.662500", "135659.122500", "135659.582500", "135700.042500", "135700.502500", "135700.962500", "135701.422500", "135701.882500", "135702.342500", "135702.802500", "135703.262500", "135703.722500", "135704.182500", "135704.642500", "135705.102500", "135705.562500", "135706.022500", "135706.482500", "135706.942500", "135707.402500", "135707.862500", "135708.322500", "135708.782500", "135709.242500", "135709.702500", "135710.162500", "135710.622500", "135711.082500", "135711.542500", "135712.002500", "135712.462500", "135712.922500", "135713.382500", "135713.842500", "135714.302500", "135714.762500", "135715.222500", "135715.682500", "135716.142500", "135716.602500", "135717.062500", "135717.522500", "135717.982500", "135718.442500"],
