{
  "AcquisitionMatrixPE": 82,
  "AcquisitionNumber": 1,
  "AcquisitionTime": "15:24:51.860000",
  "BandwidthPerPixelPhaseEncode": 24.888,
  "BaseResolution": 82,
  "BodyPartExamined": "BRAIN",
  "ConsistencyInfo": "N4_VE11E_LATEST_20181129",
  "ConversionSoftware": "dcm2niix",
  "ConversionSoftwareVersion": "v1.0.20201102",
  "DerivedVendorReportedEchoSpacing": 0.00049,
  "DeviceSerialNumber": "66112",
  "DwellTime": 2e-06,
  "EchoTime": 0.0272,
  "EchoTrainLength": 82,
  "EffectiveEchoSpacing": 0.00049,
  "FlipAngle": 44,
  "ImageComments": "Unaliased MB8/PE3",
  "ImageOrientationPatientDICOM": [0.982625, 0.173567, 0.0657492, -0.175209, 0.984327, 0.020044],
  "ImageType": [
    "ORIGINAL",
    "PRIMARY",
    "M",
    "MB",
    "ND",
    "NORM",
    "MOSAIC"
],
  "ImagingFrequency": 123.252,
  "InPlanePhaseEncodingDirectionDICOM": "COL",
  "InstitutionAddress": "Maynard 3,Hanover,NH,US,03755",
  "InstitutionName": "Dartmouth College - PBS",
  "InstitutionalDepartmentName": "Department",
  "MRAcquisitionType": "2D",
  "MagneticFieldStrength": 3,
  "Manufacturer": "Siemens",
  "ManufacturersModelName": "Prisma",
  "Modality": "MR",
  "MultibandAccelerationFactor": 8,
  "PartialFourier": 1,
  "PatientPosition": "HFS",
  "PercentPhaseFOV": 100,
  "PercentSampling": 100,
  "PhaseEncodingDirection": "j-",
  "PhaseEncodingSteps": 82,
  "PhaseResolution": 1,
  "PixelBandwidth": 3050,
  "ProcedureStepDescription": "Wager_Wager^1076_spacetop",
  "ProtocolName": "func_run-03_task-social_acq-ap-mb8",
  "PulseSequenceDetails": "%CustomerSeq%\\cmrr_mbep2d_bold",
  "ReceiveCoilActiveElements": "HEA;HEP",
  "ReceiveCoilName": "Head_32",
  "ReconMatrixPE": 82,
  "RepetitionTime": 0.46,
  "SAR": 0.0920852,
  "ScanOptions": "FS",
  "ScanningSequence": "EP",
  "SequenceName": "epfid2d1_82",
  "SequenceVariant": "SK\\SS",
  "SeriesDescription": "func_run-03_task-social_acq-ap-mb8",
  "SeriesNumber": 16,
  "ShimSetting": [4148, -7769, -7307, 654, -41, -329, -58, 52],
  "SliceThickness": 2.7,
  "SliceTiming": [0, 0.2525, 0.0625, 0.315, 0.125, 0.3775, 0.19, 0, 0.2525, 0.0625, 0.315, 0.125, 0.3775, 0.19, 0, 0.2525, 0.0625, 0.315, 0.125, 0.3775, 0.19, 0, 0.2525, 0.0625, 0.315, 0.125, 0.3775, 0.19, 0, 0.2525, 0.0625, 0.315, 0.125, 0.3775, 0.19, 0, 0.2525, 0.0625, 0.315, 0.125, 0.3775, 0.19, 0, 0.2525, 0.0625, 0.315, 0.125, 0.3775, 0.19, 0, 0.2525, 0.0625, 0.315, 0.125, 0.3775, 0.19],
  "SoftwareVersions": "syngo MR E11",
  "SpacingBetweenSlices": 2.7,
  "StationName": "AWP66112",
  "TaskName": "social",
  "TotalReadoutTime": 0.03969,
  "TxRefAmp": 242.88,
  "WipMemBlock": "402d3c83-24ec-4383-8f3e-b9650ea6eddc||Sequence: R016 ve11e/master r/434b28f1; Aug  7 2019 18:53:46 by eja",
  "dcmmeta_affine": [
    [-2.636310577392578, -0.4700731635093689, 0.16534732282161713, 125.123291015625],
    [-0.46566808223724365, 2.6408779621124268, 0.08428217470645905, -82.27832794189453],
    [0.1764003336429596, -0.05377667024731636, 2.6936140060424805, -95.20442199707031],
    [0.0, 0.0, 0.0, 1.0]
],
  "dcmmeta_reorient_transform": [
    [0.0, -1.0, 0.0, 81.0],
    [1.0, 0.0, 0.0, 0.0],
    [0.0, 0.0, 1.0, 0.0],
    [0.0, 0.0, 0.0, 1.0]
],
  "dcmmeta_shape": [82, 82, 56, 872],
  "dcmmeta_slice_dim": 2,
  "dcmmeta_version": 0.6,
  "global": {
    "const": {
      "AccessionNumber": "A003858",
      "AcquisitionMatrix": [82, 0, 0, 82],
      "AngioFlag": "N",
      "BitsAllocated": 16,
      "BitsStored": 16,
      "BodyPartExamined": "BRAIN",
      "Columns": 656,
      "EchoNumbers": 1,
      "EchoTime": 27.2,
      "EchoTrainLength": 82,
      "FlipAngle": 44.0,
      "HighBit": 15,
      "ImageOrientationPatient": [0.9826247858746, 0.17356719517126, 0.06574921250689, -0.1752090837936, 0.98432718838484, 0.02004403059729],
      "ImagePositionPatient": [-708.75747272622, -1023.2114808746, -165.62113312427],
      "ImageType": [
        "ORIGINAL",
        "PRIMARY",
        "M",
        "MB",
        "ND",
        "NORM",
        "MOSAIC"
],
      "ImagedNucleus": "1H",
      "ImagingFrequency": 123.252376,
      "InPlanePhaseEncodingDirection": "COL",
      "MRAcquisitionType": "2D",
      "MagneticFieldStrength": 3.0,
      "Manufacturer": "SIEMENS",
      "ManufacturerModelName": "Prisma",
      "Modality": "MR",
      "NumberOfAverages": 1.0,
      "NumberOfPhaseEncodingSteps": 82,
      "PercentPhaseFieldOfView": 100.0,
      "PercentSampling": 100.0,
      "PerformedProcedureStepStartTime": "143547.740000",
      "PhotometricInterpretation": "MONOCHROME2",
      "PixelBandwidth": 3050.0,
      "PixelRepresentation": 0,
      "PixelSpacing": [2.6829268932343, 2.6829268932343],
      "ProtocolName": "func_run-03_task-social_acq-ap-mb8",
      "RepetitionTime": 460.0,
      "Rows": 656,
      "SAR": 0.09208518889601,
      "SamplesPerPixel": 1,
      "ScanOptions": "FS",
      "ScanningSequence": "EP",
      "SequenceName": "epfid2d1_82",
      "SequenceVariant": [
        "SK",
        "SS"
],
      "SeriesDescription": "func_run-03_task-social_acq-ap-mb8",
      "SeriesNumber": 16,
      "SeriesTime": "152509.321000",
      "SliceLocation": -89.885100260661,
      "SliceThickness": 2.7000000476837,
      "SmallestImagePixelValue": 0,
      "SoftwareVersions": "syngo MR E11",
      "SpacingBetweenSlices": 2.699999983956,
      "SpecificCharacterSet": "ISO_IR 100",
      "StudyID": "1",
      "StudyTime": "143547.670000",
      "TransmitCoilName": "Body",
      "VariableFlipAngleFlag": "N",
      "WindowCenterWidthExplanation": "Algo1"
    },
    "slices": {}
  },
  "time": {
    "samples": {
      "AcquisitionNumber": [1, 2, 3, 4, 5, 6, 7, 8, 9, 10, 11, 12, 13, 14, 15, 16, 17, 18, 19, 20, 21, 22, 23, 24, 25, 26, 27, 28, 29, 30, 31, 32, 33, 34, 35, 36, 37, 38, 39, 40, 41, 42, 43, 44, 45, 46, 47, 48, 49, 50, 51, 52, 53, 54, 55, 56, 57, 58, 59, 60, 61, 62, 63, 64, 65, 66, 67, 68, 69, 70, 71, 72, 73, 74, 75, 76, 77, 78, 79, 80, 81, 82, 83, 84, 85, 86, 87, 88, 89, 90, 91, 92, 93, 94, 95, 96, 97, 98, 99, 100, 101, 102, 103, 104, 105, 106, 107, 108, 109, 110, 111, 112, 113, 114, 115, 116, 117, 118, 119, 120, 121, 122, 123, 124, 125, 126, 127, 128, 129, 130, 131, 132, 133, 134, 135, 136, 137, 138, 139, 140, 141, 142, 143, 144, 145, 146, 147, 148, 149, 150, 151, 152, 153, 154, 155, 156, 157, 158, 159, 160, 161, 162, 163, 164, 165, 166, 167, 168, 169, 170, 171, 172, 173, 174, 175, 176, 177, 178, 179, 180, 181, 182, 183, 184, 185, 186, 187, 188, 189, 190, 191, 192, 193, 194, 195, 196, 197, 198, 199, 200, 201, 202, 203, 204, 205, 206, 207, 208, 209, 210, 211, 212, 213, 214, 215, 216, 217, 218, 219, 220, 221, 222, 223, 224, 225, 226, 227, 228, 229, 230, 231, 232, 233, 234, 235, 236, 237, 238, 239, 240, 241, 242, 243, 244, 245, 246, 247, 248, 249, 250, 251, 252, 253, 254, 255, 256, 257, 258, 259, 260, 261, 262, 263, 264, 265, 266, 267, 268, 269, 270, 271, 272, 273, 274, 275, 276, 277, 278, 279, 280, 281, 282, 283, 284, 285, 286, 287, 288, 289, 290, 291, 292, 293, 294, 295, 296, 297, 298, 299, 300, 301, 302, 303, 304, 305, 306, 307, 308, 309, 310, 311, 312, 313, 314, 315, 316, 317, 318, 319, 320, 321, 322, 323, 324, 325, 326, 327, 328, 329, 330, 331, 332, 333, 334, 335, 336, 337, 338, 339, 340, 341, 342, 343, 344, 345, 346, 347, 348, 349, 350, 351, 352, 353, 354, 355, 356, 357, 358, 359, 360, 361, 362, 363, 364, 365, 366, 367, 368, 369, 370, 371, 372, 373, 374, 375, 376, 377, 378, 379, 380, 381, 382, 383, 384, 385, 386, 387, 388, 389, 390, 391, 392, 393, 394, 395, 396, 397, 398, 399, 400, 401, 402, 403, 404, 405, 406, 407, 408, 409, 410, 411, 412, 413, 414, 415, 416, 417, 418, 419, 420, 421, 422, 423, 424, 425, 426, 427, 428, 429, 430, 431, 432, 433, 434, 435, 436, 437, 438, 439, 440, 441, 442, 443, 444, 445, 446, 447, 448, 449, 450, 451, 452, 453, 454, 455, 456, 457, 458, 459, 460, 461, 462, 463, 464, 465, 466, 467, 468, 469, 470, 471, 472, 473, 474, 475, 476, 477, 478, 479, 480, 481, 482, 483, 484, 485, 486, 487, 488, 489, 490, 491, 492, 493, 494, 495, 496, 497, 498, 499, 500, 501, 502, 503, 504, 505, 506, 507, 508, 509, 510, 511, 512, 513, 514, 515, 516, 517, 518, 519, 520, 521, 522, 523, 524, 525, 526, 527, 528, 529, 530, 531, 532, 533, 534, 535, 536, 537, 538, 539, 540, 541, 542, 543, 544, 545, 546, 547, 548, 549, 550, 551, 552, 553, 554, 555, 556, 557, 558, 559, 560, 561, 562, 563, 564, 565, 566, 567, 568, 569, 570, 571, 572, 573, 574, 575, 576, 577, 578, 579, 580, 581, 582, 583, 584, 585, 586, 587, 588, 589, 590, 591, 592, 593, 594, 595, 596, 597, 598, 599, 600, 601, 602, 603, 604, 605, 606, 607, 608, 609, 610, 611, 612, 613, 614, 615, 616, 617, 618, 619, 620, 621, 622, 623, 624, 625, 626, 627, 628, 629, 630, 631, 632, 633, 634, 635, 636, 637, 638, 639, 640, 641, 642, 643, 644, 645, 646, 647, 648, 649, 650, 651, 652, 653, 654, 655, 656, 657, 658, 659, 660, 661, 662, 663, 664, 665, 666, 667, 668, 669, 670, 671, 672, 673, 674, 675, 676, 677, 678, 679, 680, 681, 682, 683, 684, 685, 686, 687, 688, 689, 690, 691, 692, 693, 694, 695, 696, 697, 698, 699, 700, 701, 702, 703, 704, 705, 706, 707, 708, 709, 710, 711, 712, 713, 714, 715, 716, 717, 718, 719, 720, 721, 722, 723, 724, 725, 726, 727, 728, 729, 730, 731, 732, 733, 734, 735, 736, 737, 738, 739, 740, 741, 742, 743, 744, 745, 746, 747, 748, 749, 750, 751, 752, 753, 754, 755, 756, 757, 758, 759, 760, 761, 762, 763, 764, 765, 766, 767, 768, 769, 770, 771, 772, 773, 774, 775, 776, 777, 778, 779, 780, 781, 782, 783, 784, 785, 786, 787, 788, 789, 790, 791, 792, 793, 794, 795, 796, 797, 798, 799, 800, 801, 802, 803, 804, 805, 806, 807, 808, 809, 810, 811, 812, 813, 814, 815, 816, 817, 818, 819, 820, 821, 822, 823, 824, 825, 826, 827, 828, 829, 830, 831, 832, 833, 834, 835, 836, 837, 838, 839, 840, 841, 842, 843, 844, 845, 846, 847, 848, 849, 850, 851, 852, 853, 854, 855, 856, 857, 858, 859, 860, 861, 862, 863, 864, 865, 866, 867, 868, 869, 870, 871, 872],
      "AcquisitionTime": ["152451.860000", "152452.320000", "152452.780000", "152453.240000", "152453.700000", "152454.160000", "152454.620000", "152455.080000", "152455.540000", "152456.000000", "152456.460000", "152456.920000", "152457.380000", "152457.840000", "152458.300000", "152458.760000", "152459.220000", "152459.680000", "152500.140000", "152500.600000", "152501.060000", "152501.520000", "152501.980000", "152502.440000", "152502.900000", "152503.360000", "152503.820000", "152504.280000", "152504.740000", "152505.200000", "152505.660000", "152506.120000", "152506.580000", "152507.040000", "152507.500000", "152507.960000", "152508.420000", "152508.880000", "152509.340000", "152509.800000", "152510.260000", "152510.720000", "152511.180000", "152511.640000", "152512.100000", "152512.560000", "152513.020000", "152513.480000", "152513.940000", "152514.400000", "152514.860000", "152515.320000", "152515.780000", "152516.240000", "152516.700000", "152517.160000", "152517.620000", "152518.080000", "152518.540000", "152519.000000", "152519.460000", "152519.920000", "152520.380000", "152520.840000", "152521.300000", "152521.760000", "152522.220000", "152522.680000", "152523.140000", "152523.600000", "152524.060000", "152524.520000", "152524.980000", "152525.440000", "152525.900000", "152526.360000", "152526.820000", "152527.280000", "152527.740000", "152528.200000", "152528.660000", "152529.120000", "152529.580000", "152530.040000", "152530.500000", "152530.960000", "152531.420000", "152531.880000", "152532.340000", "152532.800000", "152533.260000", "152533.720000", "152534.180000", "152534.640000", "152535.100000", "152535.560000", "152536.020000", "152536.480000", "152536.940000", "152537.400000", "152537.860000", "152538.320000", "152538.780000", "152539.240000", "152539.700000", "152540.160000", "152540.620000", "152541.080000", "152541.540000", "152542.000000", "152542.460000", "152542.920000", "152543.380000", "152543.840000", "152544.300000", "152544.760000", "152545.220000", "152545.680000", "152546.140000", "152546.600000", "152547.060000", "152547.520000", "152547.980000", "152548.440000", "152548.900000", "152549.360000", "152549.820000", "152550.280000", "152550.740000", "152551.200000", "152551.660000", "152552.120000", "152552.580000", "152553.040000", "152553.500000", "152553.960000", "152554.420000", "152554.880000", "152555.340000", "152555.800000", "152556.260000", "152556.720000", "152557.180000", "152557.640000", "152558.100000", "152558.560000", "152559.020000", "152559.480000", "152559.940000", "152600.400000", "152600.860000", "152601.320000", "152601.780000", "152602.240000", "152602.700000", "152603.160000", "152603.620000", "152604.080000", "152604.540000", "152605.000000", "152605.460000", "152605.920000", "152606.380000", "152606.840000", "152607.300000", "152607.760000", "152608.220000", "152608.680000", "152609.140000", "152609.600000", "152610.060000", "152610.520000", "152610.980000", "152611.440000", "152611.900000", "152612.360000", "152612.820000", "152613.280000", "152613.740000", "152614.200000", "152614.660000", "152615.120000", "152615.580000", "152616.040000", "152616.500000", "152616.960000", "152617.420000", "152617.880000", "152618.340000", "152618.800000", "152619.260000", "152619.720000", "152620.180000", "152620.640000", "152621.100000", "152621.560000", "152622.020000", "152622.480000", "152622.940000", "152623.400000", "152623.860000", "152624.320000", "152624.780000", "152625.240000", "152625.700000", "152626.160000", "152626.620000", "152627.080000", "152627.540000", "152628.000000", "152628.460000", "152628.920000", "152629.380000", "152629.840000", "152630.300000", "152630.760000", "152631.220000", "152631.680000", "152632.140000", "152632.600000", "152633.060000", "152633.520000", "152633.980000", "152634.440000", "152634.900000", "152635.360000", "152635.820000", "152636.280000", "152636.740000", "152637.200000", "152637.660000", "152638.120000", "152638.580000", "152639.040000", "152639.500000", "152639.960000", "152640.420000", "152640.880000", "152641.340000", "152641.800000", "152642.260000", "152642.720000", "152643.180000", "152643.640000", "152644.100000", "152644.560000", "152645.020000", "152645.480000", "152645.940000", "152646.400000", "152646.860000", "152647.320000", "152647.780000", "152648.240000", "152648.700000", "152649.160000", "152649.620000", "152650.080000", "152650.540000", "152651.000000", "152651.460000", "152651.920000", "152652.380000", "152652.840000", "152653.300000", "152653.760000", "152654.220000", "152654.680000", "152655.140000", "152655.600000", "152656.060000", "152656.520000", "152656.980000", "152657.440000", "152657.900000", "152658.360000", "152658.820000", "152659.280000", "152659.740000", "152700.200000", "152700.660000", "152701.120000", "152701.580000", "152702.040000", "152702.500000", "152702.960000", "152703.420000", "152703.880000", "152704.340000", "152704.800000", "152705.260000", "152705.720000", "152706.180000", "152706.640000", "152707.100000", "152707.560000", "152708.020000", "152708.480000", "152708.940000", "152709.400000", "152709.860000", "152710.320000", "152710.780000", "152711.240000", "152711.700000", "152712.160000", "152712.620000", "152713.080000", "152713.540000", "152714.000000", "152714.460000", "152714.920000", "152715.380000", "152715.840000", "152716.300000", "152716.760000", "152717.220000", "152717.680000", "152718.140000", "152718.600000", "152719.060000", "152719.520000", "152719.980000", "152720.440000", "152720.900000", "152721.360000", "152721.820000", "152722.280000", "152722.740000", "152723.200000", "152723.660000", "152724.120000", "152724.580000", "152725.040000", "152725.500000", "152725.960000", "152726.420000", "152726.880000", "152727.340000", "152727.800000", "152728.260000", "152728.720000", "152729.180000", "152729.640000", "152730.100000", "152730.560000", "152731.020000", "152731.480000", "152731.940000", "152732.400000", "152732.860000", "152733.320000", "152733.780000", "152734.240000", "152734.700000", "152735.160000", "152735.620000", "152736.080000", "152736.540000", "152737.000000", "152737.460000", "152737.920000", "152738.380000", "152738.840000", "152739.300000", "152739.760000", "152740.220000", "152740.680000", "152741.140000", "152741.600000", "152742.060000", "152742.520000", "152742.980000", "152743.440000", "152743.900000", "152744.360000", "152744.820000", "152745.280000", "152745.740000", "152746.200000", "152746.660000", "152747.120000", "152747.580000", "152748.040000", "152748.500000", "152748.960000", "152749.420000", "152749.880000", "152750.340000", "152750.800000", "152751.260000", "152751.720000", "152752.180000", "152752.640000", "152753.100000", "152753.560000", "152754.020000", "152754.480000", "152754.940000", "152755.400000", "152755.860000", "152756.320000", "152756.780000", "152757.240000", "152757.700000", "152758.160000", "152758.620000", "152759.080000", "152759.540000", "152800.000000", "152800.460000", "152800.920000", "152801.380000", "152801.840000", "152802.300000", "152802.760000", "152803.220000", "152803.680000", "152804.140000", "152804.600000", "152805.060000", "152805.520000", "152805.980000", "152806.440000", "152806.900000", "152807.360000", "152807.820000", "152808.280000", "152808.740000", "152809.200000", "152809.660000", "152810.120000", "152810.580000", "152811.040000", "152811.500000", "152811.960000", "152812.420000", "152812.880000", "152813.340000", "152813.800000", "152814.260000", "152814.720000", "152815.180000", "152815.640000", "152816.100000", "152816.560000", "152817.020000", "152817.480000", "152817.940000", "152818.400000", "152818.860000", "152819.320000", "152819.780000", "152820.240000", "152820.700000", "152821.160000", "152821.620000", "152822.080000", "152822.540000", "152823.000000", "152823.460000", "152823.920000", "152824.380000", "152824.840000", "152825.300000", "152825.760000", "152826.220000", "152826.680000", "152827.140000", "152827.600000", "152828.060000", "152828.520000", "152828.980000", "152829.440000", "152829.900000", "152830.360000", "152830.820000", "152831.280000", "152831.740000", "152832.200000", "152832.660000", "152833.120000", "152833.580000", "152834.040000", "152834.500000", "152834.960000", "152835.420000", "152835.880000", "152836.340000", "152836.800000", "152837.260000", "152837.720000", "152838.180000", "152838.640000", "152839.100000", "152839.560000", "152840.020000", "152840.480000", "152840.940000", "152841.400000", "152841.860000", "152842.320000", "152842.780000", "152843.240000", "152843.700000", "152844.160000", "152844.620000", "152845.080000", "152845.540000", "152846.000000", "152846.460000", "152846.920000", "152847.380000", "152847.840000", "152848.300000", "152848.760000", "152849.220000", "152849.680000", "152850.140000", "152850.600000", "152851.060000", "152851.520000", "152851.980000", "152852.440000", "152852.900000", "152853.360000", "152853.820000", "152854.280000", "152854.740000", "152855.200000", "152855.660000", "152856.120000", "152856.580000", "152857.040000", "152857.500000", "152857.960000", "152858.420000", "152858.880000", "152859.340000", "152859.800000", "152900.260000", "152900.720000", "152901.180000", "152901.640000", "152902.100000", "152902.560000", "152903.020000", "152903.480000", "152903.940000", "152904.400000", "152904.860000", "152905.320000", "152905.780000", "152906.240000", "152906.700000", "152907.160000", "152907.620000", "152908.080000", "152908.540000", "152909.000000", "152909.460000", "152909.920000", "152910.380000", "152910.840000", "152911.300000", "152911.760000", "152912.220000", "152912.680000", "152913.140000", "152913.600000", "152914.060000", "152914.520000", "152914.980000", "152915.440000", "152915.900000", "152916.360000", "152916.820000", "152917.280000", "152917.740000", "152918.200000", "152918.660000", "152919.120000", "152919.580000", "152920.040000", "152920.500000", "152920.960000", "152921.420000", "152921.880000", "152922.340000", "152922.800000", "152923.260000", "152923.720000", "152924.180000", "152924.640000", "152925.100000", "152925.560000", "152926.020000", "152926.480000", "152926.940000", "152927.400000", "152927.860000", "152928.320000", "152928.780000", "152929.240000", "152929.700000", "152930.160000", "152930.620000", "152931.080000", "152931.540000", "152932.000000", "152932.460000", "152932.920000", "152933.380000", "152933.840000", "152934.300000", "152934.760000", "152935.220000", "152935.680000", "152936.140000", "152936.600000", "152937.060000", "152937.520000", "152937.980000", "152938.440000", "152938.900000", "152939.360000", "152939.820000", "152940.280000", "152940.740000", "152941.200000", "152941.660000", "152942.120000", "152942.580000", "152943.040000", "152943.500000", "152943.960000", "152944.420000", "152944.880000", "152945.340000", "152945.800000", "152946.260000", "152946.720000", "152947.180000", "152947.640000", "152948.100000", "152948.560000", "152949.020000", "152949.480000", "152949.940000", "152950.400000", "152950.860000", "152951.320000", "152951.780000", "152952.240000", "152952.700000", "152953.160000", "152953.620000", "152954.080000", "152954.540000", "152955.000000", "152955.460000", "152955.920000", "152956.380000", "152956.840000", "152957.300000", "152957.760000", "152958.220000", "152958.680000", "152959.140000", "152959.600000", "153000.060000", "153000.520000", "153000.980000", "153001.440000", "153001.900000", "153002.360000", "153002.820000", "153003.280000", "153003.740000", "153004.200000", "153004.660000", "153005.120000", "153005.580000", "153006.040000", "153006.500000", "153006.960000", "153007.420000", "153007.880000", "153008.340000", "153008.800000", "153009.260000", "153009.720000", "153010.180000", "153010.640000", "153011.100000", "153011.560000", "153012.020000", "153012.480000", "153012.940000", "153013.400000", "153013.860000", "153014.320000", "153014.780000", "153015.240000", "153015.700000", "153016.160000", "153016.620000", "153017.080000", "153017.540000", "153018.000000", "153018.460000", "153018.920000", "153019.380000", "153019.840000", "153020.300000", "153020.760000", "153021.220000", "153021.680000", "153022.140000", "153022.600000", "153023.060000", "153023.520000", "153023.980000", "153024.440000", "153024.900000", "153025.360000", "153025.820000", "153026.280000", "153026.740000", "153027.200000", "153027.660000", "153028.120000", "153028.580000", "153029.040000", "153029.500000", "153029.960000", "153030.420000", "153030.880000", "153031.340000", "153031.800000", "153032.260000", "153032.720000", "153033.180000", "153033.640000", "153034.100000", "153034.560000", "153035.020000", "153035.480000", "153035.940000", "153036.400000", "153036.860000", "153037.320000", "153037.780000", "153038.240000", "153038.700000", "153039.160000", "153039.620000", "153040.080000", "153040.540000", "153041.000000", "153041.460000", "153041.920000", "153042.380000", "153042.840000", "153043.300000", "153043.760000", "153044.220000", "153044.680000", "153045.140000", "153045.600000", "153046.060000", "153046.520000", "153046.980000", "153047.440000", "153047.900000", "153048.360000", "153048.820000", "153049.280000", "153049.740000", "153050.200000", "153050.660000", "153051.120000", "153051.580000", "153052.040000", "153052.500000", "153052.960000", "153053.420000", "153053.880000", "153054.340000", "153054.800000", "153055.260000", "153055.720000", "153056.180000", "153056.640000", "153057.100000", "153057.560000", "153058.020000", "153058.480000", "153058.940000", "153059.400000", "153059.860000", "153100.320000", "153100.780000", "153101.240000", "153101.700000", "153102.160000", "153102.620000", "153103.080000", "153103.540000", "153104.000000", "153104.460000", "153104.920000", "153105.380000", "153105.840000", "153106.300000", "153106.760000", "153107.220000", "153107.680000", "153108.140000", "153108.600000", "153109.060000", "153109.520000", "153109.980000", "153110.440000", "153110.900000", "153111.360000", "153111.820000", "153112.280000", "153112.740000", "153113.200000", "153113.660000", "153114.120000", "153114.580000", "153115.040000", "153115.500000", "153115.960000", "153116.420000", "153116.880000", "153117.340000", "153117.800000", "153118.260000", "153118.720000", "153119.180000", "153119.640000", "153120.100000", "153120.560000", "153121.020000", "153121.480000", "153121.940000", "153122.400000", "153122.860000", "153123.320000", "153123.780000", "153124.240000", "153124.700000", "153125.160000", "153125.620000", "153126.080000", "153126.540000", "153127.000000", "153127.460000", "153127.920000", "153128.380000", "153128.840000", "153129.300000", "153129.760000", "153130.220000", "153130.680000", "153131.140000", "153131.600000", "153132.060000", "153132.520000"],
