{
  "AcquisitionMatrixPE": 82,
  "AcquisitionNumber": 1,
  "AcquisitionTime": "15:03:56.345000",
  "BandwidthPerPixelPhaseEncode": 24.888,
  "BaseResolution": 82,
  "BodyPartExamined": "BRAIN",
  "ConsistencyInfo": "N4_VE11E_LATEST_20181129",
  "ConversionSoftware": "dcm2niix",
  "ConversionSoftwareVersion": "v1.0.20201102",
  "DerivedVendorReportedEchoSpacing": 0.00049,
  "DeviceSerialNumber": "66112",
  "DwellTime": 2e-06,
  "EchoTime": 0.0272,
  "EchoTrainLength": 82,
  "EffectiveEchoSpacing": 0.00049,
  "FlipAngle": 44,
  "ImageComments": "Unaliased MB8/PE3",
  "ImageOrientationPatientDICOM": [0.998802, -0.0404876, 0.0274951, 0.0418621, 0.9978, -0.0514066],
  "ImageType": [
    "ORIGINAL",
    "PRIMARY",
    "M",
    "MB",
    "ND",
    "NORM",
    "MOSAIC"
],
  "ImagingFrequency": 123.252,
  "InPlanePhaseEncodingDirectionDICOM": "COL",
  "InstitutionAddress": "Maynard 3,Hanover,NH,US,03755",
  "InstitutionName": "Dartmouth College - PBS",
  "InstitutionalDepartmentName": "Department",
  "MRAcquisitionType": "2D",
  "MagneticFieldStrength": 3,
  "Manufacturer": "Siemens",
  "ManufacturersModelName": "Prisma",
  "Modality": "MR",
  "MultibandAccelerationFactor": 8,
  "PartialFourier": 1,
  "PatientPosition": "HFS",
  "PercentPhaseFOV": 100,
  "PercentSampling": 100,
  "PhaseEncodingDirection": "j-",
  "PhaseEncodingSteps": 82,
  "PhaseResolution": 1,
  "PixelBandwidth": 3050,
  "ProcedureStepDescription": "Wager_Wager^1076_spacetop",
  "ProtocolName": "func_run-02_task-social_acq-ap-mb8",
  "PulseSequenceDetails": "%CustomerSeq%\\cmrr_mbep2d_bold",
  "ReceiveCoilActiveElements": "HEA;HEP",
  "ReceiveCoilName": "Head_32",
  "ReconMatrixPE": 82,
  "RepetitionTime": 0.46,
  "SAR": 0.0941023,
  "ScanOptions": "FS",
  "ScanningSequence": "EP",
  "SequenceName": "epfid2d1_82",
  "SequenceVariant": "SK\\SS",
  "SeriesDescription": "func_run-02_task-social_acq-ap-mb8",
  "SeriesNumber": 14,
  "ShimSetting": [4138, -7787, -7217, 597, -56, -215, 106, 62],
  "SliceThickness": 2.7,
  "SliceTiming": [0, 0.2525, 0.065, 0.315, 0.1275, 0.3775, 0.19, 0, 0.2525, 0.065, 0.315, 0.1275, 0.3775, 0.19, 0, 0.2525, 0.065, 0.315, 0.1275, 0.3775, 0.19, 0, 0.2525, 0.065, 0.315, 0.1275, 0.3775, 0.19, 0, 0.2525, 0.065, 0.315, 0.1275, 0.3775, 0.19, 0, 0.2525, 0.065, 0.315, 0.1275, 0.3775, 0.19, 0, 0.2525, 0.065, 0.315, 0.1275, 0.3775, 0.19, 0, 0.2525, 0.065, 0.315, 0.1275, 0.3775, 0.19],
  "SoftwareVersions": "syngo MR E11",
  "SpacingBetweenSlices": 2.7,
  "StationName": "AWP66112",
  "TaskName": "social",
  "TotalReadoutTime": 0.03969,
  "TxRefAmp": 245.156,
  "WipMemBlock": "1918d6b8-3ce0-4efe-bd6b-530aa93b2dc7||Sequence: R016 ve11e/master r/434b28f1; Aug  7 2019 18:53:46 by eja",
  "dcmmeta_affine": [
    [-2.6797118186950684, 0.11231308430433273, 0.06845373660326004, 107.03810119628906],
    [0.10862534493207932, 2.6770246028900146, -0.1417391449213028, -100.09868621826172],
    [0.07376722246408463, 0.1379200965166092, 2.6954078674316406, -71.52958679199219],
    [0.0, 0.0, 0.0, 1.0]
],
  "dcmmeta_reorient_transform": [
    [0.0, -1.0, 0.0, 81.0],
    [1.0, 0.0, 0.0, 0.0],
    [0.0, 0.0, 1.0, 0.0],
    [0.0, 0.0, 0.0, 1.0]
],
  "dcmmeta_shape": [82, 82, 56, 872],
  "dcmmeta_slice_dim": 2,
  "dcmmeta_version": 0.6,
  "global": {
    "const": {
      "AccessionNumber": "A003869",
      "AcquisitionMatrix": [82, 0, 0, 82],
      "AngioFlag": "N",
      "BitsAllocated": 16,
      "BitsStored": 16,
      "BodyPartExamined": "BRAIN",
      "Columns": 656,
      "EchoNumbers": 1,
      "EchoTime": 27.2,
      "EchoTrainLength": 82,
      "FlipAngle": 44.0,
      "HighBit": 15,
      "ImageOrientationPatient": [0.99880166897536, -0.040487627716, 0.02749505508194, 0.04186214806184, 0.99780004221742, -0.0514065784756],
      "ImagePositionPatient": [-917.44661743124, -853.87088082059, -41.946185938266],
      "ImageType": [
        "ORIGINAL",
        "PRIMARY",
        "M",
        "MB",
        "ND",
        "NORM",
        "MOSAIC"
],
      "ImagedNucleus": "1H",
      "ImagingFrequency": 123.252166,
      "InPlanePhaseEncodingDirection": "COL",
      "MRAcquisitionType": "2D",
      "MagneticFieldStrength": 3.0,
      "Manufacturer": "SIEMENS",
      "ManufacturerModelName": "Prisma",
      "Modality": "MR",
      "NumberOfAverages": 1.0,
      "NumberOfPhaseEncodingSteps": 82,
      "PercentPhaseFieldOfView": 100.0,
      "PercentSampling": 100.0,
      "PerformedProcedureStepStartTime": "141944.516000",
      "PhotometricInterpretation": "MONOCHROME2",
      "PixelBandwidth": 3050.0,
      "PixelRepresentation": 0,
      "PixelSpacing": [2.6829268932343, 2.6829268932343],
      "ProtocolName": "func_run-02_task-social_acq-ap-mb8",
      "RepetitionTime": 460.0,
      "Rows": 656,
      "SAR": 0.09410231944898,
      "SamplesPerPixel": 1,
      "ScanOptions": "FS",
      "ScanningSequence": "EP",
      "SequenceName": "epfid2d1_82",
      "SequenceVariant": [
        "SK",
        "SS"
],
      "SeriesDescription": "func_run-02_task-social_acq-ap-mb8",
      "SeriesNumber": 14,
      "SeriesTime": "150401.723000",
      "SliceLocation": -63.439391910662,
      "SliceThickness": 2.7000000476837,
      "SmallestImagePixelValue": 0,
      "SoftwareVersions": "syngo MR E11",
      "SpacingBetweenSlices": 2.6999999713667,
      "SpecificCharacterSet": "ISO_IR 100",
      "StudyID": "1",
      "StudyTime": "141944.459000",
      "TransmitCoilName": "Body",
      "VariableFlipAngleFlag": "N",
      "WindowCenterWidthExplanation": "Algo1"
    },
    "slices": {}
  },
  "time": {
    "samples": {
      "AcquisitionNumber": [1, 2, 3, 4, 5, 6, 7, 8, 9, 10, 11, 12, 13, 14, 15, 16, 17, 18, 19, 20, 21, 22, 23, 24, 25, 26, 27, 28, 29, 30, 31, 32, 33, 34, 35, 36, 37, 38, 39, 40, 41, 42, 43, 44, 45, 46, 47, 48, 49, 50, 51, 52, 53, 54, 55, 56, 57, 58, 59, 60, 61, 62, 63, 64, 65, 66, 67, 68, 69, 70, 71, 72, 73, 74, 75, 76, 77, 78, 79, 80, 81, 82, 83, 84, 85, 86, 87, 88, 89, 90, 91, 92, 93, 94, 95, 96, 97, 98, 99, 100, 101, 102, 103, 104, 105, 106, 107, 108, 109, 110, 111, 112, 113, 114, 115, 116, 117, 118, 119, 120, 121, 122, 123, 124, 125, 126, 127, 128, 129, 130, 131, 132, 133, 134, 135, 136, 137, 138, 139, 140, 141, 142, 143, 144, 145, 146, 147, 148, 149, 150, 151, 152, 153, 154, 155, 156, 157, 158, 159, 160, 161, 162, 163, 164, 165, 166, 167, 168, 169, 170, 171, 172, 173, 174, 175, 176, 177, 178, 179, 180, 181, 182, 183, 184, 185, 186, 187, 188, 189, 190, 191, 192, 193, 194, 195, 196, 197, 198, 199, 200, 201, 202, 203, 204, 205, 206, 207, 208, 209, 210, 211, 212, 213, 214, 215, 216, 217, 218, 219, 220, 221, 222, 223, 224, 225, 226, 227, 228, 229, 230, 231, 232, 233, 234, 235, 236, 237, 238, 239, 240, 241, 242, 243, 244, 245, 246, 247, 248, 249, 250, 251, 252, 253, 254, 255, 256, 257, 258, 259, 260, 261, 262, 263, 264, 265, 266, 267, 268, 269, 270, 271, 272, 273, 274, 275, 276, 277, 278, 279, 280, 281, 282, 283, 284, 285, 286, 287, 288, 289, 290, 291, 292, 293, 294, 295, 296, 297, 298, 299, 300, 301, 302, 303, 304, 305, 306, 307, 308, 309, 310, 311, 312, 313, 314, 315, 316, 317, 318, 319, 320, 321, 322, 323, 324, 325, 326, 327, 328, 329, 330, 331, 332, 333, 334, 335, 336, 337, 338, 339, 340, 341, 342, 343, 344, 345, 346, 347, 348, 349, 350, 351, 352, 353, 354, 355, 356, 357, 358, 359, 360, 361, 362, 363, 364, 365, 366, 367, 368, 369, 370, 371, 372, 373, 374, 375, 376, 377, 378, 379, 380, 381, 382, 383, 384, 385, 386, 387, 388, 389, 390, 391, 392, 393, 394, 395, 396, 397, 398, 399, 400, 401, 402, 403, 404, 405, 406, 407, 408, 409, 410, 411, 412, 413, 414, 415, 416, 417, 418, 419, 420, 421, 422, 423, 424, 425, 426, 427, 428, 429, 430, 431, 432, 433, 434, 435, 436, 437, 438, 439, 440, 441, 442, 443, 444, 445, 446, 447, 448, 449, 450, 451, 452, 453, 454, 455, 456, 457, 458, 459, 460, 461, 462, 463, 464, 465, 466, 467, 468, 469, 470, 471, 472, 473, 474, 475, 476, 477, 478, 479, 480, 481, 482, 483, 484, 485, 486, 487, 488, 489, 490, 491, 492, 493, 494, 495, 496, 497, 498, 499, 500, 501, 502, 503, 504, 505, 506, 507, 508, 509, 510, 511, 512, 513, 514, 515, 516, 517, 518, 519, 520, 521, 522, 523, 524, 525, 526, 527, 528, 529, 530, 531, 532, 533, 534, 535, 536, 537, 538, 539, 540, 541, 542, 543, 544, 545, 546, 547, 548, 549, 550, 551, 552, 553, 554, 555, 556, 557, 558, 559, 560, 561, 562, 563, 564, 565, 566, 567, 568, 569, 570, 571, 572, 573, 574, 575, 576, 577, 578, 579, 580, 581, 582, 583, 584, 585, 586, 587, 588, 589, 590, 591, 592, 593, 594, 595, 596, 597, 598, 599, 600, 601, 602, 603, 604, 605, 606, 607, 608, 609, 610, 611, 612, 613, 614, 615, 616, 617, 618, 619, 620, 621, 622, 623, 624, 625, 626, 627, 628, 629, 630, 631, 632, 633, 634, 635, 636, 637, 638, 639, 640, 641, 642, 643, 644, 645, 646, 647, 648, 649, 650, 651, 652, 653, 654, 655, 656, 657, 658, 659, 660, 661, 662, 663, 664, 665, 666, 667, 668, 669, 670, 671, 672, 673, 674, 675, 676, 677, 678, 679, 680, 681, 682, 683, 684, 685, 686, 687, 688, 689, 690, 691, 692, 693, 694, 695, 696, 697, 698, 699, 700, 701, 702, 703, 704, 705, 706, 707, 708, 709, 710, 711, 712, 713, 714, 715, 716, 717, 718, 719, 720, 721, 722, 723, 724, 725, 726, 727, 728, 729, 730, 731, 732, 733, 734, 735, 736, 737, 738, 739, 740, 741, 742, 743, 744, 745, 746, 747, 748, 749, 750, 751, 752, 753, 754, 755, 756, 757, 758, 759, 760, 761, 762, 763, 764, 765, 766, 767, 768, 769, 770, 771, 772, 773, 774, 775, 776, 777, 778, 779, 780, 781, 782, 783, 784, 785, 786, 787, 788, 789, 790, 791, 792, 793, 794, 795, 796, 797, 798, 799, 800, 801, 802, 803, 804, 805, 806, 807, 808, 809, 810, 811, 812, 813, 814, 815, 816, 817, 818, 819, 820, 821, 822, 823, 824, 825, 826, 827, 828, 829, 830, 831, 832, 833, 834, 835, 836, 837, 838, 839, 840, 841, 842, 843, 844, 845, 846, 847, 848, 849, 850, 851, 852, 853, 854, 855, 856, 857, 858, 859, 860, 861, 862, 863, 864, 865, 866, 867, 868, 869, 870, 871, 872],
      "AcquisitionTime": ["150356.345000", "150356.805000", "150357.265000", "150357.725000", "150358.185000", "150358.645000", "150359.105000", "150359.565000", "150400.025000", "150400.485000", "150400.945000", "150401.405000", "150401.865000", "150402.325000", "150402.785000", "150403.245000", "150403.705000", "150404.165000", "150404.625000", "150405.085000", "150405.545000", "150406.005000", "150406.465000", "150406.925000", "150407.385000", "150407.845000", "150408.305000", "150408.765000", "150409.225000", "150409.685000", "150410.145000", "150410.605000", "150411.065000", "150411.525000", "150411.985000", "150412.445000", "150412.905000", "150413.365000", "150413.825000", "150414.285000", "150414.745000", "150415.205000", "150415.665000", "150416.125000", "150416.585000", "150417.045000", "150417.505000", "150417.965000", "150418.425000", "150418.885000", "150419.345000", "150419.805000", "150420.265000", "150420.725000", "150421.185000", "150421.645000", "150422.105000", "150422.565000", "150423.025000", "150423.485000", "150423.945000", "150424.405000", "150424.865000", "150425.325000", "150425.785000", "150426.245000", "150426.705000", "150427.165000", "150427.625000", "150428.085000", "150428.545000", "150429.005000", "150429.465000", "150429.925000", "150430.385000", "150430.845000", "150431.305000", "150431.765000", "150432.225000", "150432.685000", "150433.145000", "150433.605000", "150434.065000", "150434.525000", "150434.985000", "150435.445000", "150435.905000", "150436.365000", "150436.825000", "150437.285000", "150437.745000", "150438.205000", "150438.665000", "150439.125000", "150439.585000", "150440.045000", "150440.505000", "150440.965000", "150441.425000", "150441.885000", "150442.345000", "150442.805000", "150443.265000", "150443.725000", "150444.185000", "150444.645000", "150445.105000", "150445.565000", "150446.025000", "150446.485000", "150446.945000", "150447.405000", "150447.865000", "150448.325000", "150448.785000", "150449.245000", "150449.705000", "150450.165000", "150450.625000", "150451.085000", "150451.545000", "150452.005000", "150452.465000", "150452.925000", "150453.385000", "150453.845000", "150454.305000", "150454.765000", "150455.225000", "150455.685000", "150456.145000", "150456.605000", "150457.065000", "150457.525000", "150457.985000", "150458.445000", "150458.905000", "150459.365000", "150459.825000", "150500.285000", "150500.745000", "150501.205000", "150501.665000", "150502.125000", "150502.585000", "150503.045000", "150503.505000", "150503.965000", "150504.425000", "150504.885000", "150505.345000", "150505.805000", "150506.265000", "150506.725000", "150507.185000", "150507.645000", "150508.105000", "150508.565000", "150509.025000", "150509.485000", "150509.945000", "150510.405000", "150510.865000", "150511.325000", "150511.785000", "150512.245000", "150512.705000", "150513.165000", "150513.625000", "150514.085000", "150514.545000", "150515.005000", "150515.465000", "150515.925000", "150516.385000", "150516.845000", "150517.305000", "150517.765000", "150518.225000", "150518.685000", "150519.145000", "150519.605000", "150520.065000", "150520.525000", "150520.985000", "150521.445000", "150521.905000", "150522.365000", "150522.825000", "150523.285000", "150523.745000", "150524.205000", "150524.665000", "150525.125000", "150525.585000", "150526.045000", "150526.505000", "150526.965000", "150527.425000", "150527.885000", "150528.345000", "150528.805000", "150529.265000", "150529.725000", "150530.185000", "150530.645000", "150531.105000", "150531.565000", "150532.025000", "150532.485000", "150532.945000", "150533.405000", "150533.865000", "150534.325000", "150534.785000", "150535.245000", "150535.705000", "150536.165000", "150536.625000", "150537.085000", "150537.545000", "150538.005000", "150538.465000", "150538.925000", "150539.385000", "150539.845000", "150540.305000", "150540.765000", "150541.225000", "150541.685000", "150542.145000", "150542.605000", "150543.065000", "150543.525000", "150543.985000", "150544.445000", "150544.905000", "150545.365000", "150545.825000", "150546.285000", "150546.745000", "150547.205000", "150547.665000", "150548.125000", "150548.585000", "150549.045000", "150549.505000", "150549.965000", "150550.425000", "150550.885000", "150551.345000", "150551.805000", "150552.265000", "150552.725000", "150553.185000", "150553.645000", "150554.105000", "150554.565000", "150555.025000", "150555.485000", "150555.945000", "150556.405000", "150556.865000", "150557.325000", "150557.785000", "150558.245000", "150558.705000", "150559.165000", "150559.625000", "150600.085000", "150600.545000", "150601.005000", "150601.465000", "150601.925000", "150602.385000", "150602.845000", "150603.305000", "150603.765000", "150604.225000", "150604.685000", "150605.145000", "150605.605000", "150606.065000", "150606.525000", "150606.985000", "150607.445000", "150607.905000", "150608.365000", "150608.825000", "150609.285000", "150609.745000", "150610.205000", "150610.665000", "150611.125000", "150611.585000", "150612.045000", "150612.505000", "150612.965000", "150613.425000", "150613.885000", "150614.345000", "150614.805000", "150615.265000", "150615.725000", "150616.185000", "150616.645000", "150617.105000", "150617.565000", "150618.025000", "150618.485000", "150618.945000", "150619.405000", "150619.865000", "150620.325000", "150620.785000", "150621.245000", "150621.705000", "150622.165000", "150622.625000", "150623.085000", "150623.545000", "150624.005000", "150624.465000", "150624.925000", "150625.385000", "150625.845000", "150626.305000", "150626.765000", "150627.225000", "150627.685000", "150628.145000", "150628.605000", "150629.065000", "150629.525000", "150629.985000", "150630.445000", "150630.905000", "150631.365000", "150631.825000", "150632.285000", "150632.745000", "150633.205000", "150633.665000", "150634.125000", "150634.585000", "150635.045000", "150635.505000", "150635.965000", "150636.425000", "150636.885000", "150637.345000", "150637.805000", "150638.265000", "150638.725000", "150639.185000", "150639.645000", "150640.105000", "150640.565000", "150641.025000", "150641.485000", "150641.945000", "150642.405000", "150642.865000", "150643.325000", "150643.785000", "150644.245000", "150644.705000", "150645.165000", "150645.625000", "150646.085000", "150646.545000", "150647.005000", "150647.465000", "150647.925000", "150648.385000", "150648.845000", "150649.305000", "150649.765000", "150650.225000", "150650.685000", "150651.145000", "150651.605000", "150652.065000", "150652.525000", "150652.985000", "150653.445000", "150653.905000", "150654.365000", "150654.825000", "150655.285000", "150655.745000", "150656.205000", "150656.665000", "150657.125000", "150657.585000", "150658.045000", "150658.505000", "150658.965000", "150659.425000", "150659.885000", "150700.345000", "150700.805000", "150701.265000", "150701.725000", "150702.185000", "150702.645000", "150703.105000", "150703.565000", "150704.025000", "150704.485000", "150704.945000", "150705.405000", "150705.865000", "150706.325000", "150706.785000", "150707.245000", "150707.705000", "150708.165000", "150708.625000", "150709.085000", "150709.545000", "150710.005000", "150710.465000", "150710.925000", "150711.385000", "150711.845000", "150712.305000", "150712.765000", "150713.225000", "150713.685000", "150714.145000", "150714.605000", "150715.065000", "150715.525000", "150715.985000", "150716.445000", "150716.905000", "150717.365000", "150717.825000", "150718.285000", "150718.745000", "150719.205000", "150719.665000", "150720.125000", "150720.585000", "150721.045000", "150721.505000", "150721.965000", "150722.425000", "150722.885000", "150723.345000", "150723.805000", "150724.265000", "150724.725000", "150725.185000", "150725.645000", "150726.105000", "150726.565000", "150727.025000", "150727.485000", "150727.945000", "150728.405000", "150728.865000", "150729.325000", "150729.785000", "150730.245000", "150730.705000", "150731.165000", "150731.625000", "150732.085000", "150732.545000", "150733.005000", "150733.465000", "150733.925000", "150734.385000", "150734.845000", "150735.305000", "150735.765000", "150736.225000", "150736.685000", "150737.145000", "150737.605000", "150738.065000", "150738.525000", "150738.985000", "150739.445000", "150739.905000", "150740.365000", "150740.825000", "150741.285000", "150741.745000", "150742.205000", "150742.665000", "150743.125000", "150743.585000", "150744.045000", "150744.505000", "150744.965000", "150745.425000", "150745.885000", "150746.345000", "150746.805000", "150747.265000", "150747.725000", "150748.185000", "150748.645000", "150749.105000", "150749.565000", "150750.025000", "150750.485000", "150750.945000", "150751.405000", "150751.865000", "150752.325000", "150752.785000", "150753.245000", "150753.705000", "150754.165000", "150754.625000", "150755.085000", "150755.545000", "150756.005000", "150756.465000", "150756.925000", "150757.385000", "150757.845000", "150758.305000", "150758.765000", "150759.225000", "150759.685000", "150800.145000", "150800.605000", "150801.065000", "150801.525000", "150801.985000", "150802.445000", "150802.905000", "150803.365000", "150803.825000", "150804.285000", "150804.745000", "150805.205000", "150805.665000", "150806.125000", "150806.585000", "150807.045000", "150807.505000", "150807.965000", "150808.425000", "150808.885000", "150809.345000", "150809.805000", "150810.265000", "150810.725000", "150811.185000", "150811.645000", "150812.105000", "150812.565000", "150813.025000", "150813.485000", "150813.945000", "150814.405000", "150814.865000", "150815.325000", "150815.785000", "150816.245000", "150816.705000", "150817.165000", "150817.625000", "150818.085000", "150818.545000", "150819.005000", "150819.465000", "150819.925000", "150820.385000", "150820.845000", "150821.305000", "150821.765000", "150822.225000", "150822.685000", "150823.145000", "150823.605000", "150824.065000", "150824.525000", "150824.985000", "150825.445000", "150825.905000", "150826.365000", "150826.825000", "150827.285000", "150827.745000", "150828.205000", "150828.665000", "150829.125000", "150829.585000", "150830.045000", "150830.505000", "150830.965000", "150831.425000", "150831.885000", "150832.345000", "150832.805000", "150833.265000", "150833.725000", "150834.185000", "150834.645000", "150835.105000", "150835.565000", "150836.025000", "150836.485000", "150836.945000", "150837.405000", "150837.865000", "150838.325000", "150838.785000", "150839.245000", "150839.705000", "150840.165000", "150840.625000", "150841.085000", "150841.545000", "150842.005000", "150842.465000", "150842.925000", "150843.385000", "150843.845000", "150844.305000", "150844.765000", "150845.225000", "150845.685000", "150846.145000", "150846.605000", "150847.065000", "150847.525000", "150847.985000", "150848.445000", "150848.905000", "150849.365000", "150849.825000", "150850.285000", "150850.745000", "150851.205000", "150851.665000", "150852.125000", "150852.585000", "150853.045000", "150853.505000", "150853.965000", "150854.425000", "150854.885000", "150855.345000", "150855.805000", "150856.265000", "150856.725000", "150857.185000", "150857.645000", "150858.105000", "150858.565000", "150859.025000", "150859.485000", "150859.945000", "150900.405000", "150900.865000", "150901.325000", "150901.785000", "150902.245000", "150902.705000", "150903.165000", "150903.625000", "150904.085000", "150904.545000", "150905.005000", "150905.465000", "150905.925000", "150906.385000", "150906.845000", "150907.305000", "150907.765000", "150908.225000", "150908.685000", "150909.145000", "150909.605000", "150910.065000", "150910.525000", "150910.985000", "150911.445000", "150911.905000", "150912.365000", "150912.825000", "150913.285000", "150913.745000", "150914.205000", "150914.665000", "150915.125000", "150915.585000", "150916.045000", "150916.505000", "150916.965000", "150917.425000", "150917.885000", "150918.345000", "150918.805000", "150919.265000", "150919.725000", "150920.185000", "150920.645000", "150921.105000", "150921.565000", "150922.025000", "150922.485000", "150922.945000", "150923.405000", "150923.865000", "150924.325000", "150924.785000", "150925.245000", "150925.705000", "150926.165000", "150926.625000", "150927.085000", "150927.545000", "150928.005000", "150928.465000", "150928.925000", "150929.385000", "150929.845000", "150930.305000", "150930.765000", "150931.225000", "150931.685000", "150932.145000", "150932.605000", "150933.065000", "150933.525000", "150933.985000", "150934.445000", "150934.905000", "150935.365000", "150935.825000", "150936.285000", "150936.745000", "150937.205000", "150937.665000", "150938.125000", "150938.585000", "150939.045000", "150939.505000", "150939.965000", "150940.425000", "150940.885000", "150941.345000", "150941.805000", "150942.265000", "150942.725000", "150943.185000", "150943.645000", "150944.105000", "150944.565000", "150945.025000", "150945.485000", "150945.945000", "150946.405000", "150946.865000", "150947.325000", "150947.785000", "150948.245000", "150948.705000", "150949.165000", "150949.625000", "150950.085000", "150950.545000", "150951.005000", "150951.465000", "150951.925000", "150952.385000", "150952.845000", "150953.305000", "150953.765000", "150954.225000", "150954.685000", "150955.145000", "150955.605000", "150956.065000", "150956.525000", "150956.985000", "150957.445000", "150957.905000", "150958.365000", "150958.825000", "150959.285000", "150959.745000", "151000.205000", "151000.665000", "151001.125000", "151001.585000", "151002.045000", "151002.505000", "151002.965000", "151003.425000", "151003.885000", "151004.345000", "151004.805000", "151005.265000", "151005.725000", "151006.185000", "151006.645000", "151007.105000", "151007.565000", "151008.025000", "151008.485000", "151008.945000", "151009.405000", "151009.865000", "151010.325000", "151010.785000", "151011.245000", "151011.705000", "151012.165000", "151012.625000", "151013.085000", "151013.545000", "151014.005000", "151014.465000", "151014.925000", "151015.385000", "151015.845000", "151016.305000", "151016.765000", "151017.225000", "151017.685000", "151018.145000", "151018.605000", "151019.065000", "151019.525000", "151019.985000", "151020.445000", "151020.905000", "151021.365000", "151021.825000", "151022.285000", "151022.745000", "151023.205000", "151023.665000", "151024.125000", "151024.585000", "151025.045000", "151025.505000", "151025.965000", "151026.425000", "151026.885000", "151027.345000", "151027.805000", "151028.265000", "151028.725000", "151029.185000", "151029.645000", "151030.105000", "151030.565000", "151031.025000", "151031.485000", "151031.945000", "151032.405000", "151032.865000", "151033.325000", "151033.785000", "151034.245000", "151034.705000", "151035.165000", "151035.625000", "151036.085000", "151036.545000", "151037.005000"],
