{
  "AcquisitionMatrixPE": 82,
  "AcquisitionNumber": 1,
  "AcquisitionTime": "09:27:44.977500",
  "BandwidthPerPixelPhaseEncode": 24.888,
  "BaseResolution": 82,
  "BodyPartExamined": "BRAIN",
  "ConsistencyInfo": "N4_VE11C_LATEST_20160120",
  "ConversionSoftware": "dcm2niix",
  "ConversionSoftwareVersion": "v1.0.20201102",
  "DerivedVendorReportedEchoSpacing": 0.00049,
  "DeviceSerialNumber": "66112",
  "DwellTime": 2e-06,
  "EchoTime": 0.0272,
  "EchoTrainLength": 82,
  "EffectiveEchoSpacing": 0.00049,
  "FlipAngle": 44,
  "ImageComments": "Unaliased MB8/PE3",
  "ImageOrientationPatientDICOM": [0.998058, 0.0622678, -0.00176523, -0.0622679, 0.998059, 3.10083e-05],
  "ImageType": [
    "ORIGINAL",
    "PRIMARY",
    "M",
    "MB",
    "ND",
    "NORM",
    "MOSAIC"
],
  "ImagingFrequency": 123.252,
  "InPlanePhaseEncodingDirectionDICOM": "COL",
  "InstitutionAddress": "Maynard 3,Hanover,NH,US,03755",
  "InstitutionName": "Dartmouth College - PBS",
  "InstitutionalDepartmentName": "Department",
  "MRAcquisitionType": "2D",
  "MagneticFieldStrength": 3,
  "Manufacturer": "Siemens",
  "ManufacturersModelName": "Prisma",
  "Modality": "MR",
  "MultibandAccelerationFactor": 8,
  "PartialFourier": 1,
  "PatientPosition": "HFS",
  "PercentPhaseFOV": 100,
  "PercentSampling": 100,
  "PhaseEncodingDirection": "j-",
  "PhaseEncodingSteps": 82,
  "PhaseResolution": 1,
  "PixelBandwidth": 3050,
  "ProcedureStepDescription": "Wager_Wager^1076_spacetop",
  "ProtocolName": "func_run-03_task-social_acq-ap-mb8",
  "PulseSequenceDetails": "%CustomerSeq%\\cmrr_mbep2d_bold",
  "ReceiveCoilActiveElements": "HEA;HEP",
  "ReceiveCoilName": "Head_32",
  "ReconMatrixPE": 82,
  "RepetitionTime": 0.46,
  "SAR": 0.141833,
  "ScanOptions": "FS",
  "ScanningSequence": "EP",
  "SequenceName": "epfid2d1_82",
  "SequenceVariant": "SK\\SS",
  "SeriesDescription": "func_run-03_task-social_acq-ap-mb8",
  "SeriesNumber": 16,
  "ShimSetting": [4148, -7715, -7174, 535, -68, -41, 85, 71],
  "SliceThickness": 2.7,
  "SliceTiming": [0, 0.25, 0.0625, 0.3125, 0.125, 0.375, 0.1875, 0, 0.25, 0.0625, 0.3125, 0.125, 0.375, 0.1875, 0, 0.25, 0.0625, 0.3125, 0.125, 0.375, 0.1875, 0, 0.25, 0.0625, 0.3125, 0.125, 0.375, 0.1875, 0, 0.25, 0.0625, 0.3125, 0.125, 0.375, 0.1875, 0, 0.25, 0.0625, 0.3125, 0.125, 0.375, 0.1875, 0, 0.25, 0.0625, 0.3125, 0.125, 0.375, 0.1875, 0, 0.25, 0.0625, 0.3125, 0.125, 0.375, 0.1875],
  "SoftwareVersions": "syngo MR E11",
  "SpacingBetweenSlices": 2.7,
  "StationName": "AWP66112",
  "TaskName": "social",
  "TotalReadoutTime": 0.03969,
  "TxRefAmp": 323.927,
  "WipMemBlock": "ec5eace2-366f-498b-a254-e68e70128aef||Sequence: R016 ve11c/master r/e634e98; Dec 19 2017 11:00:25 by eja",
  "dcmmeta_affine": [
    [-2.6777164936065674, -0.16706013679504395, -0.004762074910104275, 122.21985626220703],
    [-0.1670600175857544, 2.677720546722412, -0.00021321581152733415, -74.5042724609375],
    [-0.004735972266644239, -8.319289918290451e-05, 2.699995756149292, -29.525524139404297],
    [0.0, 0.0, 0.0, 1.0]
],
  "dcmmeta_reorient_transform": [
    [0.0, -1.0, 0.0, 81.0],
    [1.0, 0.0, 0.0, 0.0],
    [0.0, 0.0, 1.0, 0.0],
    [0.0, 0.0, 0.0, 1.0]
],
  "dcmmeta_shape": [82, 82, 56, 872],
  "dcmmeta_slice_dim": 2,
  "dcmmeta_version": 0.6,
  "global": {
    "const": {
      "AccessionNumber": "A003800",
      "AcquisitionMatrix": [82, 0, 0, 82],
      "AngioFlag": "N",
      "BitsAllocated": 16,
      "BitsStored": 16,
      "BodyPartExamined": "BRAIN",
      "Columns": 656,
      "EchoNumbers": 1,
      "EchoTime": 27.2,
      "EchoTrainLength": 82,
      "FlipAngle": 44.0,
      "HighBit": 15,
      "ImageOrientationPatient": [0.99805791520355, 0.06226782376564, -0.0017652260597, -0.0622678661195, 0.99805947312143, 3.1008263e-05],
      "ImagePositionPatient": [-829.24634143331, -958.84313612802, -28.196914578171],
      "ImageType": [
        "ORIGINAL",
        "PRIMARY",
        "M",
        "MB",
        "ND",
        "NORM",
        "MOSAIC"
],
      "ImagedNucleus": "1H",
      "ImagingFrequency": 123.252119,
      "InPlanePhaseEncodingDirection": "COL",
      "MRAcquisitionType": "2D",
      "MagneticFieldStrength": 3.0,
      "Manufacturer": "SIEMENS",
      "ManufacturerModelName": "Prisma",
      "Modality": "MR",
      "NumberOfAverages": 1.0,
      "NumberOfPhaseEncodingSteps": 82,
      "PercentPhaseFieldOfView": 100.0,
      "PercentSampling": 100.0,
      "PerformedProcedureStepStartTime": "084606.338000",
      "PhotometricInterpretation": "MONOCHROME2",
      "PixelBandwidth": 3050.0,
      "PixelRepresentation": 0,
      "PixelSpacing": [2.6829268932343, 2.6829268932343],
      "ProtocolName": "func_run-03_task-social_acq-ap-mb8",
      "RepetitionTime": 460.0,
      "Rows": 656,
      "SAR": 0.14183291195766,
      "SamplesPerPixel": 1,
      "ScanOptions": "FS",
      "ScanningSequence": "EP",
      "SequenceName": "epfid2d1_82",
      "SequenceVariant": [
        "SK",
        "SS"
],
      "SeriesDescription": "func_run-03_task-social_acq-ap-mb8",
      "SeriesNumber": 16,
      "SeriesTime": "092815.147000",
      "SliceLocation": -29.735157159671,
      "SliceThickness": 2.7000000476837,
      "SmallestImagePixelValue": 0,
      "SoftwareVersions": "syngo MR E11",
      "SpacingBetweenSlices": 2.6999999770902,
      "SpecificCharacterSet": "ISO_IR 100",
      "StudyID": "1",
      "StudyTime": "084605.843000",
      "TransmitCoilName": "Body",
      "VariableFlipAngleFlag": "N",
      "WindowCenterWidthExplanation": "Algo1",
      "dBdt": 0.0},
    "slices": {}
  },
  "time": {
    "samples": {
      "AcquisitionNumber": [1, 2, 3, 4, 5, 6, 7, 8, 9, 10, 11, 12, 13, 14, 15, 16, 17, 18, 19, 20, 21, 22, 23, 24, 25, 26, 27, 28, 29, 30, 31, 32, 33, 34, 35, 36, 37, 38, 39, 40, 41, 42, 43, 44, 45, 46, 47, 48, 49, 50, 51, 52, 53, 54, 55, 56, 57, 58, 59, 60, 61, 62, 63, 64, 65, 66, 67, 68, 69, 70, 71, 72, 73, 74, 75, 76, 77, 78, 79, 80, 81, 82, 83, 84, 85, 86, 87, 88, 89, 90, 91, 92, 93, 94, 95, 96, 97, 98, 99, 100, 101, 102, 103, 104, 105, 106, 107, 108, 109, 110, 111, 112, 113, 114, 115, 116, 117, 118, 119, 120, 121, 122, 123, 124, 125, 126, 127, 128, 129, 130, 131, 132, 133, 134, 135, 136, 137, 138, 139, 140, 141, 142, 143, 144, 145, 146, 147, 148, 149, 150, 151, 152, 153, 154, 155, 156, 157, 158, 159, 160, 161, 162, 163, 164, 165, 166, 167, 168, 169, 170, 171, 172, 173, 174, 175, 176, 177, 178, 179, 180, 181, 182, 183, 184, 185, 186, 187, 188, 189, 190, 191, 192, 193, 194, 195, 196, 197, 198, 199, 200, 201, 202, 203, 204, 205, 206, 207, 208, 209, 210, 211, 212, 213, 214, 215, 216, 217, 218, 219, 220, 221, 222, 223, 224, 225, 226, 227, 228, 229, 230, 231, 232, 233, 234, 235, 236, 237, 238, 239, 240, 241, 242, 243, 244, 245, 246, 247, 248, 249, 250, 251, 252, 253, 254, 255, 256, 257, 258, 259, 260, 261, 262, 263, 264, 265, 266, 267, 268, 269, 270, 271, 272, 273, 274, 275, 276, 277, 278, 279, 280, 281, 282, 283, 284, 285, 286, 287, 288, 289, 290, 291, 292, 293, 294, 295, 296, 297, 298, 299, 300, 301, 302, 303, 304, 305, 306, 307, 308, 309, 310, 311, 312, 313, 314, 315, 316, 317, 318, 319, 320, 321, 322, 323, 324, 325, 326, 327, 328, 329, 330, 331, 332, 333, 334, 335, 336, 337, 338, 339, 340, 341, 342, 343, 344, 345, 346, 347, 348, 349, 350, 351, 352, 353, 354, 355, 356, 357, 358, 359, 360, 361, 362, 363, 364, 365, 366, 367, 368, 369, 370, 371, 372, 373, 374, 375, 376, 377, 378, 379, 380, 381, 382, 383, 384, 385, 386, 387, 388, 389, 390, 391, 392, 393, 394, 395, 396, 397, 398, 399, 400, 401, 402, 403, 404, 405, 406, 407, 408, 409, 410, 411, 412, 413, 414, 415, 416, 417, 418, 419, 420, 421, 422, 423, 424, 425, 426, 427, 428, 429, 430, 431, 432, 433, 434, 435, 436, 437, 438, 439, 440, 441, 442, 443, 444, 445, 446, 447, 448, 449, 450, 451, 452, 453, 454, 455, 456, 457, 458, 459, 460, 461, 462, 463, 464, 465, 466, 467, 468, 469, 470, 471, 472, 473, 474, 475, 476, 477, 478, 479, 480, 481, 482, 483, 484, 485, 486, 487, 488, 489, 490, 491, 492, 493, 494, 495, 496, 497, 498, 499, 500, 501, 502, 503, 504, 505, 506, 507, 508, 509, 510, 511, 512, 513, 514, 515, 516, 517, 518, 519, 520, 521, 522, 523, 524, 525, 526, 527, 528, 529, 530, 531, 532, 533, 534, 535, 536, 537, 538, 539, 540, 541, 542, 543, 544, 545, 546, 547, 548, 549, 550, 551, 552, 553, 554, 555, 556, 557, 558, 559, 560, 561, 562, 563, 564, 565, 566, 567, 568, 569, 570, 571, 572, 573, 574, 575, 576, 577, 578, 579, 580, 581, 582, 583, 584, 585, 586, 587, 588, 589, 590, 591, 592, 593, 594, 595, 596, 597, 598, 599, 600, 601, 602, 603, 604, 605, 606, 607, 608, 609, 610, 611, 612, 613, 614, 615, 616, 617, 618, 619, 620, 621, 622, 623, 624, 625, 626, 627, 628, 629, 630, 631, 632, 633, 634, 635, 636, 637, 638, 639, 640, 641, 642, 643, 644, 645, 646, 647, 648, 649, 650, 651, 652, 653, 654, 655, 656, 657, 658, 659, 660, 661, 662, 663, 664, 665, 666, 667, 668, 669, 670, 671, 672, 673, 674, 675, 676, 677, 678, 679, 680, 681, 682, 683, 684, 685, 686, 687, 688, 689, 690, 691, 692, 693, 694, 695, 696, 697, 698, 699, 700, 701, 702, 703, 704, 705, 706, 707, 708, 709, 710, 711, 712, 713, 714, 715, 716, 717, 718, 719, 720, 721, 722, 723, 724, 725, 726, 727, 728, 729, 730, 731, 732, 733, 734, 735, 736, 737, 738, 739, 740, 741, 742, 743, 744, 745, 746, 747, 748, 749, 750, 751, 752, 753, 754, 755, 756, 757, 758, 759, 760, 761, 762, 763, 764, 765, 766, 767, 768, 769, 770, 771, 772, 773, 774, 775, 776, 777, 778, 779, 780, 781, 782, 783, 784, 785, 786, 787, 788, 789, 790, 791, 792, 793, 794, 795, 796, 797, 798, 799, 800, 801, 802, 803, 804, 805, 806, 807, 808, 809, 810, 811, 812, 813, 814, 815, 816, 817, 818, 819, 820, 821, 822, 823, 824, 825, 826, 827, 828, 829, 830, 831, 832, 833, 834, 835, 836, 837, 838, 839, 840, 841, 842, 843, 844, 845, 846, 847, 848, 849, 850, 851, 852, 853, 854, 855, 856, 857, 858, 859, 860, 861, 862, 863, 864, 865, 866, 867, 868, 869, 870, 871, 872],
      "AcquisitionTime": ["092744.977500", "092745.437500", "092745.897500", "092746.357500", "092746.817500", "092747.277500", "092747.737500", "092748.197500", "092748.657500", "092749.117500", "092749.577500", "092750.037500", "092750.497500", "092750.957500", "092751.417500", "092751.877500", "092752.337500", "092752.797500", "092753.257500", "092753.717500", "092754.177500", "092754.637500", "092755.097500", "092755.557500", "092756.017500", "092756.477500", "092756.937500", "092757.397500", "092757.857500", "092758.317500", "092758.777500", "092759.237500", "092759.697500", "092800.157500", "092800.617500", "092801.077500", "092801.537500", "092801.997500", "092802.457500", "092802.917500", "092803.377500", "092803.837500", "092804.297500", "092804.757500", "092805.217500", "092805.677500", "092806.137500", "092806.597500", "092807.057500", "092807.517500", "092807.977500", "092808.437500", "092808.897500", "092809.357500", "092809.817500", "092810.277500", "092810.737500", "092811.197500", "092811.657500", "092812.117500", "092812.577500", "092813.037500", "092813.497500", "092813.957500", "092814.417500", "092814.877500", "092815.337500", "092815.797500", "092816.257500", "092816.717500", "092817.177500", "092817.637500", "092818.097500", "092818.557500", "092819.017500", "092819.477500", "092819.937500", "092820.397500", "092820.857500", "092821.317500", "092821.777500", "092822.237500", "092822.697500", "092823.157500", "092823.617500", "092824.077500", "092824.537500", "092824.997500", "092825.457500", "092825.917500", "092826.377500", "092826.837500", "092827.297500", "092827.757500", "092828.217500", "092828.677500", "092829.137500", "092829.597500", "092830.057500", "092830.517500", "092830.977500", "092831.437500", "092831.897500", "092832.357500", "092832.817500", "092833.277500", "092833.737500", "092834.197500", "092834.657500", "092835.117500", "092835.577500", "092836.037500", "092836.497500", "092836.957500", "092837.417500", "092837.877500", "092838.337500", "092838.797500", "092839.257500", "092839.717500", "092840.177500", "092840.637500", "092841.097500", "092841.557500", "092842.017500", "092842.477500", "092842.937500", "092843.397500", "092843.857500", "092844.317500", "092844.777500", "092845.237500", "092845.697500", "092846.157500", "092846.617500", "092847.077500", "092847.537500", "092847.997500", "092848.457500", "092848.917500", "092849.377500", "092849.837500", "092850.297500", "092850.757500", "092851.217500", "092851.677500", "092852.137500", "092852.597500", "092853.057500", "092853.517500", "092853.977500", "092854.437500", "092854.897500", "092855.357500", "092855.817500", "092856.277500", "092856.737500", "092857.197500", "092857.657500", "092858.117500", "092858.577500", "092859.037500", "092859.497500", "092859.957500", "092900.417500", "092900.877500", "092901.337500", "092901.797500", "092902.257500", "092902.717500", "092903.177500", "092903.637500", "092904.097500", "092904.557500", "092905.017500", "092905.477500", "092905.937500", "092906.397500", "092906.857500", "092907.317500", "092907.777500", "092908.237500", "092908.697500", "092909.157500", "092909.617500", "092910.077500", "092910.537500", "092910.997500", "092911.457500", "092911.917500", "092912.377500", "092912.837500", "092913.297500", "092913.757500", "092914.217500", "092914.677500", "092915.137500", "092915.597500", "092916.057500", "092916.517500", "092916.977500", "092917.437500", "092917.897500", "092918.357500", "092918.817500", "092919.277500", "092919.737500", "092920.197500", "092920.657500", "092921.117500", "092921.577500", "092922.037500", "092922.497500", "092922.957500", "092923.417500", "092923.877500", "092924.337500", "092924.797500", "092925.257500", "092925.717500", "092926.177500", "092926.637500", "092927.097500", "092927.557500", "092928.017500", "092928.477500", "092928.937500", "092929.397500", "092929.857500", "092930.317500", "092930.777500", "092931.237500", "092931.697500", "092932.157500", "092932.617500", "092933.077500", "092933.537500", "092933.997500", "092934.457500", "092934.917500", "092935.377500", "092935.837500", "092936.297500", "092936.757500", "092937.217500", "092937.677500", "092938.137500", "092938.597500", "092939.057500", "092939.517500", "092939.977500", "092940.437500", "092940.897500", "092941.357500", "092941.817500", "092942.277500", "092942.737500", "092943.197500", "092943.657500", "092944.117500", "092944.577500", "092945.037500", "092945.497500", "092945.957500", "092946.417500", "092946.877500", "092947.337500", "092947.797500", "092948.257500", "092948.717500", "092949.177500", "092949.637500", "092950.097500", "092950.557500", "092951.017500", "092951.477500", "092951.937500", "092952.397500", "092952.857500", "092953.317500", "092953.777500", "092954.237500", "092954.697500", "092955.157500", "092955.617500", "092956.077500", "092956.537500", "092956.997500", "092957.457500", "092957.917500", "092958.377500", "092958.837500", "092959.297500", "092959.757500", "093000.217500", "093000.677500", "093001.137500", "093001.597500", "093002.057500", "093002.517500", "093002.977500", "093003.437500", "093003.897500", "093004.357500", "093004.817500", "093005.277500", "093005.737500", "093006.197500", "093006.657500", "093007.117500", "093007.577500", "093008.037500", "093008.497500", "093008.957500", "093009.417500", "093009.877500", "093010.337500", "093010.797500", "093011.257500", "093011.717500", "093012.177500", "093012.637500", "093013.097500", "093013.557500", "093014.017500", "093014.477500", "093014.937500", "093015.397500", "093015.857500", "093016.317500", "093016.777500", "093017.237500", "093017.697500", "093018.157500", "093018.617500", "093019.077500", "093019.537500", "093019.997500", "093020.457500", "093020.917500", "093021.377500", "093021.837500", "093022.297500", "093022.757500", "093023.217500", "093023.677500", "093024.137500", "093024.597500", "093025.057500", "093025.517500", "093025.977500", "093026.437500", "093026.897500", "093027.357500", "093027.817500", "093028.277500", "093028.737500", "093029.197500", "093029.657500", "093030.117500", "093030.577500", "093031.037500", "093031.497500", "093031.957500", "093032.417500", "093032.877500", "093033.337500", "093033.797500", "093034.257500", "093034.717500", "093035.177500", "093035.637500", "093036.097500", "093036.557500", "093037.017500", "093037.477500", "093037.937500", "093038.397500", "093038.857500", "093039.317500", "093039.777500", "093040.237500", "093040.697500", "093041.157500", "093041.617500", "093042.077500", "093042.537500", "093042.997500", "093043.457500", "093043.917500", "093044.377500", "093044.837500", "093045.297500", "093045.757500", "093046.217500", "093046.677500", "093047.137500", "093047.597500", "093048.057500", "093048.517500", "093048.977500", "093049.437500", "093049.897500", "093050.357500", "093050.817500", "093051.277500", "093051.737500", "093052.197500", "093052.657500", "093053.117500", "093053.577500", "093054.037500", "093054.497500", "093054.957500", "093055.417500", "093055.877500", "093056.337500", "093056.797500", "093057.257500", "093057.717500", "093058.177500", "093058.637500", "093059.097500", "093059.557500", "093100.017500", "093100.477500", "093100.937500", "093101.397500", "093101.857500", "093102.317500", "093102.777500", "093103.237500", "093103.697500", "093104.157500", "093104.617500", "093105.077500", "093105.537500", "093105.997500", "093106.457500", "093106.917500", "093107.377500", "093107.837500", "093108.297500", "093108.757500", "093109.217500", "093109.677500", "093110.137500", "093110.597500", "093111.057500", "093111.517500", "093111.977500", "093112.437500", "093112.897500", "093113.357500", "093113.817500", "093114.277500", "093114.737500", "093115.197500", "093115.657500", "093116.117500", "093116.577500", "093117.037500", "093117.497500", "093117.957500", "093118.417500", "093118.877500", "093119.337500", "093119.797500", "093120.257500", "093120.717500", "093121.177500", "093121.637500", "093122.097500", "093122.557500", "093123.017500", "093123.477500", "093123.937500", "093124.397500", "093124.857500", "093125.317500", "093125.777500", "093126.237500", "093126.697500", "093127.157500", "093127.617500", "093128.077500", "093128.537500", "093128.997500", "093129.457500", "093129.917500", "093130.377500", "093130.837500", "093131.297500", "093131.757500", "093132.217500", "093132.677500", "093133.137500", "093133.597500", "093134.057500", "093134.517500", "093134.977500", "093135.437500", "093135.897500", "093136.357500", "093136.817500", "093137.277500", "093137.737500", "093138.197500", "093138.657500", "093139.117500", "093139.577500", "093140.037500", "093140.497500", "093140.957500", "093141.417500", "093141.877500", "093142.337500", "093142.797500", "093143.257500", "093143.717500", "093144.177500", "093144.637500", "093145.097500", "093145.557500", "093146.017500", "093146.477500", "093146.937500", "093147.397500", "093147.857500", "093148.317500", "093148.777500", "093149.237500", "093149.697500", "093150.157500", "093150.617500", "093151.077500", "093151.537500", "093151.997500", "093152.457500", "093152.917500", "093153.377500", "093153.837500", "093154.297500", "093154.757500", "093155.217500", "093155.677500", "093156.137500", "093156.597500", "093157.057500", "093157.517500", "093157.977500", "093158.437500", "093158.897500", "093159.357500", "093159.817500", "093200.277500", "093200.737500", "093201.197500", "093201.657500", "093202.117500", "093202.577500", "093203.037500", "093203.497500", "093203.957500", "093204.417500", "093204.877500", "093205.337500", "093205.797500", "093206.257500", "093206.717500", "093207.177500", "093207.637500", "093208.097500", "093208.557500", "093209.017500", "093209.477500", "093209.937500", "093210.397500", "093210.857500", "093211.317500", "093211.777500", "093212.237500", "093212.697500", "093213.157500", "093213.617500", "093214.077500", "093214.537500", "093214.997500", "093215.457500", "093215.917500", "093216.377500", "093216.837500", "093217.297500", "093217.757500", "093218.217500", "093218.677500", "093219.137500", "093219.597500", "093220.057500", "093220.517500", "093220.977500", "093221.437500", "093221.897500", "093222.357500", "093222.817500", "093223.277500", "093223.737500", "093224.197500", "093224.657500", "093225.117500", "093225.577500", "093226.037500", "093226.497500", "093226.957500", "093227.417500", "093227.877500", "093228.337500", "093228.797500", "093229.257500", "093229.717500", "093230.177500", "093230.637500", "093231.097500", "093231.557500", "093232.017500", "093232.477500", "093232.937500", "093233.397500", "093233.857500", "093234.317500", "093234.777500", "093235.237500", "093235.697500", "093236.157500", "093236.617500", "093237.077500", "093237.537500", "093237.997500", "093238.457500", "093238.917500", "093239.377500", "093239.837500", "093240.297500", "093240.757500", "093241.217500", "093241.677500", "093242.137500", "093242.597500", "093243.057500", "093243.517500", "093243.977500", "093244.437500", "093244.897500", "093245.357500", "093245.817500", "093246.277500", "093246.737500", "093247.197500", "093247.657500", "093248.117500", "093248.577500", "093249.037500", "093249.497500", "093249.957500", "093250.417500", "093250.877500", "093251.337500", "093251.797500", "093252.257500", "093252.717500", "093253.177500", "093253.637500", "093254.097500", "093254.557500", "093255.017500", "093255.477500", "093255.937500", "093256.397500", "093256.857500", "093257.317500", "093257.777500", "093258.237500", "093258.697500", "093259.157500", "093259.617500", "093300.077500", "093300.537500", "093300.997500", "093301.457500", "093301.917500", "093302.377500", "093302.837500", "093303.297500", "093303.757500", "093304.217500", "093304.677500", "093305.137500", "093305.597500", "093306.057500", "093306.517500", "093306.977500", "093307.437500", "093307.897500", "093308.357500", "093308.817500", "093309.277500", "093309.737500", "093310.197500", "093310.657500", "093311.117500", "093311.577500", "093312.037500", "093312.497500", "093312.957500", "093313.417500", "093313.877500", "093314.337500", "093314.797500", "093315.257500", "093315.717500", "093316.177500", "093316.637500", "093317.097500", "093317.557500", "093318.017500", "093318.477500", "093318.937500", "093319.397500", "093319.857500", "093320.317500", "093320.777500", "093321.237500", "093321.697500", "093322.157500", "093322.617500", "093323.077500", "093323.537500", "093323.997500", "093324.457500", "093324.917500", "093325.377500", "093325.837500", "093326.297500", "093326.757500", "093327.217500", "093327.677500", "093328.137500", "093328.597500", "093329.057500", "093329.517500", "093329.977500", "093330.437500", "093330.897500", "093331.357500", "093331.817500", "093332.277500", "093332.737500", "093333.197500", "093333.657500", "093334.117500", "093334.577500", "093335.037500", "093335.497500", "093335.957500", "093336.417500", "093336.877500", "093337.337500", "093337.797500", "093338.257500", "093338.717500", "093339.177500", "093339.637500", "093340.097500", "093340.557500", "093341.017500", "093341.477500", "093341.937500", "093342.397500", "093342.857500", "093343.317500", "093343.777500", "093344.237500", "093344.697500", "093345.157500", "093345.617500", "093346.077500", "093346.537500", "093346.997500", "093347.457500", "093347.917500", "093348.377500", "093348.837500", "093349.297500", "093349.757500", "093350.217500", "093350.677500", "093351.137500", "093351.597500", "093352.057500", "093352.517500", "093352.977500", "093353.437500", "093353.897500", "093354.357500", "093354.817500", "093355.277500", "093355.737500", "093356.197500", "093356.657500", "093357.117500", "093357.577500", "093358.037500", "093358.497500", "093358.957500", "093359.417500", "093359.877500", "093400.337500", "093400.797500", "093401.257500", "093401.717500", "093402.177500", "093402.637500", "093403.097500", "093403.557500", "093404.017500", "093404.477500", "093404.937500", "093405.397500", "093405.857500", "093406.317500", "093406.777500", "093407.237500", "093407.697500", "093408.157500", "093408.617500", "093409.077500", "093409.537500", "093409.997500", "093410.457500", "093410.917500", "093411.377500", "093411.837500", "093412.297500", "093412.757500", "093413.217500", "093413.677500", "093414.137500", "093414.597500", "093415.057500", "093415.517500", "093415.977500", "093416.437500", "093416.897500", "093417.357500", "093417.817500", "093418.277500", "093418.737500", "093419.197500", "093419.657500", "093420.117500", "093420.577500", "093421.037500", "093421.497500", "093421.957500", "093422.417500", "093422.877500", "093423.337500", "093423.797500", "093424.257500", "093424.717500", "093425.177500", "093425.637500"],
