{
  "AcquisitionMatrixPE": 82,
  "AcquisitionNumber": 1,
  "AcquisitionTime": "09:58:53.437500",
  "BandwidthPerPixelPhaseEncode": 24.888,
  "BaseResolution": 82,
  "BodyPartExamined": "BRAIN",
  "ConsistencyInfo": "N4_VE11C_LATEST_20160120",
  "ConversionSoftware": "dcm2niix",
  "ConversionSoftwareVersion": "v1.0.20201102",
  "DerivedVendorReportedEchoSpacing": 0.00049,
  "DeviceSerialNumber": "66112",
  "DwellTime": 2e-06,
  "EchoTime": 0.0272,
  "EchoTrainLength": 82,
  "EffectiveEchoSpacing": 0.00049,
  "FlipAngle": 44,
  "ImageComments": "Unaliased MB8/PE3",
  "ImageOrientationPatientDICOM": [0.999306, 0.0195616, -0.0316904, -0.0146516, 0.988825, 0.148358],
  "ImageType": [
    "ORIGINAL",
    "PRIMARY",
    "M",
    "MB",
    "ND",
    "NORM",
    "MOSAIC"
],
  "ImagingFrequency": 123.252,
  "InPlanePhaseEncodingDirectionDICOM": "COL",
  "InstitutionAddress": "Maynard 3,Hanover,NH,US,03755",
  "InstitutionName": "Dartmouth College - PBS",
  "InstitutionalDepartmentName": "Department",
  "MRAcquisitionType": "2D",
  "MagneticFieldStrength": 3,
  "Manufacturer": "Siemens",
  "ManufacturersModelName": "Prisma",
  "Modality": "MR",
  "MultibandAccelerationFactor": 8,
  "PartialFourier": 1,
  "PatientPosition": "HFS",
  "PercentPhaseFOV": 100,
  "PercentSampling": 100,
  "PhaseEncodingDirection": "j-",
  "PhaseEncodingSteps": 82,
  "PhaseResolution": 1,
  "PixelBandwidth": 3050,
  "ProcedureStepDescription": "Wager_Wager^1076_spacetop",
  "ProtocolName": "func_run-03_task-social_acq-ap-mb8",
  "PulseSequenceDetails": "%CustomerSeq%\\cmrr_mbep2d_bold",
  "ReceiveCoilActiveElements": "HEA;HEP",
  "ReceiveCoilName": "Head_32",
  "ReconMatrixPE": 82,
  "RepetitionTime": 0.46,
  "SAR": 0.0907928,
  "ScanOptions": "FS",
  "ScanningSequence": "EP",
  "SequenceName": "epfid2d1_82",
  "SequenceVariant": "SK\\SS",
  "SeriesDescription": "func_run-03_task-social_acq-ap-mb8",
  "SeriesNumber": 12,
  "ShimSetting": [4137, -7736, -7288, 618, -46, -218, 32, 105],
  "SliceThickness": 2.7,
  "SliceTiming": [0, 0.2525, 0.0625, 0.315, 0.1275, 0.3775, 0.19, 0, 0.2525, 0.0625, 0.315, 0.1275, 0.3775, 0.19, 0, 0.2525, 0.0625, 0.315, 0.1275, 0.3775, 0.19, 0, 0.2525, 0.0625, 0.315, 0.1275, 0.3775, 0.19, 0, 0.2525, 0.0625, 0.315, 0.1275, 0.3775, 0.19, 0, 0.2525, 0.0625, 0.315, 0.1275, 0.3775, 0.19, 0, 0.2525, 0.0625, 0.315, 0.1275, 0.3775, 0.19, 0, 0.2525, 0.0625, 0.315, 0.1275, 0.3775, 0.19],
  "SoftwareVersions": "syngo MR E11",
  "SpacingBetweenSlices": 2.7,
  "StationName": "AWP66112",
  "TaskName": "social",
  "TotalReadoutTime": 0.03969,
  "TxRefAmp": 227.22,
  "WipMemBlock": "977fbb4a-c379-4b03-8a2e-c75f3adf1bed||Sequence: R016 ve11c/master r/e634e98; Dec 19 2017 11:00:25 by eja",
  "dcmmeta_affine": [
    [-2.681065797805786, -0.039309289306402206, -0.09244362264871597, 117.32740783691406],
    [-0.05248233675956726, 2.6529457569122314, 0.39903488755226135, -92.03889465332031],
    [-0.08502300828695297, -0.39803346991539, 2.6687498092651367, -47.986820220947266],
    [0.0, 0.0, 0.0, 1.0]
],
  "dcmmeta_reorient_transform": [
    [0.0, -1.0, 0.0, 81.0],
    [1.0, 0.0, 0.0, 0.0],
    [0.0, 0.0, 1.0, 0.0],
    [0.0, 0.0, 0.0, 1.0]
],
  "dcmmeta_shape": [82, 82, 56, 872],
  "dcmmeta_slice_dim": 2,
  "dcmmeta_version": 0.6,
  "global": {
    "const": {
      "AccessionNumber": "A003449",
      "AcquisitionMatrix": [82, 0, 0, 82],
      "AngioFlag": "N",
      "BitsAllocated": 16,
      "BitsStored": 16,
      "BodyPartExamined": "BRAIN",
      "Columns": 656,
      "EchoNumbers": 1,
      "EchoTime": 27.2,
      "EchoTrainLength": 82,
      "FlipAngle": 44.0,
      "HighBit": 15,
      "ImageOrientationPatient": [0.99930629078401, 0.01956159782526, -0.0316903942863, -0.0146516432904, 0.98882518853771, 0.14835793157851],
      "ImagePositionPatient": [-872.32745171988, -899.30754674355, -170.06153926881],
      "ImageType": [
        "ORIGINAL",
        "PRIMARY",
        "M",
        "MB",
        "ND",
        "NORM",
        "MOSAIC"
],
      "ImagedNucleus": "1H",
      "ImagingFrequency": 123.252164,
      "InPlanePhaseEncodingDirection": "COL",
      "MRAcquisitionType": "2D",
      "MagneticFieldStrength": 3.0,
      "Manufacturer": "SIEMENS",
      "ManufacturerModelName": "Prisma",
      "Modality": "MR",
      "NumberOfAverages": 1.0,
      "NumberOfPhaseEncodingSteps": 82,
      "PercentPhaseFieldOfView": 100.0,
      "PercentSampling": 100.0,
      "PerformedProcedureStepStartTime": "085915.707000",
      "PhotometricInterpretation": "MONOCHROME2",
      "PixelBandwidth": 3050.0,
      "PixelRepresentation": 0,
      "PixelSpacing": [2.6829268932343, 2.6829268932343],
      "ProtocolName": "func_run-03_task-social_acq-ap-mb8",
      "RepetitionTime": 460.0,
      "Rows": 656,
      "SAR": 0.09079283927412,
      "SamplesPerPixel": 1,
      "ScanOptions": "FS",
      "ScanningSequence": "EP",
      "SequenceName": "epfid2d1_82",
      "SequenceVariant": [
        "SK",
        "SS"
],
      "SeriesDescription": "func_run-03_task-social_acq-ap-mb8",
      "SeriesNumber": 12,
      "SeriesTime": "095904.301000",
      "SliceLocation": -65.051007239692,
      "SliceThickness": 2.7000000476837,
      "SmallestImagePixelValue": 0,
      "SoftwareVersions": "syngo MR E11",
      "SpacingBetweenSlices": 2.6999999551048,
      "SpecificCharacterSet": "ISO_IR 100",
      "StudyID": "1",
      "StudyTime": "085915.583000",
      "TransmitCoilName": "Body",
      "VariableFlipAngleFlag": "N",
      "WindowCenterWidthExplanation": "Algo1",
      "dBdt": 0.0},
    "slices": {}
  },
  "time": {
    "samples": {
      "AcquisitionNumber": [1, 2, 3, 4, 5, 6, 7, 8, 9, 10, 11, 12, 13, 14, 15, 16, 17, 18, 19, 20, 21, 22, 23, 24, 25, 26, 27, 28, 29, 30, 31, 32, 33, 34, 35, 36, 37, 38, 39, 40, 41, 42, 43, 44, 45, 46, 47, 48, 49, 50, 51, 52, 53, 54, 55, 56, 57, 58, 59, 60, 61, 62, 63, 64, 65, 66, 67, 68, 69, 70, 71, 72, 73, 74, 75, 76, 77, 78, 79, 80, 81, 82, 83, 84, 85, 86, 87, 88, 89, 90, 91, 92, 93, 94, 95, 96, 97, 98, 99, 100, 101, 102, 103, 104, 105, 106, 107, 108, 109, 110, 111, 112, 113, 114, 115, 116, 117, 118, 119, 120, 121, 122, 123, 124, 125, 126, 127, 128, 129, 130, 131, 132, 133, 134, 135, 136, 137, 138, 139, 140, 141, 142, 143, 144, 145, 146, 147, 148, 149, 150, 151, 152, 153, 154, 155, 156, 157, 158, 159, 160, 161, 162, 163, 164, 165, 166, 167, 168, 169, 170, 171, 172, 173, 174, 175, 176, 177, 178, 179, 180, 181, 182, 183, 184, 185, 186, 187, 188, 189, 190, 191, 192, 193, 194, 195, 196, 197, 198, 199, 200, 201, 202, 203, 204, 205, 206, 207, 208, 209, 210, 211, 212, 213, 214, 215, 216, 217, 218, 219, 220, 221, 222, 223, 224, 225, 226, 227, 228, 229, 230, 231, 232, 233, 234, 235, 236, 237, 238, 239, 240, 241, 242, 243, 244, 245, 246, 247, 248, 249, 250, 251, 252, 253, 254, 255, 256, 257, 258, 259, 260, 261, 262, 263, 264, 265, 266, 267, 268, 269, 270, 271, 272, 273, 274, 275, 276, 277, 278, 279, 280, 281, 282, 283, 284, 285, 286, 287, 288, 289, 290, 291, 292, 293, 294, 295, 296, 297, 298, 299, 300, 301, 302, 303, 304, 305, 306, 307, 308, 309, 310, 311, 312, 313, 314, 315, 316, 317, 318, 319, 320, 321, 322, 323, 324, 325, 326, 327, 328, 329, 330, 331, 332, 333, 334, 335, 336, 337, 338, 339, 340, 341, 342, 343, 344, 345, 346, 347, 348, 349, 350, 351, 352, 353, 354, 355, 356, 357, 358, 359, 360, 361, 362, 363, 364, 365, 366, 367, 368, 369, 370, 371, 372, 373, 374, 375, 376, 377, 378, 379, 380, 381, 382, 383, 384, 385, 386, 387, 388, 389, 390, 391, 392, 393, 394, 395, 396, 397, 398, 399, 400, 401, 402, 403, 404, 405, 406, 407, 408, 409, 410, 411, 412, 413, 414, 415, 416, 417, 418, 419, 420, 421, 422, 423, 424, 425, 426, 427, 428, 429, 430, 431, 432, 433, 434, 435, 436, 437, 438, 439, 440, 441, 442, 443, 444, 445, 446, 447, 448, 449, 450, 451, 452, 453, 454, 455, 456, 457, 458, 459, 460, 461, 462, 463, 464, 465, 466, 467, 468, 469, 470, 471, 472, 473, 474, 475, 476, 477, 478, 479, 480, 481, 482, 483, 484, 485, 486, 487, 488, 489, 490, 491, 492, 493, 494, 495, 496, 497, 498, 499, 500, 501, 502, 503, 504, 505, 506, 507, 508, 509, 510, 511, 512, 513, 514, 515, 516, 517, 518, 519, 520, 521, 522, 523, 524, 525, 526, 527, 528, 529, 530, 531, 532, 533, 534, 535, 536, 537, 538, 539, 540, 541, 542, 543, 544, 545, 546, 547, 548, 549, 550, 551, 552, 553, 554, 555, 556, 557, 558, 559, 560, 561, 562, 563, 564, 565, 566, 567, 568, 569, 570, 571, 572, 573, 574, 575, 576, 577, 578, 579, 580, 581, 582, 583, 584, 585, 586, 587, 588, 589, 590, 591, 592, 593, 594, 595, 596, 597, 598, 599, 600, 601, 602, 603, 604, 605, 606, 607, 608, 609, 610, 611, 612, 613, 614, 615, 616, 617, 618, 619, 620, 621, 622, 623, 624, 625, 626, 627, 628, 629, 630, 631, 632, 633, 634, 635, 636, 637, 638, 639, 640, 641, 642, 643, 644, 645, 646, 647, 648, 649, 650, 651, 652, 653, 654, 655, 656, 657, 658, 659, 660, 661, 662, 663, 664, 665, 666, 667, 668, 669, 670, 671, 672, 673, 674, 675, 676, 677, 678, 679, 680, 681, 682, 683, 684, 685, 686, 687, 688, 689, 690, 691, 692, 693, 694, 695, 696, 697, 698, 699, 700, 701, 702, 703, 704, 705, 706, 707, 708, 709, 710, 711, 712, 713, 714, 715, 716, 717, 718, 719, 720, 721, 722, 723, 724, 725, 726, 727, 728, 729, 730, 731, 732, 733, 734, 735, 736, 737, 738, 739, 740, 741, 742, 743, 744, 745, 746, 747, 748, 749, 750, 751, 752, 753, 754, 755, 756, 757, 758, 759, 760, 761, 762, 763, 764, 765, 766, 767, 768, 769, 770, 771, 772, 773, 774, 775, 776, 777, 778, 779, 780, 781, 782, 783, 784, 785, 786, 787, 788, 789, 790, 791, 792, 793, 794, 795, 796, 797, 798, 799, 800, 801, 802, 803, 804, 805, 806, 807, 808, 809, 810, 811, 812, 813, 814, 815, 816, 817, 818, 819, 820, 821, 822, 823, 824, 825, 826, 827, 828, 829, 830, 831, 832, 833, 834, 835, 836, 837, 838, 839, 840, 841, 842, 843, 844, 845, 846, 847, 848, 849, 850, 851, 852, 853, 854, 855, 856, 857, 858, 859, 860, 861, 862, 863, 864, 865, 866, 867, 868, 869, 870, 871, 872],
      "AcquisitionTime": ["095853.437500", "095853.897500", "095854.357500", "095854.817500", "095855.277500", "095855.737500", "095856.197500", "095856.657500", "095857.117500", "095857.577500", "095858.037500", "095858.497500", "095858.957500", "095859.417500", "095859.877500", "095900.337500", "095900.797500", "095901.257500", "095901.717500", "095902.177500", "095902.637500", "095903.097500", "095903.557500", "095904.017500", "095904.477500", "095904.937500", "095905.397500", "095905.857500", "095906.317500", "095906.777500", "095907.237500", "095907.697500", "095908.157500", "095908.617500", "095909.077500", "095909.537500", "095909.997500", "095910.457500", "095910.917500", "095911.377500", "095911.837500", "095912.297500", "095912.757500", "095913.217500", "095913.677500", "095914.137500", "095914.597500", "095915.057500", "095915.517500", "095915.977500", "095916.437500", "095916.897500", "095917.357500", "095917.817500", "095918.277500", "095918.737500", "095919.197500", "095919.657500", "095920.117500", "095920.577500", "095921.037500", "095921.497500", "095921.957500", "095922.417500", "095922.877500", "095923.337500", "095923.797500", "095924.257500", "095924.717500", "095925.177500", "095925.637500", "095926.097500", "095926.557500", "095927.017500", "095927.477500", "095927.937500", "095928.397500", "095928.857500", "095929.317500", "095929.777500", "095930.237500", "095930.697500", "095931.157500", "095931.617500", "095932.077500", "095932.537500", "095932.997500", "095933.457500", "095933.917500", "095934.377500", "095934.837500", "095935.297500", "095935.757500", "095936.217500", "095936.677500", "095937.137500", "095937.597500", "095938.057500", "095938.517500", "095938.977500", "095939.437500", "095939.897500", "095940.357500", "095940.817500", "095941.277500", "095941.737500", "095942.197500", "095942.657500", "095943.117500", "095943.577500", "095944.037500", "095944.497500", "095944.957500", "095945.417500", "095945.877500", "095946.337500", "095946.797500", "095947.257500", "095947.717500", "095948.177500", "095948.637500", "095949.097500", "095949.557500", "095950.017500", "095950.477500", "095950.937500", "095951.397500", "095951.857500", "095952.317500", "095952.777500", "095953.237500", "095953.697500", "095954.157500", "095954.617500", "095955.077500", "095955.537500", "095955.997500", "095956.457500", "095956.917500", "095957.377500", "095957.837500", "095958.297500", "095958.757500", "095959.217500", "095959.677500", "100000.137500", "100000.597500", "100001.057500", "100001.517500", "100001.977500", "100002.437500", "100002.897500", "100003.357500", "100003.817500", "100004.277500", "100004.737500", "100005.197500", "100005.657500", "100006.117500", "100006.577500", "100007.037500", "100007.497500", "100007.957500", "100008.417500", "100008.877500", "100009.337500", "100009.797500", "100010.257500", "100010.717500", "100011.177500", "100011.637500", "100012.097500", "100012.557500", "100013.017500", "100013.477500", "100013.937500", "100014.397500", "100014.857500", "100015.317500", "100015.777500", "100016.237500", "100016.697500", "100017.157500", "100017.617500", "100018.077500", "100018.537500", "100018.997500", "100019.457500", "100019.917500", "100020.377500", "100020.837500", "100021.297500", "100021.757500", "100022.217500", "100022.677500", "100023.137500", "100023.597500", "100024.057500", "100024.517500", "100024.977500", "100025.437500", "100025.897500", "100026.357500", "100026.817500", "100027.277500", "100027.737500", "100028.197500", "100028.657500", "100029.117500", "100029.577500", "100030.037500", "100030.497500", "100030.957500", "100031.417500", "100031.877500", "100032.337500", "100032.797500", "100033.257500", "100033.717500", "100034.177500", "100034.637500", "100035.097500", "100035.557500", "100036.017500", "100036.477500", "100036.937500", "100037.397500", "100037.857500", "100038.317500", "100038.777500", "100039.237500", "100039.697500", "100040.157500", "100040.617500", "100041.077500", "100041.537500", "100041.997500", "100042.457500", "100042.917500", "100043.377500", "100043.837500", "100044.297500", "100044.757500", "100045.217500", "100045.677500", "100046.137500", "100046.597500", "100047.057500", "100047.517500", "100047.977500", "100048.437500", "100048.897500", "100049.357500", "100049.817500", "100050.277500", "100050.737500", "100051.197500", "100051.657500", "100052.117500", "100052.577500", "100053.037500", "100053.497500", "100053.957500", "100054.417500", "100054.877500", "100055.337500", "100055.797500", "100056.257500", "100056.717500", "100057.177500", "100057.637500", "100058.097500", "100058.557500", "100059.017500", "100059.477500", "100059.937500", "100100.397500", "100100.857500", "100101.317500", "100101.777500", "100102.237500", "100102.697500", "100103.157500", "100103.617500", "100104.077500", "100104.537500", "100104.997500", "100105.457500", "100105.917500", "100106.377500", "100106.837500", "100107.297500", "100107.757500", "100108.217500", "100108.677500", "100109.137500", "100109.597500", "100110.057500", "100110.517500", "100110.977500", "100111.437500", "100111.897500", "100112.357500", "100112.817500", "100113.277500", "100113.737500", "100114.197500", "100114.657500", "100115.117500", "100115.577500", "100116.037500", "100116.497500", "100116.957500", "100117.417500", "100117.877500", "100118.337500", "100118.797500", "100119.257500", "100119.717500", "100120.177500", "100120.637500", "100121.097500", "100121.557500", "100122.017500", "100122.477500", "100122.937500", "100123.397500", "100123.857500", "100124.317500", "100124.777500", "100125.237500", "100125.697500", "100126.157500", "100126.617500", "100127.077500", "100127.537500", "100127.997500", "100128.457500", "100128.917500", "100129.377500", "100129.837500", "100130.297500", "100130.757500", "100131.217500", "100131.677500", "100132.137500", "100132.597500", "100133.057500", "100133.517500", "100133.977500", "100134.437500", "100134.897500", "100135.357500", "100135.817500", "100136.277500", "100136.737500", "100137.197500", "100137.657500", "100138.117500", "100138.577500", "100139.037500", "100139.497500", "100139.957500", "100140.417500", "100140.877500", "100141.337500", "100141.797500", "100142.257500", "100142.717500", "100143.177500", "100143.637500", "100144.097500", "100144.557500", "100145.017500", "100145.477500", "100145.937500", "100146.397500", "100146.857500", "100147.317500", "100147.777500", "100148.237500", "100148.697500", "100149.157500", "100149.617500", "100150.077500", "100150.537500", "100150.997500", "100151.457500", "100151.917500", "100152.377500", "100152.837500", "100153.297500", "100153.757500", "100154.217500", "100154.677500", "100155.137500", "100155.597500", "100156.057500", "100156.517500", "100156.977500", "100157.437500", "100157.897500", "100158.357500", "100158.817500", "100159.277500", "100159.737500", "100200.197500", "100200.657500", "100201.117500", "100201.577500", "100202.037500", "100202.497500", "100202.957500", "100203.417500", "100203.877500", "100204.337500", "100204.797500", "100205.257500", "100205.717500", "100206.177500", "100206.637500", "100207.097500", "100207.557500", "100208.017500", "100208.477500", "100208.937500", "100209.397500", "100209.857500", "100210.317500", "100210.777500", "100211.237500", "100211.697500", "100212.157500", "100212.617500", "100213.077500", "100213.537500", "100213.997500", "100214.457500", "100214.917500", "100215.377500", "100215.837500", "100216.297500", "100216.757500", "100217.217500", "100217.677500", "100218.137500", "100218.597500", "100219.057500", "100219.517500", "100219.977500", "100220.437500", "100220.897500", "100221.357500", "100221.817500", "100222.277500", "100222.737500", "100223.197500", "100223.657500", "100224.117500", "100224.577500", "100225.037500", "100225.497500", "100225.957500", "100226.417500", "100226.877500", "100227.337500", "100227.797500", "100228.257500", "100228.717500", "100229.177500", "100229.637500", "100230.097500", "100230.557500", "100231.017500", "100231.477500", "100231.937500", "100232.397500", "100232.857500", "100233.317500", "100233.777500", "100234.237500", "100234.697500", "100235.157500", "100235.617500", "100236.077500", "100236.537500", "100236.997500", "100237.457500", "100237.917500", "100238.377500", "100238.837500", "100239.297500", "100239.757500", "100240.217500", "100240.677500", "100241.137500", "100241.597500", "100242.057500", "100242.517500", "100242.977500", "100243.437500", "100243.897500", "100244.357500", "100244.817500", "100245.277500", "100245.737500", "100246.197500", "100246.657500", "100247.117500", "100247.577500", "100248.037500", "100248.497500", "100248.957500", "100249.417500", "100249.877500", "100250.337500", "100250.797500", "100251.257500", "100251.717500", "100252.177500", "100252.637500", "100253.097500", "100253.557500", "100254.017500", "100254.477500", "100254.937500", "100255.397500", "100255.857500", "100256.317500", "100256.777500", "100257.237500", "100257.697500", "100258.157500", "100258.617500", "100259.077500", "100259.537500", "100259.997500", "100300.457500", "100300.917500", "100301.377500", "100301.837500", "100302.297500", "100302.757500", "100303.217500", "100303.677500", "100304.137500", "100304.597500", "100305.057500", "100305.517500", "100305.977500", "100306.437500", "100306.897500", "100307.357500", "100307.817500", "100308.277500", "100308.737500", "100309.197500", "100309.657500", "100310.117500", "100310.577500", "100311.037500", "100311.497500", "100311.957500", "100312.417500", "100312.877500", "100313.337500", "100313.797500", "100314.257500", "100314.717500", "100315.177500", "100315.637500", "100316.097500", "100316.557500", "100317.017500", "100317.477500", "100317.937500", "100318.397500", "100318.857500", "100319.317500", "100319.777500", "100320.237500", "100320.697500", "100321.157500", "100321.617500", "100322.077500", "100322.537500", "100322.997500", "100323.457500", "100323.917500", "100324.377500", "100324.837500", "100325.297500", "100325.757500", "100326.217500", "100326.677500", "100327.137500", "100327.597500", "100328.057500", "100328.517500", "100328.977500", "100329.437500", "100329.897500", "100330.357500", "100330.817500", "100331.277500", "100331.737500", "100332.197500", "100332.657500", "100333.117500", "100333.577500", "100334.037500", "100334.497500", "100334.957500", "100335.417500", "100335.877500", "100336.337500", "100336.797500", "100337.257500", "100337.717500", "100338.177500", "100338.637500", "100339.097500", "100339.557500", "100340.017500", "100340.477500", "100340.937500", "100341.397500", "100341.857500", "100342.317500", "100342.777500", "100343.237500", "100343.697500", "100344.157500", "100344.617500", "100345.077500", "100345.537500", "100345.997500", "100346.457500", "100346.917500", "100347.377500", "100347.837500", "100348.297500", "100348.757500", "100349.217500", "100349.677500", "100350.137500", "100350.597500", "100351.057500", "100351.517500", "100351.977500", "100352.437500", "100352.897500", "100353.357500", "100353.817500", "100354.277500", "100354.737500", "100355.197500", "100355.657500", "100356.117500", "100356.577500", "100357.037500", "100357.497500", "100357.957500", "100358.417500", "100358.877500", "100359.337500", "100359.797500", "100400.257500", "100400.717500", "100401.177500", "100401.637500", "100402.097500", "100402.557500", "100403.017500", "100403.477500", "100403.937500", "100404.397500", "100404.857500", "100405.317500", "100405.777500", "100406.237500", "100406.697500", "100407.157500", "100407.617500", "100408.077500", "100408.537500", "100408.997500", "100409.457500", "100409.917500", "100410.377500", "100410.837500", "100411.297500", "100411.757500", "100412.217500", "100412.677500", "100413.137500", "100413.597500", "100414.057500", "100414.517500", "100414.977500", "100415.437500", "100415.897500", "100416.357500", "100416.817500", "100417.277500", "100417.737500", "100418.197500", "100418.657500", "100419.117500", "100419.577500", "100420.037500", "100420.497500", "100420.957500", "100421.417500", "100421.877500", "100422.337500", "100422.797500", "100423.257500", "100423.717500", "100424.177500", "100424.637500", "100425.097500", "100425.557500", "100426.017500", "100426.477500", "100426.937500", "100427.397500", "100427.857500", "100428.317500", "100428.777500", "100429.237500", "100429.697500", "100430.157500", "100430.617500", "100431.077500", "100431.537500", "100431.997500", "100432.457500", "100432.917500", "100433.377500", "100433.837500", "100434.297500", "100434.757500", "100435.217500", "100435.677500", "100436.137500", "100436.597500", "100437.057500", "100437.517500", "100437.977500", "100438.437500", "100438.897500", "100439.357500", "100439.817500", "100440.277500", "100440.737500", "100441.197500", "100441.657500", "100442.117500", "100442.577500", "100443.037500", "100443.497500", "100443.957500", "100444.417500", "100444.877500", "100445.337500", "100445.797500", "100446.257500", "100446.717500", "100447.177500", "100447.637500", "100448.097500", "100448.557500", "100449.017500", "100449.477500", "100449.937500", "100450.397500", "100450.857500", "100451.317500", "100451.777500", "100452.237500", "100452.697500", "100453.157500", "100453.617500", "100454.077500", "100454.537500", "100454.997500", "100455.457500", "100455.917500", "100456.377500", "100456.837500", "100457.297500", "100457.757500", "100458.217500", "100458.677500", "100459.137500", "100459.597500", "100500.057500", "100500.517500", "100500.977500", "100501.437500", "100501.897500", "100502.357500", "100502.817500", "100503.277500", "100503.737500", "100504.197500", "100504.657500", "100505.117500", "100505.577500", "100506.037500", "100506.497500", "100506.957500", "100507.417500", "100507.877500", "100508.337500", "100508.797500", "100509.257500", "100509.717500", "100510.177500", "100510.637500", "100511.097500", "100511.557500", "100512.017500", "100512.477500", "100512.937500", "100513.397500", "100513.857500", "100514.317500", "100514.777500", "100515.237500", "100515.697500", "100516.157500", "100516.617500", "100517.077500", "100517.537500", "100517.997500", "100518.457500", "100518.917500", "100519.377500", "100519.837500", "100520.297500", "100520.757500", "100521.217500", "100521.677500", "100522.137500", "100522.597500", "100523.057500", "100523.517500", "100523.977500", "100524.437500", "100524.897500", "100525.357500", "100525.817500", "100526.277500", "100526.737500", "100527.197500", "100527.657500", "100528.117500", "100528.577500", "100529.037500", "100529.497500", "100529.957500", "100530.417500", "100530.877500", "100531.337500", "100531.797500", "100532.257500", "100532.717500", "100533.177500", "100533.637500", "100534.097500"],
