{
  "AcquisitionMatrixPE": 82,
  "AcquisitionNumber": 1,
  "AcquisitionTime": "09:42:42.240000",
  "BandwidthPerPixelPhaseEncode": 24.888,
  "BaseResolution": 82,
  "BodyPartExamined": "BRAIN",
  "ConsistencyInfo": "N4_VE11C_LATEST_20160120",
  "ConversionSoftware": "dcm2niix",
  "ConversionSoftwareVersion": "v1.0.20201102",
  "DerivedVendorReportedEchoSpacing": 0.00049,
  "DeviceSerialNumber": "66112",
  "DwellTime": 2e-06,
  "EchoTime": 0.0272,
  "EchoTrainLength": 82,
  "EffectiveEchoSpacing": 0.00049,
  "FlipAngle": 44,
  "ImageComments": "Unaliased MB8/PE3",
  "ImageOrientationPatientDICOM": [0.999306, 0.0195616, -0.0316904, -0.0146516, 0.988825, 0.148358],
  "ImageType": [
    "ORIGINAL",
    "PRIMARY",
    "M",
    "MB",
    "ND",
    "NORM",
    "MOSAIC"
],
  "ImagingFrequency": 123.252,
  "InPlanePhaseEncodingDirectionDICOM": "COL",
  "InstitutionAddress": "Maynard 3,Hanover,NH,US,03755",
  "InstitutionName": "Dartmouth College - PBS",
  "InstitutionalDepartmentName": "Department",
  "MRAcquisitionType": "2D",
  "MagneticFieldStrength": 3,
  "Manufacturer": "Siemens",
  "ManufacturersModelName": "Prisma",
  "Modality": "MR",
  "MultibandAccelerationFactor": 8,
  "PartialFourier": 1,
  "PatientPosition": "HFS",
  "PercentPhaseFOV": 100,
  "PercentSampling": 100,
  "PhaseEncodingDirection": "j-",
  "PhaseEncodingSteps": 82,
  "PhaseResolution": 1,
  "PixelBandwidth": 3050,
  "ProcedureStepDescription": "Wager_Wager^1076_spacetop",
  "ProtocolName": "func_run-01_task-social_acq-ap-mb8",
  "PulseSequenceDetails": "%CustomerSeq%\\cmrr_mbep2d_bold",
  "ReceiveCoilActiveElements": "HEA;HEP",
  "ReceiveCoilName": "Head_32",
  "ReconMatrixPE": 82,
  "RepetitionTime": 0.46,
  "SAR": 0.0907928,
  "ScanOptions": "FS",
  "ScanningSequence": "EP",
  "SequenceName": "epfid2d1_82",
  "SequenceVariant": "SK\\SS",
  "SeriesDescription": "func_run-01_task-social_acq-ap-mb8",
  "SeriesNumber": 8,
  "ShimSetting": [4136, -7738, -7290, 612, -46, -248, 16, 103],
  "SliceThickness": 2.7,
  "SliceTiming": [0, 0.25, 0.0625, 0.315, 0.125, 0.3775, 0.1875, 0, 0.25, 0.0625, 0.315, 0.125, 0.3775, 0.1875, 0, 0.25, 0.0625, 0.315, 0.125, 0.3775, 0.1875, 0, 0.25, 0.0625, 0.315, 0.125, 0.3775, 0.1875, 0, 0.25, 0.0625, 0.315, 0.125, 0.3775, 0.1875, 0, 0.25, 0.0625, 0.315, 0.125, 0.3775, 0.1875, 0, 0.25, 0.0625, 0.315, 0.125, 0.3775, 0.1875, 0, 0.25, 0.0625, 0.315, 0.125, 0.3775, 0.1875],
  "SoftwareVersions": "syngo MR E11",
  "SpacingBetweenSlices": 2.7,
  "StationName": "AWP66112",
  "TaskName": "social",
  "TotalReadoutTime": 0.03969,
  "TxRefAmp": 227.22,
  "WipMemBlock": "b5fa2379-fdda-4ffd-a608-c3e59abc7c71||Sequence: R016 ve11c/master r/e634e98; Dec 19 2017 11:00:25 by eja",
  "dcmmeta_affine": [
    [-2.681065797805786, -0.039309289306402206, -0.09244362264871597, 117.6941146850586],
    [-0.05248233675956726, 2.6529457569122314, 0.39903488755226135, -98.8237075805664],
    [-0.08502300828695297, -0.39803346991539, 2.6687498092651367, -55.34779739379883],
    [0.0, 0.0, 0.0, 1.0]
],
  "dcmmeta_reorient_transform": [
    [0.0, -1.0, 0.0, 81.0],
    [1.0, 0.0, 0.0, 0.0],
    [0.0, 0.0, 1.0, 0.0],
    [0.0, 0.0, 0.0, 1.0]
],
  "dcmmeta_shape": [82, 82, 56, 872],
  "dcmmeta_slice_dim": 2,
  "dcmmeta_version": 0.6,
  "global": {
    "const": {
      "AccessionNumber": "A003449",
      "AcquisitionMatrix": [82, 0, 0, 82],
      "AngioFlag": "N",
      "BitsAllocated": 16,
      "BitsStored": 16,
      "BodyPartExamined": "BRAIN",
      "Columns": 656,
      "EchoNumbers": 1,
      "EchoTime": 27.2,
      "EchoTrainLength": 82,
      "FlipAngle": 44.0,
      "HighBit": 15,
      "ImageOrientationPatient": [0.99930629078401, 0.01956159782526, -0.0316903942863, -0.0146516432904, 0.98882518853771, 0.14835793157851],
      "ImagePositionPatient": [-872.69416238272, -892.52273858467, -177.42251644167],
      "ImageType": [
        "ORIGINAL",
        "PRIMARY",
        "M",
        "MB",
        "ND",
        "NORM",
        "MOSAIC"
],
      "ImagedNucleus": "1H",
      "ImagingFrequency": 123.252157,
      "InPlanePhaseEncodingDirection": "COL",
      "MRAcquisitionType": "2D",
      "MagneticFieldStrength": 3.0,
      "Manufacturer": "SIEMENS",
      "ManufacturerModelName": "Prisma",
      "Modality": "MR",
      "NumberOfAverages": 1.0,
      "NumberOfPhaseEncodingSteps": 82,
      "PercentPhaseFieldOfView": 100.0,
      "PercentSampling": 100.0,
      "PerformedProcedureStepStartTime": "085915.707000",
      "PhotometricInterpretation": "MONOCHROME2",
      "PixelBandwidth": 3050.0,
      "PixelRepresentation": 0,
      "PixelSpacing": [2.6829268932343, 2.6829268932343],
      "ProtocolName": "func_run-01_task-social_acq-ap-mb8",
      "RepetitionTime": 460.0,
      "Rows": 656,
      "SAR": 0.09079283927412,
      "SamplesPerPixel": 1,
      "ScanOptions": "FS",
      "ScanningSequence": "EP",
      "SequenceName": "epfid2d1_82",
      "SequenceVariant": [
        "SK",
        "SS"
],
      "SeriesDescription": "func_run-01_task-social_acq-ap-mb8",
      "SeriesNumber": 8,
      "SeriesTime": "094304.226000",
      "SliceLocation": -73.342074403678,
      "SliceThickness": 2.7000000476837,
      "SmallestImagePixelValue": 0,
      "SoftwareVersions": "syngo MR E11",
      "SpacingBetweenSlices": 2.7000000950008,
      "SpecificCharacterSet": "ISO_IR 100",
      "StudyID": "1",
      "StudyTime": "085915.583000",
      "TransmitCoilName": "Body",
      "VariableFlipAngleFlag": "N",
      "WindowCenterWidthExplanation": "Algo1",
      "dBdt": 0.0},
    "slices": {}
  },
  "time": {
    "samples": {
      "AcquisitionNumber": [1, 2, 3, 4, 5, 6, 7, 8, 9, 10, 11, 12, 13, 14, 15, 16, 17, 18, 19, 20, 21, 22, 23, 24, 25, 26, 27, 28, 29, 30, 31, 32, 33, 34, 35, 36, 37, 38, 39, 40, 41, 42, 43, 44, 45, 46, 47, 48, 49, 50, 51, 52, 53, 54, 55, 56, 57, 58, 59, 60, 61, 62, 63, 64, 65, 66, 67, 68, 69, 70, 71, 72, 73, 74, 75, 76, 77, 78, 79, 80, 81, 82, 83, 84, 85, 86, 87, 88, 89, 90, 91, 92, 93, 94, 95, 96, 97, 98, 99, 100, 101, 102, 103, 104, 105, 106, 107, 108, 109, 110, 111, 112, 113, 114, 115, 116, 117, 118, 119, 120, 121, 122, 123, 124, 125, 126, 127, 128, 129, 130, 131, 132, 133, 134, 135, 136, 137, 138, 139, 140, 141, 142, 143, 144, 145, 146, 147, 148, 149, 150, 151, 152, 153, 154, 155, 156, 157, 158, 159, 160, 161, 162, 163, 164, 165, 166, 167, 168, 169, 170, 171, 172, 173, 174, 175, 176, 177, 178, 179, 180, 181, 182, 183, 184, 185, 186, 187, 188, 189, 190, 191, 192, 193, 194, 195, 196, 197, 198, 199, 200, 201, 202, 203, 204, 205, 206, 207, 208, 209, 210, 211, 212, 213, 214, 215, 216, 217, 218, 219, 220, 221, 222, 223, 224, 225, 226, 227, 228, 229, 230, 231, 232, 233, 234, 235, 236, 237, 238, 239, 240, 241, 242, 243, 244, 245, 246, 247, 248, 249, 250, 251, 252, 253, 254, 255, 256, 257, 258, 259, 260, 261, 262, 263, 264, 265, 266, 267, 268, 269, 270, 271, 272, 273, 274, 275, 276, 277, 278, 279, 280, 281, 282, 283, 284, 285, 286, 287, 288, 289, 290, 291, 292, 293, 294, 295, 296, 297, 298, 299, 300, 301, 302, 303, 304, 305, 306, 307, 308, 309, 310, 311, 312, 313, 314, 315, 316, 317, 318, 319, 320, 321, 322, 323, 324, 325, 326, 327, 328, 329, 330, 331, 332, 333, 334, 335, 336, 337, 338, 339, 340, 341, 342, 343, 344, 345, 346, 347, 348, 349, 350, 351, 352, 353, 354, 355, 356, 357, 358, 359, 360, 361, 362, 363, 364, 365, 366, 367, 368, 369, 370, 371, 372, 373, 374, 375, 376, 377, 378, 379, 380, 381, 382, 383, 384, 385, 386, 387, 388, 389, 390, 391, 392, 393, 394, 395, 396, 397, 398, 399, 400, 401, 402, 403, 404, 405, 406, 407, 408, 409, 410, 411, 412, 413, 414, 415, 416, 417, 418, 419, 420, 421, 422, 423, 424, 425, 426, 427, 428, 429, 430, 431, 432, 433, 434, 435, 436, 437, 438, 439, 440, 441, 442, 443, 444, 445, 446, 447, 448, 449, 450, 451, 452, 453, 454, 455, 456, 457, 458, 459, 460, 461, 462, 463, 464, 465, 466, 467, 468, 469, 470, 471, 472, 473, 474, 475, 476, 477, 478, 479, 480, 481, 482, 483, 484, 485, 486, 487, 488, 489, 490, 491, 492, 493, 494, 495, 496, 497, 498, 499, 500, 501, 502, 503, 504, 505, 506, 507, 508, 509, 510, 511, 512, 513, 514, 515, 516, 517, 518, 519, 520, 521, 522, 523, 524, 525, 526, 527, 528, 529, 530, 531, 532, 533, 534, 535, 536, 537, 538, 539, 540, 541, 542, 543, 544, 545, 546, 547, 548, 549, 550, 551, 552, 553, 554, 555, 556, 557, 558, 559, 560, 561, 562, 563, 564, 565, 566, 567, 568, 569, 570, 571, 572, 573, 574, 575, 576, 577, 578, 579, 580, 581, 582, 583, 584, 585, 586, 587, 588, 589, 590, 591, 592, 593, 594, 595, 596, 597, 598, 599, 600, 601, 602, 603, 604, 605, 606, 607, 608, 609, 610, 611, 612, 613, 614, 615, 616, 617, 618, 619, 620, 621, 622, 623, 624, 625, 626, 627, 628, 629, 630, 631, 632, 633, 634, 635, 636, 637, 638, 639, 640, 641, 642, 643, 644, 645, 646, 647, 648, 649, 650, 651, 652, 653, 654, 655, 656, 657, 658, 659, 660, 661, 662, 663, 664, 665, 666, 667, 668, 669, 670, 671, 672, 673, 674, 675, 676, 677, 678, 679, 680, 681, 682, 683, 684, 685, 686, 687, 688, 689, 690, 691, 692, 693, 694, 695, 696, 697, 698, 699, 700, 701, 702, 703, 704, 705, 706, 707, 708, 709, 710, 711, 712, 713, 714, 715, 716, 717, 718, 719, 720, 721, 722, 723, 724, 725, 726, 727, 728, 729, 730, 731, 732, 733, 734, 735, 736, 737, 738, 739, 740, 741, 742, 743, 744, 745, 746, 747, 748, 749, 750, 751, 752, 753, 754, 755, 756, 757, 758, 759, 760, 761, 762, 763, 764, 765, 766, 767, 768, 769, 770, 771, 772, 773, 774, 775, 776, 777, 778, 779, 780, 781, 782, 783, 784, 785, 786, 787, 788, 789, 790, 791, 792, 793, 794, 795, 796, 797, 798, 799, 800, 801, 802, 803, 804, 805, 806, 807, 808, 809, 810, 811, 812, 813, 814, 815, 816, 817, 818, 819, 820, 821, 822, 823, 824, 825, 826, 827, 828, 829, 830, 831, 832, 833, 834, 835, 836, 837, 838, 839, 840, 841, 842, 843, 844, 845, 846, 847, 848, 849, 850, 851, 852, 853, 854, 855, 856, 857, 858, 859, 860, 861, 862, 863, 864, 865, 866, 867, 868, 869, 870, 871, 872],
      "AcquisitionTime": ["094242.240000", "094242.700000", "094243.160000", "094243.620000", "094244.080000", "094244.540000", "094245.000000", "094245.460000", "094245.920000", "094246.380000", "094246.840000", "094247.300000", "094247.760000", "094248.220000", "094248.680000", "094249.140000", "094249.600000", "094250.060000", "094250.520000", "094250.980000", "094251.440000", "094251.900000", "094252.360000", "094252.820000", "094253.280000", "094253.740000", "094254.200000", "094254.660000", "094255.120000", "094255.580000", "094256.040000", "094256.500000", "094256.960000", "094257.420000", "094257.880000", "094258.340000", "094258.800000", "094259.260000", "094259.720000", "094300.180000", "094300.640000", "094301.100000", "094301.560000", "094302.020000", "094302.480000", "094302.940000", "094303.400000", "094303.860000", "094304.320000", "094304.780000", "094305.240000", "094305.700000", "094306.160000", "094306.620000", "094307.080000", "094307.540000", "094308.000000", "094308.460000", "094308.920000", "094309.380000", "094309.840000", "094310.300000", "094310.760000", "094311.220000", "094311.680000", "094312.140000", "094312.600000", "094313.060000", "094313.520000", "094313.980000", "094314.440000", "094314.900000", "094315.360000", "094315.820000", "094316.280000", "094316.740000", "094317.200000", "094317.660000", "094318.120000", "094318.580000", "094319.040000", "094319.500000", "094319.960000", "094320.420000", "094320.880000", "094321.340000", "094321.800000", "094322.260000", "094322.720000", "094323.180000", "094323.640000", "094324.100000", "094324.560000", "094325.020000", "094325.480000", "094325.940000", "094326.400000", "094326.860000", "094327.320000", "094327.780000", "094328.240000", "094328.700000", "094329.160000", "094329.620000", "094330.080000", "094330.540000", "094331.000000", "094331.460000", "094331.920000", "094332.380000", "094332.840000", "094333.300000", "094333.760000", "094334.220000", "094334.680000", "094335.140000", "094335.600000", "094336.060000", "094336.520000", "094336.980000", "094337.440000", "094337.900000", "094338.360000", "094338.820000", "094339.280000", "094339.740000", "094340.200000", "094340.660000", "094341.120000", "094341.580000", "094342.040000", "094342.500000", "094342.960000", "094343.420000", "094343.880000", "094344.340000", "094344.800000", "094345.260000", "094345.720000", "094346.180000", "094346.640000", "094347.100000", "094347.560000", "094348.020000", "094348.480000", "094348.940000", "094349.400000", "094349.860000", "094350.320000", "094350.780000", "094351.240000", "094351.700000", "094352.160000", "094352.620000", "094353.080000", "094353.540000", "094354.000000", "094354.460000", "094354.920000", "094355.380000", "094355.840000", "094356.300000", "094356.760000", "094357.220000", "094357.680000", "094358.140000", "094358.600000", "094359.060000", "094359.520000", "094359.980000", "094400.440000", "094400.900000", "094401.360000", "094401.820000", "094402.280000", "094402.740000", "094403.200000", "094403.660000", "094404.120000", "094404.580000", "094405.040000", "094405.500000", "094405.960000", "094406.420000", "094406.880000", "094407.340000", "094407.800000", "094408.260000", "094408.720000", "094409.180000", "094409.640000", "094410.100000", "094410.560000", "094411.020000", "094411.480000", "094411.940000", "094412.400000", "094412.860000", "094413.320000", "094413.780000", "094414.240000", "094414.700000", "094415.160000", "094415.620000", "094416.080000", "094416.540000", "094417.000000", "094417.460000", "094417.920000", "094418.380000", "094418.840000", "094419.300000", "094419.760000", "094420.220000", "094420.680000", "094421.140000", "094421.600000", "094422.060000", "094422.520000", "094422.980000", "094423.440000", "094423.900000", "094424.360000", "094424.820000", "094425.280000", "094425.740000", "094426.200000", "094426.660000", "094427.120000", "094427.580000", "094428.040000", "094428.500000", "094428.960000", "094429.420000", "094429.880000", "094430.340000", "094430.800000", "094431.260000", "094431.720000", "094432.180000", "094432.640000", "094433.100000", "094433.560000", "094434.020000", "094434.480000", "094434.940000", "094435.400000", "094435.860000", "094436.320000", "094436.780000", "094437.240000", "094437.700000", "094438.160000", "094438.620000", "094439.080000", "094439.540000", "094440.000000", "094440.460000", "094440.920000", "094441.380000", "094441.840000", "094442.300000", "094442.760000", "094443.220000", "094443.680000", "094444.140000", "094444.600000", "094445.060000", "094445.520000", "094445.980000", "094446.440000", "094446.900000", "094447.360000", "094447.820000", "094448.280000", "094448.740000", "094449.200000", "094449.660000", "094450.120000", "094450.580000", "094451.040000", "094451.500000", "094451.960000", "094452.420000", "094452.880000", "094453.340000", "094453.800000", "094454.260000", "094454.720000", "094455.180000", "094455.640000", "094456.100000", "094456.560000", "094457.020000", "094457.480000", "094457.940000", "094458.400000", "094458.860000", "094459.320000", "094459.780000", "094500.240000", "094500.700000", "094501.160000", "094501.620000", "094502.080000", "094502.540000", "094503.000000", "094503.460000", "094503.920000", "094504.380000", "094504.840000", "094505.300000", "094505.760000", "094506.220000", "094506.680000", "094507.140000", "094507.600000", "094508.060000", "094508.520000", "094508.980000", "094509.440000", "094509.900000", "094510.360000", "094510.820000", "094511.280000", "094511.740000", "094512.200000", "094512.660000", "094513.120000", "094513.580000", "094514.040000", "094514.500000", "094514.960000", "094515.420000", "094515.880000", "094516.340000", "094516.800000", "094517.260000", "094517.720000", "094518.180000", "094518.640000", "094519.100000", "094519.560000", "094520.020000", "094520.480000", "094520.940000", "094521.400000", "094521.860000", "094522.320000", "094522.780000", "094523.240000", "094523.700000", "094524.160000", "094524.620000", "094525.080000", "094525.540000", "094526.000000", "094526.460000", "094526.920000", "094527.380000", "094527.840000", "094528.300000", "094528.760000", "094529.220000", "094529.680000", "094530.140000", "094530.600000", "094531.060000", "094531.520000", "094531.980000", "094532.440000", "094532.900000", "094533.360000", "094533.820000", "094534.280000", "094534.740000", "094535.200000", "094535.660000", "094536.120000", "094536.580000", "094537.040000", "094537.500000", "094537.960000", "094538.420000", "094538.880000", "094539.340000", "094539.800000", "094540.260000", "094540.720000", "094541.180000", "094541.640000", "094542.100000", "094542.560000", "094543.020000", "094543.480000", "094543.940000", "094544.400000", "094544.860000", "094545.320000", "094545.780000", "094546.240000", "094546.700000", "094547.160000", "094547.620000", "094548.080000", "094548.540000", "094549.000000", "094549.460000", "094549.920000", "094550.380000", "094550.840000", "094551.300000", "094551.760000", "094552.220000", "094552.680000", "094553.140000", "094553.600000", "094554.060000", "094554.520000", "094554.980000", "094555.440000", "094555.900000", "094556.360000", "094556.820000", "094557.280000", "094557.740000", "094558.200000", "094558.660000", "094559.120000", "094559.580000", "094600.040000", "094600.500000", "094600.960000", "094601.420000", "094601.880000", "094602.340000", "094602.800000", "094603.260000", "094603.720000", "094604.180000", "094604.640000", "094605.100000", "094605.560000", "094606.020000", "094606.480000", "094606.940000", "094607.400000", "094607.860000", "094608.320000", "094608.780000", "094609.240000", "094609.700000", "094610.160000", "094610.620000", "094611.080000", "094611.540000", "094612.000000", "094612.460000", "094612.920000", "094613.380000", "094613.840000", "094614.300000", "094614.760000", "094615.220000", "094615.680000", "094616.140000", "094616.600000", "094617.060000", "094617.520000", "094617.980000", "094618.440000", "094618.900000", "094619.360000", "094619.820000", "094620.280000", "094620.740000", "094621.200000", "094621.660000", "094622.120000", "094622.580000", "094623.040000", "094623.500000", "094623.960000", "094624.420000", "094624.880000", "094625.340000", "094625.800000", "094626.260000", "094626.720000", "094627.180000", "094627.640000", "094628.100000", "094628.560000", "094629.020000", "094629.480000", "094629.940000", "094630.400000", "094630.860000", "094631.320000", "094631.780000", "094632.240000", "094632.700000", "094633.160000", "094633.620000", "094634.080000", "094634.540000", "094635.000000", "094635.460000", "094635.920000", "094636.380000", "094636.840000", "094637.300000", "094637.760000", "094638.220000", "094638.680000", "094639.140000", "094639.600000", "094640.060000", "094640.520000", "094640.980000", "094641.440000", "094641.900000", "094642.360000", "094642.820000", "094643.280000", "094643.740000", "094644.200000", "094644.660000", "094645.120000", "094645.580000", "094646.040000", "094646.500000", "094646.960000", "094647.420000", "094647.880000", "094648.340000", "094648.800000", "094649.260000", "094649.720000", "094650.180000", "094650.640000", "094651.100000", "094651.560000", "094652.020000", "094652.480000", "094652.940000", "094653.400000", "094653.860000", "094654.320000", "094654.780000", "094655.240000", "094655.700000", "094656.160000", "094656.620000", "094657.080000", "094657.540000", "094658.000000", "094658.460000", "094658.920000", "094659.380000", "094659.840000", "094700.300000", "094700.760000", "094701.220000", "094701.680000", "094702.140000", "094702.600000", "094703.060000", "094703.520000", "094703.980000", "094704.440000", "094704.900000", "094705.360000", "094705.820000", "094706.280000", "094706.740000", "094707.200000", "094707.660000", "094708.120000", "094708.580000", "094709.040000", "094709.500000", "094709.960000", "094710.420000", "094710.880000", "094711.340000", "094711.800000", "094712.260000", "094712.720000", "094713.180000", "094713.640000", "094714.100000", "094714.560000", "094715.020000", "094715.480000", "094715.940000", "094716.400000", "094716.860000", "094717.320000", "094717.780000", "094718.240000", "094718.700000", "094719.160000", "094719.620000", "094720.080000", "094720.540000", "094721.000000", "094721.460000", "094721.920000", "094722.380000", "094722.840000", "094723.300000", "094723.760000", "094724.220000", "094724.680000", "094725.140000", "094725.600000", "094726.060000", "094726.520000", "094726.980000", "094727.440000", "094727.900000", "094728.360000", "094728.820000", "094729.280000", "094729.740000", "094730.200000", "094730.660000", "094731.120000", "094731.580000", "094732.040000", "094732.500000", "094732.960000", "094733.420000", "094733.880000", "094734.340000", "094734.800000", "094735.260000", "094735.720000", "094736.180000", "094736.640000", "094737.100000", "094737.560000", "094738.020000", "094738.480000", "094738.940000", "094739.400000", "094739.860000", "094740.320000", "094740.780000", "094741.240000", "094741.700000", "094742.160000", "094742.620000", "094743.080000", "094743.540000", "094744.000000", "094744.460000", "094744.920000", "094745.380000", "094745.840000", "094746.300000", "094746.760000", "094747.220000", "094747.680000", "094748.140000", "094748.600000", "094749.060000", "094749.520000", "094749.980000", "094750.440000", "094750.900000", "094751.360000", "094751.820000", "094752.280000", "094752.740000", "094753.200000", "094753.660000", "094754.120000", "094754.580000", "094755.040000", "094755.500000", "094755.960000", "094756.420000", "094756.880000", "094757.340000", "094757.800000", "094758.260000", "094758.720000", "094759.180000", "094759.640000", "094800.100000", "094800.560000", "094801.020000", "094801.480000", "094801.940000", "094802.400000", "094802.860000", "094803.320000", "094803.780000", "094804.240000", "094804.700000", "094805.160000", "094805.620000", "094806.080000", "094806.540000", "094807.000000", "094807.460000", "094807.920000", "094808.380000", "094808.840000", "094809.300000", "094809.760000", "094810.220000", "094810.680000", "094811.140000", "094811.600000", "094812.060000", "094812.520000", "094812.980000", "094813.440000", "094813.900000", "094814.360000", "094814.820000", "094815.280000", "094815.740000", "094816.200000", "094816.660000", "094817.120000", "094817.580000", "094818.040000", "094818.500000", "094818.960000", "094819.420000", "094819.880000", "094820.340000", "094820.800000", "094821.260000", "094821.720000", "094822.180000", "094822.640000", "094823.100000", "094823.560000", "094824.020000", "094824.480000", "094824.940000", "094825.400000", "094825.860000", "094826.320000", "094826.780000", "094827.240000", "094827.700000", "094828.160000", "094828.620000", "094829.080000", "094829.540000", "094830.000000", "094830.460000", "094830.920000", "094831.380000", "094831.840000", "094832.300000", "094832.760000", "094833.220000", "094833.680000", "094834.140000", "094834.600000", "094835.060000", "094835.520000", "094835.980000", "094836.440000", "094836.900000", "094837.360000", "094837.820000", "094838.280000", "094838.740000", "094839.200000", "094839.660000", "094840.120000", "094840.580000", "094841.040000", "094841.500000", "094841.960000", "094842.420000", "094842.880000", "094843.340000", "094843.800000", "094844.260000", "094844.720000", "094845.180000", "094845.640000", "094846.100000", "094846.560000", "094847.020000", "094847.480000", "094847.940000", "094848.400000", "094848.860000", "094849.320000", "094849.780000", "094850.240000", "094850.700000", "094851.160000", "094851.620000", "094852.080000", "094852.540000", "094853.000000", "094853.460000", "094853.920000", "094854.380000", "094854.840000", "094855.300000", "094855.760000", "094856.220000", "094856.680000", "094857.140000", "094857.600000", "094858.060000", "094858.520000", "094858.980000", "094859.440000", "094859.900000", "094900.360000", "094900.820000", "094901.280000", "094901.740000", "094902.200000", "094902.660000", "094903.120000", "094903.580000", "094904.040000", "094904.500000", "094904.960000", "094905.420000", "094905.880000", "094906.340000", "094906.800000", "094907.260000", "094907.720000", "094908.180000", "094908.640000", "094909.100000", "094909.560000", "094910.020000", "094910.480000", "094910.940000", "094911.400000", "094911.860000", "094912.320000", "094912.780000", "094913.240000", "094913.700000", "094914.160000", "094914.620000", "094915.080000", "094915.540000", "094916.000000", "094916.460000", "094916.920000", "094917.380000", "094917.840000", "094918.300000", "094918.760000", "094919.220000", "094919.680000", "094920.140000", "094920.600000", "094921.060000", "094921.520000", "094921.980000", "094922.440000", "094922.900000"],
