{
  "AcquisitionMatrixPE": 82,
  "AcquisitionNumber": 1,
  "AcquisitionTime": "10:05:56.955000",
  "BandwidthPerPixelPhaseEncode": 24.888,
  "BaseResolution": 82,
  "BodyPartExamined": "BRAIN",
  "ConsistencyInfo": "N4_VE11C_LATEST_20160120",
  "ConversionSoftware": "dcm2niix",
  "ConversionSoftwareVersion": "v1.0.20201102",
  "DerivedVendorReportedEchoSpacing": 0.00049,
  "DeviceSerialNumber": "66112",
  "DwellTime": 2e-06,
  "EchoTime": 0.0272,
  "EchoTrainLength": 82,
  "EffectiveEchoSpacing": 0.00049,
  "FlipAngle": 44,
  "ImageComments": "Unaliased MB8/PE3",
  "ImageOrientationPatientDICOM": [0.999306, 0.0195616, -0.0316904, -0.0146516, 0.988825, 0.148358],
  "ImageType": [
    "ORIGINAL",
    "PRIMARY",
    "M",
    "MB",
    "ND",
    "NORM",
    "MOSAIC"
],
  "ImagingFrequency": 123.252,
  "InPlanePhaseEncodingDirectionDICOM": "COL",
  "InstitutionAddress": "Maynard 3,Hanover,NH,US,03755",
  "InstitutionName": "Dartmouth College - PBS",
  "InstitutionalDepartmentName": "Department",
  "MRAcquisitionType": "2D",
  "MagneticFieldStrength": 3,
  "Manufacturer": "Siemens",
  "ManufacturersModelName": "Prisma",
  "Modality": "MR",
  "MultibandAccelerationFactor": 8,
  "PartialFourier": 1,
  "PatientPosition": "HFS",
  "PercentPhaseFOV": 100,
  "PercentSampling": 100,
  "PhaseEncodingDirection": "j-",
  "PhaseEncodingSteps": 82,
  "PhaseResolution": 1,
  "PixelBandwidth": 3050,
  "ProcedureStepDescription": "Wager_Wager^1076_spacetop",
  "ProtocolName": "func_run-04_task-social_acq-ap-mb8",
  "PulseSequenceDetails": "%CustomerSeq%\\cmrr_mbep2d_bold",
  "ReceiveCoilActiveElements": "HEA;HEP",
  "ReceiveCoilName": "Head_32",
  "ReconMatrixPE": 82,
  "RepetitionTime": 0.46,
  "SAR": 0.0907928,
  "ScanOptions": "FS",
  "ScanningSequence": "EP",
  "SequenceName": "epfid2d1_82",
  "SequenceVariant": "SK\\SS",
  "SeriesDescription": "func_run-04_task-social_acq-ap-mb8",
  "SeriesNumber": 14,
  "ShimSetting": [4136, -7738, -7290, 612, -46, -248, 16, 103],
  "SliceThickness": 2.7,
  "SliceTiming": [0, 0.25, 0.0625, 0.3125, 0.125, 0.3775, 0.1875, 0, 0.25, 0.0625, 0.3125, 0.125, 0.3775, 0.1875, 0, 0.25, 0.0625, 0.3125, 0.125, 0.3775, 0.1875, 0, 0.25, 0.0625, 0.3125, 0.125, 0.3775, 0.1875, 0, 0.25, 0.0625, 0.3125, 0.125, 0.3775, 0.1875, 0, 0.25, 0.0625, 0.3125, 0.125, 0.3775, 0.1875, 0, 0.25, 0.0625, 0.3125, 0.125, 0.3775, 0.1875, 0, 0.25, 0.0625, 0.3125, 0.125, 0.3775, 0.1875],
  "SoftwareVersions": "syngo MR E11",
  "SpacingBetweenSlices": 2.7,
  "StationName": "AWP66112",
  "TaskName": "social",
  "TotalReadoutTime": 0.03969,
  "TxRefAmp": 227.22,
  "WipMemBlock": "c14e822a-dda4-40ed-b39a-cd7abd690bc4||Sequence: R016 ve11c/master r/e634e98; Dec 19 2017 11:00:25 by eja",
  "dcmmeta_affine": [
    [-2.681065797805786, -0.039309289306402206, -0.09244362264871597, 117.6941146850586],
    [-0.05248233675956726, 2.6529457569122314, 0.39903488755226135, -98.8237075805664],
    [-0.08502300828695297, -0.39803346991539, 2.6687498092651367, -55.34779739379883],
    [0.0, 0.0, 0.0, 1.0]
],
  "dcmmeta_reorient_transform": [
    [0.0, -1.0, 0.0, 81.0],
    [1.0, 0.0, 0.0, 0.0],
    [0.0, 0.0, 1.0, 0.0],
    [0.0, 0.0, 0.0, 1.0]
],
  "dcmmeta_shape": [82, 82, 56, 872],
  "dcmmeta_slice_dim": 2,
  "dcmmeta_version": 0.6,
  "global": {
    "const": {
      "AccessionNumber": "A003449",
      "AcquisitionMatrix": [82, 0, 0, 82],
      "AngioFlag": "N",
      "BitsAllocated": 16,
      "BitsStored": 16,
      "BodyPartExamined": "BRAIN",
      "Columns": 656,
      "EchoNumbers": 1,
      "EchoTime": 27.2,
      "EchoTrainLength": 82,
      "FlipAngle": 44.0,
      "HighBit": 15,
      "ImageOrientationPatient": [0.99930629078401, 0.01956159782526, -0.0316903942863, -0.0146516432904, 0.98882518853771, 0.14835793157851],
      "ImagePositionPatient": [-872.69416238272, -892.52273858467, -177.42251644167],
      "ImageType": [
        "ORIGINAL",
        "PRIMARY",
        "M",
        "MB",
        "ND",
        "NORM",
        "MOSAIC"
],
      "ImagedNucleus": "1H",
      "ImagingFrequency": 123.252165,
      "InPlanePhaseEncodingDirection": "COL",
      "MRAcquisitionType": "2D",
      "MagneticFieldStrength": 3.0,
      "Manufacturer": "SIEMENS",
      "ManufacturerModelName": "Prisma",
      "Modality": "MR",
      "NumberOfAverages": 1.0,
      "NumberOfPhaseEncodingSteps": 82,
      "PercentPhaseFieldOfView": 100.0,
      "PercentSampling": 100.0,
      "PerformedProcedureStepStartTime": "085915.707000",
      "PhotometricInterpretation": "MONOCHROME2",
      "PixelBandwidth": 3050.0,
      "PixelRepresentation": 0,
      "PixelSpacing": [2.6829268932343, 2.6829268932343],
      "ProtocolName": "func_run-04_task-social_acq-ap-mb8",
      "RepetitionTime": 460.0,
      "Rows": 656,
      "SAR": 0.09079283927412,
      "SamplesPerPixel": 1,
      "ScanOptions": "FS",
      "ScanningSequence": "EP",
      "SequenceName": "epfid2d1_82",
      "SequenceVariant": [
        "SK",
        "SS"
],
      "SeriesDescription": "func_run-04_task-social_acq-ap-mb8",
      "SeriesNumber": 14,
      "SeriesTime": "100624.152000",
      "SliceLocation": -73.342074403678,
      "SliceThickness": 2.7000000476837,
      "SmallestImagePixelValue": 0,
      "SoftwareVersions": "syngo MR E11",
      "SpacingBetweenSlices": 2.7000000950008,
      "SpecificCharacterSet": "ISO_IR 100",
      "StudyID": "1",
      "StudyTime": "085915.583000",
      "TransmitCoilName": "Body",
      "VariableFlipAngleFlag": "N",
      "WindowCenterWidthExplanation": "Algo1",
      "dBdt": 0.0},
    "slices": {}
  },
  "time": {
    "samples": {
      "AcquisitionNumber": [1, 2, 3, 4, 5, 6, 7, 8, 9, 10, 11, 12, 13, 14, 15, 16, 17, 18, 19, 20, 21, 22, 23, 24, 25, 26, 27, 28, 29, 30, 31, 32, 33, 34, 35, 36, 37, 38, 39, 40, 41, 42, 43, 44, 45, 46, 47, 48, 49, 50, 51, 52, 53, 54, 55, 56, 57, 58, 59, 60, 61, 62, 63, 64, 65, 66, 67, 68, 69, 70, 71, 72, 73, 74, 75, 76, 77, 78, 79, 80, 81, 82, 83, 84, 85, 86, 87, 88, 89, 90, 91, 92, 93, 94, 95, 96, 97, 98, 99, 100, 101, 102, 103, 104, 105, 106, 107, 108, 109, 110, 111, 112, 113, 114, 115, 116, 117, 118, 119, 120, 121, 122, 123, 124, 125, 126, 127, 128, 129, 130, 131, 132, 133, 134, 135, 136, 137, 138, 139, 140, 141, 142, 143, 144, 145, 146, 147, 148, 149, 150, 151, 152, 153, 154, 155, 156, 157, 158, 159, 160, 161, 162, 163, 164, 165, 166, 167, 168, 169, 170, 171, 172, 173, 174, 175, 176, 177, 178, 179, 180, 181, 182, 183, 184, 185, 186, 187, 188, 189, 190, 191, 192, 193, 194, 195, 196, 197, 198, 199, 200, 201, 202, 203, 204, 205, 206, 207, 208, 209, 210, 211, 212, 213, 214, 215, 216, 217, 218, 219, 220, 221, 222, 223, 224, 225, 226, 227, 228, 229, 230, 231, 232, 233, 234, 235, 236, 237, 238, 239, 240, 241, 242, 243, 244, 245, 246, 247, 248, 249, 250, 251, 252, 253, 254, 255, 256, 257, 258, 259, 260, 261, 262, 263, 264, 265, 266, 267, 268, 269, 270, 271, 272, 273, 274, 275, 276, 277, 278, 279, 280, 281, 282, 283, 284, 285, 286, 287, 288, 289, 290, 291, 292, 293, 294, 295, 296, 297, 298, 299, 300, 301, 302, 303, 304, 305, 306, 307, 308, 309, 310, 311, 312, 313, 314, 315, 316, 317, 318, 319, 320, 321, 322, 323, 324, 325, 326, 327, 328, 329, 330, 331, 332, 333, 334, 335, 336, 337, 338, 339, 340, 341, 342, 343, 344, 345, 346, 347, 348, 349, 350, 351, 352, 353, 354, 355, 356, 357, 358, 359, 360, 361, 362, 363, 364, 365, 366, 367, 368, 369, 370, 371, 372, 373, 374, 375, 376, 377, 378, 379, 380, 381, 382, 383, 384, 385, 386, 387, 388, 389, 390, 391, 392, 393, 394, 395, 396, 397, 398, 399, 400, 401, 402, 403, 404, 405, 406, 407, 408, 409, 410, 411, 412, 413, 414, 415, 416, 417, 418, 419, 420, 421, 422, 423, 424, 425, 426, 427, 428, 429, 430, 431, 432, 433, 434, 435, 436, 437, 438, 439, 440, 441, 442, 443, 444, 445, 446, 447, 448, 449, 450, 451, 452, 453, 454, 455, 456, 457, 458, 459, 460, 461, 462, 463, 464, 465, 466, 467, 468, 469, 470, 471, 472, 473, 474, 475, 476, 477, 478, 479, 480, 481, 482, 483, 484, 485, 486, 487, 488, 489, 490, 491, 492, 493, 494, 495, 496, 497, 498, 499, 500, 501, 502, 503, 504, 505, 506, 507, 508, 509, 510, 511, 512, 513, 514, 515, 516, 517, 518, 519, 520, 521, 522, 523, 524, 525, 526, 527, 528, 529, 530, 531, 532, 533, 534, 535, 536, 537, 538, 539, 540, 541, 542, 543, 544, 545, 546, 547, 548, 549, 550, 551, 552, 553, 554, 555, 556, 557, 558, 559, 560, 561, 562, 563, 564, 565, 566, 567, 568, 569, 570, 571, 572, 573, 574, 575, 576, 577, 578, 579, 580, 581, 582, 583, 584, 585, 586, 587, 588, 589, 590, 591, 592, 593, 594, 595, 596, 597, 598, 599, 600, 601, 602, 603, 604, 605, 606, 607, 608, 609, 610, 611, 612, 613, 614, 615, 616, 617, 618, 619, 620, 621, 622, 623, 624, 625, 626, 627, 628, 629, 630, 631, 632, 633, 634, 635, 636, 637, 638, 639, 640, 641, 642, 643, 644, 645, 646, 647, 648, 649, 650, 651, 652, 653, 654, 655, 656, 657, 658, 659, 660, 661, 662, 663, 664, 665, 666, 667, 668, 669, 670, 671, 672, 673, 674, 675, 676, 677, 678, 679, 680, 681, 682, 683, 684, 685, 686, 687, 688, 689, 690, 691, 692, 693, 694, 695, 696, 697, 698, 699, 700, 701, 702, 703, 704, 705, 706, 707, 708, 709, 710, 711, 712, 713, 714, 715, 716, 717, 718, 719, 720, 721, 722, 723, 724, 725, 726, 727, 728, 729, 730, 731, 732, 733, 734, 735, 736, 737, 738, 739, 740, 741, 742, 743, 744, 745, 746, 747, 748, 749, 750, 751, 752, 753, 754, 755, 756, 757, 758, 759, 760, 761, 762, 763, 764, 765, 766, 767, 768, 769, 770, 771, 772, 773, 774, 775, 776, 777, 778, 779, 780, 781, 782, 783, 784, 785, 786, 787, 788, 789, 790, 791, 792, 793, 794, 795, 796, 797, 798, 799, 800, 801, 802, 803, 804, 805, 806, 807, 808, 809, 810, 811, 812, 813, 814, 815, 816, 817, 818, 819, 820, 821, 822, 823, 824, 825, 826, 827, 828, 829, 830, 831, 832, 833, 834, 835, 836, 837, 838, 839, 840, 841, 842, 843, 844, 845, 846, 847, 848, 849, 850, 851, 852, 853, 854, 855, 856, 857, 858, 859, 860, 861, 862, 863, 864, 865, 866, 867, 868, 869, 870, 871, 872],
      "AcquisitionTime": ["100556.955000", "100557.415000", "100557.875000", "100558.335000", "100558.795000", "100559.255000", "100559.715000", "100600.175000", "100600.635000", "100601.095000", "100601.555000", "100602.015000", "100602.475000", "100602.935000", "100603.395000", "100603.855000", "100604.315000", "100604.775000", "100605.235000", "100605.695000", "100606.155000", "100606.615000", "100607.075000", "100607.535000", "100607.995000", "100608.455000", "100608.915000", "100609.375000", "100609.835000", "100610.295000", "100610.755000", "100611.215000", "100611.675000", "100612.135000", "100612.595000", "100613.055000", "100613.515000", "100613.975000", "100614.435000", "100614.895000", "100615.355000", "100615.815000", "100616.275000", "100616.735000", "100617.195000", "100617.655000", "100618.115000", "100618.575000", "100619.035000", "100619.495000", "100619.955000", "100620.415000", "100620.875000", "100621.335000", "100621.795000", "100622.255000", "100622.715000", "100623.175000", "100623.635000", "100624.095000", "100624.555000", "100625.015000", "100625.475000", "100625.935000", "100626.395000", "100626.855000", "100627.315000", "100627.775000", "100628.235000", "100628.695000", "100629.155000", "100629.615000", "100630.075000", "100630.535000", "100630.995000", "100631.455000", "100631.915000", "100632.375000", "100632.835000", "100633.295000", "100633.755000", "100634.215000", "100634.675000", "100635.135000", "100635.595000", "100636.055000", "100636.515000", "100636.975000", "100637.435000", "100637.895000", "100638.355000", "100638.815000", "100639.275000", "100639.735000", "100640.195000", "100640.655000", "100641.115000", "100641.575000", "100642.035000", "100642.495000", "100642.955000", "100643.415000", "100643.875000", "100644.335000", "100644.795000", "100645.255000", "100645.715000", "100646.175000", "100646.635000", "100647.095000", "100647.555000", "100648.015000", "100648.475000", "100648.935000", "100649.395000", "100649.855000", "100650.315000", "100650.775000", "100651.235000", "100651.695000", "100652.155000", "100652.615000", "100653.075000", "100653.535000", "100653.995000", "100654.455000", "100654.915000", "100655.375000", "100655.835000", "100656.295000", "100656.755000", "100657.215000", "100657.675000", "100658.135000", "100658.595000", "100659.055000", "100659.515000", "100659.975000", "100700.435000", "100700.895000", "100701.355000", "100701.815000", "100702.275000", "100702.735000", "100703.195000", "100703.655000", "100704.115000", "100704.575000", "100705.035000", "100705.495000", "100705.955000", "100706.415000", "100706.875000", "100707.335000", "100707.795000", "100708.255000", "100708.715000", "100709.175000", "100709.635000", "100710.095000", "100710.555000", "100711.015000", "100711.475000", "100711.935000", "100712.395000", "100712.855000", "100713.315000", "100713.775000", "100714.235000", "100714.695000", "100715.155000", "100715.615000", "100716.075000", "100716.535000", "100716.995000", "100717.455000", "100717.915000", "100718.375000", "100718.835000", "100719.295000", "100719.755000", "100720.215000", "100720.675000", "100721.135000", "100721.595000", "100722.055000", "100722.515000", "100722.975000", "100723.435000", "100723.895000", "100724.355000", "100724.815000", "100725.275000", "100725.735000", "100726.195000", "100726.655000", "100727.115000", "100727.575000", "100728.035000", "100728.495000", "100728.955000", "100729.415000", "100729.875000", "100730.335000", "100730.795000", "100731.255000", "100731.715000", "100732.175000", "100732.635000", "100733.095000", "100733.555000", "100734.015000", "100734.475000", "100734.935000", "100735.395000", "100735.855000", "100736.315000", "100736.775000", "100737.235000", "100737.695000", "100738.155000", "100738.615000", "100739.075000", "100739.535000", "100739.995000", "100740.455000", "100740.915000", "100741.375000", "100741.835000", "100742.295000", "100742.755000", "100743.215000", "100743.675000", "100744.135000", "100744.595000", "100745.055000", "100745.515000", "100745.975000", "100746.435000", "100746.895000", "100747.355000", "100747.815000", "100748.275000", "100748.735000", "100749.195000", "100749.655000", "100750.115000", "100750.575000", "100751.035000", "100751.495000", "100751.955000", "100752.415000", "100752.875000", "100753.335000", "100753.795000", "100754.255000", "100754.715000", "100755.175000", "100755.635000", "100756.095000", "100756.555000", "100757.015000", "100757.475000", "100757.935000", "100758.395000", "100758.855000", "100759.315000", "100759.775000", "100800.235000", "100800.695000", "100801.155000", "100801.615000", "100802.075000", "100802.535000", "100802.995000", "100803.455000", "100803.915000", "100804.375000", "100804.835000", "100805.295000", "100805.755000", "100806.215000", "100806.675000", "100807.135000", "100807.595000", "100808.055000", "100808.515000", "100808.975000", "100809.435000", "100809.895000", "100810.355000", "100810.815000", "100811.275000", "100811.735000", "100812.195000", "100812.655000", "100813.115000", "100813.575000", "100814.035000", "100814.495000", "100814.955000", "100815.415000", "100815.875000", "100816.335000", "100816.795000", "100817.255000", "100817.715000", "100818.175000", "100818.635000", "100819.095000", "100819.555000", "100820.015000", "100820.475000", "100820.935000", "100821.395000", "100821.855000", "100822.315000", "100822.775000", "100823.235000", "100823.695000", "100824.155000", "100824.615000", "100825.075000", "100825.535000", "100825.995000", "100826.455000", "100826.915000", "100827.375000", "100827.835000", "100828.295000", "100828.755000", "100829.215000", "100829.675000", "100830.135000", "100830.595000", "100831.055000", "100831.515000", "100831.975000", "100832.435000", "100832.895000", "100833.355000", "100833.815000", "100834.275000", "100834.735000", "100835.195000", "100835.655000", "100836.115000", "100836.575000", "100837.035000", "100837.495000", "100837.955000", "100838.415000", "100838.875000", "100839.335000", "100839.795000", "100840.255000", "100840.715000", "100841.175000", "100841.635000", "100842.095000", "100842.555000", "100843.015000", "100843.475000", "100843.935000", "100844.395000", "100844.855000", "100845.315000", "100845.775000", "100846.235000", "100846.695000", "100847.155000", "100847.615000", "100848.075000", "100848.535000", "100848.995000", "100849.455000", "100849.915000", "100850.375000", "100850.835000", "100851.295000", "100851.755000", "100852.215000", "100852.675000", "100853.135000", "100853.595000", "100854.055000", "100854.515000", "100854.975000", "100855.435000", "100855.895000", "100856.355000", "100856.815000", "100857.275000", "100857.735000", "100858.195000", "100858.655000", "100859.115000", "100859.575000", "100900.035000", "100900.495000", "100900.955000", "100901.415000", "100901.875000", "100902.335000", "100902.795000", "100903.255000", "100903.715000", "100904.175000", "100904.635000", "100905.095000", "100905.555000", "100906.015000", "100906.475000", "100906.935000", "100907.395000", "100907.855000", "100908.315000", "100908.775000", "100909.235000", "100909.695000", "100910.155000", "100910.615000", "100911.075000", "100911.535000", "100911.995000", "100912.455000", "100912.915000", "100913.375000", "100913.835000", "100914.295000", "100914.755000", "100915.215000", "100915.675000", "100916.135000", "100916.595000", "100917.055000", "100917.515000", "100917.975000", "100918.435000", "100918.895000", "100919.355000", "100919.815000", "100920.275000", "100920.735000", "100921.195000", "100921.655000", "100922.115000", "100922.575000", "100923.035000", "100923.495000", "100923.955000", "100924.415000", "100924.875000", "100925.335000", "100925.795000", "100926.255000", "100926.715000", "100927.175000", "100927.635000", "100928.095000", "100928.555000", "100929.015000", "100929.475000", "100929.935000", "100930.395000", "100930.855000", "100931.315000", "100931.775000", "100932.235000", "100932.695000", "100933.155000", "100933.615000", "100934.075000", "100934.535000", "100934.995000", "100935.455000", "100935.915000", "100936.375000", "100936.835000", "100937.295000", "100937.755000", "100938.215000", "100938.675000", "100939.135000", "100939.595000", "100940.055000", "100940.515000", "100940.975000", "100941.435000", "100941.895000", "100942.355000", "100942.815000", "100943.275000", "100943.735000", "100944.195000", "100944.655000", "100945.115000", "100945.575000", "100946.035000", "100946.495000", "100946.955000", "100947.415000", "100947.875000", "100948.335000", "100948.795000", "100949.255000", "100949.715000", "100950.175000", "100950.635000", "100951.095000", "100951.555000", "100952.015000", "100952.475000", "100952.935000", "100953.395000", "100953.855000", "100954.315000", "100954.775000", "100955.235000", "100955.695000", "100956.155000", "100956.615000", "100957.075000", "100957.535000", "100957.995000", "100958.455000", "100958.915000", "100959.375000", "100959.835000", "101000.295000", "101000.755000", "101001.215000", "101001.675000", "101002.135000", "101002.595000", "101003.055000", "101003.515000", "101003.975000", "101004.435000", "101004.895000", "101005.355000", "101005.815000", "101006.275000", "101006.735000", "101007.195000", "101007.655000", "101008.115000", "101008.575000", "101009.035000", "101009.495000", "101009.955000", "101010.415000", "101010.875000", "101011.335000", "101011.795000", "101012.255000", "101012.715000", "101013.175000", "101013.635000", "101014.095000", "101014.555000", "101015.015000", "101015.475000", "101015.935000", "101016.395000", "101016.855000", "101017.315000", "101017.775000", "101018.235000", "101018.695000", "101019.155000", "101019.615000", "101020.075000", "101020.535000", "101020.995000", "101021.455000", "101021.915000", "101022.375000", "101022.835000", "101023.295000", "101023.755000", "101024.215000", "101024.675000", "101025.135000", "101025.595000", "101026.055000", "101026.515000", "101026.975000", "101027.435000", "101027.895000", "101028.355000", "101028.815000", "101029.275000", "101029.735000", "101030.195000", "101030.655000", "101031.115000", "101031.575000", "101032.035000", "101032.495000", "101032.955000", "101033.415000", "101033.875000", "101034.335000", "101034.795000", "101035.255000", "101035.715000", "101036.175000", "101036.635000", "101037.095000", "101037.555000", "101038.015000", "101038.475000", "101038.935000", "101039.395000", "101039.855000", "101040.315000", "101040.775000", "101041.235000", "101041.695000", "101042.155000", "101042.615000", "101043.075000", "101043.535000", "101043.995000", "101044.455000", "101044.915000", "101045.375000", "101045.835000", "101046.295000", "101046.755000", "101047.215000", "101047.675000", "101048.135000", "101048.595000", "101049.055000", "101049.515000", "101049.975000", "101050.435000", "101050.895000", "101051.355000", "101051.815000", "101052.275000", "101052.735000", "101053.195000", "101053.655000", "101054.115000", "101054.575000", "101055.035000", "101055.495000", "101055.955000", "101056.415000", "101056.875000", "101057.335000", "101057.795000", "101058.255000", "101058.715000", "101059.175000", "101059.635000", "101100.095000", "101100.555000", "101101.015000", "101101.475000", "101101.935000", "101102.395000", "101102.855000", "101103.315000", "101103.775000", "101104.235000", "101104.695000", "101105.155000", "101105.615000", "101106.075000", "101106.535000", "101106.995000", "101107.455000", "101107.915000", "101108.375000", "101108.835000", "101109.295000", "101109.755000", "101110.215000", "101110.675000", "101111.135000", "101111.595000", "101112.055000", "101112.515000", "101112.975000", "101113.435000", "101113.895000", "101114.355000", "101114.815000", "101115.275000", "101115.735000", "101116.195000", "101116.655000", "101117.115000", "101117.575000", "101118.035000", "101118.495000", "101118.955000", "101119.415000", "101119.875000", "101120.335000", "101120.795000", "101121.255000", "101121.715000", "101122.175000", "101122.635000", "101123.095000", "101123.555000", "101124.015000", "101124.475000", "101124.935000", "101125.395000", "101125.855000", "101126.315000", "101126.775000", "101127.235000", "101127.695000", "101128.155000", "101128.615000", "101129.075000", "101129.535000", "101129.995000", "101130.455000", "101130.915000", "101131.375000", "101131.835000", "101132.295000", "101132.755000", "101133.215000", "101133.675000", "101134.135000", "101134.595000", "101135.055000", "101135.515000", "101135.975000", "101136.435000", "101136.895000", "101137.355000", "101137.815000", "101138.275000", "101138.735000", "101139.195000", "101139.655000", "101140.115000", "101140.575000", "101141.035000", "101141.495000", "101141.955000", "101142.415000", "101142.875000", "101143.335000", "101143.795000", "101144.255000", "101144.715000", "101145.175000", "101145.635000", "101146.095000", "101146.555000", "101147.015000", "101147.475000", "101147.935000", "101148.395000", "101148.855000", "101149.315000", "101149.775000", "101150.235000", "101150.695000", "101151.155000", "101151.615000", "101152.075000", "101152.535000", "101152.995000", "101153.455000", "101153.915000", "101154.375000", "101154.835000", "101155.295000", "101155.755000", "101156.215000", "101156.675000", "101157.135000", "101157.595000", "101158.055000", "101158.515000", "101158.975000", "101159.435000", "101159.895000", "101200.355000", "101200.815000", "101201.275000", "101201.735000", "101202.195000", "101202.655000", "101203.115000", "101203.575000", "101204.035000", "101204.495000", "101204.955000", "101205.415000", "101205.875000", "101206.335000", "101206.795000", "101207.255000", "101207.715000", "101208.175000", "101208.635000", "101209.095000", "101209.555000", "101210.015000", "101210.475000", "101210.935000", "101211.395000", "101211.855000", "101212.315000", "101212.775000", "101213.235000", "101213.695000", "101214.155000", "101214.615000", "101215.075000", "101215.535000", "101215.995000", "101216.455000", "101216.915000", "101217.375000", "101217.835000", "101218.295000", "101218.755000", "101219.215000", "101219.675000", "101220.135000", "101220.595000", "101221.055000", "101221.515000", "101221.975000", "101222.435000", "101222.895000", "101223.355000", "101223.815000", "101224.275000", "101224.735000", "101225.195000", "101225.655000", "101226.115000", "101226.575000", "101227.035000", "101227.495000", "101227.955000", "101228.415000", "101228.875000", "101229.335000", "101229.795000", "101230.255000", "101230.715000", "101231.175000", "101231.635000", "101232.095000", "101232.555000", "101233.015000", "101233.475000", "101233.935000", "101234.395000", "101234.855000", "101235.315000", "101235.775000", "101236.235000", "101236.695000", "101237.155000", "101237.615000"],
