{
  "AcquisitionMatrixPE": 82,
  "AcquisitionNumber": 1,
  "AcquisitionTime": "10:12:57.097500",
  "BandwidthPerPixelPhaseEncode": 24.888,
  "BaseResolution": 82,
  "BodyPartExamined": "BRAIN",
  "ConsistencyInfo": "N4_VE11C_LATEST_20160120",
  "ConversionSoftware": "dcm2niix",
  "ConversionSoftwareVersion": "v1.0.20201102",
  "DerivedVendorReportedEchoSpacing": 0.00049,
  "DeviceSerialNumber": "66112",
  "DwellTime": 2e-06,
  "EchoTime": 0.0272,
  "EchoTrainLength": 82,
  "EffectiveEchoSpacing": 0.00049,
  "FlipAngle": 44,
  "ImageComments": "Unaliased MB8/PE3",
  "ImageOrientationPatientDICOM": [0.999306, 0.0195616, -0.0316904, -0.0146516, 0.988825, 0.148358],
  "ImageType": [
    "ORIGINAL",
    "PRIMARY",
    "M",
    "MB",
    "ND",
    "NORM",
    "MOSAIC"
],
  "ImagingFrequency": 123.252,
  "InPlanePhaseEncodingDirectionDICOM": "COL",
  "InstitutionAddress": "Maynard 3,Hanover,NH,US,03755",
  "InstitutionName": "Dartmouth College - PBS",
  "InstitutionalDepartmentName": "Department",
  "MRAcquisitionType": "2D",
  "MagneticFieldStrength": 3,
  "Manufacturer": "Siemens",
  "ManufacturersModelName": "Prisma",
  "Modality": "MR",
  "MultibandAccelerationFactor": 8,
  "PartialFourier": 1,
  "PatientPosition": "HFS",
  "PercentPhaseFOV": 100,
  "PercentSampling": 100,
  "PhaseEncodingDirection": "j-",
  "PhaseEncodingSteps": 82,
  "PhaseResolution": 1,
  "PixelBandwidth": 3050,
  "ProcedureStepDescription": "Wager_Wager^1076_spacetop",
  "ProtocolName": "func_run-05_task-social_acq-ap-mb8",
  "PulseSequenceDetails": "%CustomerSeq%\\cmrr_mbep2d_bold",
  "ReceiveCoilActiveElements": "HEA;HEP",
  "ReceiveCoilName": "Head_32",
  "ReconMatrixPE": 82,
  "RepetitionTime": 0.46,
  "SAR": 0.0907928,
  "ScanOptions": "FS",
  "ScanningSequence": "EP",
  "SequenceName": "epfid2d1_82",
  "SequenceVariant": "SK\\SS",
  "SeriesDescription": "func_run-05_task-social_acq-ap-mb8",
  "SeriesNumber": 16,
  "ShimSetting": [4136, -7738, -7290, 612, -46, -248, 16, 103],
  "SliceThickness": 2.7,
  "SliceTiming": [0, 0.2525, 0.065, 0.315, 0.1275, 0.3775, 0.19, 0, 0.2525, 0.065, 0.315, 0.1275, 0.3775, 0.19, 0, 0.2525, 0.065, 0.315, 0.1275, 0.3775, 0.19, 0, 0.2525, 0.065, 0.315, 0.1275, 0.3775, 0.19, 0, 0.2525, 0.065, 0.315, 0.1275, 0.3775, 0.19, 0, 0.2525, 0.065, 0.315, 0.1275, 0.3775, 0.19, 0, 0.2525, 0.065, 0.315, 0.1275, 0.3775, 0.19, 0, 0.2525, 0.065, 0.315, 0.1275, 0.3775, 0.19],
  "SoftwareVersions": "syngo MR E11",
  "SpacingBetweenSlices": 2.7,
  "StationName": "AWP66112",
  "TaskName": "social",
  "TotalReadoutTime": 0.03969,
  "TxRefAmp": 227.22,
  "WipMemBlock": "c98a5055-277f-4e30-890e-d84e2e18a100||Sequence: R016 ve11c/master r/e634e98; Dec 19 2017 11:00:25 by eja",
  "dcmmeta_affine": [
    [-2.681065797805786, -0.039309289306402206, -0.09244362264871597, 117.6941146850586],
    [-0.05248233675956726, 2.6529457569122314, 0.39903488755226135, -98.8237075805664],
    [-0.08502300828695297, -0.39803346991539, 2.6687498092651367, -55.34779739379883],
    [0.0, 0.0, 0.0, 1.0]
],
  "dcmmeta_reorient_transform": [
    [0.0, -1.0, 0.0, 81.0],
    [1.0, 0.0, 0.0, 0.0],
    [0.0, 0.0, 1.0, 0.0],
    [0.0, 0.0, 0.0, 1.0]
],
  "dcmmeta_shape": [82, 82, 56, 872],
  "dcmmeta_slice_dim": 2,
  "dcmmeta_version": 0.6,
  "global": {
    "const": {
      "AccessionNumber": "A003449",
      "AcquisitionMatrix": [82, 0, 0, 82],
      "AngioFlag": "N",
      "BitsAllocated": 16,
      "BitsStored": 16,
      "BodyPartExamined": "BRAIN",
      "Columns": 656,
      "EchoNumbers": 1,
      "EchoTime": 27.2,
      "EchoTrainLength": 82,
      "FlipAngle": 44.0,
      "HighBit": 15,
      "ImageOrientationPatient": [0.99930629078401, 0.01956159782526, -0.0316903942863, -0.0146516432904, 0.98882518853771, 0.14835793157851],
      "ImagePositionPatient": [-872.69416238272, -892.52273858467, -177.42251644167],
      "ImageType": [
        "ORIGINAL",
        "PRIMARY",
        "M",
        "MB",
        "ND",
        "NORM",
        "MOSAIC"
],
      "ImagedNucleus": "1H",
      "ImagingFrequency": 123.252177,
      "InPlanePhaseEncodingDirection": "COL",
      "MRAcquisitionType": "2D",
      "MagneticFieldStrength": 3.0,
      "Manufacturer": "SIEMENS",
      "ManufacturerModelName": "Prisma",
      "Modality": "MR",
      "NumberOfAverages": 1.0,
      "NumberOfPhaseEncodingSteps": 82,
      "PercentPhaseFieldOfView": 100.0,
      "PercentSampling": 100.0,
      "PerformedProcedureStepStartTime": "085915.707000",
      "PhotometricInterpretation": "MONOCHROME2",
      "PixelBandwidth": 3050.0,
      "PixelRepresentation": 0,
      "PixelSpacing": [2.6829268932343, 2.6829268932343],
      "ProtocolName": "func_run-05_task-social_acq-ap-mb8",
      "RepetitionTime": 460.0,
      "Rows": 656,
      "SAR": 0.09079283927412,
      "SamplesPerPixel": 1,
      "ScanOptions": "FS",
      "ScanningSequence": "EP",
      "SequenceName": "epfid2d1_82",
      "SequenceVariant": [
        "SK",
        "SS"
],
      "SeriesDescription": "func_run-05_task-social_acq-ap-mb8",
      "SeriesNumber": 16,
      "SeriesTime": "101324.215000",
      "SliceLocation": -73.342074403678,
      "SliceThickness": 2.7000000476837,
      "SmallestImagePixelValue": 0,
      "SoftwareVersions": "syngo MR E11",
      "SpacingBetweenSlices": 2.7000000950008,
      "SpecificCharacterSet": "ISO_IR 100",
      "StudyID": "1",
      "StudyTime": "085915.583000",
      "TransmitCoilName": "Body",
      "VariableFlipAngleFlag": "N",
      "WindowCenterWidthExplanation": "Algo1",
      "dBdt": 0.0},
    "slices": {}
  },
  "time": {
    "samples": {
      "AcquisitionNumber": [1, 2, 3, 4, 5, 6, 7, 8, 9, 10, 11, 12, 13, 14, 15, 16, 17, 18, 19, 20, 21, 22, 23, 24, 25, 26, 27, 28, 29, 30, 31, 32, 33, 34, 35, 36, 37, 38, 39, 40, 41, 42, 43, 44, 45, 46, 47, 48, 49, 50, 51, 52, 53, 54, 55, 56, 57, 58, 59, 60, 61, 62, 63, 64, 65, 66, 67, 68, 69, 70, 71, 72, 73, 74, 75, 76, 77, 78, 79, 80, 81, 82, 83, 84, 85, 86, 87, 88, 89, 90, 91, 92, 93, 94, 95, 96, 97, 98, 99, 100, 101, 102, 103, 104, 105, 106, 107, 108, 109, 110, 111, 112, 113, 114, 115, 116, 117, 118, 119, 120, 121, 122, 123, 124, 125, 126, 127, 128, 129, 130, 131, 132, 133, 134, 135, 136, 137, 138, 139, 140, 141, 142, 143, 144, 145, 146, 147, 148, 149, 150, 151, 152, 153, 154, 155, 156, 157, 158, 159, 160, 161, 162, 163, 164, 165, 166, 167, 168, 169, 170, 171, 172, 173, 174, 175, 176, 177, 178, 179, 180, 181, 182, 183, 184, 185, 186, 187, 188, 189, 190, 191, 192, 193, 194, 195, 196, 197, 198, 199, 200, 201, 202, 203, 204, 205, 206, 207, 208, 209, 210, 211, 212, 213, 214, 215, 216, 217, 218, 219, 220, 221, 222, 223, 224, 225, 226, 227, 228, 229, 230, 231, 232, 233, 234, 235, 236, 237, 238, 239, 240, 241, 242, 243, 244, 245, 246, 247, 248, 249, 250, 251, 252, 253, 254, 255, 256, 257, 258, 259, 260, 261, 262, 263, 264, 265, 266, 267, 268, 269, 270, 271, 272, 273, 274, 275, 276, 277, 278, 279, 280, 281, 282, 283, 284, 285, 286, 287, 288, 289, 290, 291, 292, 293, 294, 295, 296, 297, 298, 299, 300, 301, 302, 303, 304, 305, 306, 307, 308, 309, 310, 311, 312, 313, 314, 315, 316, 317, 318, 319, 320, 321, 322, 323, 324, 325, 326, 327, 328, 329, 330, 331, 332, 333, 334, 335, 336, 337, 338, 339, 340, 341, 342, 343, 344, 345, 346, 347, 348, 349, 350, 351, 352, 353, 354, 355, 356, 357, 358, 359, 360, 361, 362, 363, 364, 365, 366, 367, 368, 369, 370, 371, 372, 373, 374, 375, 376, 377, 378, 379, 380, 381, 382, 383, 384, 385, 386, 387, 388, 389, 390, 391, 392, 393, 394, 395, 396, 397, 398, 399, 400, 401, 402, 403, 404, 405, 406, 407, 408, 409, 410, 411, 412, 413, 414, 415, 416, 417, 418, 419, 420, 421, 422, 423, 424, 425, 426, 427, 428, 429, 430, 431, 432, 433, 434, 435, 436, 437, 438, 439, 440, 441, 442, 443, 444, 445, 446, 447, 448, 449, 450, 451, 452, 453, 454, 455, 456, 457, 458, 459, 460, 461, 462, 463, 464, 465, 466, 467, 468, 469, 470, 471, 472, 473, 474, 475, 476, 477, 478, 479, 480, 481, 482, 483, 484, 485, 486, 487, 488, 489, 490, 491, 492, 493, 494, 495, 496, 497, 498, 499, 500, 501, 502, 503, 504, 505, 506, 507, 508, 509, 510, 511, 512, 513, 514, 515, 516, 517, 518, 519, 520, 521, 522, 523, 524, 525, 526, 527, 528, 529, 530, 531, 532, 533, 534, 535, 536, 537, 538, 539, 540, 541, 542, 543, 544, 545, 546, 547, 548, 549, 550, 551, 552, 553, 554, 555, 556, 557, 558, 559, 560, 561, 562, 563, 564, 565, 566, 567, 568, 569, 570, 571, 572, 573, 574, 575, 576, 577, 578, 579, 580, 581, 582, 583, 584, 585, 586, 587, 588, 589, 590, 591, 592, 593, 594, 595, 596, 597, 598, 599, 600, 601, 602, 603, 604, 605, 606, 607, 608, 609, 610, 611, 612, 613, 614, 615, 616, 617, 618, 619, 620, 621, 622, 623, 624, 625, 626, 627, 628, 629, 630, 631, 632, 633, 634, 635, 636, 637, 638, 639, 640, 641, 642, 643, 644, 645, 646, 647, 648, 649, 650, 651, 652, 653, 654, 655, 656, 657, 658, 659, 660, 661, 662, 663, 664, 665, 666, 667, 668, 669, 670, 671, 672, 673, 674, 675, 676, 677, 678, 679, 680, 681, 682, 683, 684, 685, 686, 687, 688, 689, 690, 691, 692, 693, 694, 695, 696, 697, 698, 699, 700, 701, 702, 703, 704, 705, 706, 707, 708, 709, 710, 711, 712, 713, 714, 715, 716, 717, 718, 719, 720, 721, 722, 723, 724, 725, 726, 727, 728, 729, 730, 731, 732, 733, 734, 735, 736, 737, 738, 739, 740, 741, 742, 743, 744, 745, 746, 747, 748, 749, 750, 751, 752, 753, 754, 755, 756, 757, 758, 759, 760, 761, 762, 763, 764, 765, 766, 767, 768, 769, 770, 771, 772, 773, 774, 775, 776, 777, 778, 779, 780, 781, 782, 783, 784, 785, 786, 787, 788, 789, 790, 791, 792, 793, 794, 795, 796, 797, 798, 799, 800, 801, 802, 803, 804, 805, 806, 807, 808, 809, 810, 811, 812, 813, 814, 815, 816, 817, 818, 819, 820, 821, 822, 823, 824, 825, 826, 827, 828, 829, 830, 831, 832, 833, 834, 835, 836, 837, 838, 839, 840, 841, 842, 843, 844, 845, 846, 847, 848, 849, 850, 851, 852, 853, 854, 855, 856, 857, 858, 859, 860, 861, 862, 863, 864, 865, 866, 867, 868, 869, 870, 871, 872],
      "AcquisitionTime": ["101257.097500", "101257.557500", "101258.017500", "101258.477500", "101258.937500", "101259.397500", "101259.857500", "101300.317500", "101300.777500", "101301.237500", "101301.697500", "101302.157500", "101302.617500", "101303.077500", "101303.537500", "101303.997500", "101304.457500", "101304.917500", "101305.377500", "101305.837500", "101306.297500", "101306.757500", "101307.217500", "101307.677500", "101308.137500", "101308.597500", "101309.057500", "101309.517500", "101309.977500", "101310.437500", "101310.897500", "101311.357500", "101311.817500", "101312.277500", "101312.737500", "101313.197500", "101313.657500", "101314.117500", "101314.577500", "101315.037500", "101315.497500", "101315.957500", "101316.417500", "101316.877500", "101317.337500", "101317.797500", "101318.257500", "101318.717500", "101319.177500", "101319.637500", "101320.097500", "101320.557500", "101321.017500", "101321.477500", "101321.937500", "101322.397500", "101322.857500", "101323.317500", "101323.777500", "101324.237500", "101324.697500", "101325.157500", "101325.617500", "101326.077500", "101326.537500", "101326.997500", "101327.457500", "101327.917500", "101328.377500", "101328.837500", "101329.297500", "101329.757500", "101330.217500", "101330.677500", "101331.137500", "101331.597500", "101332.057500", "101332.517500", "101332.977500", "101333.437500", "101333.897500", "101334.357500", "101334.817500", "101335.277500", "101335.737500", "101336.197500", "101336.657500", "101337.117500", "101337.577500", "101338.037500", "101338.497500", "101338.957500", "101339.417500", "101339.877500", "101340.337500", "101340.797500", "101341.257500", "101341.717500", "101342.177500", "101342.637500", "101343.097500", "101343.557500", "101344.017500", "101344.477500", "101344.937500", "101345.397500", "101345.857500", "101346.317500", "101346.777500", "101347.237500", "101347.697500", "101348.157500", "101348.617500", "101349.077500", "101349.537500", "101349.997500", "101350.457500", "101350.917500", "101351.377500", "101351.837500", "101352.297500", "101352.757500", "101353.217500", "101353.677500", "101354.137500", "101354.597500", "101355.057500", "101355.517500", "101355.977500", "101356.437500", "101356.897500", "101357.357500", "101357.817500", "101358.277500", "101358.737500", "101359.197500", "101359.657500", "101400.117500", "101400.577500", "101401.037500", "101401.497500", "101401.957500", "101402.417500", "101402.877500", "101403.337500", "101403.797500", "101404.257500", "101404.717500", "101405.177500", "101405.637500", "101406.097500", "101406.557500", "101407.017500", "101407.477500", "101407.937500", "101408.397500", "101408.857500", "101409.317500", "101409.777500", "101410.237500", "101410.697500", "101411.157500", "101411.617500", "101412.077500", "101412.537500", "101412.997500", "101413.457500", "101413.917500", "101414.377500", "101414.837500", "101415.297500", "101415.757500", "101416.217500", "101416.677500", "101417.137500", "101417.597500", "101418.057500", "101418.517500", "101418.977500", "101419.437500", "101419.897500", "101420.357500", "101420.817500", "101421.277500", "101421.737500", "101422.197500", "101422.657500", "101423.117500", "101423.577500", "101424.037500", "101424.497500", "101424.957500", "101425.417500", "101425.877500", "101426.337500", "101426.797500", "101427.257500", "101427.717500", "101428.177500", "101428.637500", "101429.097500", "101429.557500", "101430.017500", "101430.477500", "101430.937500", "101431.397500", "101431.857500", "101432.317500", "101432.777500", "101433.237500", "101433.697500", "101434.157500", "101434.617500", "101435.077500", "101435.537500", "101435.997500", "101436.457500", "101436.917500", "101437.377500", "101437.837500", "101438.297500", "101438.757500", "101439.217500", "101439.677500", "101440.137500", "101440.597500", "101441.057500", "101441.517500", "101441.977500", "101442.437500", "101442.897500", "101443.357500", "101443.817500", "101444.277500", "101444.737500", "101445.197500", "101445.657500", "101446.117500", "101446.577500", "101447.037500", "101447.497500", "101447.957500", "101448.417500", "101448.877500", "101449.337500", "101449.797500", "101450.257500", "101450.717500", "101451.177500", "101451.637500", "101452.097500", "101452.557500", "101453.017500", "101453.477500", "101453.937500", "101454.397500", "101454.857500", "101455.317500", "101455.777500", "101456.237500", "101456.697500", "101457.157500", "101457.617500", "101458.077500", "101458.537500", "101458.997500", "101459.457500", "101459.917500", "101500.377500", "101500.837500", "101501.297500", "101501.757500", "101502.217500", "101502.677500", "101503.137500", "101503.597500", "101504.057500", "101504.517500", "101504.977500", "101505.437500", "101505.897500", "101506.357500", "101506.817500", "101507.277500", "101507.737500", "101508.197500", "101508.657500", "101509.117500", "101509.577500", "101510.037500", "101510.497500", "101510.957500", "101511.417500", "101511.877500", "101512.337500", "101512.797500", "101513.257500", "101513.717500", "101514.177500", "101514.637500", "101515.097500", "101515.557500", "101516.017500", "101516.477500", "101516.937500", "101517.397500", "101517.857500", "101518.317500", "101518.777500", "101519.237500", "101519.697500", "101520.157500", "101520.617500", "101521.077500", "101521.537500", "101521.997500", "101522.457500", "101522.917500", "101523.377500", "101523.837500", "101524.297500", "101524.757500", "101525.217500", "101525.677500", "101526.137500", "101526.597500", "101527.057500", "101527.517500", "101527.977500", "101528.437500", "101528.897500", "101529.357500", "101529.817500", "101530.277500", "101530.737500", "101531.197500", "101531.657500", "101532.117500", "101532.577500", "101533.037500", "101533.497500", "101533.957500", "101534.417500", "101534.877500", "101535.337500", "101535.797500", "101536.257500", "101536.717500", "101537.177500", "101537.637500", "101538.097500", "101538.557500", "101539.017500", "101539.477500", "101539.937500", "101540.397500", "101540.857500", "101541.317500", "101541.777500", "101542.237500", "101542.697500", "101543.157500", "101543.617500", "101544.077500", "101544.537500", "101544.997500", "101545.457500", "101545.917500", "101546.377500", "101546.837500", "101547.297500", "101547.757500", "101548.217500", "101548.677500", "101549.137500", "101549.597500", "101550.057500", "101550.517500", "101550.977500", "101551.437500", "101551.897500", "101552.357500", "101552.817500", "101553.277500", "101553.737500", "101554.197500", "101554.657500", "101555.117500", "101555.577500", "101556.037500", "101556.497500", "101556.957500", "101557.417500", "101557.877500", "101558.337500", "101558.797500", "101559.257500", "101559.717500", "101600.177500", "101600.637500", "101601.097500", "101601.557500", "101602.017500", "101602.477500", "101602.937500", "101603.397500", "101603.857500", "101604.317500", "101604.777500", "101605.237500", "101605.697500", "101606.157500", "101606.617500", "101607.077500", "101607.537500", "101607.997500", "101608.457500", "101608.917500", "101609.377500", "101609.837500", "101610.297500", "101610.757500", "101611.217500", "101611.677500", "101612.137500", "101612.597500", "101613.057500", "101613.517500", "101613.977500", "101614.437500", "101614.897500", "101615.357500", "101615.817500", "101616.277500", "101616.737500", "101617.197500", "101617.657500", "101618.117500", "101618.577500", "101619.037500", "101619.497500", "101619.957500", "101620.417500", "101620.877500", "101621.337500", "101621.797500", "101622.257500", "101622.717500", "101623.177500", "101623.637500", "101624.097500", "101624.557500", "101625.017500", "101625.477500", "101625.937500", "101626.397500", "101626.857500", "101627.317500", "101627.777500", "101628.237500", "101628.697500", "101629.157500", "101629.617500", "101630.077500", "101630.537500", "101630.997500", "101631.457500", "101631.917500", "101632.377500", "101632.837500", "101633.297500", "101633.757500", "101634.217500", "101634.677500", "101635.137500", "101635.597500", "101636.057500", "101636.517500", "101636.977500", "101637.437500", "101637.897500", "101638.357500", "101638.817500", "101639.277500", "101639.737500", "101640.197500", "101640.657500", "101641.117500", "101641.577500", "101642.037500", "101642.497500", "101642.957500", "101643.417500", "101643.877500", "101644.337500", "101644.797500", "101645.257500", "101645.717500", "101646.177500", "101646.637500", "101647.097500", "101647.557500", "101648.017500", "101648.477500", "101648.937500", "101649.397500", "101649.857500", "101650.317500", "101650.777500", "101651.237500", "101651.697500", "101652.157500", "101652.617500", "101653.077500", "101653.537500", "101653.997500", "101654.457500", "101654.917500", "101655.377500", "101655.837500", "101656.297500", "101656.757500", "101657.217500", "101657.677500", "101658.137500", "101658.597500", "101659.057500", "101659.517500", "101659.977500", "101700.437500", "101700.897500", "101701.357500", "101701.817500", "101702.277500", "101702.737500", "101703.197500", "101703.657500", "101704.117500", "101704.577500", "101705.037500", "101705.497500", "101705.957500", "101706.417500", "101706.877500", "101707.337500", "101707.797500", "101708.257500", "101708.717500", "101709.177500", "101709.637500", "101710.097500", "101710.557500", "101711.017500", "101711.477500", "101711.937500", "101712.397500", "101712.857500", "101713.317500", "101713.777500", "101714.237500", "101714.697500", "101715.157500", "101715.617500", "101716.077500", "101716.537500", "101716.997500", "101717.457500", "101717.917500", "101718.377500", "101718.837500", "101719.297500", "101719.757500", "101720.217500", "101720.677500", "101721.137500", "101721.597500", "101722.057500", "101722.517500", "101722.977500", "101723.437500", "101723.897500", "101724.357500", "101724.817500", "101725.277500", "101725.737500", "101726.197500", "101726.657500", "101727.117500", "101727.577500", "101728.037500", "101728.497500", "101728.957500", "101729.417500", "101729.877500", "101730.337500", "101730.797500", "101731.257500", "101731.717500", "101732.177500", "101732.637500", "101733.097500", "101733.557500", "101734.017500", "101734.477500", "101734.937500", "101735.397500", "101735.857500", "101736.317500", "101736.777500", "101737.237500", "101737.697500", "101738.157500", "101738.617500", "101739.077500", "101739.537500", "101739.997500", "101740.457500", "101740.917500", "101741.377500", "101741.837500", "101742.297500", "101742.757500", "101743.217500", "101743.677500", "101744.137500", "101744.597500", "101745.057500", "101745.517500", "101745.977500", "101746.437500", "101746.897500", "101747.357500", "101747.817500", "101748.277500", "101748.737500", "101749.197500", "101749.657500", "101750.117500", "101750.577500", "101751.037500", "101751.497500", "101751.957500", "101752.417500", "101752.877500", "101753.337500", "101753.797500", "101754.257500", "101754.717500", "101755.177500", "101755.637500", "101756.097500", "101756.557500", "101757.017500", "101757.477500", "101757.937500", "101758.397500", "101758.857500", "101759.317500", "101759.777500", "101800.237500", "101800.697500", "101801.157500", "101801.617500", "101802.077500", "101802.537500", "101802.997500", "101803.457500", "101803.917500", "101804.377500", "101804.837500", "101805.297500", "101805.757500", "101806.217500", "101806.677500", "101807.137500", "101807.597500", "101808.057500", "101808.517500", "101808.977500", "101809.437500", "101809.897500", "101810.357500", "101810.817500", "101811.277500", "101811.737500", "101812.197500", "101812.657500", "101813.117500", "101813.577500", "101814.037500", "101814.497500", "101814.957500", "101815.417500", "101815.877500", "101816.337500", "101816.797500", "101817.257500", "101817.717500", "101818.177500", "101818.637500", "101819.097500", "101819.557500", "101820.017500", "101820.477500", "101820.937500", "101821.397500", "101821.857500", "101822.317500", "101822.777500", "101823.237500", "101823.697500", "101824.157500", "101824.617500", "101825.077500", "101825.537500", "101825.997500", "101826.457500", "101826.917500", "101827.377500", "101827.837500", "101828.297500", "101828.757500", "101829.217500", "101829.677500", "101830.137500", "101830.597500", "101831.057500", "101831.517500", "101831.977500", "101832.437500", "101832.897500", "101833.357500", "101833.817500", "101834.277500", "101834.737500", "101835.197500", "101835.657500", "101836.117500", "101836.577500", "101837.037500", "101837.497500", "101837.957500", "101838.417500", "101838.877500", "101839.337500", "101839.797500", "101840.257500", "101840.717500", "101841.177500", "101841.637500", "101842.097500", "101842.557500", "101843.017500", "101843.477500", "101843.937500", "101844.397500", "101844.857500", "101845.317500", "101845.777500", "101846.237500", "101846.697500", "101847.157500", "101847.617500", "101848.077500", "101848.537500", "101848.997500", "101849.457500", "101849.917500", "101850.377500", "101850.837500", "101851.297500", "101851.757500", "101852.217500", "101852.677500", "101853.137500", "101853.597500", "101854.057500", "101854.517500", "101854.977500", "101855.437500", "101855.897500", "101856.357500", "101856.817500", "101857.277500", "101857.737500", "101858.197500", "101858.657500", "101859.117500", "101859.577500", "101900.037500", "101900.497500", "101900.957500", "101901.417500", "101901.877500", "101902.337500", "101902.797500", "101903.257500", "101903.717500", "101904.177500", "101904.637500", "101905.097500", "101905.557500", "101906.017500", "101906.477500", "101906.937500", "101907.397500", "101907.857500", "101908.317500", "101908.777500", "101909.237500", "101909.697500", "101910.157500", "101910.617500", "101911.077500", "101911.537500", "101911.997500", "101912.457500", "101912.917500", "101913.377500", "101913.837500", "101914.297500", "101914.757500", "101915.217500", "101915.677500", "101916.137500", "101916.597500", "101917.057500", "101917.517500", "101917.977500", "101918.437500", "101918.897500", "101919.357500", "101919.817500", "101920.277500", "101920.737500", "101921.197500", "101921.657500", "101922.117500", "101922.577500", "101923.037500", "101923.497500", "101923.957500", "101924.417500", "101924.877500", "101925.337500", "101925.797500", "101926.257500", "101926.717500", "101927.177500", "101927.637500", "101928.097500", "101928.557500", "101929.017500", "101929.477500", "101929.937500", "101930.397500", "101930.857500", "101931.317500", "101931.777500", "101932.237500", "101932.697500", "101933.157500", "101933.617500", "101934.077500", "101934.537500", "101934.997500", "101935.457500", "101935.917500", "101936.377500", "101936.837500", "101937.297500", "101937.757500"],
