{
  "AcquisitionMatrixPE": 82,
  "AcquisitionNumber": 1,
  "AcquisitionTime": "10:23:26.525000",
  "BandwidthPerPixelPhaseEncode": 24.888,
  "BaseResolution": 82,
  "BodyPartExamined": "BRAIN",
  "ConsistencyInfo": "N4_VE11C_LATEST_20160120",
  "ConversionSoftware": "dcm2niix",
  "ConversionSoftwareVersion": "v1.0.20201102",
  "DerivedVendorReportedEchoSpacing": 0.00049,
  "DeviceSerialNumber": "66112",
  "DwellTime": 2e-06,
  "EchoTime": 0.0272,
  "EchoTrainLength": 82,
  "EffectiveEchoSpacing": 0.00049,
  "FlipAngle": 44,
  "ImageComments": "Unaliased MB8/PE3",
  "ImageOrientationPatientDICOM": [0.999306, 0.0195616, -0.0316904, -0.0146516, 0.988825, 0.148358],
  "ImageType": [
    "ORIGINAL",
    "PRIMARY",
    "M",
    "MB",
    "ND",
    "NORM",
    "MOSAIC"
],
  "ImagingFrequency": 123.252,
  "InPlanePhaseEncodingDirectionDICOM": "COL",
  "InstitutionAddress": "Maynard 3,Hanover,NH,US,03755",
  "InstitutionName": "Dartmouth College - PBS",
  "InstitutionalDepartmentName": "Department",
  "MRAcquisitionType": "2D",
  "MagneticFieldStrength": 3,
  "Manufacturer": "Siemens",
  "ManufacturersModelName": "Prisma",
  "Modality": "MR",
  "MultibandAccelerationFactor": 8,
  "PartialFourier": 1,
  "PatientPosition": "HFS",
  "PercentPhaseFOV": 100,
  "PercentSampling": 100,
  "PhaseEncodingDirection": "j-",
  "PhaseEncodingSteps": 82,
  "PhaseResolution": 1,
  "PixelBandwidth": 3050,
  "ProcedureStepDescription": "Wager_Wager^1076_spacetop",
  "ProtocolName": "func_run-06_task-social_acq-ap-mb8",
  "PulseSequenceDetails": "%CustomerSeq%\\cmrr_mbep2d_bold",
  "ReceiveCoilActiveElements": "HEA;HEP",
  "ReceiveCoilName": "Head_32",
  "ReconMatrixPE": 82,
  "RepetitionTime": 0.46,
  "SAR": 0.0907928,
  "ScanOptions": "FS",
  "ScanningSequence": "EP",
  "SequenceName": "epfid2d1_82",
  "SequenceVariant": "SK\\SS",
  "SeriesDescription": "func_run-06_task-social_acq-ap-mb8",
  "SeriesNumber": 18,
  "ShimSetting": [4136, -7738, -7290, 612, -46, -248, 16, 103],
  "SliceThickness": 2.7,
  "SliceTiming": [0, 0.25, 0.0625, 0.3125, 0.125, 0.3775, 0.1875, 0, 0.25, 0.0625, 0.3125, 0.125, 0.3775, 0.1875, 0, 0.25, 0.0625, 0.3125, 0.125, 0.3775, 0.1875, 0, 0.25, 0.0625, 0.3125, 0.125, 0.3775, 0.1875, 0, 0.25, 0.0625, 0.3125, 0.125, 0.3775, 0.1875, 0, 0.25, 0.0625, 0.3125, 0.125, 0.3775, 0.1875, 0, 0.25, 0.0625, 0.3125, 0.125, 0.3775, 0.1875, 0, 0.25, 0.0625, 0.3125, 0.125, 0.3775, 0.1875],
  "SoftwareVersions": "syngo MR E11",
  "SpacingBetweenSlices": 2.7,
  "StationName": "AWP66112",
  "TaskName": "social",
  "TotalReadoutTime": 0.03969,
  "TxRefAmp": 227.22,
  "WipMemBlock": "4e28ba50-64dd-42ae-b2ae-d1353dce0a29||Sequence: R016 ve11c/master r/e634e98; Dec 19 2017 11:00:25 by eja",
  "dcmmeta_affine": [
    [-2.681065797805786, -0.039309289306402206, -0.09244362264871597, 117.6941146850586],
    [-0.05248233675956726, 2.6529457569122314, 0.39903488755226135, -98.8237075805664],
    [-0.08502300828695297, -0.39803346991539, 2.6687498092651367, -55.34779739379883],
    [0.0, 0.0, 0.0, 1.0]
],
  "dcmmeta_reorient_transform": [
    [0.0, -1.0, 0.0, 81.0],
    [1.0, 0.0, 0.0, 0.0],
    [0.0, 0.0, 1.0, 0.0],
    [0.0, 0.0, 0.0, 1.0]
],
  "dcmmeta_shape": [82, 82, 56, 872],
  "dcmmeta_slice_dim": 2,
  "dcmmeta_version": 0.6,
  "global": {
    "const": {
      "AccessionNumber": "A003449",
      "AcquisitionMatrix": [82, 0, 0, 82],
      "AngioFlag": "N",
      "BitsAllocated": 16,
      "BitsStored": 16,
      "BodyPartExamined": "BRAIN",
      "Columns": 656,
      "EchoNumbers": 1,
      "EchoTime": 27.2,
      "EchoTrainLength": 82,
      "FlipAngle": 44.0,
      "HighBit": 15,
      "ImageOrientationPatient": [0.99930629078401, 0.01956159782526, -0.0316903942863, -0.0146516432904, 0.98882518853771, 0.14835793157851],
      "ImagePositionPatient": [-872.69416238272, -892.52273858467, -177.42251644167],
      "ImageType": [
        "ORIGINAL",
        "PRIMARY",
        "M",
        "MB",
        "ND",
        "NORM",
        "MOSAIC"
],
      "ImagedNucleus": "1H",
      "ImagingFrequency": 123.25218,
      "InPlanePhaseEncodingDirection": "COL",
      "MRAcquisitionType": "2D",
      "MagneticFieldStrength": 3.0,
      "Manufacturer": "SIEMENS",
      "ManufacturerModelName": "Prisma",
      "Modality": "MR",
      "NumberOfAverages": 1.0,
      "NumberOfPhaseEncodingSteps": 82,
      "PercentPhaseFieldOfView": 100.0,
      "PercentSampling": 100.0,
      "PerformedProcedureStepStartTime": "085915.707000",
      "PhotometricInterpretation": "MONOCHROME2",
      "PixelBandwidth": 3050.0,
      "PixelRepresentation": 0,
      "PixelSpacing": [2.6829268932343, 2.6829268932343],
      "ProtocolName": "func_run-06_task-social_acq-ap-mb8",
      "RepetitionTime": 460.0,
      "Rows": 656,
      "SAR": 0.09079283927412,
      "SamplesPerPixel": 1,
      "ScanOptions": "FS",
      "ScanningSequence": "EP",
      "SequenceName": "epfid2d1_82",
      "SequenceVariant": [
        "SK",
        "SS"
],
      "SeriesDescription": "func_run-06_task-social_acq-ap-mb8",
      "SeriesNumber": 18,
      "SeriesTime": "102344.294000",
      "SliceLocation": -73.342074403678,
      "SliceThickness": 2.7000000476837,
      "SmallestImagePixelValue": 0,
      "SoftwareVersions": "syngo MR E11",
      "SpacingBetweenSlices": 2.7000000950008,
      "SpecificCharacterSet": "ISO_IR 100",
      "StudyID": "1",
      "StudyTime": "085915.583000",
      "TransmitCoilName": "Body",
      "VariableFlipAngleFlag": "N",
      "WindowCenterWidthExplanation": "Algo1",
      "dBdt": 0.0},
    "slices": {}
  },
  "time": {
    "samples": {
      "AcquisitionNumber": [1, 2, 3, 4, 5, 6, 7, 8, 9, 10, 11, 12, 13, 14, 15, 16, 17, 18, 19, 20, 21, 22, 23, 24, 25, 26, 27, 28, 29, 30, 31, 32, 33, 34, 35, 36, 37, 38, 39, 40, 41, 42, 43, 44, 45, 46, 47, 48, 49, 50, 51, 52, 53, 54, 55, 56, 57, 58, 59, 60, 61, 62, 63, 64, 65, 66, 67, 68, 69, 70, 71, 72, 73, 74, 75, 76, 77, 78, 79, 80, 81, 82, 83, 84, 85, 86, 87, 88, 89, 90, 91, 92, 93, 94, 95, 96, 97, 98, 99, 100, 101, 102, 103, 104, 105, 106, 107, 108, 109, 110, 111, 112, 113, 114, 115, 116, 117, 118, 119, 120, 121, 122, 123, 124, 125, 126, 127, 128, 129, 130, 131, 132, 133, 134, 135, 136, 137, 138, 139, 140, 141, 142, 143, 144, 145, 146, 147, 148, 149, 150, 151, 152, 153, 154, 155, 156, 157, 158, 159, 160, 161, 162, 163, 164, 165, 166, 167, 168, 169, 170, 171, 172, 173, 174, 175, 176, 177, 178, 179, 180, 181, 182, 183, 184, 185, 186, 187, 188, 189, 190, 191, 192, 193, 194, 195, 196, 197, 198, 199, 200, 201, 202, 203, 204, 205, 206, 207, 208, 209, 210, 211, 212, 213, 214, 215, 216, 217, 218, 219, 220, 221, 222, 223, 224, 225, 226, 227, 228, 229, 230, 231, 232, 233, 234, 235, 236, 237, 238, 239, 240, 241, 242, 243, 244, 245, 246, 247, 248, 249, 250, 251, 252, 253, 254, 255, 256, 257, 258, 259, 260, 261, 262, 263, 264, 265, 266, 267, 268, 269, 270, 271, 272, 273, 274, 275, 276, 277, 278, 279, 280, 281, 282, 283, 284, 285, 286, 287, 288, 289, 290, 291, 292, 293, 294, 295, 296, 297, 298, 299, 300, 301, 302, 303, 304, 305, 306, 307, 308, 309, 310, 311, 312, 313, 314, 315, 316, 317, 318, 319, 320, 321, 322, 323, 324, 325, 326, 327, 328, 329, 330, 331, 332, 333, 334, 335, 336, 337, 338, 339, 340, 341, 342, 343, 344, 345, 346, 347, 348, 349, 350, 351, 352, 353, 354, 355, 356, 357, 358, 359, 360, 361, 362, 363, 364, 365, 366, 367, 368, 369, 370, 371, 372, 373, 374, 375, 376, 377, 378, 379, 380, 381, 382, 383, 384, 385, 386, 387, 388, 389, 390, 391, 392, 393, 394, 395, 396, 397, 398, 399, 400, 401, 402, 403, 404, 405, 406, 407, 408, 409, 410, 411, 412, 413, 414, 415, 416, 417, 418, 419, 420, 421, 422, 423, 424, 425, 426, 427, 428, 429, 430, 431, 432, 433, 434, 435, 436, 437, 438, 439, 440, 441, 442, 443, 444, 445, 446, 447, 448, 449, 450, 451, 452, 453, 454, 455, 456, 457, 458, 459, 460, 461, 462, 463, 464, 465, 466, 467, 468, 469, 470, 471, 472, 473, 474, 475, 476, 477, 478, 479, 480, 481, 482, 483, 484, 485, 486, 487, 488, 489, 490, 491, 492, 493, 494, 495, 496, 497, 498, 499, 500, 501, 502, 503, 504, 505, 506, 507, 508, 509, 510, 511, 512, 513, 514, 515, 516, 517, 518, 519, 520, 521, 522, 523, 524, 525, 526, 527, 528, 529, 530, 531, 532, 533, 534, 535, 536, 537, 538, 539, 540, 541, 542, 543, 544, 545, 546, 547, 548, 549, 550, 551, 552, 553, 554, 555, 556, 557, 558, 559, 560, 561, 562, 563, 564, 565, 566, 567, 568, 569, 570, 571, 572, 573, 574, 575, 576, 577, 578, 579, 580, 581, 582, 583, 584, 585, 586, 587, 588, 589, 590, 591, 592, 593, 594, 595, 596, 597, 598, 599, 600, 601, 602, 603, 604, 605, 606, 607, 608, 609, 610, 611, 612, 613, 614, 615, 616, 617, 618, 619, 620, 621, 622, 623, 624, 625, 626, 627, 628, 629, 630, 631, 632, 633, 634, 635, 636, 637, 638, 639, 640, 641, 642, 643, 644, 645, 646, 647, 648, 649, 650, 651, 652, 653, 654, 655, 656, 657, 658, 659, 660, 661, 662, 663, 664, 665, 666, 667, 668, 669, 670, 671, 672, 673, 674, 675, 676, 677, 678, 679, 680, 681, 682, 683, 684, 685, 686, 687, 688, 689, 690, 691, 692, 693, 694, 695, 696, 697, 698, 699, 700, 701, 702, 703, 704, 705, 706, 707, 708, 709, 710, 711, 712, 713, 714, 715, 716, 717, 718, 719, 720, 721, 722, 723, 724, 725, 726, 727, 728, 729, 730, 731, 732, 733, 734, 735, 736, 737, 738, 739, 740, 741, 742, 743, 744, 745, 746, 747, 748, 749, 750, 751, 752, 753, 754, 755, 756, 757, 758, 759, 760, 761, 762, 763, 764, 765, 766, 767, 768, 769, 770, 771, 772, 773, 774, 775, 776, 777, 778, 779, 780, 781, 782, 783, 784, 785, 786, 787, 788, 789, 790, 791, 792, 793, 794, 795, 796, 797, 798, 799, 800, 801, 802, 803, 804, 805, 806, 807, 808, 809, 810, 811, 812, 813, 814, 815, 816, 817, 818, 819, 820, 821, 822, 823, 824, 825, 826, 827, 828, 829, 830, 831, 832, 833, 834, 835, 836, 837, 838, 839, 840, 841, 842, 843, 844, 845, 846, 847, 848, 849, 850, 851, 852, 853, 854, 855, 856, 857, 858, 859, 860, 861, 862, 863, 864, 865, 866, 867, 868, 869, 870, 871, 872],
      "AcquisitionTime": ["102326.525000", "102326.985000", "102327.445000", "102327.905000", "102328.365000", "102328.825000", "102329.285000", "102329.745000", "102330.205000", "102330.665000", "102331.125000", "102331.585000", "102332.045000", "102332.505000", "102332.965000", "102333.425000", "102333.885000", "102334.345000", "102334.805000", "102335.265000", "102335.725000", "102336.185000", "102336.645000", "102337.105000", "102337.565000", "102338.025000", "102338.485000", "102338.945000", "102339.405000", "102339.865000", "102340.325000", "102340.785000", "102341.245000", "102341.705000", "102342.165000", "102342.625000", "102343.085000", "102343.545000", "102344.005000", "102344.465000", "102344.925000", "102345.385000", "102345.845000", "102346.305000", "102346.765000", "102347.225000", "102347.685000", "102348.145000", "102348.605000", "102349.065000", "102349.525000", "102349.985000", "102350.445000", "102350.905000", "102351.365000", "102351.825000", "102352.285000", "102352.745000", "102353.205000", "102353.665000", "102354.125000", "102354.585000", "102355.045000", "102355.505000", "102355.965000", "102356.425000", "102356.885000", "102357.345000", "102357.805000", "102358.265000", "102358.725000", "102359.185000", "102359.645000", "102400.105000", "102400.565000", "102401.025000", "102401.485000", "102401.945000", "102402.405000", "102402.865000", "102403.325000", "102403.785000", "102404.245000", "102404.705000", "102405.165000", "102405.625000", "102406.085000", "102406.545000", "102407.005000", "102407.465000", "102407.925000", "102408.385000", "102408.845000", "102409.305000", "102409.765000", "102410.225000", "102410.685000", "102411.145000", "102411.605000", "102412.065000", "102412.525000", "102412.985000", "102413.445000", "102413.905000", "102414.365000", "102414.825000", "102415.285000", "102415.745000", "102416.205000", "102416.665000", "102417.125000", "102417.585000", "102418.045000", "102418.505000", "102418.965000", "102419.425000", "102419.885000", "102420.345000", "102420.805000", "102421.265000", "102421.725000", "102422.185000", "102422.645000", "102423.105000", "102423.565000", "102424.025000", "102424.485000", "102424.945000", "102425.405000", "102425.865000", "102426.325000", "102426.785000", "102427.245000", "102427.705000", "102428.165000", "102428.625000", "102429.085000", "102429.545000", "102430.005000", "102430.465000", "102430.925000", "102431.385000", "102431.845000", "102432.305000", "102432.765000", "102433.225000", "102433.685000", "102434.145000", "102434.605000", "102435.065000", "102435.525000", "102435.985000", "102436.445000", "102436.905000", "102437.365000", "102437.825000", "102438.285000", "102438.745000", "102439.205000", "102439.665000", "102440.125000", "102440.585000", "102441.045000", "102441.505000", "102441.965000", "102442.425000", "102442.885000", "102443.345000", "102443.805000", "102444.265000", "102444.725000", "102445.185000", "102445.645000", "102446.105000", "102446.565000", "102447.025000", "102447.485000", "102447.945000", "102448.405000", "102448.865000", "102449.325000", "102449.785000", "102450.245000", "102450.705000", "102451.165000", "102451.625000", "102452.085000", "102452.545000", "102453.005000", "102453.465000", "102453.925000", "102454.385000", "102454.845000", "102455.305000", "102455.765000", "102456.225000", "102456.685000", "102457.145000", "102457.605000", "102458.065000", "102458.525000", "102458.985000", "102459.445000", "102459.905000", "102500.365000", "102500.825000", "102501.285000", "102501.745000", "102502.205000", "102502.665000", "102503.125000", "102503.585000", "102504.045000", "102504.505000", "102504.965000", "102505.425000", "102505.885000", "102506.345000", "102506.805000", "102507.265000", "102507.725000", "102508.185000", "102508.645000", "102509.105000", "102509.565000", "102510.025000", "102510.485000", "102510.945000", "102511.405000", "102511.865000", "102512.325000", "102512.785000", "102513.245000", "102513.705000", "102514.165000", "102514.625000", "102515.085000", "102515.545000", "102516.005000", "102516.465000", "102516.925000", "102517.385000", "102517.845000", "102518.305000", "102518.765000", "102519.225000", "102519.685000", "102520.145000", "102520.605000", "102521.065000", "102521.525000", "102521.985000", "102522.445000", "102522.905000", "102523.365000", "102523.825000", "102524.285000", "102524.745000", "102525.205000", "102525.665000", "102526.125000", "102526.585000", "102527.045000", "102527.505000", "102527.965000", "102528.425000", "102528.885000", "102529.345000", "102529.805000", "102530.265000", "102530.725000", "102531.185000", "102531.645000", "102532.105000", "102532.565000", "102533.025000", "102533.485000", "102533.945000", "102534.405000", "102534.865000", "102535.325000", "102535.785000", "102536.245000", "102536.705000", "102537.165000", "102537.625000", "102538.085000", "102538.545000", "102539.005000", "102539.465000", "102539.925000", "102540.385000", "102540.845000", "102541.305000", "102541.765000", "102542.225000", "102542.685000", "102543.145000", "102543.605000", "102544.065000", "102544.525000", "102544.985000", "102545.445000", "102545.905000", "102546.365000", "102546.825000", "102547.285000", "102547.745000", "102548.205000", "102548.665000", "102549.125000", "102549.585000", "102550.045000", "102550.505000", "102550.965000", "102551.425000", "102551.885000", "102552.345000", "102552.805000", "102553.265000", "102553.725000", "102554.185000", "102554.645000", "102555.105000", "102555.565000", "102556.025000", "102556.485000", "102556.945000", "102557.405000", "102557.865000", "102558.325000", "102558.785000", "102559.245000", "102559.705000", "102600.165000", "102600.625000", "102601.085000", "102601.545000", "102602.005000", "102602.465000", "102602.925000", "102603.385000", "102603.845000", "102604.305000", "102604.765000", "102605.225000", "102605.685000", "102606.145000", "102606.605000", "102607.065000", "102607.525000", "102607.985000", "102608.445000", "102608.905000", "102609.365000", "102609.825000", "102610.285000", "102610.745000", "102611.205000", "102611.665000", "102612.125000", "102612.585000", "102613.045000", "102613.505000", "102613.965000", "102614.425000", "102614.885000", "102615.345000", "102615.805000", "102616.265000", "102616.725000", "102617.185000", "102617.645000", "102618.105000", "102618.565000", "102619.025000", "102619.485000", "102619.945000", "102620.405000", "102620.865000", "102621.325000", "102621.785000", "102622.245000", "102622.705000", "102623.165000", "102623.625000", "102624.085000", "102624.545000", "102625.005000", "102625.465000", "102625.925000", "102626.385000", "102626.845000", "102627.305000", "102627.765000", "102628.225000", "102628.685000", "102629.145000", "102629.605000", "102630.065000", "102630.525000", "102630.985000", "102631.445000", "102631.905000", "102632.365000", "102632.825000", "102633.285000", "102633.745000", "102634.205000", "102634.665000", "102635.125000", "102635.585000", "102636.045000", "102636.505000", "102636.965000", "102637.425000", "102637.885000", "102638.345000", "102638.805000", "102639.265000", "102639.725000", "102640.185000", "102640.645000", "102641.105000", "102641.565000", "102642.025000", "102642.485000", "102642.945000", "102643.405000", "102643.865000", "102644.325000", "102644.785000", "102645.245000", "102645.705000", "102646.165000", "102646.625000", "102647.085000", "102647.545000", "102648.005000", "102648.465000", "102648.925000", "102649.385000", "102649.845000", "102650.305000", "102650.765000", "102651.225000", "102651.685000", "102652.145000", "102652.605000", "102653.065000", "102653.525000", "102653.985000", "102654.445000", "102654.905000", "102655.365000", "102655.825000", "102656.285000", "102656.745000", "102657.205000", "102657.665000", "102658.125000", "102658.585000", "102659.045000", "102659.505000", "102659.965000", "102700.425000", "102700.885000", "102701.345000", "102701.805000", "102702.265000", "102702.725000", "102703.185000", "102703.645000", "102704.105000", "102704.565000", "102705.025000", "102705.485000", "102705.945000", "102706.405000", "102706.865000", "102707.325000", "102707.785000", "102708.245000", "102708.705000", "102709.165000", "102709.625000", "102710.085000", "102710.545000", "102711.005000", "102711.465000", "102711.925000", "102712.385000", "102712.845000", "102713.305000", "102713.765000", "102714.225000", "102714.685000", "102715.145000", "102715.605000", "102716.065000", "102716.525000", "102716.985000", "102717.445000", "102717.905000", "102718.365000", "102718.825000", "102719.285000", "102719.745000", "102720.205000", "102720.665000", "102721.125000", "102721.585000", "102722.045000", "102722.505000", "102722.965000", "102723.425000", "102723.885000", "102724.345000", "102724.805000", "102725.265000", "102725.725000", "102726.185000", "102726.645000", "102727.105000", "102727.565000", "102728.025000", "102728.485000", "102728.945000", "102729.405000", "102729.865000", "102730.325000", "102730.785000", "102731.245000", "102731.705000", "102732.165000", "102732.625000", "102733.085000", "102733.545000", "102734.005000", "102734.465000", "102734.925000", "102735.385000", "102735.845000", "102736.305000", "102736.765000", "102737.225000", "102737.685000", "102738.145000", "102738.605000", "102739.065000", "102739.525000", "102739.985000", "102740.445000", "102740.905000", "102741.365000", "102741.825000", "102742.285000", "102742.745000", "102743.205000", "102743.665000", "102744.125000", "102744.585000", "102745.045000", "102745.505000", "102745.965000", "102746.425000", "102746.885000", "102747.345000", "102747.805000", "102748.265000", "102748.725000", "102749.185000", "102749.645000", "102750.105000", "102750.565000", "102751.025000", "102751.485000", "102751.945000", "102752.405000", "102752.865000", "102753.325000", "102753.785000", "102754.245000", "102754.705000", "102755.165000", "102755.625000", "102756.085000", "102756.545000", "102757.005000", "102757.465000", "102757.925000", "102758.385000", "102758.845000", "102759.305000", "102759.765000", "102800.225000", "102800.685000", "102801.145000", "102801.605000", "102802.065000", "102802.525000", "102802.985000", "102803.445000", "102803.905000", "102804.365000", "102804.825000", "102805.285000", "102805.745000", "102806.205000", "102806.665000", "102807.125000", "102807.585000", "102808.045000", "102808.505000", "102808.965000", "102809.425000", "102809.885000", "102810.345000", "102810.805000", "102811.265000", "102811.725000", "102812.185000", "102812.645000", "102813.105000", "102813.565000", "102814.025000", "102814.485000", "102814.945000", "102815.405000", "102815.865000", "102816.325000", "102816.785000", "102817.245000", "102817.705000", "102818.165000", "102818.625000", "102819.085000", "102819.545000", "102820.005000", "102820.465000", "102820.925000", "102821.385000", "102821.845000", "102822.305000", "102822.765000", "102823.225000", "102823.685000", "102824.145000", "102824.605000", "102825.065000", "102825.525000", "102825.985000", "102826.445000", "102826.905000", "102827.365000", "102827.825000", "102828.285000", "102828.745000", "102829.205000", "102829.665000", "102830.125000", "102830.585000", "102831.045000", "102831.505000", "102831.965000", "102832.425000", "102832.885000", "102833.345000", "102833.805000", "102834.265000", "102834.725000", "102835.185000", "102835.645000", "102836.105000", "102836.565000", "102837.025000", "102837.485000", "102837.945000", "102838.405000", "102838.865000", "102839.325000", "102839.785000", "102840.245000", "102840.705000", "102841.165000", "102841.625000", "102842.085000", "102842.545000", "102843.005000", "102843.465000", "102843.925000", "102844.385000", "102844.845000", "102845.305000", "102845.765000", "102846.225000", "102846.685000", "102847.145000", "102847.605000", "102848.065000", "102848.525000", "102848.985000", "102849.445000", "102849.905000", "102850.365000", "102850.825000", "102851.285000", "102851.745000", "102852.205000", "102852.665000", "102853.125000", "102853.585000", "102854.045000", "102854.505000", "102854.965000", "102855.425000", "102855.885000", "102856.345000", "102856.805000", "102857.265000", "102857.725000", "102858.185000", "102858.645000", "102859.105000", "102859.565000", "102900.025000", "102900.485000", "102900.945000", "102901.405000", "102901.865000", "102902.325000", "102902.785000", "102903.245000", "102903.705000", "102904.165000", "102904.625000", "102905.085000", "102905.545000", "102906.005000", "102906.465000", "102906.925000", "102907.385000", "102907.845000", "102908.305000", "102908.765000", "102909.225000", "102909.685000", "102910.145000", "102910.605000", "102911.065000", "102911.525000", "102911.985000", "102912.445000", "102912.905000", "102913.365000", "102913.825000", "102914.285000", "102914.745000", "102915.205000", "102915.665000", "102916.125000", "102916.585000", "102917.045000", "102917.505000", "102917.965000", "102918.425000", "102918.885000", "102919.345000", "102919.805000", "102920.265000", "102920.725000", "102921.185000", "102921.645000", "102922.105000", "102922.565000", "102923.025000", "102923.485000", "102923.945000", "102924.405000", "102924.865000", "102925.325000", "102925.785000", "102926.245000", "102926.705000", "102927.165000", "102927.625000", "102928.085000", "102928.545000", "102929.005000", "102929.465000", "102929.925000", "102930.385000", "102930.845000", "102931.305000", "102931.765000", "102932.225000", "102932.685000", "102933.145000", "102933.605000", "102934.065000", "102934.525000", "102934.985000", "102935.445000", "102935.905000", "102936.365000", "102936.825000", "102937.285000", "102937.745000", "102938.205000", "102938.665000", "102939.125000", "102939.585000", "102940.045000", "102940.505000", "102940.965000", "102941.425000", "102941.885000", "102942.345000", "102942.805000", "102943.265000", "102943.725000", "102944.185000", "102944.645000", "102945.105000", "102945.565000", "102946.025000", "102946.485000", "102946.945000", "102947.405000", "102947.865000", "102948.325000", "102948.785000", "102949.245000", "102949.705000", "102950.165000", "102950.625000", "102951.085000", "102951.545000", "102952.005000", "102952.465000", "102952.925000", "102953.385000", "102953.845000", "102954.305000", "102954.765000", "102955.225000", "102955.685000", "102956.145000", "102956.605000", "102957.065000", "102957.525000", "102957.985000", "102958.445000", "102958.905000", "102959.365000", "102959.825000", "103000.285000", "103000.745000", "103001.205000", "103001.665000", "103002.125000", "103002.585000", "103003.045000", "103003.505000", "103003.965000", "103004.425000", "103004.885000", "103005.345000", "103005.805000", "103006.265000", "103006.725000", "103007.185000"],
