{
  "AcquisitionMatrixPE": 82,
  "AcquisitionNumber": 1,
  "AcquisitionTime": "15:38:55.662500",
  "BandwidthPerPixelPhaseEncode": 24.888,
  "BaseResolution": 82,
  "BodyPartExamined": "BRAIN",
  "ConsistencyInfo": "N4_VE11E_LATEST_20181129",
  "ConversionSoftware": "dcm2niix",
  "ConversionSoftwareVersion": "v1.0.20201102",
  "DerivedVendorReportedEchoSpacing": 0.00049,
  "DeviceSerialNumber": "66112",
  "DwellTime": 2e-06,
  "EchoTime": 0.0272,
  "EchoTrainLength": 82,
  "EffectiveEchoSpacing": 0.00049,
  "FlipAngle": 44,
  "ImageComments": "Unaliased MB8/PE3",
  "ImageOrientationPatientDICOM": [0.999774, -7.64447e-05, 0.0212409, 0.00157038, 0.997523, -0.0703255],
  "ImageType": [
    "ORIGINAL",
    "PRIMARY",
    "M",
    "MB",
    "ND",
    "NORM",
    "MOSAIC"
],
  "ImagingFrequency": 123.252,
  "InPlanePhaseEncodingDirectionDICOM": "COL",
  "InstitutionAddress": "Maynard 3,Hanover,NH,US,03755",
  "InstitutionName": "Dartmouth College - PBS",
  "InstitutionalDepartmentName": "Department",
  "MRAcquisitionType": "2D",
  "MagneticFieldStrength": 3,
  "Manufacturer": "Siemens",
  "ManufacturersModelName": "Prisma",
  "Modality": "MR",
  "MultibandAccelerationFactor": 8,
  "PartialFourier": 1,
  "PatientPosition": "HFS",
  "PercentPhaseFOV": 100,
  "PercentSampling": 100,
  "PhaseEncodingDirection": "j-",
  "PhaseEncodingSteps": 82,
  "PhaseResolution": 1,
  "PixelBandwidth": 3050,
  "ProcedureStepDescription": "Wager_Wager^1076_spacetop",
  "ProtocolName": "func_run-02_task-alignvideo_acq-ap-mb8",
  "PulseSequenceDetails": "%CustomerSeq%\\cmrr_mbep2d_bold",
  "ReceiveCoilActiveElements": "HEA;HEP",
  "ReceiveCoilName": "Head_32",
  "ReconMatrixPE": 82,
  "RepetitionTime": 0.46,
  "SAR": 0.121953,
  "ScanOptions": "FS",
  "ScanningSequence": "EP",
  "SequenceName": "epfid2d1_82",
  "SequenceVariant": "SK\\SS",
  "SeriesDescription": "func_run-02_task-alignvideo_acq-ap-mb8",
  "SeriesNumber": 38,
  "ShimSetting": [4137, -7734, -7272, 502, -121, -83, 31, 84],
  "SliceThickness": 2.7,
  "SliceTiming": [0, 0.2525, 0.0625, 0.315, 0.125, 0.3775, 0.1875, 0, 0.2525, 0.0625, 0.315, 0.125, 0.3775, 0.1875, 0, 0.2525, 0.0625, 0.315, 0.125, 0.3775, 0.1875, 0, 0.2525, 0.0625, 0.315, 0.125, 0.3775, 0.1875, 0, 0.2525, 0.0625, 0.315, 0.125, 0.3775, 0.1875, 0, 0.2525, 0.0625, 0.315, 0.125, 0.3775, 0.1875, 0, 0.2525, 0.0625, 0.315, 0.125, 0.3775, 0.1875, 0, 0.2525, 0.0625, 0.315, 0.125, 0.3775, 0.1875],
  "SoftwareVersions": "syngo MR E11",
  "SpacingBetweenSlices": 2.7,
  "StationName": "AWP66112",
  "TaskName": "alignvideo",
  "TotalReadoutTime": 0.03969,
  "TxRefAmp": 290.156,
  "WipMemBlock": "d929754c-fc5b-44aa-b7e0-ee62cf27134a||Sequence: R016 ve11e/master r/434b28f1; Aug  7 2019 18:53:46 by eja",
  "dcmmeta_affine": [
    [-2.682321548461914, 0.004213223699480295, 0.05719372630119324, 108.98605346679688],
    [0.0002050956682069227, 2.676280975341797, -0.18992605805397034, -91.0748519897461],
    [0.056987661868333817, 0.18867816030979156, 2.692704439163208, -77.80326080322266],
    [0.0, 0.0, 0.0, 1.0]
],
  "dcmmeta_reorient_transform": [
    [0.0, -1.0, 0.0, 81.0],
    [1.0, 0.0, 0.0, 0.0],
    [0.0, 0.0, 1.0, 0.0],
    [0.0, 0.0, 0.0, 1.0]
],
  "dcmmeta_shape": [82, 82, 56, 926],
  "dcmmeta_slice_dim": 2,
  "dcmmeta_version": 0.6,
  "global": {
    "const": {
      "AccessionNumber": "A004032",
      "AcquisitionMatrix": [82, 0, 0, 82],
      "AngioFlag": "N",
      "BitsAllocated": 16,
      "BitsStored": 16,
      "BodyPartExamined": "BRAIN",
      "Columns": 656,
      "EchoNumbers": 1,
      "EchoTime": 27.2,
      "EchoTrainLength": 82,
      "FlipAngle": 44.0,
      "HighBit": 15,
      "ImageOrientationPatient": [0.99977438466456, -7.64447458e-05, 0.02124085508652, 0.00157038331536, 0.99752286127242, -0.0703254942046],
      "ImagePositionPatient": [-880.36281691778, -893.73765731906, -24.725156133636],
      "ImageType": [
        "ORIGINAL",
        "PRIMARY",
        "M",
        "MB",
        "ND",
        "NORM",
        "MOSAIC"
],
      "ImagedNucleus": "1H",
      "ImagingFrequency": 123.252333,
      "InPlanePhaseEncodingDirection": "COL",
      "MRAcquisitionType": "2D",
      "MagneticFieldStrength": 3.0,
      "Manufacturer": "SIEMENS",
      "ManufacturerModelName": "Prisma",
      "Modality": "MR",
      "NumberOfAverages": 1.0,
      "NumberOfPhaseEncodingSteps": 82,
      "PercentPhaseFieldOfView": 100.0,
      "PercentSampling": 100.0,
      "PerformedProcedureStepStartTime": "135233.518000",
      "PhotometricInterpretation": "MONOCHROME2",
      "PixelBandwidth": 3050.0,
      "PixelRepresentation": 0,
      "PixelSpacing": [2.6829268932343, 2.6829268932343],
      "ProtocolName": "func_run-02_task-alignvideo_acq-ap-mb8",
      "RepetitionTime": 460.0,
      "Rows": 656,
      "SAR": 0.12195285485643,
      "SamplesPerPixel": 1,
      "ScanOptions": "FS",
      "ScanningSequence": "EP",
      "SequenceName": "epfid2d1_82",
      "SequenceVariant": [
        "SK",
        "SS"
],
      "SeriesDescription": "func_run-02_task-alignvideo_acq-ap-mb8",
      "SeriesNumber": 38,
      "SeriesTime": "153918.491000",
      "SliceLocation": -68.877916089466,
      "SliceThickness": 2.7000000476837,
      "SmallestImagePixelValue": 0,
      "SoftwareVersions": "syngo MR E11",
      "SpacingBetweenSlices": 2.6999999592441,
      "SpecificCharacterSet": "ISO_IR 100",
      "StudyID": "2",
      "StudyTime": "135233.441000",
      "TransmitCoilName": "Body",
      "VariableFlipAngleFlag": "N",
      "WindowCenterWidthExplanation": "Algo1"
    },
    "slices": {}
  },
  "time": {
    "samples": {
      "AcquisitionNumber": [1, 2, 3, 4, 5, 6, 7, 8, 9, 10, 11, 12, 13, 14, 15, 16, 17, 18, 19, 20, 21, 22, 23, 24, 25, 26, 27, 28, 29, 30, 31, 32, 33, 34, 35, 36, 37, 38, 39, 40, 41, 42, 43, 44, 45, 46, 47, 48, 49, 50, 51, 52, 53, 54, 55, 56, 57, 58, 59, 60, 61, 62, 63, 64, 65, 66, 67, 68, 69, 70, 71, 72, 73, 74, 75, 76, 77, 78, 79, 80, 81, 82, 83, 84, 85, 86, 87, 88, 89, 90, 91, 92, 93, 94, 95, 96, 97, 98, 99, 100, 101, 102, 103, 104, 105, 106, 107, 108, 109, 110, 111, 112, 113, 114, 115, 116, 117, 118, 119, 120, 121, 122, 123, 124, 125, 126, 127, 128, 129, 130, 131, 132, 133, 134, 135, 136, 137, 138, 139, 140, 141, 142, 143, 144, 145, 146, 147, 148, 149, 150, 151, 152, 153, 154, 155, 156, 157, 158, 159, 160, 161, 162, 163, 164, 165, 166, 167, 168, 169, 170, 171, 172, 173, 174, 175, 176, 177, 178, 179, 180, 181, 182, 183, 184, 185, 186, 187, 188, 189, 190, 191, 192, 193, 194, 195, 196, 197, 198, 199, 200, 201, 202, 203, 204, 205, 206, 207, 208, 209, 210, 211, 212, 213, 214, 215, 216, 217, 218, 219, 220, 221, 222, 223, 224, 225, 226, 227, 228, 229, 230, 231, 232, 233, 234, 235, 236, 237, 238, 239, 240, 241, 242, 243, 244, 245, 246, 247, 248, 249, 250, 251, 252, 253, 254, 255, 256, 257, 258, 259, 260, 261, 262, 263, 264, 265, 266, 267, 268, 269, 270, 271, 272, 273, 274, 275, 276, 277, 278, 279, 280, 281, 282, 283, 284, 285, 286, 287, 288, 289, 290, 291, 292, 293, 294, 295, 296, 297, 298, 299, 300, 301, 302, 303, 304, 305, 306, 307, 308, 309, 310, 311, 312, 313, 314, 315, 316, 317, 318, 319, 320, 321, 322, 323, 324, 325, 326, 327, 328, 329, 330, 331, 332, 333, 334, 335, 336, 337, 338, 339, 340, 341, 342, 343, 344, 345, 346, 347, 348, 349, 350, 351, 352, 353, 354, 355, 356, 357, 358, 359, 360, 361, 362, 363, 364, 365, 366, 367, 368, 369, 370, 371, 372, 373, 374, 375, 376, 377, 378, 379, 380, 381, 382, 383, 384, 385, 386, 387, 388, 389, 390, 391, 392, 393, 394, 395, 396, 397, 398, 399, 400, 401, 402, 403, 404, 405, 406, 407, 408, 409, 410, 411, 412, 413, 414, 415, 416, 417, 418, 419, 420, 421, 422, 423, 424, 425, 426, 427, 428, 429, 430, 431, 432, 433, 434, 435, 436, 437, 438, 439, 440, 441, 442, 443, 444, 445, 446, 447, 448, 449, 450, 451, 452, 453, 454, 455, 456, 457, 458, 459, 460, 461, 462, 463, 464, 465, 466, 467, 468, 469, 470, 471, 472, 473, 474, 475, 476, 477, 478, 479, 480, 481, 482, 483, 484, 485, 486, 487, 488, 489, 490, 491, 492, 493, 494, 495, 496, 497, 498, 499, 500, 501, 502, 503, 504, 505, 506, 507, 508, 509, 510, 511, 512, 513, 514, 515, 516, 517, 518, 519, 520, 521, 522, 523, 524, 525, 526, 527, 528, 529, 530, 531, 532, 533, 534, 535, 536, 537, 538, 539, 540, 541, 542, 543, 544, 545, 546, 547, 548, 549, 550, 551, 552, 553, 554, 555, 556, 557, 558, 559, 560, 561, 562, 563, 564, 565, 566, 567, 568, 569, 570, 571, 572, 573, 574, 575, 576, 577, 578, 579, 580, 581, 582, 583, 584, 585, 586, 587, 588, 589, 590, 591, 592, 593, 594, 595, 596, 597, 598, 599, 600, 601, 602, 603, 604, 605, 606, 607, 608, 609, 610, 611, 612, 613, 614, 615, 616, 617, 618, 619, 620, 621, 622, 623, 624, 625, 626, 627, 628, 629, 630, 631, 632, 633, 634, 635, 636, 637, 638, 639, 640, 641, 642, 643, 644, 645, 646, 647, 648, 649, 650, 651, 652, 653, 654, 655, 656, 657, 658, 659, 660, 661, 662, 663, 664, 665, 666, 667, 668, 669, 670, 671, 672, 673, 674, 675, 676, 677, 678, 679, 680, 681, 682, 683, 684, 685, 686, 687, 688, 689, 690, 691, 692, 693, 694, 695, 696, 697, 698, 699, 700, 701, 702, 703, 704, 705, 706, 707, 708, 709, 710, 711, 712, 713, 714, 715, 716, 717, 718, 719, 720, 721, 722, 723, 724, 725, 726, 727, 728, 729, 730, 731, 732, 733, 734, 735, 736, 737, 738, 739, 740, 741, 742, 743, 744, 745, 746, 747, 748, 749, 750, 751, 752, 753, 754, 755, 756, 757, 758, 759, 760, 761, 762, 763, 764, 765, 766, 767, 768, 769, 770, 771, 772, 773, 774, 775, 776, 777, 778, 779, 780, 781, 782, 783, 784, 785, 786, 787, 788, 789, 790, 791, 792, 793, 794, 795, 796, 797, 798, 799, 800, 801, 802, 803, 804, 805, 806, 807, 808, 809, 810, 811, 812, 813, 814, 815, 816, 817, 818, 819, 820, 821, 822, 823, 824, 825, 826, 827, 828, 829, 830, 831, 832, 833, 834, 835, 836, 837, 838, 839, 840, 841, 842, 843, 844, 845, 846, 847, 848, 849, 850, 851, 852, 853, 854, 855, 856, 857, 858, 859, 860, 861, 862, 863, 864, 865, 866, 867, 868, 869, 870, 871, 872, 873, 874, 875, 876, 877, 878, 879, 880, 881, 882, 883, 884, 885, 886, 887, 888, 889, 890, 891, 892, 893, 894, 895, 896, 897, 898, 899, 900, 901, 902, 903, 904, 905, 906, 907, 908, 909, 910, 911, 912, 913, 914, 915, 916, 917, 918, 919, 920, 921, 922, 923, 924, 925, 926],
      "AcquisitionTime": ["153855.662500", "153856.122500", "153856.582500", "153857.042500", "153857.502500", "153857.962500", "153858.422500", "153858.882500", "153859.342500", "153859.802500", "153900.262500", "153900.722500", "153901.182500", "153901.642500", "153902.102500", "153902.562500", "153903.022500", "153903.482500", "153903.942500", "153904.402500", "153904.862500", "153905.322500", "153905.782500", "153906.242500", "153906.702500", "153907.162500", "153907.622500", "153908.082500", "153908.542500", "153909.002500", "153909.462500", "153909.922500", "153910.382500", "153910.842500", "153911.302500", "153911.762500", "153912.222500", "153912.682500", "153913.142500", "153913.602500", "153914.062500", "153914.522500", "153914.982500", "153915.442500", "153915.902500", "153916.362500", "153916.822500", "153917.282500", "153917.742500", "153918.202500", "153918.662500", "153919.122500", "153919.582500", "153920.042500", "153920.502500", "153920.962500", "153921.422500", "153921.882500", "153922.342500", "153922.802500", "153923.262500", "153923.722500", "153924.182500", "153924.642500", "153925.102500", "153925.562500", "153926.022500", "153926.482500", "153926.942500", "153927.402500", "153927.862500", "153928.322500", "153928.782500", "153929.242500", "153929.702500", "153930.162500", "153930.622500", "153931.082500", "153931.542500", "153932.002500", "153932.462500", "153932.922500", "153933.382500", "153933.842500", "153934.302500", "153934.762500", "153935.222500", "153935.682500", "153936.142500", "153936.602500", "153937.062500", "153937.522500", "153937.982500", "153938.442500", "153938.902500", "153939.362500", "153939.822500", "153940.282500", "153940.742500", "153941.202500", "153941.662500", "153942.122500", "153942.582500", "153943.042500", "153943.502500", "153943.962500", "153944.422500", "153944.882500", "153945.342500", "153945.802500", "153946.262500", "153946.722500", "153947.182500", "153947.642500", "153948.102500", "153948.562500", "153949.022500", "153949.482500", "153949.942500", "153950.402500", "153950.862500", "153951.322500", "153951.782500", "153952.242500", "153952.702500", "153953.162500", "153953.622500", "153954.082500", "153954.542500", "153955.002500", "153955.462500", "153955.922500", "153956.382500", "153956.842500", "153957.302500", "153957.762500", "153958.222500", "153958.682500", "153959.142500", "153959.602500", "154000.062500", "154000.522500", "154000.982500", "154001.442500", "154001.902500", "154002.362500", "154002.822500", "154003.282500", "154003.742500", "154004.202500", "154004.662500", "154005.122500", "154005.582500", "154006.042500", "154006.502500", "154006.962500", "154007.422500", "154007.882500", "154008.342500", "154008.802500", "154009.262500", "154009.722500", "154010.182500", "154010.642500", "154011.102500", "154011.562500", "154012.022500", "154012.482500", "154012.942500", "154013.402500", "154013.862500", "154014.322500", "154014.782500", "154015.242500", "154015.702500", "154016.162500", "154016.622500", "154017.082500", "154017.542500", "154018.002500", "154018.462500", "154018.922500", "154019.382500", "154019.842500", "154020.302500", "154020.762500", "154021.222500", "154021.682500", "154022.142500", "154022.602500", "154023.062500", "154023.522500", "154023.982500", "154024.442500", "154024.902500", "154025.362500", "154025.822500", "154026.282500", "154026.742500", "154027.202500", "154027.662500", "154028.122500", "154028.582500", "154029.042500", "154029.502500", "154029.962500", "154030.422500", "154030.882500", "154031.342500", "154031.802500", "154032.262500", "154032.722500", "154033.182500", "154033.642500", "154034.102500", "154034.562500", "154035.022500", "154035.482500", "154035.942500", "154036.402500", "154036.862500", "154037.322500", "154037.782500", "154038.242500", "154038.702500", "154039.162500", "154039.622500", "154040.082500", "154040.542500", "154041.002500", "154041.462500", "154041.922500", "154042.382500", "154042.842500", "154043.302500", "154043.762500", "154044.222500", "154044.682500", "154045.142500", "154045.602500", "154046.062500", "154046.522500", "154046.982500", "154047.442500", "154047.902500", "154048.362500", "154048.822500", "154049.282500", "154049.742500", "154050.202500", "154050.662500", "154051.122500", "154051.582500", "154052.042500", "154052.502500", "154052.962500", "154053.422500", "154053.882500", "154054.342500", "154054.802500", "154055.262500", "154055.722500", "154056.182500", "154056.642500", "154057.102500", "154057.562500", "154058.022500", "154058.482500", "154058.942500", "154059.402500", "154059.862500", "154100.322500", "154100.782500", "154101.242500", "154101.702500", "154102.162500", "154102.622500", "154103.082500", "154103.542500", "154104.002500", "154104.462500", "154104.922500", "154105.382500", "154105.842500", "154106.302500", "154106.762500", "154107.222500", "154107.682500", "154108.142500", "154108.602500", "154109.062500", "154109.522500", "154109.982500", "154110.442500", "154110.902500", "154111.362500", "154111.822500", "154112.282500", "154112.742500", "154113.202500", "154113.662500", "154114.122500", "154114.582500", "154115.042500", "154115.502500", "154115.962500", "154116.422500", "154116.882500", "154117.342500", "154117.802500", "154118.262500", "154118.722500", "154119.182500", "154119.642500", "154120.102500", "154120.562500", "154121.022500", "154121.482500", "154121.942500", "154122.402500", "154122.862500", "154123.322500", "154123.782500", "154124.242500", "154124.702500", "154125.162500", "154125.622500", "154126.082500", "154126.542500", "154127.002500", "154127.462500", "154127.922500", "154128.382500", "154128.842500", "154129.302500", "154129.762500", "154130.222500", "154130.682500", "154131.142500", "154131.602500", "154132.062500", "154132.522500", "154132.982500", "154133.442500", "154133.902500", "154134.362500", "154134.822500", "154135.282500", "154135.742500", "154136.202500", "154136.662500", "154137.122500", "154137.582500", "154138.042500", "154138.502500", "154138.962500", "154139.422500", "154139.882500", "154140.342500", "154140.802500", "154141.262500", "154141.722500", "154142.182500", "154142.642500", "154143.102500", "154143.562500", "154144.022500", "154144.482500", "154144.942500", "154145.402500", "154145.862500", "154146.322500", "154146.782500", "154147.242500", "154147.702500", "154148.162500", "154148.622500", "154149.082500", "154149.542500", "154150.002500", "154150.462500", "154150.922500", "154151.382500", "154151.842500", "154152.302500", "154152.762500", "154153.222500", "154153.682500", "154154.142500", "154154.602500", "154155.062500", "154155.522500", "154155.982500", "154156.442500", "154156.902500", "154157.362500", "154157.822500", "154158.282500", "154158.742500", "154159.202500", "154159.662500", "154200.122500", "154200.582500", "154201.042500", "154201.502500", "154201.962500", "154202.422500", "154202.882500", "154203.342500", "154203.802500", "154204.262500", "154204.722500", "154205.182500", "154205.642500", "154206.102500", "154206.562500", "154207.022500", "154207.482500", "154207.942500", "154208.402500", "154208.862500", "154209.322500", "154209.782500", "154210.242500", "154210.702500", "154211.162500", "154211.622500", "154212.082500", "154212.542500", "154213.002500", "154213.462500", "154213.922500", "154214.382500", "154214.842500", "154215.302500", "154215.762500", "154216.222500", "154216.682500", "154217.142500", "154217.602500", "154218.062500", "154218.522500", "154218.982500", "154219.442500", "154219.902500", "154220.362500", "154220.822500", "154221.282500", "154221.742500", "154222.202500", "154222.662500", "154223.122500", "154223.582500", "154224.042500", "154224.502500", "154224.962500", "154225.422500", "154225.882500", "154226.342500", "154226.802500", "154227.262500", "154227.722500", "154228.182500", "154228.642500", "154229.102500", "154229.562500", "154230.022500", "154230.482500", "154230.942500", "154231.402500", "154231.862500", "154232.322500", "154232.782500", "154233.242500", "154233.702500", "154234.162500", "154234.622500", "154235.082500", "154235.542500", "154236.002500", "154236.462500", "154236.922500", "154237.382500", "154237.842500", "154238.302500", "154238.762500", "154239.222500", "154239.682500", "154240.142500", "154240.602500", "154241.062500", "154241.522500", "154241.982500", "154242.442500", "154242.902500", "154243.362500", "154243.822500", "154244.282500", "154244.742500", "154245.202500", "154245.662500", "154246.122500", "154246.582500", "154247.042500", "154247.502500", "154247.962500", "154248.422500", "154248.882500", "154249.342500", "154249.802500", "154250.262500", "154250.722500", "154251.182500", "154251.642500", "154252.102500", "154252.562500", "154253.022500", "154253.482500", "154253.942500", "154254.402500", "154254.862500", "154255.322500", "154255.782500", "154256.242500", "154256.702500", "154257.162500", "154257.622500", "154258.082500", "154258.542500", "154259.002500", "154259.462500", "154259.922500", "154300.382500", "154300.842500", "154301.302500", "154301.762500", "154302.222500", "154302.682500", "154303.142500", "154303.602500", "154304.062500", "154304.522500", "154304.982500", "154305.442500", "154305.902500", "154306.362500", "154306.822500", "154307.282500", "154307.742500", "154308.202500", "154308.662500", "154309.122500", "154309.582500", "154310.042500", "154310.502500", "154310.962500", "154311.422500", "154311.882500", "154312.342500", "154312.802500", "154313.262500", "154313.722500", "154314.182500", "154314.642500", "154315.102500", "154315.562500", "154316.022500", "154316.482500", "154316.942500", "154317.402500", "154317.862500", "154318.322500", "154318.782500", "154319.242500", "154319.702500", "154320.162500", "154320.622500", "154321.082500", "154321.542500", "154322.002500", "154322.462500", "154322.922500", "154323.382500", "154323.842500", "154324.302500", "154324.762500", "154325.222500", "154325.682500", "154326.142500", "154326.602500", "154327.062500", "154327.522500", "154327.982500", "154328.442500", "154328.902500", "154329.362500", "154329.822500", "154330.282500", "154330.742500", "154331.202500", "154331.662500", "154332.122500", "154332.582500", "154333.042500", "154333.502500", "154333.962500", "154334.422500", "154334.882500", "154335.342500", "154335.802500", "154336.262500", "154336.722500", "154337.182500", "154337.642500", "154338.102500", "154338.562500", "154339.022500", "154339.482500", "154339.942500", "154340.402500", "154340.862500", "154341.322500", "154341.782500", "154342.242500", "154342.702500", "154343.162500", "154343.622500", "154344.082500", "154344.542500", "154345.002500", "154345.462500", "154345.922500", "154346.382500", "154346.842500", "154347.302500", "154347.762500", "154348.222500", "154348.682500", "154349.142500", "154349.602500", "154350.062500", "154350.522500", "154350.982500", "154351.442500", "154351.902500", "154352.362500", "154352.822500", "154353.282500", "154353.742500", "154354.202500", "154354.662500", "154355.122500", "154355.582500", "154356.042500", "154356.502500", "154356.962500", "154357.422500", "154357.882500", "154358.342500", "154358.802500", "154359.262500", "154359.722500", "154400.182500", "154400.642500", "154401.102500", "154401.562500", "154402.022500", "154402.482500", "154402.942500", "154403.402500", "154403.862500", "154404.322500", "154404.782500", "154405.242500", "154405.702500", "154406.162500", "154406.622500", "154407.082500", "154407.542500", "154408.002500", "154408.462500", "154408.922500", "154409.382500", "154409.842500", "154410.302500", "154410.762500", "154411.222500", "154411.682500", "154412.142500", "154412.602500", "154413.062500", "154413.522500", "154413.982500", "154414.442500", "154414.902500", "154415.362500", "154415.822500", "154416.282500", "154416.742500", "154417.202500", "154417.662500", "154418.122500", "154418.582500", "154419.042500", "154419.502500", "154419.962500", "154420.422500", "154420.882500", "154421.342500", "154421.802500", "154422.262500", "154422.722500", "154423.182500", "154423.642500", "154424.102500", "154424.562500", "154425.022500", "154425.482500", "154425.942500", "154426.402500", "154426.862500", "154427.322500", "154427.782500", "154428.242500", "154428.702500", "154429.162500", "154429.622500", "154430.082500", "154430.542500", "154431.002500", "154431.462500", "154431.922500", "154432.382500", "154432.842500", "154433.302500", "154433.762500", "154434.222500", "154434.682500", "154435.142500", "154435.602500", "154436.062500", "154436.522500", "154436.982500", "154437.442500", "154437.902500", "154438.362500", "154438.822500", "154439.282500", "154439.742500", "154440.202500", "154440.662500", "154441.122500", "154441.582500", "154442.042500", "154442.502500", "154442.962500", "154443.422500", "154443.882500", "154444.342500", "154444.802500", "154445.262500", "154445.722500", "154446.182500", "154446.642500", "154447.102500", "154447.562500", "154448.022500", "154448.482500", "154448.942500", "154449.402500", "154449.862500", "154450.322500", "154450.782500", "154451.242500", "154451.702500", "154452.162500", "154452.622500", "154453.082500", "154453.542500", "154454.002500", "154454.462500", "154454.922500", "154455.382500", "154455.842500", "154456.302500", "154456.762500", "154457.222500", "154457.682500", "154458.142500", "154458.602500", "154459.062500", "154459.522500", "154459.982500", "154500.442500", "154500.902500", "154501.362500", "154501.822500", "154502.282500", "154502.742500", "154503.202500", "154503.662500", "154504.122500", "154504.582500", "154505.042500", "154505.502500", "154505.962500", "154506.422500", "154506.882500", "154507.342500", "154507.802500", "154508.262500", "154508.722500", "154509.182500", "154509.642500", "154510.102500", "154510.562500", "154511.022500", "154511.482500", "154511.942500", "154512.402500", "154512.862500", "154513.322500", "154513.782500", "154514.242500", "154514.702500", "154515.162500", "154515.622500", "154516.082500", "154516.542500", "154517.002500", "154517.462500", "154517.922500", "154518.382500", "154518.842500", "154519.302500", "154519.762500", "154520.222500", "154520.682500", "154521.142500", "154521.602500", "154522.062500", "154522.522500", "154522.982500", "154523.442500", "154523.902500", "154524.362500", "154524.822500", "154525.282500", "154525.742500", "154526.202500", "154526.662500", "154527.122500", "154527.582500", "154528.042500", "154528.502500", "154528.962500", "154529.422500", "154529.882500", "154530.342500", "154530.802500", "154531.262500", "154531.722500", "154532.182500", "154532.642500", "154533.102500", "154533.562500", "154534.022500", "154534.482500", "154534.942500", "154535.402500", "154535.862500", "154536.322500", "154536.782500", "154537.242500", "154537.702500", "154538.162500", "154538.622500", "154539.082500", "154539.542500", "154540.002500", "154540.462500", "154540.922500", "154541.382500", "154541.842500", "154542.302500", "154542.762500", "154543.222500", "154543.682500", "154544.142500", "154544.602500", "154545.062500", "154545.522500", "154545.982500", "154546.442500", "154546.902500", "154547.362500", "154547.822500", "154548.282500", "154548.742500", "154549.202500", "154549.662500", "154550.122500", "154550.582500", "154551.042500", "154551.502500", "154551.962500", "154552.422500", "154552.882500", "154553.342500", "154553.802500", "154554.262500", "154554.722500", "154555.182500", "154555.642500", "154556.102500", "154556.562500", "154557.022500", "154557.482500", "154557.942500", "154558.402500", "154558.862500", "154559.322500", "154559.782500", "154600.242500", "154600.702500", "154601.162500"],
