{
  "AcquisitionMatrixPE": 82,
  "AcquisitionNumber": 1,
  "AcquisitionTime": "14:37:30.972500",
  "BandwidthPerPixelPhaseEncode": 24.888,
  "BaseResolution": 82,
  "BodyPartExamined": "BRAIN",
  "ConsistencyInfo": "N4_VE11E_LATEST_20181129",
  "ConversionSoftware": "dcm2niix",
  "ConversionSoftwareVersion": "v1.0.20201102",
  "DerivedVendorReportedEchoSpacing": 0.00049,
  "DeviceSerialNumber": "66112",
  "DwellTime": 2e-06,
  "EchoTime": 0.0272,
  "EchoTrainLength": 82,
  "EffectiveEchoSpacing": 0.00049,
  "FlipAngle": 44,
  "ImageComments": "Unaliased MB8/PE3",
  "ImageOrientationPatientDICOM": [0.999955, 0.00712951, -0.00626337, -0.00750474, 0.998043, -0.0620828],
  "ImageType": [
    "ORIGINAL",
    "PRIMARY",
    "M",
    "MB",
    "ND",
    "NORM",
    "MOSAIC"
],
  "ImagingFrequency": 123.252,
  "InPlanePhaseEncodingDirectionDICOM": "COL",
  "InstitutionAddress": "Maynard 3,Hanover,NH,US,03755",
  "InstitutionName": "Dartmouth College - PBS",
  "InstitutionalDepartmentName": "Department",
  "MRAcquisitionType": "2D",
  "MagneticFieldStrength": 3,
  "Manufacturer": "Siemens",
  "ManufacturersModelName": "Prisma",
  "Modality": "MR",
  "MultibandAccelerationFactor": 8,
  "PartialFourier": 1,
  "PatientPosition": "HFS",
  "PercentPhaseFOV": 100,
  "PercentSampling": 100,
  "PhaseEncodingDirection": "j-",
  "PhaseEncodingSteps": 82,
  "PhaseResolution": 1,
  "PixelBandwidth": 3050,
  "ProcedureStepDescription": "Wager_Wager^1076_spacetop",
  "ProtocolName": "func_run-01_task-social_acq-ap-mb8",
  "PulseSequenceDetails": "%CustomerSeq%\\cmrr_mbep2d_bold",
  "ReceiveCoilActiveElements": "HEA;HEP",
  "ReceiveCoilName": "Head_32",
  "ReconMatrixPE": 82,
  "RepetitionTime": 0.46,
  "SAR": 0.121909,
  "ScanOptions": "FS",
  "ScanningSequence": "EP",
  "SequenceName": "epfid2d1_82",
  "SequenceVariant": "SK\\SS",
  "SeriesDescription": "func_run-01_task-social_acq-ap-mb8",
  "SeriesNumber": 18,
  "ShimSetting": [4136, -7734, -7272, 503, -127, -81, 30, 82],
  "SliceThickness": 2.7,
  "SliceTiming": [0, 0.2525, 0.0625, 0.315, 0.1275, 0.3775, 0.19, 0, 0.2525, 0.0625, 0.315, 0.1275, 0.3775, 0.19, 0, 0.2525, 0.0625, 0.315, 0.1275, 0.3775, 0.19, 0, 0.2525, 0.0625, 0.315, 0.1275, 0.3775, 0.19, 0, 0.2525, 0.0625, 0.315, 0.1275, 0.3775, 0.19, 0, 0.2525, 0.0625, 0.315, 0.1275, 0.3775, 0.19, 0, 0.2525, 0.0625, 0.315, 0.1275, 0.3775, 0.19, 0, 0.2525, 0.0625, 0.315, 0.1275, 0.3775, 0.19],
  "SoftwareVersions": "syngo MR E11",
  "SpacingBetweenSlices": 2.7,
  "StationName": "AWP66112",
  "TaskName": "social",
  "TotalReadoutTime": 0.03969,
  "TxRefAmp": 290.156,
  "WipMemBlock": "e58e5548-6a6c-4ab0-802a-9ddac654313d||Sequence: R016 ve11e/master r/434b28f1; Aug  7 2019 18:53:46 by eja",
  "dcmmeta_affine": [
    [-2.6828060150146484, -0.020134665071964264, -0.015682926401495934, 111.54747772216797],
    [-0.019127944484353065, 2.677675724029541, -0.1677430421113968, -90.65872192382812],
    [-0.016804164275527, 0.1665637344121933, 2.6947386264801025, -72.99662017822266],
    [0.0, 0.0, 0.0, 1.0]
],
  "dcmmeta_reorient_transform": [
    [0.0, -1.0, 0.0, 81.0],
    [1.0, 0.0, 0.0, 0.0],
    [0.0, 0.0, 1.0, 0.0],
    [0.0, 0.0, 0.0, 1.0]
],
  "dcmmeta_shape": [82, 82, 56, 872],
  "dcmmeta_slice_dim": 2,
  "dcmmeta_version": 0.6,
  "global": {
    "const": {
      "AccessionNumber": "A004032",
      "AcquisitionMatrix": [82, 0, 0, 82],
      "AngioFlag": "N",
      "BitsAllocated": 16,
      "BitsStored": 16,
      "BodyPartExamined": "BRAIN",
      "Columns": 656,
      "EchoNumbers": 1,
      "EchoTime": 27.2,
      "EchoTrainLength": 82,
      "FlipAngle": 44.0,
      "HighBit": 15,
      "ImageOrientationPatient": [0.99995496915134, 0.00712950673311, -0.0062633699629, -0.00750473851, 0.99804278440783, -0.0620828429709],
      "ImagePositionPatient": [-874.10326346254, -900.21570456175, -6.8783719557516],
      "ImageType": [
        "ORIGINAL",
        "PRIMARY",
        "M",
        "MB",
        "ND",
        "NORM",
        "MOSAIC"
],
      "ImagedNucleus": "1H",
      "ImagingFrequency": 123.252321,
      "InPlanePhaseEncodingDirection": "COL",
      "MRAcquisitionType": "2D",
      "MagneticFieldStrength": 3.0,
      "Manufacturer": "SIEMENS",
      "ManufacturerModelName": "Prisma",
      "Modality": "MR",
      "NumberOfAverages": 1.0,
      "NumberOfPhaseEncodingSteps": 82,
      "PercentPhaseFieldOfView": 100.0,
      "PercentSampling": 100.0,
      "PerformedProcedureStepStartTime": "135233.518000",
      "PhotometricInterpretation": "MONOCHROME2",
      "PixelBandwidth": 3050.0,
      "PixelRepresentation": 0,
      "PixelSpacing": [2.6829268932343, 2.6829268932343],
      "ProtocolName": "func_run-01_task-social_acq-ap-mb8",
      "RepetitionTime": 460.0,
      "Rows": 656,
      "SAR": 0.12190868421498,
      "SamplesPerPixel": 1,
      "ScanOptions": "FS",
      "ScanningSequence": "EP",
      "SequenceName": "epfid2d1_82",
      "SequenceVariant": [
        "SK",
        "SS"
],
      "SeriesDescription": "func_run-01_task-social_acq-ap-mb8",
      "SeriesNumber": 18,
      "SeriesTime": "143758.723000",
      "SliceLocation": -67.869937606606,
      "SliceThickness": 2.7000000476837,
      "SmallestImagePixelValue": 0,
      "SoftwareVersions": "syngo MR E11",
      "SpacingBetweenSlices": 2.6999999939832,
      "SpecificCharacterSet": "ISO_IR 100",
      "StudyID": "2",
      "StudyTime": "135233.441000",
      "TransmitCoilName": "Body",
      "VariableFlipAngleFlag": "N",
      "WindowCenterWidthExplanation": "Algo1"
    },
    "slices": {}
  },
  "time": {
    "samples": {
      "AcquisitionNumber": [1, 2, 3, 4, 5, 6, 7, 8, 9, 10, 11, 12, 13, 14, 15, 16, 17, 18, 19, 20, 21, 22, 23, 24, 25, 26, 27, 28, 29, 30, 31, 32, 33, 34, 35, 36, 37, 38, 39, 40, 41, 42, 43, 44, 45, 46, 47, 48, 49, 50, 51, 52, 53, 54, 55, 56, 57, 58, 59, 60, 61, 62, 63, 64, 65, 66, 67, 68, 69, 70, 71, 72, 73, 74, 75, 76, 77, 78, 79, 80, 81, 82, 83, 84, 85, 86, 87, 88, 89, 90, 91, 92, 93, 94, 95, 96, 97, 98, 99, 100, 101, 102, 103, 104, 105, 106, 107, 108, 109, 110, 111, 112, 113, 114, 115, 116, 117, 118, 119, 120, 121, 122, 123, 124, 125, 126, 127, 128, 129, 130, 131, 132, 133, 134, 135, 136, 137, 138, 139, 140, 141, 142, 143, 144, 145, 146, 147, 148, 149, 150, 151, 152, 153, 154, 155, 156, 157, 158, 159, 160, 161, 162, 163, 164, 165, 166, 167, 168, 169, 170, 171, 172, 173, 174, 175, 176, 177, 178, 179, 180, 181, 182, 183, 184, 185, 186, 187, 188, 189, 190, 191, 192, 193, 194, 195, 196, 197, 198, 199, 200, 201, 202, 203, 204, 205, 206, 207, 208, 209, 210, 211, 212, 213, 214, 215, 216, 217, 218, 219, 220, 221, 222, 223, 224, 225, 226, 227, 228, 229, 230, 231, 232, 233, 234, 235, 236, 237, 238, 239, 240, 241, 242, 243, 244, 245, 246, 247, 248, 249, 250, 251, 252, 253, 254, 255, 256, 257, 258, 259, 260, 261, 262, 263, 264, 265, 266, 267, 268, 269, 270, 271, 272, 273, 274, 275, 276, 277, 278, 279, 280, 281, 282, 283, 284, 285, 286, 287, 288, 289, 290, 291, 292, 293, 294, 295, 296, 297, 298, 299, 300, 301, 302, 303, 304, 305, 306, 307, 308, 309, 310, 311, 312, 313, 314, 315, 316, 317, 318, 319, 320, 321, 322, 323, 324, 325, 326, 327, 328, 329, 330, 331, 332, 333, 334, 335, 336, 337, 338, 339, 340, 341, 342, 343, 344, 345, 346, 347, 348, 349, 350, 351, 352, 353, 354, 355, 356, 357, 358, 359, 360, 361, 362, 363, 364, 365, 366, 367, 368, 369, 370, 371, 372, 373, 374, 375, 376, 377, 378, 379, 380, 381, 382, 383, 384, 385, 386, 387, 388, 389, 390, 391, 392, 393, 394, 395, 396, 397, 398, 399, 400, 401, 402, 403, 404, 405, 406, 407, 408, 409, 410, 411, 412, 413, 414, 415, 416, 417, 418, 419, 420, 421, 422, 423, 424, 425, 426, 427, 428, 429, 430, 431, 432, 433, 434, 435, 436, 437, 438, 439, 440, 441, 442, 443, 444, 445, 446, 447, 448, 449, 450, 451, 452, 453, 454, 455, 456, 457, 458, 459, 460, 461, 462, 463, 464, 465, 466, 467, 468, 469, 470, 471, 472, 473, 474, 475, 476, 477, 478, 479, 480, 481, 482, 483, 484, 485, 486, 487, 488, 489, 490, 491, 492, 493, 494, 495, 496, 497, 498, 499, 500, 501, 502, 503, 504, 505, 506, 507, 508, 509, 510, 511, 512, 513, 514, 515, 516, 517, 518, 519, 520, 521, 522, 523, 524, 525, 526, 527, 528, 529, 530, 531, 532, 533, 534, 535, 536, 537, 538, 539, 540, 541, 542, 543, 544, 545, 546, 547, 548, 549, 550, 551, 552, 553, 554, 555, 556, 557, 558, 559, 560, 561, 562, 563, 564, 565, 566, 567, 568, 569, 570, 571, 572, 573, 574, 575, 576, 577, 578, 579, 580, 581, 582, 583, 584, 585, 586, 587, 588, 589, 590, 591, 592, 593, 594, 595, 596, 597, 598, 599, 600, 601, 602, 603, 604, 605, 606, 607, 608, 609, 610, 611, 612, 613, 614, 615, 616, 617, 618, 619, 620, 621, 622, 623, 624, 625, 626, 627, 628, 629, 630, 631, 632, 633, 634, 635, 636, 637, 638, 639, 640, 641, 642, 643, 644, 645, 646, 647, 648, 649, 650, 651, 652, 653, 654, 655, 656, 657, 658, 659, 660, 661, 662, 663, 664, 665, 666, 667, 668, 669, 670, 671, 672, 673, 674, 675, 676, 677, 678, 679, 680, 681, 682, 683, 684, 685, 686, 687, 688, 689, 690, 691, 692, 693, 694, 695, 696, 697, 698, 699, 700, 701, 702, 703, 704, 705, 706, 707, 708, 709, 710, 711, 712, 713, 714, 715, 716, 717, 718, 719, 720, 721, 722, 723, 724, 725, 726, 727, 728, 729, 730, 731, 732, 733, 734, 735, 736, 737, 738, 739, 740, 741, 742, 743, 744, 745, 746, 747, 748, 749, 750, 751, 752, 753, 754, 755, 756, 757, 758, 759, 760, 761, 762, 763, 764, 765, 766, 767, 768, 769, 770, 771, 772, 773, 774, 775, 776, 777, 778, 779, 780, 781, 782, 783, 784, 785, 786, 787, 788, 789, 790, 791, 792, 793, 794, 795, 796, 797, 798, 799, 800, 801, 802, 803, 804, 805, 806, 807, 808, 809, 810, 811, 812, 813, 814, 815, 816, 817, 818, 819, 820, 821, 822, 823, 824, 825, 826, 827, 828, 829, 830, 831, 832, 833, 834, 835, 836, 837, 838, 839, 840, 841, 842, 843, 844, 845, 846, 847, 848, 849, 850, 851, 852, 853, 854, 855, 856, 857, 858, 859, 860, 861, 862, 863, 864, 865, 866, 867, 868, 869, 870, 871, 872],
      "AcquisitionTime": ["143730.972500", "143731.432500", "143731.892500", "143732.352500", "143732.812500", "143733.272500", "143733.732500", "143734.192500", "143734.652500", "143735.112500", "143735.572500", "143736.032500", "143736.492500", "143736.952500", "143737.412500", "143737.872500", "143738.332500", "143738.792500", "143739.252500", "143739.712500", "143740.172500", "143740.632500", "143741.092500", "143741.552500", "143742.012500", "143742.472500", "143742.932500", "143743.392500", "143743.852500", "143744.312500", "143744.772500", "143745.232500", "143745.692500", "143746.152500", "143746.612500", "143747.072500", "143747.532500", "143747.992500", "143748.452500", "143748.912500", "143749.372500", "143749.832500", "143750.292500", "143750.752500", "143751.212500", "143751.672500", "143752.132500", "143752.592500", "143753.052500", "143753.512500", "143753.972500", "143754.432500", "143754.892500", "143755.352500", "143755.812500", "143756.272500", "143756.732500", "143757.192500", "143757.652500", "143758.112500", "143758.572500", "143759.032500", "143759.492500", "143759.952500", "143800.412500", "143800.872500", "143801.332500", "143801.792500", "143802.252500", "143802.712500", "143803.172500", "143803.632500", "143804.092500", "143804.552500", "143805.012500", "143805.472500", "143805.932500", "143806.392500", "143806.852500", "143807.312500", "143807.772500", "143808.232500", "143808.692500", "143809.152500", "143809.612500", "143810.072500", "143810.532500", "143810.992500", "143811.452500", "143811.912500", "143812.372500", "143812.832500", "143813.292500", "143813.752500", "143814.212500", "143814.672500", "143815.132500", "143815.592500", "143816.052500", "143816.512500", "143816.972500", "143817.432500", "143817.892500", "143818.352500", "143818.812500", "143819.272500", "143819.732500", "143820.192500", "143820.652500", "143821.112500", "143821.572500", "143822.032500", "143822.492500", "143822.952500", "143823.412500", "143823.872500", "143824.332500", "143824.792500", "143825.252500", "143825.712500", "143826.172500", "143826.632500", "143827.092500", "143827.552500", "143828.012500", "143828.472500", "143828.932500", "143829.392500", "143829.852500", "143830.312500", "143830.772500", "143831.232500", "143831.692500", "143832.152500", "143832.612500", "143833.072500", "143833.532500", "143833.992500", "143834.452500", "143834.912500", "143835.372500", "143835.832500", "143836.292500", "143836.752500", "143837.212500", "143837.672500", "143838.132500", "143838.592500", "143839.052500", "143839.512500", "143839.972500", "143840.432500", "143840.892500", "143841.352500", "143841.812500", "143842.272500", "143842.732500", "143843.192500", "143843.652500", "143844.112500", "143844.572500", "143845.032500", "143845.492500", "143845.952500", "143846.412500", "143846.872500", "143847.332500", "143847.792500", "143848.252500", "143848.712500", "143849.172500", "143849.632500", "143850.092500", "143850.552500", "143851.012500", "143851.472500", "143851.932500", "143852.392500", "143852.852500", "143853.312500", "143853.772500", "143854.232500", "143854.692500", "143855.152500", "143855.612500", "143856.072500", "143856.532500", "143856.992500", "143857.452500", "143857.912500", "143858.372500", "143858.832500", "143859.292500", "143859.752500", "143900.212500", "143900.672500", "143901.132500", "143901.592500", "143902.052500", "143902.512500", "143902.972500", "143903.432500", "143903.892500", "143904.352500", "143904.812500", "143905.272500", "143905.732500", "143906.192500", "143906.652500", "143907.112500", "143907.572500", "143908.032500", "143908.492500", "143908.952500", "143909.412500", "143909.872500", "143910.332500", "143910.792500", "143911.252500", "143911.712500", "143912.172500", "143912.632500", "143913.092500", "143913.552500", "143914.012500", "143914.472500", "143914.932500", "143915.392500", "143915.852500", "143916.312500", "143916.772500", "143917.232500", "143917.692500", "143918.152500", "143918.612500", "143919.072500", "143919.532500", "143919.992500", "143920.452500", "143920.912500", "143921.372500", "143921.832500", "143922.292500", "143922.752500", "143923.212500", "143923.672500", "143924.132500", "143924.592500", "143925.052500", "143925.512500", "143925.972500", "143926.432500", "143926.892500", "143927.352500", "143927.812500", "143928.272500", "143928.732500", "143929.192500", "143929.652500", "143930.112500", "143930.572500", "143931.032500", "143931.492500", "143931.952500", "143932.412500", "143932.872500", "143933.332500", "143933.792500", "143934.252500", "143934.712500", "143935.172500", "143935.632500", "143936.092500", "143936.552500", "143937.012500", "143937.472500", "143937.932500", "143938.392500", "143938.852500", "143939.312500", "143939.772500", "143940.232500", "143940.692500", "143941.152500", "143941.612500", "143942.072500", "143942.532500", "143942.992500", "143943.452500", "143943.912500", "143944.372500", "143944.832500", "143945.292500", "143945.752500", "143946.212500", "143946.672500", "143947.132500", "143947.592500", "143948.052500", "143948.512500", "143948.972500", "143949.432500", "143949.892500", "143950.352500", "143950.812500", "143951.272500", "143951.732500", "143952.192500", "143952.652500", "143953.112500", "143953.572500", "143954.032500", "143954.492500", "143954.952500", "143955.412500", "143955.872500", "143956.332500", "143956.792500", "143957.252500", "143957.712500", "143958.172500", "143958.632500", "143959.092500", "143959.552500", "144000.012500", "144000.472500", "144000.932500", "144001.392500", "144001.852500", "144002.312500", "144002.772500", "144003.232500", "144003.692500", "144004.152500", "144004.612500", "144005.072500", "144005.532500", "144005.992500", "144006.452500", "144006.912500", "144007.372500", "144007.832500", "144008.292500", "144008.752500", "144009.212500", "144009.672500", "144010.132500", "144010.592500", "144011.052500", "144011.512500", "144011.972500", "144012.432500", "144012.892500", "144013.352500", "144013.812500", "144014.272500", "144014.732500", "144015.192500", "144015.652500", "144016.112500", "144016.572500", "144017.032500", "144017.492500", "144017.952500", "144018.412500", "144018.872500", "144019.332500", "144019.792500", "144020.252500", "144020.712500", "144021.172500", "144021.632500", "144022.092500", "144022.552500", "144023.012500", "144023.472500", "144023.932500", "144024.392500", "144024.852500", "144025.312500", "144025.772500", "144026.232500", "144026.692500", "144027.152500", "144027.612500", "144028.072500", "144028.532500", "144028.992500", "144029.452500", "144029.912500", "144030.372500", "144030.832500", "144031.292500", "144031.752500", "144032.212500", "144032.672500", "144033.132500", "144033.592500", "144034.052500", "144034.512500", "144034.972500", "144035.432500", "144035.892500", "144036.352500", "144036.812500", "144037.272500", "144037.732500", "144038.192500", "144038.652500", "144039.112500", "144039.572500", "144040.032500", "144040.492500", "144040.952500", "144041.412500", "144041.872500", "144042.332500", "144042.792500", "144043.252500", "144043.712500", "144044.172500", "144044.632500", "144045.092500", "144045.552500", "144046.012500", "144046.472500", "144046.932500", "144047.392500", "144047.852500", "144048.312500", "144048.772500", "144049.232500", "144049.692500", "144050.152500", "144050.612500", "144051.072500", "144051.532500", "144051.992500", "144052.452500", "144052.912500", "144053.372500", "144053.832500", "144054.292500", "144054.752500", "144055.212500", "144055.672500", "144056.132500", "144056.592500", "144057.052500", "144057.512500", "144057.972500", "144058.432500", "144058.892500", "144059.352500", "144059.812500", "144100.272500", "144100.732500", "144101.192500", "144101.652500", "144102.112500", "144102.572500", "144103.032500", "144103.492500", "144103.952500", "144104.412500", "144104.872500", "144105.332500", "144105.792500", "144106.252500", "144106.712500", "144107.172500", "144107.632500", "144108.092500", "144108.552500", "144109.012500", "144109.472500", "144109.932500", "144110.392500", "144110.852500", "144111.312500", "144111.772500", "144112.232500", "144112.692500", "144113.152500", "144113.612500", "144114.072500", "144114.532500", "144114.992500", "144115.452500", "144115.912500", "144116.372500", "144116.832500", "144117.292500", "144117.752500", "144118.212500", "144118.672500", "144119.132500", "144119.592500", "144120.052500", "144120.512500", "144120.972500", "144121.432500", "144121.892500", "144122.352500", "144122.812500", "144123.272500", "144123.732500", "144124.192500", "144124.652500", "144125.112500", "144125.572500", "144126.032500", "144126.492500", "144126.952500", "144127.412500", "144127.872500", "144128.332500", "144128.792500", "144129.252500", "144129.712500", "144130.172500", "144130.632500", "144131.092500", "144131.552500", "144132.012500", "144132.472500", "144132.932500", "144133.392500", "144133.852500", "144134.312500", "144134.772500", "144135.232500", "144135.692500", "144136.152500", "144136.612500", "144137.072500", "144137.532500", "144137.992500", "144138.452500", "144138.912500", "144139.372500", "144139.832500", "144140.292500", "144140.752500", "144141.212500", "144141.672500", "144142.132500", "144142.592500", "144143.052500", "144143.512500", "144143.972500", "144144.432500", "144144.892500", "144145.352500", "144145.812500", "144146.272500", "144146.732500", "144147.192500", "144147.652500", "144148.112500", "144148.572500", "144149.032500", "144149.492500", "144149.952500", "144150.412500", "144150.872500", "144151.332500", "144151.792500", "144152.252500", "144152.712500", "144153.172500", "144153.632500", "144154.092500", "144154.552500", "144155.012500", "144155.472500", "144155.932500", "144156.392500", "144156.852500", "144157.312500", "144157.772500", "144158.232500", "144158.692500", "144159.152500", "144159.612500", "144200.072500", "144200.532500", "144200.992500", "144201.452500", "144201.912500", "144202.372500", "144202.832500", "144203.292500", "144203.752500", "144204.212500", "144204.672500", "144205.132500", "144205.592500", "144206.052500", "144206.512500", "144206.972500", "144207.432500", "144207.892500", "144208.352500", "144208.812500", "144209.272500", "144209.732500", "144210.192500", "144210.652500", "144211.112500", "144211.572500", "144212.032500", "144212.492500", "144212.952500", "144213.412500", "144213.872500", "144214.332500", "144214.792500", "144215.252500", "144215.712500", "144216.172500", "144216.632500", "144217.092500", "144217.552500", "144218.012500", "144218.472500", "144218.932500", "144219.392500", "144219.852500", "144220.312500", "144220.772500", "144221.232500", "144221.692500", "144222.152500", "144222.612500", "144223.072500", "144223.532500", "144223.992500", "144224.452500", "144224.912500", "144225.372500", "144225.832500", "144226.292500", "144226.752500", "144227.212500", "144227.672500", "144228.132500", "144228.592500", "144229.052500", "144229.512500", "144229.972500", "144230.432500", "144230.892500", "144231.352500", "144231.812500", "144232.272500", "144232.732500", "144233.192500", "144233.652500", "144234.112500", "144234.572500", "144235.032500", "144235.492500", "144235.952500", "144236.412500", "144236.872500", "144237.332500", "144237.792500", "144238.252500", "144238.712500", "144239.172500", "144239.632500", "144240.092500", "144240.552500", "144241.012500", "144241.472500", "144241.932500", "144242.392500", "144242.852500", "144243.312500", "144243.772500", "144244.232500", "144244.692500", "144245.152500", "144245.612500", "144246.072500", "144246.532500", "144246.992500", "144247.452500", "144247.912500", "144248.372500", "144248.832500", "144249.292500", "144249.752500", "144250.212500", "144250.672500", "144251.132500", "144251.592500", "144252.052500", "144252.512500", "144252.972500", "144253.432500", "144253.892500", "144254.352500", "144254.812500", "144255.272500", "144255.732500", "144256.192500", "144256.652500", "144257.112500", "144257.572500", "144258.032500", "144258.492500", "144258.952500", "144259.412500", "144259.872500", "144300.332500", "144300.792500", "144301.252500", "144301.712500", "144302.172500", "144302.632500", "144303.092500", "144303.552500", "144304.012500", "144304.472500", "144304.932500", "144305.392500", "144305.852500", "144306.312500", "144306.772500", "144307.232500", "144307.692500", "144308.152500", "144308.612500", "144309.072500", "144309.532500", "144309.992500", "144310.452500", "144310.912500", "144311.372500", "144311.832500", "144312.292500", "144312.752500", "144313.212500", "144313.672500", "144314.132500", "144314.592500", "144315.052500", "144315.512500", "144315.972500", "144316.432500", "144316.892500", "144317.352500", "144317.812500", "144318.272500", "144318.732500", "144319.192500", "144319.652500", "144320.112500", "144320.572500", "144321.032500", "144321.492500", "144321.952500", "144322.412500", "144322.872500", "144323.332500", "144323.792500", "144324.252500", "144324.712500", "144325.172500", "144325.632500", "144326.092500", "144326.552500", "144327.012500", "144327.472500", "144327.932500", "144328.392500", "144328.852500", "144329.312500", "144329.772500", "144330.232500", "144330.692500", "144331.152500", "144331.612500", "144332.072500", "144332.532500", "144332.992500", "144333.452500", "144333.912500", "144334.372500", "144334.832500", "144335.292500", "144335.752500", "144336.212500", "144336.672500", "144337.132500", "144337.592500", "144338.052500", "144338.512500", "144338.972500", "144339.432500", "144339.892500", "144340.352500", "144340.812500", "144341.272500", "144341.732500", "144342.192500", "144342.652500", "144343.112500", "144343.572500", "144344.032500", "144344.492500", "144344.952500", "144345.412500", "144345.872500", "144346.332500", "144346.792500", "144347.252500", "144347.712500", "144348.172500", "144348.632500", "144349.092500", "144349.552500", "144350.012500", "144350.472500", "144350.932500", "144351.392500", "144351.852500", "144352.312500", "144352.772500", "144353.232500", "144353.692500", "144354.152500", "144354.612500", "144355.072500", "144355.532500", "144355.992500", "144356.452500", "144356.912500", "144357.372500", "144357.832500", "144358.292500", "144358.752500", "144359.212500", "144359.672500", "144400.132500", "144400.592500", "144401.052500", "144401.512500", "144401.972500", "144402.432500", "144402.892500", "144403.352500", "144403.812500", "144404.272500", "144404.732500", "144405.192500", "144405.652500", "144406.112500", "144406.572500", "144407.032500", "144407.492500", "144407.952500", "144408.412500", "144408.872500", "144409.332500", "144409.792500", "144410.252500", "144410.712500", "144411.172500", "144411.632500"],
