{
  "AcquisitionMatrixPE": 82,
  "AcquisitionNumber": 1,
  "AcquisitionTime": "14:44:36.310000",
  "BandwidthPerPixelPhaseEncode": 24.888,
  "BaseResolution": 82,
  "BodyPartExamined": "BRAIN",
  "ConsistencyInfo": "N4_VE11E_LATEST_20181129",
  "ConversionSoftware": "dcm2niix",
  "ConversionSoftwareVersion": "v1.0.20201102",
  "DerivedVendorReportedEchoSpacing": 0.00049,
  "DeviceSerialNumber": "66112",
  "DwellTime": 2e-06,
  "EchoTime": 0.0272,
  "EchoTrainLength": 82,
  "EffectiveEchoSpacing": 0.00049,
  "FlipAngle": 44,
  "ImageComments": "Unaliased MB8/PE3",
  "ImageOrientationPatientDICOM": [0.999955, 0.00712951, -0.00626337, -0.00750474, 0.998043, -0.0620828],
  "ImageType": [
    "ORIGINAL",
    "PRIMARY",
    "M",
    "MB",
    "ND",
    "NORM",
    "MOSAIC"
],
  "ImagingFrequency": 123.252,
  "InPlanePhaseEncodingDirectionDICOM": "COL",
  "InstitutionAddress": "Maynard 3,Hanover,NH,US,03755",
  "InstitutionName": "Dartmouth College - PBS",
  "InstitutionalDepartmentName": "Department",
  "MRAcquisitionType": "2D",
  "MagneticFieldStrength": 3,
  "Manufacturer": "Siemens",
  "ManufacturersModelName": "Prisma",
  "Modality": "MR",
  "MultibandAccelerationFactor": 8,
  "PartialFourier": 1,
  "PatientPosition": "HFS",
  "PercentPhaseFOV": 100,
  "PercentSampling": 100,
  "PhaseEncodingDirection": "j-",
  "PhaseEncodingSteps": 82,
  "PhaseResolution": 1,
  "PixelBandwidth": 3050,
  "ProcedureStepDescription": "Wager_Wager^1076_spacetop",
  "ProtocolName": "func_run-02_task-social_acq-ap-mb8",
  "PulseSequenceDetails": "%CustomerSeq%\\cmrr_mbep2d_bold",
  "ReceiveCoilActiveElements": "HEA;HEP",
  "ReceiveCoilName": "Head_32",
  "ReconMatrixPE": 82,
  "RepetitionTime": 0.46,
  "SAR": 0.121909,
  "ScanOptions": "FS",
  "ScanningSequence": "EP",
  "SequenceName": "epfid2d1_82",
  "SequenceVariant": "SK\\SS",
  "SeriesDescription": "func_run-02_task-social_acq-ap-mb8",
  "SeriesNumber": 20,
  "ShimSetting": [4136, -7734, -7272, 503, -127, -81, 30, 82],
  "SliceThickness": 2.7,
  "SliceTiming": [0, 0.25, 0.0625, 0.315, 0.125, 0.3775, 0.1875, 0, 0.25, 0.0625, 0.315, 0.125, 0.3775, 0.1875, 0, 0.25, 0.0625, 0.315, 0.125, 0.3775, 0.1875, 0, 0.25, 0.0625, 0.315, 0.125, 0.3775, 0.1875, 0, 0.25, 0.0625, 0.315, 0.125, 0.3775, 0.1875, 0, 0.25, 0.0625, 0.315, 0.125, 0.3775, 0.1875, 0, 0.25, 0.0625, 0.315, 0.125, 0.3775, 0.1875, 0, 0.25, 0.0625, 0.315, 0.125, 0.3775, 0.1875],
  "SoftwareVersions": "syngo MR E11",
  "SpacingBetweenSlices": 2.7,
  "StationName": "AWP66112",
  "TaskName": "social",
  "TotalReadoutTime": 0.03969,
  "TxRefAmp": 290.156,
  "WipMemBlock": "87bb919c-938a-4e19-bfdb-5743cccf28a4||Sequence: R016 ve11e/master r/434b28f1; Aug  7 2019 18:53:46 by eja",
  "dcmmeta_affine": [
    [-2.6828060150146484, -0.020134665071964264, -0.015682926401495934, 111.54747772216797],
    [-0.019127944484353065, 2.677675724029541, -0.1677430421113968, -90.65872192382812],
    [-0.016804164275527, 0.1665637344121933, 2.6947386264801025, -72.99662017822266],
    [0.0, 0.0, 0.0, 1.0]
],
  "dcmmeta_reorient_transform": [
    [0.0, -1.0, 0.0, 81.0],
    [1.0, 0.0, 0.0, 0.0],
    [0.0, 0.0, 1.0, 0.0],
    [0.0, 0.0, 0.0, 1.0]
],
  "dcmmeta_shape": [82, 82, 56, 872],
  "dcmmeta_slice_dim": 2,
  "dcmmeta_version": 0.6,
  "global": {
    "const": {
      "AccessionNumber": "A004032",
      "AcquisitionMatrix": [82, 0, 0, 82],
      "AngioFlag": "N",
      "BitsAllocated": 16,
      "BitsStored": 16,
      "BodyPartExamined": "BRAIN",
      "Columns": 656,
      "EchoNumbers": 1,
      "EchoTime": 27.2,
      "EchoTrainLength": 82,
      "FlipAngle": 44.0,
      "HighBit": 15,
      "ImageOrientationPatient": [0.99995496915134, 0.00712950673311, -0.0062633699629, -0.00750473851, 0.99804278440783, -0.0620828429709],
      "ImagePositionPatient": [-874.10326346254, -900.21570456175, -6.8783719557516],
      "ImageType": [
        "ORIGINAL",
        "PRIMARY",
        "M",
        "MB",
        "ND",
        "NORM",
        "MOSAIC"
],
      "ImagedNucleus": "1H",
      "ImagingFrequency": 123.252325,
      "InPlanePhaseEncodingDirection": "COL",
      "MRAcquisitionType": "2D",
      "MagneticFieldStrength": 3.0,
      "Manufacturer": "SIEMENS",
      "ManufacturerModelName": "Prisma",
      "Modality": "MR",
      "NumberOfAverages": 1.0,
      "NumberOfPhaseEncodingSteps": 82,
      "PercentPhaseFieldOfView": 100.0,
      "PercentSampling": 100.0,
      "PerformedProcedureStepStartTime": "135233.518000",
      "PhotometricInterpretation": "MONOCHROME2",
      "PixelBandwidth": 3050.0,
      "PixelRepresentation": 0,
      "PixelSpacing": [2.6829268932343, 2.6829268932343],
      "ProtocolName": "func_run-02_task-social_acq-ap-mb8",
      "RepetitionTime": 460.0,
      "Rows": 656,
      "SAR": 0.12190868421498,
      "SamplesPerPixel": 1,
      "ScanOptions": "FS",
      "ScanningSequence": "EP",
      "SequenceName": "epfid2d1_82",
      "SequenceVariant": [
        "SK",
        "SS"
],
      "SeriesDescription": "func_run-02_task-social_acq-ap-mb8",
      "SeriesNumber": 20,
      "SeriesTime": "144458.489000",
      "SliceLocation": -67.869937606606,
      "SliceThickness": 2.7000000476837,
      "SmallestImagePixelValue": 0,
      "SoftwareVersions": "syngo MR E11",
      "SpacingBetweenSlices": 2.6999999939832,
      "SpecificCharacterSet": "ISO_IR 100",
      "StudyID": "2",
      "StudyTime": "135233.441000",
      "TransmitCoilName": "Body",
      "VariableFlipAngleFlag": "N",
      "WindowCenterWidthExplanation": "Algo1"
    },
    "slices": {}
  },
  "time": {
    "samples": {
      "AcquisitionNumber": [1, 2, 3, 4, 5, 6, 7, 8, 9, 10, 11, 12, 13, 14, 15, 16, 17, 18, 19, 20, 21, 22, 23, 24, 25, 26, 27, 28, 29, 30, 31, 32, 33, 34, 35, 36, 37, 38, 39, 40, 41, 42, 43, 44, 45, 46, 47, 48, 49, 50, 51, 52, 53, 54, 55, 56, 57, 58, 59, 60, 61, 62, 63, 64, 65, 66, 67, 68, 69, 70, 71, 72, 73, 74, 75, 76, 77, 78, 79, 80, 81, 82, 83, 84, 85, 86, 87, 88, 89, 90, 91, 92, 93, 94, 95, 96, 97, 98, 99, 100, 101, 102, 103, 104, 105, 106, 107, 108, 109, 110, 111, 112, 113, 114, 115, 116, 117, 118, 119, 120, 121, 122, 123, 124, 125, 126, 127, 128, 129, 130, 131, 132, 133, 134, 135, 136, 137, 138, 139, 140, 141, 142, 143, 144, 145, 146, 147, 148, 149, 150, 151, 152, 153, 154, 155, 156, 157, 158, 159, 160, 161, 162, 163, 164, 165, 166, 167, 168, 169, 170, 171, 172, 173, 174, 175, 176, 177, 178, 179, 180, 181, 182, 183, 184, 185, 186, 187, 188, 189, 190, 191, 192, 193, 194, 195, 196, 197, 198, 199, 200, 201, 202, 203, 204, 205, 206, 207, 208, 209, 210, 211, 212, 213, 214, 215, 216, 217, 218, 219, 220, 221, 222, 223, 224, 225, 226, 227, 228, 229, 230, 231, 232, 233, 234, 235, 236, 237, 238, 239, 240, 241, 242, 243, 244, 245, 246, 247, 248, 249, 250, 251, 252, 253, 254, 255, 256, 257, 258, 259, 260, 261, 262, 263, 264, 265, 266, 267, 268, 269, 270, 271, 272, 273, 274, 275, 276, 277, 278, 279, 280, 281, 282, 283, 284, 285, 286, 287, 288, 289, 290, 291, 292, 293, 294, 295, 296, 297, 298, 299, 300, 301, 302, 303, 304, 305, 306, 307, 308, 309, 310, 311, 312, 313, 314, 315, 316, 317, 318, 319, 320, 321, 322, 323, 324, 325, 326, 327, 328, 329, 330, 331, 332, 333, 334, 335, 336, 337, 338, 339, 340, 341, 342, 343, 344, 345, 346, 347, 348, 349, 350, 351, 352, 353, 354, 355, 356, 357, 358, 359, 360, 361, 362, 363, 364, 365, 366, 367, 368, 369, 370, 371, 372, 373, 374, 375, 376, 377, 378, 379, 380, 381, 382, 383, 384, 385, 386, 387, 388, 389, 390, 391, 392, 393, 394, 395, 396, 397, 398, 399, 400, 401, 402, 403, 404, 405, 406, 407, 408, 409, 410, 411, 412, 413, 414, 415, 416, 417, 418, 419, 420, 421, 422, 423, 424, 425, 426, 427, 428, 429, 430, 431, 432, 433, 434, 435, 436, 437, 438, 439, 440, 441, 442, 443, 444, 445, 446, 447, 448, 449, 450, 451, 452, 453, 454, 455, 456, 457, 458, 459, 460, 461, 462, 463, 464, 465, 466, 467, 468, 469, 470, 471, 472, 473, 474, 475, 476, 477, 478, 479, 480, 481, 482, 483, 484, 485, 486, 487, 488, 489, 490, 491, 492, 493, 494, 495, 496, 497, 498, 499, 500, 501, 502, 503, 504, 505, 506, 507, 508, 509, 510, 511, 512, 513, 514, 515, 516, 517, 518, 519, 520, 521, 522, 523, 524, 525, 526, 527, 528, 529, 530, 531, 532, 533, 534, 535, 536, 537, 538, 539, 540, 541, 542, 543, 544, 545, 546, 547, 548, 549, 550, 551, 552, 553, 554, 555, 556, 557, 558, 559, 560, 561, 562, 563, 564, 565, 566, 567, 568, 569, 570, 571, 572, 573, 574, 575, 576, 577, 578, 579, 580, 581, 582, 583, 584, 585, 586, 587, 588, 589, 590, 591, 592, 593, 594, 595, 596, 597, 598, 599, 600, 601, 602, 603, 604, 605, 606, 607, 608, 609, 610, 611, 612, 613, 614, 615, 616, 617, 618, 619, 620, 621, 622, 623, 624, 625, 626, 627, 628, 629, 630, 631, 632, 633, 634, 635, 636, 637, 638, 639, 640, 641, 642, 643, 644, 645, 646, 647, 648, 649, 650, 651, 652, 653, 654, 655, 656, 657, 658, 659, 660, 661, 662, 663, 664, 665, 666, 667, 668, 669, 670, 671, 672, 673, 674, 675, 676, 677, 678, 679, 680, 681, 682, 683, 684, 685, 686, 687, 688, 689, 690, 691, 692, 693, 694, 695, 696, 697, 698, 699, 700, 701, 702, 703, 704, 705, 706, 707, 708, 709, 710, 711, 712, 713, 714, 715, 716, 717, 718, 719, 720, 721, 722, 723, 724, 725, 726, 727, 728, 729, 730, 731, 732, 733, 734, 735, 736, 737, 738, 739, 740, 741, 742, 743, 744, 745, 746, 747, 748, 749, 750, 751, 752, 753, 754, 755, 756, 757, 758, 759, 760, 761, 762, 763, 764, 765, 766, 767, 768, 769, 770, 771, 772, 773, 774, 775, 776, 777, 778, 779, 780, 781, 782, 783, 784, 785, 786, 787, 788, 789, 790, 791, 792, 793, 794, 795, 796, 797, 798, 799, 800, 801, 802, 803, 804, 805, 806, 807, 808, 809, 810, 811, 812, 813, 814, 815, 816, 817, 818, 819, 820, 821, 822, 823, 824, 825, 826, 827, 828, 829, 830, 831, 832, 833, 834, 835, 836, 837, 838, 839, 840, 841, 842, 843, 844, 845, 846, 847, 848, 849, 850, 851, 852, 853, 854, 855, 856, 857, 858, 859, 860, 861, 862, 863, 864, 865, 866, 867, 868, 869, 870, 871, 872],
      "AcquisitionTime": ["144436.310000", "144436.770000", "144437.230000", "144437.690000", "144438.150000", "144438.610000", "144439.070000", "144439.530000", "144439.990000", "144440.450000", "144440.910000", "144441.370000", "144441.830000", "144442.290000", "144442.750000", "144443.210000", "144443.670000", "144444.130000", "144444.590000", "144445.050000", "144445.510000", "144445.970000", "144446.430000", "144446.890000", "144447.350000", "144447.810000", "144448.270000", "144448.730000", "144449.190000", "144449.650000", "144450.110000", "144450.570000", "144451.030000", "144451.490000", "144451.950000", "144452.410000", "144452.870000", "144453.330000", "144453.790000", "144454.250000", "144454.710000", "144455.170000", "144455.630000", "144456.090000", "144456.550000", "144457.010000", "144457.470000", "144457.930000", "144458.390000", "144458.850000", "144459.310000", "144459.770000", "144500.230000", "144500.690000", "144501.150000", "144501.610000", "144502.070000", "144502.530000", "144502.990000", "144503.450000", "144503.910000", "144504.370000", "144504.830000", "144505.290000", "144505.750000", "144506.210000", "144506.670000", "144507.130000", "144507.590000", "144508.050000", "144508.510000", "144508.970000", "144509.430000", "144509.890000", "144510.350000", "144510.810000", "144511.270000", "144511.730000", "144512.190000", "144512.650000", "144513.110000", "144513.570000", "144514.030000", "144514.490000", "144514.950000", "144515.410000", "144515.870000", "144516.330000", "144516.790000", "144517.250000", "144517.710000", "144518.170000", "144518.630000", "144519.090000", "144519.550000", "144520.010000", "144520.470000", "144520.930000", "144521.390000", "144521.850000", "144522.310000", "144522.770000", "144523.230000", "144523.690000", "144524.150000", "144524.610000", "144525.070000", "144525.530000", "144525.990000", "144526.450000", "144526.910000", "144527.370000", "144527.830000", "144528.290000", "144528.750000", "144529.210000", "144529.670000", "144530.130000", "144530.590000", "144531.050000", "144531.510000", "144531.970000", "144532.430000", "144532.890000", "144533.350000", "144533.810000", "144534.270000", "144534.730000", "144535.190000", "144535.650000", "144536.110000", "144536.570000", "144537.030000", "144537.490000", "144537.950000", "144538.410000", "144538.870000", "144539.330000", "144539.790000", "144540.250000", "144540.710000", "144541.170000", "144541.630000", "144542.090000", "144542.550000", "144543.010000", "144543.470000", "144543.930000", "144544.390000", "144544.850000", "144545.310000", "144545.770000", "144546.230000", "144546.690000", "144547.150000", "144547.610000", "144548.070000", "144548.530000", "144548.990000", "144549.450000", "144549.910000", "144550.370000", "144550.830000", "144551.290000", "144551.750000", "144552.210000", "144552.670000", "144553.130000", "144553.590000", "144554.050000", "144554.510000", "144554.970000", "144555.430000", "144555.890000", "144556.350000", "144556.810000", "144557.270000", "144557.730000", "144558.190000", "144558.650000", "144559.110000", "144559.570000", "144600.030000", "144600.490000", "144600.950000", "144601.410000", "144601.870000", "144602.330000", "144602.790000", "144603.250000", "144603.710000", "144604.170000", "144604.630000", "144605.090000", "144605.550000", "144606.010000", "144606.470000", "144606.930000", "144607.390000", "144607.850000", "144608.310000", "144608.770000", "144609.230000", "144609.690000", "144610.150000", "144610.610000", "144611.070000", "144611.530000", "144611.990000", "144612.450000", "144612.910000", "144613.370000", "144613.830000", "144614.290000", "144614.750000", "144615.210000", "144615.670000", "144616.130000", "144616.590000", "144617.050000", "144617.510000", "144617.970000", "144618.430000", "144618.890000", "144619.350000", "144619.810000", "144620.270000", "144620.730000", "144621.190000", "144621.650000", "144622.110000", "144622.570000", "144623.030000", "144623.490000", "144623.950000", "144624.410000", "144624.870000", "144625.330000", "144625.790000", "144626.250000", "144626.710000", "144627.170000", "144627.630000", "144628.090000", "144628.550000", "144629.010000", "144629.470000", "144629.930000", "144630.390000", "144630.850000", "144631.310000", "144631.770000", "144632.230000", "144632.690000", "144633.150000", "144633.610000", "144634.070000", "144634.530000", "144634.990000", "144635.450000", "144635.910000", "144636.370000", "144636.830000", "144637.290000", "144637.750000", "144638.210000", "144638.670000", "144639.130000", "144639.590000", "144640.050000", "144640.510000", "144640.970000", "144641.430000", "144641.890000", "144642.350000", "144642.810000", "144643.270000", "144643.730000", "144644.190000", "144644.650000", "144645.110000", "144645.570000", "144646.030000", "144646.490000", "144646.950000", "144647.410000", "144647.870000", "144648.330000", "144648.790000", "144649.250000", "144649.710000", "144650.170000", "144650.630000", "144651.090000", "144651.550000", "144652.010000", "144652.470000", "144652.930000", "144653.390000", "144653.850000", "144654.310000", "144654.770000", "144655.230000", "144655.690000", "144656.150000", "144656.610000", "144657.070000", "144657.530000", "144657.990000", "144658.450000", "144658.910000", "144659.370000", "144659.830000", "144700.290000", "144700.750000", "144701.210000", "144701.670000", "144702.130000", "144702.590000", "144703.050000", "144703.510000", "144703.970000", "144704.430000", "144704.890000", "144705.350000", "144705.810000", "144706.270000", "144706.730000", "144707.190000", "144707.650000", "144708.110000", "144708.570000", "144709.030000", "144709.490000", "144709.950000", "144710.410000", "144710.870000", "144711.330000", "144711.790000", "144712.250000", "144712.710000", "144713.170000", "144713.630000", "144714.090000", "144714.550000", "144715.010000", "144715.470000", "144715.930000", "144716.390000", "144716.850000", "144717.310000", "144717.770000", "144718.230000", "144718.690000", "144719.150000", "144719.610000", "144720.070000", "144720.530000", "144720.990000", "144721.450000", "144721.910000", "144722.370000", "144722.830000", "144723.290000", "144723.750000", "144724.210000", "144724.670000", "144725.130000", "144725.590000", "144726.050000", "144726.510000", "144726.970000", "144727.430000", "144727.890000", "144728.350000", "144728.810000", "144729.270000", "144729.730000", "144730.190000", "144730.650000", "144731.110000", "144731.570000", "144732.030000", "144732.490000", "144732.950000", "144733.410000", "144733.870000", "144734.330000", "144734.790000", "144735.250000", "144735.710000", "144736.170000", "144736.630000", "144737.090000", "144737.550000", "144738.010000", "144738.470000", "144738.930000", "144739.390000", "144739.850000", "144740.310000", "144740.770000", "144741.230000", "144741.690000", "144742.150000", "144742.610000", "144743.070000", "144743.530000", "144743.990000", "144744.450000", "144744.910000", "144745.370000", "144745.830000", "144746.290000", "144746.750000", "144747.210000", "144747.670000", "144748.130000", "144748.590000", "144749.050000", "144749.510000", "144749.970000", "144750.430000", "144750.890000", "144751.350000", "144751.810000", "144752.270000", "144752.730000", "144753.190000", "144753.650000", "144754.110000", "144754.570000", "144755.030000", "144755.490000", "144755.950000", "144756.410000", "144756.870000", "144757.330000", "144757.790000", "144758.250000", "144758.710000", "144759.170000", "144759.630000", "144800.090000", "144800.550000", "144801.010000", "144801.470000", "144801.930000", "144802.390000", "144802.850000", "144803.310000", "144803.770000", "144804.230000", "144804.690000", "144805.150000", "144805.610000", "144806.070000", "144806.530000", "144806.990000", "144807.450000", "144807.910000", "144808.370000", "144808.830000", "144809.290000", "144809.750000", "144810.210000", "144810.670000", "144811.130000", "144811.590000", "144812.050000", "144812.510000", "144812.970000", "144813.430000", "144813.890000", "144814.350000", "144814.810000", "144815.270000", "144815.730000", "144816.190000", "144816.650000", "144817.110000", "144817.570000", "144818.030000", "144818.490000", "144818.950000", "144819.410000", "144819.870000", "144820.330000", "144820.790000", "144821.250000", "144821.710000", "144822.170000", "144822.630000", "144823.090000", "144823.550000", "144824.010000", "144824.470000", "144824.930000", "144825.390000", "144825.850000", "144826.310000", "144826.770000", "144827.230000", "144827.690000", "144828.150000", "144828.610000", "144829.070000", "144829.530000", "144829.990000", "144830.450000", "144830.910000", "144831.370000", "144831.830000", "144832.290000", "144832.750000", "144833.210000", "144833.670000", "144834.130000", "144834.590000", "144835.050000", "144835.510000", "144835.970000", "144836.430000", "144836.890000", "144837.350000", "144837.810000", "144838.270000", "144838.730000", "144839.190000", "144839.650000", "144840.110000", "144840.570000", "144841.030000", "144841.490000", "144841.950000", "144842.410000", "144842.870000", "144843.330000", "144843.790000", "144844.250000", "144844.710000", "144845.170000", "144845.630000", "144846.090000", "144846.550000", "144847.010000", "144847.470000", "144847.930000", "144848.390000", "144848.850000", "144849.310000", "144849.770000", "144850.230000", "144850.690000", "144851.150000", "144851.610000", "144852.070000", "144852.530000", "144852.990000", "144853.450000", "144853.910000", "144854.370000", "144854.830000", "144855.290000", "144855.750000", "144856.210000", "144856.670000", "144857.130000", "144857.590000", "144858.050000", "144858.510000", "144858.970000", "144859.430000", "144859.890000", "144900.350000", "144900.810000", "144901.270000", "144901.730000", "144902.190000", "144902.650000", "144903.110000", "144903.570000", "144904.030000", "144904.490000", "144904.950000", "144905.410000", "144905.870000", "144906.330000", "144906.790000", "144907.250000", "144907.710000", "144908.170000", "144908.630000", "144909.090000", "144909.550000", "144910.010000", "144910.470000", "144910.930000", "144911.390000", "144911.850000", "144912.310000", "144912.770000", "144913.230000", "144913.690000", "144914.150000", "144914.610000", "144915.070000", "144915.530000", "144915.990000", "144916.450000", "144916.910000", "144917.370000", "144917.830000", "144918.290000", "144918.750000", "144919.210000", "144919.670000", "144920.130000", "144920.590000", "144921.050000", "144921.510000", "144921.970000", "144922.430000", "144922.890000", "144923.350000", "144923.810000", "144924.270000", "144924.730000", "144925.190000", "144925.650000", "144926.110000", "144926.570000", "144927.030000", "144927.490000", "144927.950000", "144928.410000", "144928.870000", "144929.330000", "144929.790000", "144930.250000", "144930.710000", "144931.170000", "144931.630000", "144932.090000", "144932.550000", "144933.010000", "144933.470000", "144933.930000", "144934.390000", "144934.850000", "144935.310000", "144935.770000", "144936.230000", "144936.690000", "144937.150000", "144937.610000", "144938.070000", "144938.530000", "144938.990000", "144939.450000", "144939.910000", "144940.370000", "144940.830000", "144941.290000", "144941.750000", "144942.210000", "144942.670000", "144943.130000", "144943.590000", "144944.050000", "144944.510000", "144944.970000", "144945.430000", "144945.890000", "144946.350000", "144946.810000", "144947.270000", "144947.730000", "144948.190000", "144948.650000", "144949.110000", "144949.570000", "144950.030000", "144950.490000", "144950.950000", "144951.410000", "144951.870000", "144952.330000", "144952.790000", "144953.250000", "144953.710000", "144954.170000", "144954.630000", "144955.090000", "144955.550000", "144956.010000", "144956.470000", "144956.930000", "144957.390000", "144957.850000", "144958.310000", "144958.770000", "144959.230000", "144959.690000", "145000.150000", "145000.610000", "145001.070000", "145001.530000", "145001.990000", "145002.450000", "145002.910000", "145003.370000", "145003.830000", "145004.290000", "145004.750000", "145005.210000", "145005.670000", "145006.130000", "145006.590000", "145007.050000", "145007.510000", "145007.970000", "145008.430000", "145008.890000", "145009.350000", "145009.810000", "145010.270000", "145010.730000", "145011.190000", "145011.650000", "145012.110000", "145012.570000", "145013.030000", "145013.490000", "145013.950000", "145014.410000", "145014.870000", "145015.330000", "145015.790000", "145016.250000", "145016.710000", "145017.170000", "145017.630000", "145018.090000", "145018.550000", "145019.010000", "145019.470000", "145019.930000", "145020.390000", "145020.850000", "145021.310000", "145021.770000", "145022.230000", "145022.690000", "145023.150000", "145023.610000", "145024.070000", "145024.530000", "145024.990000", "145025.450000", "145025.910000", "145026.370000", "145026.830000", "145027.290000", "145027.750000", "145028.210000", "145028.670000", "145029.130000", "145029.590000", "145030.050000", "145030.510000", "145030.970000", "145031.430000", "145031.890000", "145032.350000", "145032.810000", "145033.270000", "145033.730000", "145034.190000", "145034.650000", "145035.110000", "145035.570000", "145036.030000", "145036.490000", "145036.950000", "145037.410000", "145037.870000", "145038.330000", "145038.790000", "145039.250000", "145039.710000", "145040.170000", "145040.630000", "145041.090000", "145041.550000", "145042.010000", "145042.470000", "145042.930000", "145043.390000", "145043.850000", "145044.310000", "145044.770000", "145045.230000", "145045.690000", "145046.150000", "145046.610000", "145047.070000", "145047.530000", "145047.990000", "145048.450000", "145048.910000", "145049.370000", "145049.830000", "145050.290000", "145050.750000", "145051.210000", "145051.670000", "145052.130000", "145052.590000", "145053.050000", "145053.510000", "145053.970000", "145054.430000", "145054.890000", "145055.350000", "145055.810000", "145056.270000", "145056.730000", "145057.190000", "145057.650000", "145058.110000", "145058.570000", "145059.030000", "145059.490000", "145059.950000", "145100.410000", "145100.870000", "145101.330000", "145101.790000", "145102.250000", "145102.710000", "145103.170000", "145103.630000", "145104.090000", "145104.550000", "145105.010000", "145105.470000", "145105.930000", "145106.390000", "145106.850000", "145107.310000", "145107.770000", "145108.230000", "145108.690000", "145109.150000", "145109.610000", "145110.070000", "145110.530000", "145110.990000", "145111.450000", "145111.910000", "145112.370000", "145112.830000", "145113.290000", "145113.750000", "145114.210000", "145114.670000", "145115.130000", "145115.590000", "145116.050000", "145116.510000", "145116.970000"],
