{
  "AcquisitionMatrixPE": 82,
  "AcquisitionNumber": 1,
  "AcquisitionTime": "20:39:27.927500",
  "BandwidthPerPixelPhaseEncode": 24.888,
  "BaseResolution": 82,
  "BodyPartExamined": "BRAIN",
  "ConsistencyInfo": "N4_VE11E_LATEST_20181129",
  "ConversionSoftware": "dcm2niix",
  "ConversionSoftwareVersion": "v1.0.20201102",
  "DerivedVendorReportedEchoSpacing": 0.00049,
  "DeviceSerialNumber": "66112",
  "DwellTime": 2e-06,
  "EchoTime": 0.0272,
  "EchoTrainLength": 82,
  "EffectiveEchoSpacing": 0.00049,
  "FlipAngle": 44,
  "ImageComments": "Unaliased MB8/PE3",
  "ImageOrientationPatientDICOM": [0.998252, -0.0582247, -0.0101064, 0.0589574, 0.992927, 0.103052],
  "ImageType": [
    "ORIGINAL",
    "PRIMARY",
    "M",
    "MB",
    "ND",
    "NORM",
    "MOSAIC"
],
  "ImagingFrequency": 123.252,
  "InPlanePhaseEncodingDirectionDICOM": "COL",
  "InstitutionAddress": "Maynard 3,Hanover,NH,US,03755",
  "InstitutionName": "Dartmouth College - PBS",
  "InstitutionalDepartmentName": "Department",
  "MRAcquisitionType": "2D",
  "MagneticFieldStrength": 3,
  "Manufacturer": "Siemens",
  "ManufacturersModelName": "Prisma",
  "Modality": "MR",
  "MultibandAccelerationFactor": 8,
  "PartialFourier": 1,
  "PatientPosition": "HFS",
  "PercentPhaseFOV": 100,
  "PercentSampling": 100,
  "PhaseEncodingDirection": "j-",
  "PhaseEncodingSteps": 82,
  "PhaseResolution": 1,
  "PixelBandwidth": 3050,
  "ProcedureStepDescription": "Wager_Wager^1076_spacetop",
  "ProtocolName": "func_run-01_task-narratives_acq-ap-mb8",
  "PulseSequenceDetails": "%CustomerSeq%\\cmrr_mbep2d_bold",
  "ReceiveCoilActiveElements": "HEA;HEP",
  "ReceiveCoilName": "Head_32",
  "ReconMatrixPE": 82,
  "RepetitionTime": 0.46,
  "SAR": 0.101973,
  "ScanOptions": "FS",
  "ScanningSequence": "EP",
  "SequenceName": "epfid2d1_82",
  "SequenceVariant": "SK\\SS",
  "SeriesDescription": "func_run-01_task-narratives_acq-ap-mb8",
  "SeriesNumber": 10,
  "ShimSetting": [4160, -7790, -7238, 518, -35, -280, 40, 66],
  "SliceThickness": 2.7,
  "SliceTiming": [0, 0.2525, 0.0625, 0.315, 0.125, 0.3775, 0.19, 0, 0.2525, 0.0625, 0.315, 0.125, 0.3775, 0.19, 0, 0.2525, 0.0625, 0.315, 0.125, 0.3775, 0.19, 0, 0.2525, 0.0625, 0.315, 0.125, 0.3775, 0.19, 0, 0.2525, 0.0625, 0.315, 0.125, 0.3775, 0.19, 0, 0.2525, 0.0625, 0.315, 0.125, 0.3775, 0.19, 0, 0.2525, 0.0625, 0.315, 0.125, 0.3775, 0.19, 0, 0.2525, 0.0625, 0.315, 0.125, 0.3775, 0.19],
  "SoftwareVersions": "syngo MR E11",
  "SpacingBetweenSlices": 2.7,
  "StationName": "AWP66112",
  "TaskName": "narratives",
  "TotalReadoutTime": 0.03969,
  "TxRefAmp": 261.095,
  "WipMemBlock": "66f3ef2d-dae2-4252-94cf-cd21e21d6185||Sequence: R016 ve11e/master r/434b28f1; Aug  7 2019 18:53:46 by eja",
  "dcmmeta_affine": [
    [-2.6782381534576416, 0.1581784188747406, -0.010893895290791988, 103.1011962890625],
    [0.15621262788772583, 2.6639509201049805, 0.2793620526790619, -102.52864837646484],
    [-0.027114758267998695, -0.276480108499527, 2.6854865550994873, -49.669273376464844],
    [0.0, 0.0, 0.0, 1.0]
],
  "dcmmeta_reorient_transform": [
    [0.0, -1.0, 0.0, 81.0],
    [1.0, 0.0, 0.0, 0.0],
    [0.0, 0.0, 1.0, 0.0],
    [0.0, 0.0, 0.0, 1.0]
],
  "dcmmeta_shape": [82, 82, 56, 967],
  "dcmmeta_slice_dim": 2,
  "dcmmeta_version": 0.6,
  "global": {
    "const": {
      "AccessionNumber": "A004055",
      "AcquisitionMatrix": [82, 0, 0, 82],
      "AngioFlag": "N",
      "BitsAllocated": 16,
      "BitsStored": 16,
      "BodyPartExamined": "BRAIN",
      "Columns": 656,
      "EchoNumbers": 1,
      "EchoTime": 27.2,
      "EchoTrainLength": 82,
      "FlipAngle": 44.0,
      "HighBit": 15,
      "ImageOrientationPatient": [0.99825234508388, -0.0582247027933, -0.0101064098062, 0.0589574093585, 0.99292717577841, 0.10305167384595],
      "ImagePositionPatient": [-929.96517794217, -832.97230457186, -143.63201756314],
      "ImageType": [
        "ORIGINAL",
        "PRIMARY",
        "M",
        "MB",
        "ND",
        "NORM",
        "MOSAIC"
],
      "ImagedNucleus": "1H",
      "ImagingFrequency": 123.252157,
      "InPlanePhaseEncodingDirection": "COL",
      "MRAcquisitionType": "2D",
      "MagneticFieldStrength": 3.0,
      "Manufacturer": "SIEMENS",
      "ManufacturerModelName": "Prisma",
      "Modality": "MR",
      "NumberOfAverages": 1.0,
      "NumberOfPhaseEncodingSteps": 82,
      "PercentPhaseFieldOfView": 100.0,
      "PercentSampling": 100.0,
      "PerformedProcedureStepStartTime": "202600.512000",
      "PhotometricInterpretation": "MONOCHROME2",
      "PixelBandwidth": 3050.0,
      "PixelRepresentation": 0,
      "PixelSpacing": [2.6829268932343, 2.6829268932343],
      "ProtocolName": "func_run-01_task-narratives_acq-ap-mb8",
      "RepetitionTime": 460.0,
      "Rows": 656,
      "SAR": 0.10197284554174,
      "SamplesPerPixel": 1,
      "ScanOptions": "FS",
      "ScanningSequence": "EP",
      "SequenceName": "epfid2d1_82",
      "SequenceVariant": [
        "SK",
        "SS"
],
      "SeriesDescription": "func_run-01_task-narratives_acq-ap-mb8",
      "SeriesNumber": 10,
      "SeriesTime": "203957.773000",
      "SliceLocation": -60.426649959841,
      "SliceThickness": 2.7000000476837,
      "SmallestImagePixelValue": 0,
      "SoftwareVersions": "syngo MR E11",
      "SpacingBetweenSlices": 2.7000000218833,
      "SpecificCharacterSet": "ISO_IR 100",
      "StudyID": "2",
      "StudyTime": "202600.443000",
      "TransmitCoilName": "Body",
      "VariableFlipAngleFlag": "N",
      "WindowCenterWidthExplanation": "Algo1"
    },
    "slices": {}
  },
  "time": {
    "samples": {
      "AcquisitionNumber": [1, 2, 3, 4, 5, 6, 7, 8, 9, 10, 11, 12, 13, 14, 15, 16, 17, 18, 19, 20, 21, 22, 23, 24, 25, 26, 27, 28, 29, 30, 31, 32, 33, 34, 35, 36, 37, 38, 39, 40, 41, 42, 43, 44, 45, 46, 47, 48, 49, 50, 51, 52, 53, 54, 55, 56, 57, 58, 59, 60, 61, 62, 63, 64, 65, 66, 67, 68, 69, 70, 71, 72, 73, 74, 75, 76, 77, 78, 79, 80, 81, 82, 83, 84, 85, 86, 87, 88, 89, 90, 91, 92, 93, 94, 95, 96, 97, 98, 99, 100, 101, 102, 103, 104, 105, 106, 107, 108, 109, 110, 111, 112, 113, 114, 115, 116, 117, 118, 119, 120, 121, 122, 123, 124, 125, 126, 127, 128, 129, 130, 131, 132, 133, 134, 135, 136, 137, 138, 139, 140, 141, 142, 143, 144, 145, 146, 147, 148, 149, 150, 151, 152, 153, 154, 155, 156, 157, 158, 159, 160, 161, 162, 163, 164, 165, 166, 167, 168, 169, 170, 171, 172, 173, 174, 175, 176, 177, 178, 179, 180, 181, 182, 183, 184, 185, 186, 187, 188, 189, 190, 191, 192, 193, 194, 195, 196, 197, 198, 199, 200, 201, 202, 203, 204, 205, 206, 207, 208, 209, 210, 211, 212, 213, 214, 215, 216, 217, 218, 219, 220, 221, 222, 223, 224, 225, 226, 227, 228, 229, 230, 231, 232, 233, 234, 235, 236, 237, 238, 239, 240, 241, 242, 243, 244, 245, 246, 247, 248, 249, 250, 251, 252, 253, 254, 255, 256, 257, 258, 259, 260, 261, 262, 263, 264, 265, 266, 267, 268, 269, 270, 271, 272, 273, 274, 275, 276, 277, 278, 279, 280, 281, 282, 283, 284, 285, 286, 287, 288, 289, 290, 291, 292, 293, 294, 295, 296, 297, 298, 299, 300, 301, 302, 303, 304, 305, 306, 307, 308, 309, 310, 311, 312, 313, 314, 315, 316, 317, 318, 319, 320, 321, 322, 323, 324, 325, 326, 327, 328, 329, 330, 331, 332, 333, 334, 335, 336, 337, 338, 339, 340, 341, 342, 343, 344, 345, 346, 347, 348, 349, 350, 351, 352, 353, 354, 355, 356, 357, 358, 359, 360, 361, 362, 363, 364, 365, 366, 367, 368, 369, 370, 371, 372, 373, 374, 375, 376, 377, 378, 379, 380, 381, 382, 383, 384, 385, 386, 387, 388, 389, 390, 391, 392, 393, 394, 395, 396, 397, 398, 399, 400, 401, 402, 403, 404, 405, 406, 407, 408, 409, 410, 411, 412, 413, 414, 415, 416, 417, 418, 419, 420, 421, 422, 423, 424, 425, 426, 427, 428, 429, 430, 431, 432, 433, 434, 435, 436, 437, 438, 439, 440, 441, 442, 443, 444, 445, 446, 447, 448, 449, 450, 451, 452, 453, 454, 455, 456, 457, 458, 459, 460, 461, 462, 463, 464, 465, 466, 467, 468, 469, 470, 471, 472, 473, 474, 475, 476, 477, 478, 479, 480, 481, 482, 483, 484, 485, 486, 487, 488, 489, 490, 491, 492, 493, 494, 495, 496, 497, 498, 499, 500, 501, 502, 503, 504, 505, 506, 507, 508, 509, 510, 511, 512, 513, 514, 515, 516, 517, 518, 519, 520, 521, 522, 523, 524, 525, 526, 527, 528, 529, 530, 531, 532, 533, 534, 535, 536, 537, 538, 539, 540, 541, 542, 543, 544, 545, 546, 547, 548, 549, 550, 551, 552, 553, 554, 555, 556, 557, 558, 559, 560, 561, 562, 563, 564, 565, 566, 567, 568, 569, 570, 571, 572, 573, 574, 575, 576, 577, 578, 579, 580, 581, 582, 583, 584, 585, 586, 587, 588, 589, 590, 591, 592, 593, 594, 595, 596, 597, 598, 599, 600, 601, 602, 603, 604, 605, 606, 607, 608, 609, 610, 611, 612, 613, 614, 615, 616, 617, 618, 619, 620, 621, 622, 623, 624, 625, 626, 627, 628, 629, 630, 631, 632, 633, 634, 635, 636, 637, 638, 639, 640, 641, 642, 643, 644, 645, 646, 647, 648, 649, 650, 651, 652, 653, 654, 655, 656, 657, 658, 659, 660, 661, 662, 663, 664, 665, 666, 667, 668, 669, 670, 671, 672, 673, 674, 675, 676, 677, 678, 679, 680, 681, 682, 683, 684, 685, 686, 687, 688, 689, 690, 691, 692, 693, 694, 695, 696, 697, 698, 699, 700, 701, 702, 703, 704, 705, 706, 707, 708, 709, 710, 711, 712, 713, 714, 715, 716, 717, 718, 719, 720, 721, 722, 723, 724, 725, 726, 727, 728, 729, 730, 731, 732, 733, 734, 735, 736, 737, 738, 739, 740, 741, 742, 743, 744, 745, 746, 747, 748, 749, 750, 751, 752, 753, 754, 755, 756, 757, 758, 759, 760, 761, 762, 763, 764, 765, 766, 767, 768, 769, 770, 771, 772, 773, 774, 775, 776, 777, 778, 779, 780, 781, 782, 783, 784, 785, 786, 787, 788, 789, 790, 791, 792, 793, 794, 795, 796, 797, 798, 799, 800, 801, 802, 803, 804, 805, 806, 807, 808, 809, 810, 811, 812, 813, 814, 815, 816, 817, 818, 819, 820, 821, 822, 823, 824, 825, 826, 827, 828, 829, 830, 831, 832, 833, 834, 835, 836, 837, 838, 839, 840, 841, 842, 843, 844, 845, 846, 847, 848, 849, 850, 851, 852, 853, 854, 855, 856, 857, 858, 859, 860, 861, 862, 863, 864, 865, 866, 867, 868, 869, 870, 871, 872, 873, 874, 875, 876, 877, 878, 879, 880, 881, 882, 883, 884, 885, 886, 887, 888, 889, 890, 891, 892, 893, 894, 895, 896, 897, 898, 899, 900, 901, 902, 903, 904, 905, 906, 907, 908, 909, 910, 911, 912, 913, 914, 915, 916, 917, 918, 919, 920, 921, 922, 923, 924, 925, 926, 927, 928, 929, 930, 931, 932, 933, 934, 935, 936, 937, 938, 939, 940, 941, 942, 943, 944, 945, 946, 947, 948, 949, 950, 951, 952, 953, 954, 955, 956, 957, 958, 959, 960, 961, 962, 963, 964, 965, 966, 967],
      "AcquisitionTime": ["203927.927500", "203928.387500", "203928.847500", "203929.307500", "203929.767500", "203930.227500", "203930.687500", "203931.147500", "203931.607500", "203932.067500", "203932.527500", "203932.987500", "203933.447500", "203933.907500", "203934.367500", "203934.827500", "203935.287500", "203935.747500", "203936.207500", "203936.667500", "203937.127500", "203937.587500", "203938.047500", "203938.507500", "203938.967500", "203939.427500", "203939.887500", "203940.347500", "203940.807500", "203941.267500", "203941.727500", "203942.187500", "203942.647500", "203943.107500", "203943.567500", "203944.027500", "203944.487500", "203944.947500", "203945.407500", "203945.867500", "203946.327500", "203946.787500", "203947.247500", "203947.707500", "203948.167500", "203948.627500", "203949.087500", "203949.547500", "203950.007500", "203950.467500", "203950.927500", "203951.387500", "203951.847500", "203952.307500", "203952.767500", "203953.227500", "203953.687500", "203954.147500", "203954.607500", "203955.067500", "203955.527500", "203955.987500", "203956.447500", "203956.907500", "203957.367500", "203957.827500", "203958.287500", "203958.747500", "203959.207500", "203959.667500", "204000.127500", "204000.587500", "204001.047500", "204001.507500", "204001.967500", "204002.427500", "204002.887500", "204003.347500", "204003.807500", "204004.267500", "204004.727500", "204005.187500", "204005.647500", "204006.107500", "204006.567500", "204007.027500", "204007.487500", "204007.947500", "204008.407500", "204008.867500", "204009.327500", "204009.787500", "204010.247500", "204010.707500", "204011.167500", "204011.627500", "204012.087500", "204012.547500", "204013.007500", "204013.467500", "204013.927500", "204014.387500", "204014.847500", "204015.307500", "204015.767500", "204016.227500", "204016.687500", "204017.147500", "204017.607500", "204018.067500", "204018.527500", "204018.987500", "204019.447500", "204019.907500", "204020.367500", "204020.827500", "204021.287500", "204021.747500", "204022.207500", "204022.667500", "204023.127500", "204023.587500", "204024.047500", "204024.507500", "204024.967500", "204025.427500", "204025.887500", "204026.347500", "204026.807500", "204027.267500", "204027.727500", "204028.187500", "204028.647500", "204029.107500", "204029.567500", "204030.027500", "204030.487500", "204030.947500", "204031.407500", "204031.867500", "204032.327500", "204032.787500", "204033.247500", "204033.707500", "204034.167500", "204034.627500", "204035.087500", "204035.547500", "204036.007500", "204036.467500", "204036.927500", "204037.387500", "204037.847500", "204038.307500", "204038.767500", "204039.227500", "204039.687500", "204040.147500", "204040.607500", "204041.067500", "204041.527500", "204041.987500", "204042.447500", "204042.907500", "204043.367500", "204043.827500", "204044.287500", "204044.747500", "204045.207500", "204045.667500", "204046.127500", "204046.587500", "204047.047500", "204047.507500", "204047.967500", "204048.427500", "204048.887500", "204049.347500", "204049.807500", "204050.267500", "204050.727500", "204051.187500", "204051.647500", "204052.107500", "204052.567500", "204053.027500", "204053.487500", "204053.947500", "204054.407500", "204054.867500", "204055.327500", "204055.787500", "204056.247500", "204056.707500", "204057.167500", "204057.627500", "204058.087500", "204058.547500", "204059.007500", "204059.467500", "204059.927500", "204100.387500", "204100.847500", "204101.307500", "204101.767500", "204102.227500", "204102.687500", "204103.147500", "204103.607500", "204104.067500", "204104.527500", "204104.987500", "204105.447500", "204105.907500", "204106.367500", "204106.827500", "204107.287500", "204107.747500", "204108.207500", "204108.667500", "204109.127500", "204109.587500", "204110.047500", "204110.507500", "204110.967500", "204111.427500", "204111.887500", "204112.347500", "204112.807500", "204113.267500", "204113.727500", "204114.187500", "204114.647500", "204115.107500", "204115.567500", "204116.027500", "204116.487500", "204116.947500", "204117.407500", "204117.867500", "204118.327500", "204118.787500", "204119.247500", "204119.707500", "204120.167500", "204120.627500", "204121.087500", "204121.547500", "204122.007500", "204122.467500", "204122.927500", "204123.387500", "204123.847500", "204124.307500", "204124.767500", "204125.227500", "204125.687500", "204126.147500", "204126.607500", "204127.067500", "204127.527500", "204127.987500", "204128.447500", "204128.907500", "204129.367500", "204129.827500", "204130.287500", "204130.747500", "204131.207500", "204131.667500", "204132.127500", "204132.587500", "204133.047500", "204133.507500", "204133.967500", "204134.427500", "204134.887500", "204135.347500", "204135.807500", "204136.267500", "204136.727500", "204137.187500", "204137.647500", "204138.107500", "204138.567500", "204139.027500", "204139.487500", "204139.947500", "204140.407500", "204140.867500", "204141.327500", "204141.787500", "204142.247500", "204142.707500", "204143.167500", "204143.627500", "204144.087500", "204144.547500", "204145.007500", "204145.467500", "204145.927500", "204146.387500", "204146.847500", "204147.307500", "204147.767500", "204148.227500", "204148.687500", "204149.147500", "204149.607500", "204150.067500", "204150.527500", "204150.987500", "204151.447500", "204151.907500", "204152.367500", "204152.827500", "204153.287500", "204153.747500", "204154.207500", "204154.667500", "204155.127500", "204155.587500", "204156.047500", "204156.507500", "204156.967500", "204157.427500", "204157.887500", "204158.347500", "204158.807500", "204159.267500", "204159.727500", "204200.187500", "204200.647500", "204201.107500", "204201.567500", "204202.027500", "204202.487500", "204202.947500", "204203.407500", "204203.867500", "204204.327500", "204204.787500", "204205.247500", "204205.707500", "204206.167500", "204206.627500", "204207.087500", "204207.547500", "204208.007500", "204208.467500", "204208.927500", "204209.387500", "204209.847500", "204210.307500", "204210.767500", "204211.227500", "204211.687500", "204212.147500", "204212.607500", "204213.067500", "204213.527500", "204213.987500", "204214.447500", "204214.907500", "204215.367500", "204215.827500", "204216.287500", "204216.747500", "204217.207500", "204217.667500", "204218.127500", "204218.587500", "204219.047500", "204219.507500", "204219.967500", "204220.427500", "204220.887500", "204221.347500", "204221.807500", "204222.267500", "204222.727500", "204223.187500", "204223.647500", "204224.107500", "204224.567500", "204225.027500", "204225.487500", "204225.947500", "204226.407500", "204226.867500", "204227.327500", "204227.787500", "204228.247500", "204228.707500", "204229.167500", "204229.627500", "204230.087500", "204230.547500", "204231.007500", "204231.467500", "204231.927500", "204232.387500", "204232.847500", "204233.307500", "204233.767500", "204234.227500", "204234.687500", "204235.147500", "204235.607500", "204236.067500", "204236.527500", "204236.987500", "204237.447500", "204237.907500", "204238.367500", "204238.827500", "204239.287500", "204239.747500", "204240.207500", "204240.667500", "204241.127500", "204241.587500", "204242.047500", "204242.507500", "204242.967500", "204243.427500", "204243.887500", "204244.347500", "204244.807500", "204245.267500", "204245.727500", "204246.187500", "204246.647500", "204247.107500", "204247.567500", "204248.027500", "204248.487500", "204248.947500", "204249.407500", "204249.867500", "204250.327500", "204250.787500", "204251.247500", "204251.707500", "204252.167500", "204252.627500", "204253.087500", "204253.547500", "204254.007500", "204254.467500", "204254.927500", "204255.387500", "204255.847500", "204256.307500", "204256.767500", "204257.227500", "204257.687500", "204258.147500", "204258.607500", "204259.067500", "204259.527500", "204259.987500", "204300.447500", "204300.907500", "204301.367500", "204301.827500", "204302.287500", "204302.747500", "204303.207500", "204303.667500", "204304.127500", "204304.587500", "204305.047500", "204305.507500", "204305.967500", "204306.427500", "204306.887500", "204307.347500", "204307.807500", "204308.267500", "204308.727500", "204309.187500", "204309.647500", "204310.107500", "204310.567500", "204311.027500", "204311.487500", "204311.947500", "204312.407500", "204312.867500", "204313.327500", "204313.787500", "204314.247500", "204314.707500", "204315.167500", "204315.627500", "204316.087500", "204316.547500", "204317.007500", "204317.467500", "204317.927500", "204318.387500", "204318.847500", "204319.307500", "204319.767500", "204320.227500", "204320.687500", "204321.147500", "204321.607500", "204322.067500", "204322.527500", "204322.987500", "204323.447500", "204323.907500", "204324.367500", "204324.827500", "204325.287500", "204325.747500", "204326.207500", "204326.667500", "204327.127500", "204327.587500", "204328.047500", "204328.507500", "204328.967500", "204329.427500", "204329.887500", "204330.347500", "204330.807500", "204331.267500", "204331.727500", "204332.187500", "204332.647500", "204333.107500", "204333.567500", "204334.027500", "204334.487500", "204334.947500", "204335.407500", "204335.867500", "204336.327500", "204336.787500", "204337.247500", "204337.707500", "204338.167500", "204338.627500", "204339.087500", "204339.547500", "204340.007500", "204340.467500", "204340.927500", "204341.387500", "204341.847500", "204342.307500", "204342.767500", "204343.227500", "204343.687500", "204344.147500", "204344.607500", "204345.067500", "204345.527500", "204345.987500", "204346.447500", "204346.907500", "204347.367500", "204347.827500", "204348.287500", "204348.747500", "204349.207500", "204349.667500", "204350.127500", "204350.587500", "204351.047500", "204351.507500", "204351.967500", "204352.427500", "204352.887500", "204353.347500", "204353.807500", "204354.267500", "204354.727500", "204355.187500", "204355.647500", "204356.107500", "204356.567500", "204357.027500", "204357.487500", "204357.947500", "204358.407500", "204358.867500", "204359.327500", "204359.787500", "204400.247500", "204400.707500", "204401.167500", "204401.627500", "204402.087500", "204402.547500", "204403.007500", "204403.467500", "204403.927500", "204404.387500", "204404.847500", "204405.307500", "204405.767500", "204406.227500", "204406.687500", "204407.147500", "204407.607500", "204408.067500", "204408.527500", "204408.987500", "204409.447500", "204409.907500", "204410.367500", "204410.827500", "204411.287500", "204411.747500", "204412.207500", "204412.667500", "204413.127500", "204413.587500", "204414.047500", "204414.507500", "204414.967500", "204415.427500", "204415.887500", "204416.347500", "204416.807500", "204417.267500", "204417.727500", "204418.187500", "204418.647500", "204419.107500", "204419.567500", "204420.027500", "204420.487500", "204420.947500", "204421.407500", "204421.867500", "204422.327500", "204422.787500", "204423.247500", "204423.707500", "204424.167500", "204424.627500", "204425.087500", "204425.547500", "204426.007500", "204426.467500", "204426.927500", "204427.387500", "204427.847500", "204428.307500", "204428.767500", "204429.227500", "204429.687500", "204430.147500", "204430.607500", "204431.067500", "204431.527500", "204431.987500", "204432.447500", "204432.907500", "204433.367500", "204433.827500", "204434.287500", "204434.747500", "204435.207500", "204435.667500", "204436.127500", "204436.587500", "204437.047500", "204437.507500", "204437.967500", "204438.427500", "204438.887500", "204439.347500", "204439.807500", "204440.267500", "204440.727500", "204441.187500", "204441.647500", "204442.107500", "204442.567500", "204443.027500", "204443.487500", "204443.947500", "204444.407500", "204444.867500", "204445.327500", "204445.787500", "204446.247500", "204446.707500", "204447.167500", "204447.627500", "204448.087500", "204448.547500", "204449.007500", "204449.467500", "204449.927500", "204450.387500", "204450.847500", "204451.307500", "204451.767500", "204452.227500", "204452.687500", "204453.147500", "204453.607500", "204454.067500", "204454.527500", "204454.987500", "204455.447500", "204455.907500", "204456.367500", "204456.827500", "204457.287500", "204457.747500", "204458.207500", "204458.667500", "204459.127500", "204459.587500", "204500.047500", "204500.507500", "204500.967500", "204501.427500", "204501.887500", "204502.347500", "204502.807500", "204503.267500", "204503.727500", "204504.187500", "204504.647500", "204505.107500", "204505.567500", "204506.027500", "204506.487500", "204506.947500", "204507.407500", "204507.867500", "204508.327500", "204508.787500", "204509.247500", "204509.707500", "204510.167500", "204510.627500", "204511.087500", "204511.547500", "204512.007500", "204512.467500", "204512.927500", "204513.387500", "204513.847500", "204514.307500", "204514.767500", "204515.227500", "204515.687500", "204516.147500", "204516.607500", "204517.067500", "204517.527500", "204517.987500", "204518.447500", "204518.907500", "204519.367500", "204519.827500", "204520.287500", "204520.747500", "204521.207500", "204521.667500", "204522.127500", "204522.587500", "204523.047500", "204523.507500", "204523.967500", "204524.427500", "204524.887500", "204525.347500", "204525.807500", "204526.267500", "204526.727500", "204527.187500", "204527.647500", "204528.107500", "204528.567500", "204529.027500", "204529.487500", "204529.947500", "204530.407500", "204530.867500", "204531.327500", "204531.787500", "204532.247500", "204532.707500", "204533.167500", "204533.627500", "204534.087500", "204534.547500", "204535.007500", "204535.467500", "204535.927500", "204536.387500", "204536.847500", "204537.307500", "204537.767500", "204538.227500", "204538.687500", "204539.147500", "204539.607500", "204540.067500", "204540.527500", "204540.987500", "204541.447500", "204541.907500", "204542.367500", "204542.827500", "204543.287500", "204543.747500", "204544.207500", "204544.667500", "204545.127500", "204545.587500", "204546.047500", "204546.507500", "204546.967500", "204547.427500", "204547.887500", "204548.347500", "204548.807500", "204549.267500", "204549.727500", "204550.187500", "204550.647500", "204551.107500", "204551.567500", "204552.027500", "204552.487500", "204552.947500", "204553.407500", "204553.867500", "204554.327500", "204554.787500", "204555.247500", "204555.707500", "204556.167500", "204556.627500", "204557.087500", "204557.547500", "204558.007500", "204558.467500", "204558.927500", "204559.387500", "204559.847500", "204600.307500", "204600.767500", "204601.227500", "204601.687500", "204602.147500", "204602.607500", "204603.067500", "204603.527500", "204603.987500", "204604.447500", "204604.907500", "204605.367500", "204605.827500", "204606.287500", "204606.747500", "204607.207500", "204607.667500", "204608.127500", "204608.587500", "204609.047500", "204609.507500", "204609.967500", "204610.427500", "204610.887500", "204611.347500", "204611.807500", "204612.267500", "204612.727500", "204613.187500", "204613.647500", "204614.107500", "204614.567500", "204615.027500", "204615.487500", "204615.947500", "204616.407500", "204616.867500", "204617.327500", "204617.787500", "204618.247500", "204618.707500", "204619.167500", "204619.627500", "204620.087500", "204620.547500", "204621.007500", "204621.467500", "204621.927500", "204622.387500", "204622.847500", "204623.307500", "204623.767500", "204624.227500", "204624.687500", "204625.147500", "204625.607500", "204626.067500", "204626.527500", "204626.987500", "204627.447500", "204627.907500", "204628.367500", "204628.827500", "204629.287500", "204629.747500", "204630.207500", "204630.667500", "204631.127500", "204631.587500", "204632.047500", "204632.507500", "204632.967500", "204633.427500", "204633.887500", "204634.347500", "204634.807500", "204635.267500", "204635.727500", "204636.187500", "204636.647500", "204637.107500", "204637.567500", "204638.027500", "204638.487500", "204638.947500", "204639.407500", "204639.867500", "204640.327500", "204640.787500", "204641.247500", "204641.707500", "204642.167500", "204642.627500", "204643.087500", "204643.547500", "204644.007500", "204644.467500", "204644.927500", "204645.387500", "204645.847500", "204646.307500", "204646.767500", "204647.227500", "204647.687500", "204648.147500", "204648.607500", "204649.067500", "204649.527500", "204649.987500", "204650.447500", "204650.907500", "204651.367500", "204651.827500", "204652.287500"],
