{
  "AcquisitionMatrixPE": 82,
  "AcquisitionNumber": 1,
  "AcquisitionTime": "20:50:35.995000",
  "BandwidthPerPixelPhaseEncode": 24.888,
  "BaseResolution": 82,
  "BodyPartExamined": "BRAIN",
  "ConsistencyInfo": "N4_VE11E_LATEST_20181129",
  "ConversionSoftware": "dcm2niix",
  "ConversionSoftwareVersion": "v1.0.20201102",
  "DerivedVendorReportedEchoSpacing": 0.00049,
  "DeviceSerialNumber": "66112",
  "DwellTime": 2e-06,
  "EchoTime": 0.0272,
  "EchoTrainLength": 82,
  "EffectiveEchoSpacing": 0.00049,
  "FlipAngle": 44,
  "ImageComments": "Unaliased MB8/PE3",
  "ImageOrientationPatientDICOM": [0.998571, 0.0526054, -0.00943097, -0.0525077, 0.998567, 0.0103264],
  "ImageType": [
    "ORIGINAL",
    "PRIMARY",
    "M",
    "MB",
    "ND",
    "NORM",
    "MOSAIC"
],
  "ImagingFrequency": 123.252,
  "InPlanePhaseEncodingDirectionDICOM": "COL",
  "InstitutionAddress": "Maynard 3,Hanover,NH,US,03755",
  "InstitutionName": "Dartmouth College - PBS",
  "InstitutionalDepartmentName": "Department",
  "MRAcquisitionType": "2D",
  "MagneticFieldStrength": 3,
  "Manufacturer": "Siemens",
  "ManufacturersModelName": "Prisma",
  "Modality": "MR",
  "MultibandAccelerationFactor": 8,
  "PartialFourier": 1,
  "PatientPosition": "HFS",
  "PercentPhaseFOV": 100,
  "PercentSampling": 100,
  "PhaseEncodingDirection": "j-",
  "PhaseEncodingSteps": 82,
  "PhaseResolution": 1,
  "PixelBandwidth": 3050,
  "ProcedureStepDescription": "Wager_Wager^1076_spacetop",
  "ProtocolName": "func_run-01_task-alignvideo_acq-ap-mb8",
  "PulseSequenceDetails": "%CustomerSeq%\\cmrr_mbep2d_bold",
  "ReceiveCoilActiveElements": "HEA;HEP",
  "ReceiveCoilName": "Head_32",
  "ReconMatrixPE": 82,
  "RepetitionTime": 0.46,
  "SAR": 0.0910234,
  "ScanOptions": "FS",
  "ScanningSequence": "EP",
  "SequenceName": "epfid2d1_82",
  "SequenceVariant": "SK\\SS",
  "SeriesDescription": "func_run-01_task-alignvideo_acq-ap-mb8",
  "SeriesNumber": 30,
  "ShimSetting": [4152, -7750, -7231, 772, -20, -202, 49, 72],
  "SliceThickness": 2.7,
  "SliceTiming": [0, 0.2525, 0.065, 0.315, 0.1275, 0.3775, 0.19, 0, 0.2525, 0.065, 0.315, 0.1275, 0.3775, 0.19, 0, 0.2525, 0.065, 0.315, 0.1275, 0.3775, 0.19, 0, 0.2525, 0.065, 0.315, 0.1275, 0.3775, 0.19, 0, 0.2525, 0.065, 0.315, 0.1275, 0.3775, 0.19, 0, 0.2525, 0.065, 0.315, 0.1275, 0.3775, 0.19, 0, 0.2525, 0.065, 0.315, 0.1275, 0.3775, 0.19, 0, 0.2525, 0.065, 0.315, 0.1275, 0.3775, 0.19],
  "SoftwareVersions": "syngo MR E11",
  "SpacingBetweenSlices": 2.7,
  "StationName": "AWP66112",
  "TaskName": "alignvideo",
  "TotalReadoutTime": 0.03969,
  "TxRefAmp": 229.553,
  "WipMemBlock": "90ec82c5-b68d-4151-a176-f0366f610f3d||Sequence: R016 ve11e/master r/434b28f1; Aug  7 2019 18:53:46 by eja",
  "dcmmeta_affine": [
    [-2.6790926456451416, -0.14087428152561188, -0.026893850415945053, 118.95919036865234],
    [-0.14113646745681763, 2.6790826320648193, 0.02650435082614422, -95.27555847167969],
    [-0.025302616879343987, -0.027704929932951927, 2.6997358798980713, -55.17803955078125],
    [0.0, 0.0, 0.0, 1.0]
],
  "dcmmeta_reorient_transform": [
    [0.0, -1.0, 0.0, 81.0],
    [1.0, 0.0, 0.0, 0.0],
    [0.0, 0.0, 1.0, 0.0],
    [0.0, 0.0, 0.0, 1.0]
],
  "dcmmeta_shape": [82, 82, 56, 1073],
  "dcmmeta_slice_dim": 2,
  "dcmmeta_version": 0.6,
  "global": {
    "const": {
      "AccessionNumber": "A003888",
      "AcquisitionMatrix": [82, 0, 0, 82],
      "AngioFlag": "N",
      "BitsAllocated": 16,
      "BitsStored": 16,
      "BodyPartExamined": "BRAIN",
      "Columns": 656,
      "EchoNumbers": 1,
      "EchoTime": 27.2,
      "EchoTrainLength": 82,
      "FlipAngle": 44.0,
      "HighBit": 15,
      "ImageOrientationPatient": [0.99857084258872, 0.05260540884903, -0.0094309751074, -0.0525076859095, 0.99856712780662, 0.01032638293226],
      "ImagePositionPatient": [-836.01702348904, -931.13300196312, -58.111601635388],
      "ImageType": [
        "ORIGINAL",
        "PRIMARY",
        "M",
        "MB",
        "ND",
        "NORM",
        "MOSAIC"
],
      "ImagedNucleus": "1H",
      "ImagingFrequency": 123.252205,
      "InPlanePhaseEncodingDirection": "COL",
      "MRAcquisitionType": "2D",
      "MagneticFieldStrength": 3.0,
      "Manufacturer": "SIEMENS",
      "ManufacturerModelName": "Prisma",
      "Modality": "MR",
      "NumberOfAverages": 1.0,
      "NumberOfPhaseEncodingSteps": 82,
      "PercentPhaseFieldOfView": 100.0,
      "PercentSampling": 100.0,
      "PerformedProcedureStepStartTime": "193759.322000",
      "PhotometricInterpretation": "MONOCHROME2",
      "PixelBandwidth": 3050.0,
      "PixelRepresentation": 0,
      "PixelSpacing": [2.6829268932343, 2.6829268932343],
      "ProtocolName": "func_run-01_task-alignvideo_acq-ap-mb8",
      "RepetitionTime": 460.0,
      "Rows": 656,
      "SAR": 0.09102339726571,
      "SamplesPerPixel": 1,
      "ScanOptions": "FS",
      "ScanningSequence": "EP",
      "SequenceName": "epfid2d1_82",
      "SequenceVariant": [
        "SK",
        "SS"
],
      "SeriesDescription": "func_run-01_task-alignvideo_acq-ap-mb8",
      "SeriesNumber": 30,
      "SeriesTime": "205053.622000",
      "SliceLocation": -57.292822770591,
      "SliceThickness": 2.7000000476837,
      "SmallestImagePixelValue": 0,
      "SoftwareVersions": "syngo MR E11",
      "SpacingBetweenSlices": 2.6999999960997,
      "SpecificCharacterSet": "ISO_IR 100",
      "StudyID": "1",
      "StudyTime": "193759.263000",
      "TransmitCoilName": "Body",
      "VariableFlipAngleFlag": "N",
      "WindowCenterWidthExplanation": "Algo1"
    },
    "slices": {}
  },
  "time": {
    "samples": {
      "AcquisitionNumber": [1, 2, 3, 4, 5, 6, 7, 8, 9, 10, 11, 12, 13, 14, 15, 16, 17, 18, 19, 20, 21, 22, 23, 24, 25, 26, 27, 28, 29, 30, 31, 32, 33, 34, 35, 36, 37, 38, 39, 40, 41, 42, 43, 44, 45, 46, 47, 48, 49, 50, 51, 52, 53, 54, 55, 56, 57, 58, 59, 60, 61, 62, 63, 64, 65, 66, 67, 68, 69, 70, 71, 72, 73, 74, 75, 76, 77, 78, 79, 80, 81, 82, 83, 84, 85, 86, 87, 88, 89, 90, 91, 92, 93, 94, 95, 96, 97, 98, 99, 100, 101, 102, 103, 104, 105, 106, 107, 108, 109, 110, 111, 112, 113, 114, 115, 116, 117, 118, 119, 120, 121, 122, 123, 124, 125, 126, 127, 128, 129, 130, 131, 132, 133, 134, 135, 136, 137, 138, 139, 140, 141, 142, 143, 144, 145, 146, 147, 148, 149, 150, 151, 152, 153, 154, 155, 156, 157, 158, 159, 160, 161, 162, 163, 164, 165, 166, 167, 168, 169, 170, 171, 172, 173, 174, 175, 176, 177, 178, 179, 180, 181, 182, 183, 184, 185, 186, 187, 188, 189, 190, 191, 192, 193, 194, 195, 196, 197, 198, 199, 200, 201, 202, 203, 204, 205, 206, 207, 208, 209, 210, 211, 212, 213, 214, 215, 216, 217, 218, 219, 220, 221, 222, 223, 224, 225, 226, 227, 228, 229, 230, 231, 232, 233, 234, 235, 236, 237, 238, 239, 240, 241, 242, 243, 244, 245, 246, 247, 248, 249, 250, 251, 252, 253, 254, 255, 256, 257, 258, 259, 260, 261, 262, 263, 264, 265, 266, 267, 268, 269, 270, 271, 272, 273, 274, 275, 276, 277, 278, 279, 280, 281, 282, 283, 284, 285, 286, 287, 288, 289, 290, 291, 292, 293, 294, 295, 296, 297, 298, 299, 300, 301, 302, 303, 304, 305, 306, 307, 308, 309, 310, 311, 312, 313, 314, 315, 316, 317, 318, 319, 320, 321, 322, 323, 324, 325, 326, 327, 328, 329, 330, 331, 332, 333, 334, 335, 336, 337, 338, 339, 340, 341, 342, 343, 344, 345, 346, 347, 348, 349, 350, 351, 352, 353, 354, 355, 356, 357, 358, 359, 360, 361, 362, 363, 364, 365, 366, 367, 368, 369, 370, 371, 372, 373, 374, 375, 376, 377, 378, 379, 380, 381, 382, 383, 384, 385, 386, 387, 388, 389, 390, 391, 392, 393, 394, 395, 396, 397, 398, 399, 400, 401, 402, 403, 404, 405, 406, 407, 408, 409, 410, 411, 412, 413, 414, 415, 416, 417, 418, 419, 420, 421, 422, 423, 424, 425, 426, 427, 428, 429, 430, 431, 432, 433, 434, 435, 436, 437, 438, 439, 440, 441, 442, 443, 444, 445, 446, 447, 448, 449, 450, 451, 452, 453, 454, 455, 456, 457, 458, 459, 460, 461, 462, 463, 464, 465, 466, 467, 468, 469, 470, 471, 472, 473, 474, 475, 476, 477, 478, 479, 480, 481, 482, 483, 484, 485, 486, 487, 488, 489, 490, 491, 492, 493, 494, 495, 496, 497, 498, 499, 500, 501, 502, 503, 504, 505, 506, 507, 508, 509, 510, 511, 512, 513, 514, 515, 516, 517, 518, 519, 520, 521, 522, 523, 524, 525, 526, 527, 528, 529, 530, 531, 532, 533, 534, 535, 536, 537, 538, 539, 540, 541, 542, 543, 544, 545, 546, 547, 548, 549, 550, 551, 552, 553, 554, 555, 556, 557, 558, 559, 560, 561, 562, 563, 564, 565, 566, 567, 568, 569, 570, 571, 572, 573, 574, 575, 576, 577, 578, 579, 580, 581, 582, 583, 584, 585, 586, 587, 588, 589, 590, 591, 592, 593, 594, 595, 596, 597, 598, 599, 600, 601, 602, 603, 604, 605, 606, 607, 608, 609, 610, 611, 612, 613, 614, 615, 616, 617, 618, 619, 620, 621, 622, 623, 624, 625, 626, 627, 628, 629, 630, 631, 632, 633, 634, 635, 636, 637, 638, 639, 640, 641, 642, 643, 644, 645, 646, 647, 648, 649, 650, 651, 652, 653, 654, 655, 656, 657, 658, 659, 660, 661, 662, 663, 664, 665, 666, 667, 668, 669, 670, 671, 672, 673, 674, 675, 676, 677, 678, 679, 680, 681, 682, 683, 684, 685, 686, 687, 688, 689, 690, 691, 692, 693, 694, 695, 696, 697, 698, 699, 700, 701, 702, 703, 704, 705, 706, 707, 708, 709, 710, 711, 712, 713, 714, 715, 716, 717, 718, 719, 720, 721, 722, 723, 724, 725, 726, 727, 728, 729, 730, 731, 732, 733, 734, 735, 736, 737, 738, 739, 740, 741, 742, 743, 744, 745, 746, 747, 748, 749, 750, 751, 752, 753, 754, 755, 756, 757, 758, 759, 760, 761, 762, 763, 764, 765, 766, 767, 768, 769, 770, 771, 772, 773, 774, 775, 776, 777, 778, 779, 780, 781, 782, 783, 784, 785, 786, 787, 788, 789, 790, 791, 792, 793, 794, 795, 796, 797, 798, 799, 800, 801, 802, 803, 804, 805, 806, 807, 808, 809, 810, 811, 812, 813, 814, 815, 816, 817, 818, 819, 820, 821, 822, 823, 824, 825, 826, 827, 828, 829, 830, 831, 832, 833, 834, 835, 836, 837, 838, 839, 840, 841, 842, 843, 844, 845, 846, 847, 848, 849, 850, 851, 852, 853, 854, 855, 856, 857, 858, 859, 860, 861, 862, 863, 864, 865, 866, 867, 868, 869, 870, 871, 872, 873, 874, 875, 876, 877, 878, 879, 880, 881, 882, 883, 884, 885, 886, 887, 888, 889, 890, 891, 892, 893, 894, 895, 896, 897, 898, 899, 900, 901, 902, 903, 904, 905, 906, 907, 908, 909, 910, 911, 912, 913, 914, 915, 916, 917, 918, 919, 920, 921, 922, 923, 924, 925, 926, 927, 928, 929, 930, 931, 932, 933, 934, 935, 936, 937, 938, 939, 940, 941, 942, 943, 944, 945, 946, 947, 948, 949, 950, 951, 952, 953, 954, 955, 956, 957, 958, 959, 960, 961, 962, 963, 964, 965, 966, 967, 968, 969, 970, 971, 972, 973, 974, 975, 976, 977, 978, 979, 980, 981, 982, 983, 984, 985, 986, 987, 988, 989, 990, 991, 992, 993, 994, 995, 996, 997, 998, 999, 1000, 1001, 1002, 1003, 1004, 1005, 1006, 1007, 1008, 1009, 1010, 1011, 1012, 1013, 1014, 1015, 1016, 1017, 1018, 1019, 1020, 1021, 1022, 1023, 1024, 1025, 1026, 1027, 1028, 1029, 1030, 1031, 1032, 1033, 1034, 1035, 1036, 1037, 1038, 1039, 1040, 1041, 1042, 1043, 1044, 1045, 1046, 1047, 1048, 1049, 1050, 1051, 1052, 1053, 1054, 1055, 1056, 1057, 1058, 1059, 1060, 1061, 1062, 1063, 1064, 1065, 1066, 1067, 1068, 1069, 1070, 1071, 1072, 1073],
      "AcquisitionTime": ["205035.995000", "205036.455000", "205036.915000", "205037.375000", "205037.835000", "205038.295000", "205038.755000", "205039.215000", "205039.675000", "205040.135000", "205040.595000", "205041.055000", "205041.515000", "205041.975000", "205042.435000", "205042.895000", "205043.355000", "205043.815000", "205044.275000", "205044.735000", "205045.195000", "205045.655000", "205046.115000", "205046.575000", "205047.035000", "205047.495000", "205047.955000", "205048.415000", "205048.875000", "205049.335000", "205049.795000", "205050.255000", "205050.715000", "205051.175000", "205051.635000", "205052.095000", "205052.555000", "205053.015000", "205053.475000", "205053.935000", "205054.395000", "205054.855000", "205055.315000", "205055.775000", "205056.235000", "205056.695000", "205057.155000", "205057.615000", "205058.075000", "205058.535000", "205058.995000", "205059.455000", "205059.915000", "205100.375000", "205100.835000", "205101.295000", "205101.755000", "205102.215000", "205102.675000", "205103.135000", "205103.595000", "205104.055000", "205104.515000", "205104.975000", "205105.435000", "205105.895000", "205106.355000", "205106.815000", "205107.275000", "205107.735000", "205108.195000", "205108.655000", "205109.115000", "205109.575000", "205110.035000", "205110.495000", "205110.955000", "205111.415000", "205111.875000", "205112.335000", "205112.795000", "205113.255000", "205113.715000", "205114.175000", "205114.635000", "205115.095000", "205115.555000", "205116.015000", "205116.475000", "205116.935000", "205117.395000", "205117.855000", "205118.315000", "205118.775000", "205119.235000", "205119.695000", "205120.155000", "205120.615000", "205121.075000", "205121.535000", "205121.995000", "205122.455000", "205122.915000", "205123.375000", "205123.835000", "205124.295000", "205124.755000", "205125.215000", "205125.675000", "205126.135000", "205126.595000", "205127.055000", "205127.515000", "205127.975000", "205128.435000", "205128.895000", "205129.355000", "205129.815000", "205130.275000", "205130.735000", "205131.195000", "205131.655000", "205132.115000", "205132.575000", "205133.035000", "205133.495000", "205133.955000", "205134.415000", "205134.875000", "205135.335000", "205135.795000", "205136.255000", "205136.715000", "205137.175000", "205137.635000", "205138.095000", "205138.555000", "205139.015000", "205139.475000", "205139.935000", "205140.395000", "205140.855000", "205141.315000", "205141.775000", "205142.235000", "205142.695000", "205143.155000", "205143.615000", "205144.075000", "205144.535000", "205144.995000", "205145.455000", "205145.915000", "205146.375000", "205146.835000", "205147.295000", "205147.755000", "205148.215000", "205148.675000", "205149.135000", "205149.595000", "205150.055000", "205150.515000", "205150.975000", "205151.435000", "205151.895000", "205152.355000", "205152.815000", "205153.275000", "205153.735000", "205154.195000", "205154.655000", "205155.115000", "205155.575000", "205156.035000", "205156.495000", "205156.955000", "205157.415000", "205157.875000", "205158.335000", "205158.795000", "205159.255000", "205159.715000", "205200.175000", "205200.635000", "205201.095000", "205201.555000", "205202.015000", "205202.475000", "205202.935000", "205203.395000", "205203.855000", "205204.315000", "205204.775000", "205205.235000", "205205.695000", "205206.155000", "205206.615000", "205207.075000", "205207.535000", "205207.995000", "205208.455000", "205208.915000", "205209.375000", "205209.835000", "205210.295000", "205210.755000", "205211.215000", "205211.675000", "205212.135000", "205212.595000", "205213.055000", "205213.515000", "205213.975000", "205214.435000", "205214.895000", "205215.355000", "205215.815000", "205216.275000", "205216.735000", "205217.195000", "205217.655000", "205218.115000", "205218.575000", "205219.035000", "205219.495000", "205219.955000", "205220.415000", "205220.875000", "205221.335000", "205221.795000", "205222.255000", "205222.715000", "205223.175000", "205223.635000", "205224.095000", "205224.555000", "205225.015000", "205225.475000", "205225.935000", "205226.395000", "205226.855000", "205227.315000", "205227.775000", "205228.235000", "205228.695000", "205229.155000", "205229.615000", "205230.075000", "205230.535000", "205230.995000", "205231.455000", "205231.915000", "205232.375000", "205232.835000", "205233.295000", "205233.755000", "205234.215000", "205234.675000", "205235.135000", "205235.595000", "205236.055000", "205236.515000", "205236.975000", "205237.435000", "205237.895000", "205238.355000", "205238.815000", "205239.275000", "205239.735000", "205240.195000", "205240.655000", "205241.115000", "205241.575000", "205242.035000", "205242.495000", "205242.955000", "205243.415000", "205243.875000", "205244.335000", "205244.795000", "205245.255000", "205245.715000", "205246.175000", "205246.635000", "205247.095000", "205247.555000", "205248.015000", "205248.475000", "205248.935000", "205249.395000", "205249.855000", "205250.315000", "205250.775000", "205251.235000", "205251.695000", "205252.155000", "205252.615000", "205253.075000", "205253.535000", "205253.995000", "205254.455000", "205254.915000", "205255.375000", "205255.835000", "205256.295000", "205256.755000", "205257.215000", "205257.675000", "205258.135000", "205258.595000", "205259.055000", "205259.515000", "205259.975000", "205300.435000", "205300.895000", "205301.355000", "205301.815000", "205302.275000", "205302.735000", "205303.195000", "205303.655000", "205304.115000", "205304.575000", "205305.035000", "205305.495000", "205305.955000", "205306.415000", "205306.875000", "205307.335000", "205307.795000", "205308.255000", "205308.715000", "205309.175000", "205309.635000", "205310.095000", "205310.555000", "205311.015000", "205311.475000", "205311.935000", "205312.395000", "205312.855000", "205313.315000", "205313.775000", "205314.235000", "205314.695000", "205315.155000", "205315.615000", "205316.075000", "205316.535000", "205316.995000", "205317.455000", "205317.915000", "205318.375000", "205318.835000", "205319.295000", "205319.755000", "205320.215000", "205320.675000", "205321.135000", "205321.595000", "205322.055000", "205322.515000", "205322.975000", "205323.435000", "205323.895000", "205324.355000", "205324.815000", "205325.275000", "205325.735000", "205326.195000", "205326.655000", "205327.115000", "205327.575000", "205328.035000", "205328.495000", "205328.955000", "205329.415000", "205329.875000", "205330.335000", "205330.795000", "205331.255000", "205331.715000", "205332.175000", "205332.635000", "205333.095000", "205333.555000", "205334.015000", "205334.475000", "205334.935000", "205335.395000", "205335.855000", "205336.315000", "205336.775000", "205337.235000", "205337.695000", "205338.155000", "205338.615000", "205339.075000", "205339.535000", "205339.995000", "205340.455000", "205340.915000", "205341.375000", "205341.835000", "205342.295000", "205342.755000", "205343.215000", "205343.675000", "205344.135000", "205344.595000", "205345.055000", "205345.515000", "205345.975000", "205346.435000", "205346.895000", "205347.355000", "205347.815000", "205348.275000", "205348.735000", "205349.195000", "205349.655000", "205350.115000", "205350.575000", "205351.035000", "205351.495000", "205351.955000", "205352.415000", "205352.875000", "205353.335000", "205353.795000", "205354.255000", "205354.715000", "205355.175000", "205355.635000", "205356.095000", "205356.555000", "205357.015000", "205357.475000", "205357.935000", "205358.395000", "205358.855000", "205359.315000", "205359.775000", "205400.235000", "205400.695000", "205401.155000", "205401.615000", "205402.075000", "205402.535000", "205402.995000", "205403.455000", "205403.915000", "205404.375000", "205404.835000", "205405.295000", "205405.755000", "205406.215000", "205406.675000", "205407.135000", "205407.595000", "205408.055000", "205408.515000", "205408.975000", "205409.435000", "205409.895000", "205410.355000", "205410.815000", "205411.275000", "205411.735000", "205412.195000", "205412.655000", "205413.115000", "205413.575000", "205414.035000", "205414.495000", "205414.955000", "205415.415000", "205415.875000", "205416.335000", "205416.795000", "205417.255000", "205417.715000", "205418.175000", "205418.635000", "205419.095000", "205419.555000", "205420.015000", "205420.475000", "205420.935000", "205421.395000", "205421.855000", "205422.315000", "205422.775000", "205423.235000", "205423.695000", "205424.155000", "205424.615000", "205425.075000", "205425.535000", "205425.995000", "205426.455000", "205426.915000", "205427.375000", "205427.835000", "205428.295000", "205428.755000", "205429.215000", "205429.675000", "205430.135000", "205430.595000", "205431.055000", "205431.515000", "205431.975000", "205432.435000", "205432.895000", "205433.355000", "205433.815000", "205434.275000", "205434.735000", "205435.195000", "205435.655000", "205436.115000", "205436.575000", "205437.035000", "205437.495000", "205437.955000", "205438.415000", "205438.875000", "205439.335000", "205439.795000", "205440.255000", "205440.715000", "205441.175000", "205441.635000", "205442.095000", "205442.555000", "205443.015000", "205443.475000", "205443.935000", "205444.395000", "205444.855000", "205445.315000", "205445.775000", "205446.235000", "205446.695000", "205447.155000", "205447.615000", "205448.075000", "205448.535000", "205448.995000", "205449.455000", "205449.915000", "205450.375000", "205450.835000", "205451.295000", "205451.755000", "205452.215000", "205452.675000", "205453.135000", "205453.595000", "205454.055000", "205454.515000", "205454.975000", "205455.435000", "205455.895000", "205456.355000", "205456.815000", "205457.275000", "205457.735000", "205458.195000", "205458.655000", "205459.115000", "205459.575000", "205500.035000", "205500.495000", "205500.955000", "205501.415000", "205501.875000", "205502.335000", "205502.795000", "205503.255000", "205503.715000", "205504.175000", "205504.635000", "205505.095000", "205505.555000", "205506.015000", "205506.475000", "205506.935000", "205507.395000", "205507.855000", "205508.315000", "205508.775000", "205509.235000", "205509.695000", "205510.155000", "205510.615000", "205511.075000", "205511.535000", "205511.995000", "205512.455000", "205512.915000", "205513.375000", "205513.835000", "205514.295000", "205514.755000", "205515.215000", "205515.675000", "205516.135000", "205516.595000", "205517.055000", "205517.515000", "205517.975000", "205518.435000", "205518.895000", "205519.355000", "205519.815000", "205520.275000", "205520.735000", "205521.195000", "205521.655000", "205522.115000", "205522.575000", "205523.035000", "205523.495000", "205523.955000", "205524.415000", "205524.875000", "205525.335000", "205525.795000", "205526.255000", "205526.715000", "205527.175000", "205527.635000", "205528.095000", "205528.555000", "205529.015000", "205529.475000", "205529.935000", "205530.395000", "205530.855000", "205531.315000", "205531.775000", "205532.235000", "205532.695000", "205533.155000", "205533.615000", "205534.075000", "205534.535000", "205534.995000", "205535.455000", "205535.915000", "205536.375000", "205536.835000", "205537.295000", "205537.755000", "205538.215000", "205538.675000", "205539.135000", "205539.595000", "205540.055000", "205540.515000", "205540.975000", "205541.435000", "205541.895000", "205542.355000", "205542.815000", "205543.275000", "205543.735000", "205544.195000", "205544.655000", "205545.115000", "205545.575000", "205546.035000", "205546.495000", "205546.955000", "205547.415000", "205547.875000", "205548.335000", "205548.795000", "205549.255000", "205549.715000", "205550.175000", "205550.635000", "205551.095000", "205551.555000", "205552.015000", "205552.475000", "205552.935000", "205553.395000", "205553.855000", "205554.315000", "205554.775000", "205555.235000", "205555.695000", "205556.155000", "205556.615000", "205557.075000", "205557.535000", "205557.995000", "205558.455000", "205558.915000", "205559.375000", "205559.835000", "205600.295000", "205600.755000", "205601.215000", "205601.675000", "205602.135000", "205602.595000", "205603.055000", "205603.515000", "205603.975000", "205604.435000", "205604.895000", "205605.355000", "205605.815000", "205606.275000", "205606.735000", "205607.195000", "205607.655000", "205608.115000", "205608.575000", "205609.035000", "205609.495000", "205609.955000", "205610.415000", "205610.875000", "205611.335000", "205611.795000", "205612.255000", "205612.715000", "205613.175000", "205613.635000", "205614.095000", "205614.555000", "205615.015000", "205615.475000", "205615.935000", "205616.395000", "205616.855000", "205617.315000", "205617.775000", "205618.235000", "205618.695000", "205619.155000", "205619.615000", "205620.075000", "205620.535000", "205620.995000", "205621.455000", "205621.915000", "205622.375000", "205622.835000", "205623.295000", "205623.755000", "205624.215000", "205624.675000", "205625.135000", "205625.595000", "205626.055000", "205626.515000", "205626.975000", "205627.435000", "205627.895000", "205628.355000", "205628.815000", "205629.275000", "205629.735000", "205630.195000", "205630.655000", "205631.115000", "205631.575000", "205632.035000", "205632.495000", "205632.955000", "205633.415000", "205633.875000", "205634.335000", "205634.795000", "205635.255000", "205635.715000", "205636.175000", "205636.635000", "205637.095000", "205637.555000", "205638.015000", "205638.475000", "205638.935000", "205639.395000", "205639.855000", "205640.315000", "205640.775000", "205641.235000", "205641.695000", "205642.155000", "205642.615000", "205643.075000", "205643.535000", "205643.995000", "205644.455000", "205644.915000", "205645.375000", "205645.835000", "205646.295000", "205646.755000", "205647.215000", "205647.675000", "205648.135000", "205648.595000", "205649.055000", "205649.515000", "205649.975000", "205650.435000", "205650.895000", "205651.355000", "205651.815000", "205652.275000", "205652.735000", "205653.195000", "205653.655000", "205654.115000", "205654.575000", "205655.035000", "205655.495000", "205655.955000", "205656.415000", "205656.875000", "205657.335000", "205657.795000", "205658.255000", "205658.715000", "205659.175000", "205659.635000", "205700.095000", "205700.555000", "205701.015000", "205701.475000", "205701.935000", "205702.395000", "205702.855000", "205703.315000", "205703.775000", "205704.235000", "205704.695000", "205705.155000", "205705.615000", "205706.075000", "205706.535000", "205706.995000", "205707.455000", "205707.915000", "205708.375000", "205708.835000", "205709.295000", "205709.755000", "205710.215000", "205710.675000", "205711.135000", "205711.595000", "205712.055000", "205712.515000", "205712.975000", "205713.435000", "205713.895000", "205714.355000", "205714.815000", "205715.275000", "205715.735000", "205716.195000", "205716.655000", "205717.115000", "205717.575000", "205718.035000", "205718.495000", "205718.955000", "205719.415000", "205719.875000", "205720.335000", "205720.795000", "205721.255000", "205721.715000", "205722.175000", "205722.635000", "205723.095000", "205723.555000", "205724.015000", "205724.475000", "205724.935000", "205725.395000", "205725.855000", "205726.315000", "205726.775000", "205727.235000", "205727.695000", "205728.155000", "205728.615000", "205729.075000", "205729.535000", "205729.995000", "205730.455000", "205730.915000", "205731.375000", "205731.835000", "205732.295000", "205732.755000", "205733.215000", "205733.675000", "205734.135000", "205734.595000", "205735.055000", "205735.515000", "205735.975000", "205736.435000", "205736.895000", "205737.355000", "205737.815000", "205738.275000", "205738.735000", "205739.195000", "205739.655000", "205740.115000", "205740.575000", "205741.035000", "205741.495000", "205741.955000", "205742.415000", "205742.875000", "205743.335000", "205743.795000", "205744.255000", "205744.715000", "205745.175000", "205745.635000", "205746.095000", "205746.555000", "205747.015000", "205747.475000", "205747.935000", "205748.395000", "205748.855000", "205749.315000", "205749.775000", "205750.235000", "205750.695000", "205751.155000", "205751.615000", "205752.075000", "205752.535000", "205752.995000", "205753.455000", "205753.915000", "205754.375000", "205754.835000", "205755.295000", "205755.755000", "205756.215000", "205756.675000", "205757.135000", "205757.595000", "205758.055000", "205758.515000", "205758.975000", "205759.435000", "205759.895000", "205800.355000", "205800.815000", "205801.275000", "205801.735000", "205802.195000", "205802.655000", "205803.115000", "205803.575000", "205804.035000", "205804.495000", "205804.955000", "205805.415000", "205805.875000", "205806.335000", "205806.795000", "205807.255000", "205807.715000", "205808.175000", "205808.635000", "205809.095000", "205809.555000", "205810.015000", "205810.475000", "205810.935000", "205811.395000", "205811.855000", "205812.315000", "205812.775000", "205813.235000", "205813.695000", "205814.155000", "205814.615000", "205815.075000", "205815.535000", "205815.995000", "205816.455000", "205816.915000", "205817.375000", "205817.835000", "205818.295000", "205818.755000", "205819.215000", "205819.675000", "205820.135000", "205820.595000", "205821.055000", "205821.515000", "205821.975000", "205822.435000", "205822.895000", "205823.355000", "205823.815000", "205824.275000", "205824.735000", "205825.195000", "205825.655000", "205826.115000", "205826.575000", "205827.035000", "205827.495000", "205827.955000", "205828.415000", "205828.875000", "205829.335000", "205829.795000", "205830.255000", "205830.715000", "205831.175000", "205831.635000", "205832.095000", "205832.555000", "205833.015000", "205833.475000", "205833.935000", "205834.395000", "205834.855000", "205835.315000", "205835.775000", "205836.235000", "205836.695000", "205837.155000", "205837.615000", "205838.075000", "205838.535000", "205838.995000", "205839.455000", "205839.915000", "205840.375000", "205840.835000", "205841.295000", "205841.755000", "205842.215000", "205842.675000", "205843.135000", "205843.595000", "205844.055000", "205844.515000", "205844.975000", "205845.435000", "205845.895000", "205846.355000", "205846.815000", "205847.275000", "205847.735000", "205848.195000", "205848.655000", "205849.115000"],
