{
  "AcquisitionMatrixPE": 82,
  "AcquisitionNumber": 1,
  "AcquisitionTime": "20:11:57.957500",
  "BandwidthPerPixelPhaseEncode": 24.888,
  "BaseResolution": 82,
  "BodyPartExamined": "BRAIN",
  "ConsistencyInfo": "N4_VE11E_LATEST_20181129",
  "ConversionSoftware": "dcm2niix",
  "ConversionSoftwareVersion": "v1.0.20201102",
  "DerivedVendorReportedEchoSpacing": 0.00049,
  "DeviceSerialNumber": "66112",
  "DwellTime": 2e-06,
  "EchoTime": 0.0272,
  "EchoTrainLength": 82,
  "EffectiveEchoSpacing": 0.00049,
  "FlipAngle": 44,
  "ImageComments": "Unaliased MB8/PE3",
  "ImageOrientationPatientDICOM": [0.999962, 0.0068788, 0.00527075, -0.00680668, 0.999885, -0.013582],
  "ImageType": [
    "ORIGINAL",
    "PRIMARY",
    "M",
    "MB",
    "ND",
    "NORM",
    "MOSAIC"
],
  "ImagingFrequency": 123.252,
  "InPlanePhaseEncodingDirectionDICOM": "COL",
  "InstitutionAddress": "Maynard 3,Hanover,NH,US,03755",
  "InstitutionName": "Dartmouth College - PBS",
  "InstitutionalDepartmentName": "Department",
  "MRAcquisitionType": "2D",
  "MagneticFieldStrength": 3,
  "Manufacturer": "Siemens",
  "ManufacturersModelName": "Prisma",
  "Modality": "MR",
  "MultibandAccelerationFactor": 8,
  "PartialFourier": 1,
  "PatientPosition": "HFS",
  "PercentPhaseFOV": 100,
  "PercentSampling": 100,
  "PhaseEncodingDirection": "j-",
  "PhaseEncodingSteps": 82,
  "PhaseResolution": 1,
  "PixelBandwidth": 3050,
  "ProcedureStepDescription": "Wager_Wager^1076_spacetop",
  "ProtocolName": "func_run-02_task-social_acq-ap-mb8",
  "PulseSequenceDetails": "%CustomerSeq%\\cmrr_mbep2d_bold",
  "ReceiveCoilActiveElements": "HEA;HEP",
  "ReceiveCoilName": "Head_32",
  "ReconMatrixPE": 82,
  "RepetitionTime": 0.46,
  "SAR": 0.0909174,
  "ScanOptions": "FS",
  "ScanningSequence": "EP",
  "SequenceName": "epfid2d1_82",
  "SequenceVariant": "SK\\SS",
  "SeriesDescription": "func_run-02_task-social_acq-ap-mb8",
  "SeriesNumber": 14,
  "ShimSetting": [4153, -7753, -7225, 795, -14, -222, 36, 67],
  "SliceThickness": 2.7,
  "SliceTiming": [0, 0.2525, 0.065, 0.315, 0.1275, 0.3775, 0.19, 0, 0.2525, 0.065, 0.315, 0.1275, 0.3775, 0.19, 0, 0.2525, 0.065, 0.315, 0.1275, 0.3775, 0.19, 0, 0.2525, 0.065, 0.315, 0.1275, 0.3775, 0.19, 0, 0.2525, 0.065, 0.315, 0.1275, 0.3775, 0.19, 0, 0.2525, 0.065, 0.315, 0.1275, 0.3775, 0.19, 0, 0.2525, 0.065, 0.315, 0.1275, 0.3775, 0.19, 0, 0.2525, 0.065, 0.315, 0.1275, 0.3775, 0.19],
  "SoftwareVersions": "syngo MR E11",
  "SpacingBetweenSlices": 2.7,
  "StationName": "AWP66112",
  "TaskName": "social",
  "TotalReadoutTime": 0.03969,
  "TxRefAmp": 229.553,
  "WipMemBlock": "60fe53f1-2288-4597-9883-d2a6e790de78||Sequence: R016 ve11e/master r/434b28f1; Aug  7 2019 18:53:46 by eja",
  "dcmmeta_affine": [
    [-2.682826042175293, -0.018261820077896118, 0.014481631107628345, 113.79428100585938],
    [-0.018455326557159424, 2.6826171875, -0.0365731418132782, -98.05107879638672],
    [0.014141030609607697, 0.036439500749111176, 2.6997134685516357, -65.28993225097656],
    [0.0, 0.0, 0.0, 1.0]
],
  "dcmmeta_reorient_transform": [
    [0.0, -1.0, 0.0, 81.0],
    [1.0, 0.0, 0.0, 0.0],
    [0.0, 0.0, 1.0, 0.0],
    [0.0, 0.0, 0.0, 1.0]
],
  "dcmmeta_shape": [82, 82, 56, 872],
  "dcmmeta_slice_dim": 2,
  "dcmmeta_version": 0.6,
  "global": {
    "const": {
      "AccessionNumber": "A003888",
      "AcquisitionMatrix": [82, 0, 0, 82],
      "AngioFlag": "N",
      "BitsAllocated": 16,
      "BitsStored": 16,
      "BodyPartExamined": "BRAIN",
      "Columns": 656,
      "EchoNumbers": 1,
      "EchoTime": 27.2,
      "EchoTrainLength": 82,
      "FlipAngle": 44.0,
      "HighBit": 15,
      "ImageOrientationPatient": [0.99996244993573, 0.00687880346991, 0.00527074770449, -0.0068066779278, 0.99988459261518, -0.0135819949328],
      "ImagePositionPatient": [-877.04503924729, -894.44875410511, -55.938673370637],
      "ImageType": [
        "ORIGINAL",
        "PRIMARY",
        "M",
        "MB",
        "ND",
        "NORM",
        "MOSAIC"
],
      "ImagedNucleus": "1H",
      "ImagingFrequency": 123.252201,
      "InPlanePhaseEncodingDirection": "COL",
      "MRAcquisitionType": "2D",
      "MagneticFieldStrength": 3.0,
      "Manufacturer": "SIEMENS",
      "ManufacturerModelName": "Prisma",
      "Modality": "MR",
      "NumberOfAverages": 1.0,
      "NumberOfPhaseEncodingSteps": 82,
      "PercentPhaseFieldOfView": 100.0,
      "PercentSampling": 100.0,
      "PerformedProcedureStepStartTime": "193759.322000",
      "PhotometricInterpretation": "MONOCHROME2",
      "PixelBandwidth": 3050.0,
      "PixelRepresentation": 0,
      "PixelSpacing": [2.6829268932343, 2.6829268932343],
      "ProtocolName": "func_run-02_task-social_acq-ap-mb8",
      "RepetitionTime": 460.0,
      "Rows": 656,
      "SAR": 0.09091736471096,
      "SamplesPerPixel": 1,
      "ScanOptions": "FS",
      "ScanningSequence": "EP",
      "SequenceName": "epfid2d1_82",
      "SequenceVariant": [
        "SK",
        "SS"
],
      "SeriesDescription": "func_run-02_task-social_acq-ap-mb8",
      "SeriesNumber": 14,
      "SeriesTime": "201213.447000",
      "SliceLocation": -63.344499213745,
      "SliceThickness": 2.7000000476837,
      "SmallestImagePixelValue": 0,
      "SoftwareVersions": "syngo MR E11",
      "SpacingBetweenSlices": 2.699999966841,
      "SpecificCharacterSet": "ISO_IR 100",
      "StudyID": "1",
      "StudyTime": "193759.263000",
      "TransmitCoilName": "Body",
      "VariableFlipAngleFlag": "N",
      "WindowCenterWidthExplanation": "Algo1"
    },
    "slices": {}
  },
  "time": {
    "samples": {
      "AcquisitionNumber": [1, 2, 3, 4, 5, 6, 7, 8, 9, 10, 11, 12, 13, 14, 15, 16, 17, 18, 19, 20, 21, 22, 23, 24, 25, 26, 27, 28, 29, 30, 31, 32, 33, 34, 35, 36, 37, 38, 39, 40, 41, 42, 43, 44, 45, 46, 47, 48, 49, 50, 51, 52, 53, 54, 55, 56, 57, 58, 59, 60, 61, 62, 63, 64, 65, 66, 67, 68, 69, 70, 71, 72, 73, 74, 75, 76, 77, 78, 79, 80, 81, 82, 83, 84, 85, 86, 87, 88, 89, 90, 91, 92, 93, 94, 95, 96, 97, 98, 99, 100, 101, 102, 103, 104, 105, 106, 107, 108, 109, 110, 111, 112, 113, 114, 115, 116, 117, 118, 119, 120, 121, 122, 123, 124, 125, 126, 127, 128, 129, 130, 131, 132, 133, 134, 135, 136, 137, 138, 139, 140, 141, 142, 143, 144, 145, 146, 147, 148, 149, 150, 151, 152, 153, 154, 155, 156, 157, 158, 159, 160, 161, 162, 163, 164, 165, 166, 167, 168, 169, 170, 171, 172, 173, 174, 175, 176, 177, 178, 179, 180, 181, 182, 183, 184, 185, 186, 187, 188, 189, 190, 191, 192, 193, 194, 195, 196, 197, 198, 199, 200, 201, 202, 203, 204, 205, 206, 207, 208, 209, 210, 211, 212, 213, 214, 215, 216, 217, 218, 219, 220, 221, 222, 223, 224, 225, 226, 227, 228, 229, 230, 231, 232, 233, 234, 235, 236, 237, 238, 239, 240, 241, 242, 243, 244, 245, 246, 247, 248, 249, 250, 251, 252, 253, 254, 255, 256, 257, 258, 259, 260, 261, 262, 263, 264, 265, 266, 267, 268, 269, 270, 271, 272, 273, 274, 275, 276, 277, 278, 279, 280, 281, 282, 283, 284, 285, 286, 287, 288, 289, 290, 291, 292, 293, 294, 295, 296, 297, 298, 299, 300, 301, 302, 303, 304, 305, 306, 307, 308, 309, 310, 311, 312, 313, 314, 315, 316, 317, 318, 319, 320, 321, 322, 323, 324, 325, 326, 327, 328, 329, 330, 331, 332, 333, 334, 335, 336, 337, 338, 339, 340, 341, 342, 343, 344, 345, 346, 347, 348, 349, 350, 351, 352, 353, 354, 355, 356, 357, 358, 359, 360, 361, 362, 363, 364, 365, 366, 367, 368, 369, 370, 371, 372, 373, 374, 375, 376, 377, 378, 379, 380, 381, 382, 383, 384, 385, 386, 387, 388, 389, 390, 391, 392, 393, 394, 395, 396, 397, 398, 399, 400, 401, 402, 403, 404, 405, 406, 407, 408, 409, 410, 411, 412, 413, 414, 415, 416, 417, 418, 419, 420, 421, 422, 423, 424, 425, 426, 427, 428, 429, 430, 431, 432, 433, 434, 435, 436, 437, 438, 439, 440, 441, 442, 443, 444, 445, 446, 447, 448, 449, 450, 451, 452, 453, 454, 455, 456, 457, 458, 459, 460, 461, 462, 463, 464, 465, 466, 467, 468, 469, 470, 471, 472, 473, 474, 475, 476, 477, 478, 479, 480, 481, 482, 483, 484, 485, 486, 487, 488, 489, 490, 491, 492, 493, 494, 495, 496, 497, 498, 499, 500, 501, 502, 503, 504, 505, 506, 507, 508, 509, 510, 511, 512, 513, 514, 515, 516, 517, 518, 519, 520, 521, 522, 523, 524, 525, 526, 527, 528, 529, 530, 531, 532, 533, 534, 535, 536, 537, 538, 539, 540, 541, 542, 543, 544, 545, 546, 547, 548, 549, 550, 551, 552, 553, 554, 555, 556, 557, 558, 559, 560, 561, 562, 563, 564, 565, 566, 567, 568, 569, 570, 571, 572, 573, 574, 575, 576, 577, 578, 579, 580, 581, 582, 583, 584, 585, 586, 587, 588, 589, 590, 591, 592, 593, 594, 595, 596, 597, 598, 599, 600, 601, 602, 603, 604, 605, 606, 607, 608, 609, 610, 611, 612, 613, 614, 615, 616, 617, 618, 619, 620, 621, 622, 623, 624, 625, 626, 627, 628, 629, 630, 631, 632, 633, 634, 635, 636, 637, 638, 639, 640, 641, 642, 643, 644, 645, 646, 647, 648, 649, 650, 651, 652, 653, 654, 655, 656, 657, 658, 659, 660, 661, 662, 663, 664, 665, 666, 667, 668, 669, 670, 671, 672, 673, 674, 675, 676, 677, 678, 679, 680, 681, 682, 683, 684, 685, 686, 687, 688, 689, 690, 691, 692, 693, 694, 695, 696, 697, 698, 699, 700, 701, 702, 703, 704, 705, 706, 707, 708, 709, 710, 711, 712, 713, 714, 715, 716, 717, 718, 719, 720, 721, 722, 723, 724, 725, 726, 727, 728, 729, 730, 731, 732, 733, 734, 735, 736, 737, 738, 739, 740, 741, 742, 743, 744, 745, 746, 747, 748, 749, 750, 751, 752, 753, 754, 755, 756, 757, 758, 759, 760, 761, 762, 763, 764, 765, 766, 767, 768, 769, 770, 771, 772, 773, 774, 775, 776, 777, 778, 779, 780, 781, 782, 783, 784, 785, 786, 787, 788, 789, 790, 791, 792, 793, 794, 795, 796, 797, 798, 799, 800, 801, 802, 803, 804, 805, 806, 807, 808, 809, 810, 811, 812, 813, 814, 815, 816, 817, 818, 819, 820, 821, 822, 823, 824, 825, 826, 827, 828, 829, 830, 831, 832, 833, 834, 835, 836, 837, 838, 839, 840, 841, 842, 843, 844, 845, 846, 847, 848, 849, 850, 851, 852, 853, 854, 855, 856, 857, 858, 859, 860, 861, 862, 863, 864, 865, 866, 867, 868, 869, 870, 871, 872],
      "AcquisitionTime": ["201157.957500", "201158.417500", "201158.877500", "201159.337500", "201159.797500", "201200.257500", "201200.717500", "201201.177500", "201201.637500", "201202.097500", "201202.557500", "201203.017500", "201203.477500", "201203.937500", "201204.397500", "201204.857500", "201205.317500", "201205.777500", "201206.237500", "201206.697500", "201207.157500", "201207.617500", "201208.077500", "201208.537500", "201208.997500", "201209.457500", "201209.917500", "201210.377500", "201210.837500", "201211.297500", "201211.757500", "201212.217500", "201212.677500", "201213.137500", "201213.597500", "201214.057500", "201214.517500", "201214.977500", "201215.437500", "201215.897500", "201216.357500", "201216.817500", "201217.277500", "201217.737500", "201218.197500", "201218.657500", "201219.117500", "201219.577500", "201220.037500", "201220.497500", "201220.957500", "201221.417500", "201221.877500", "201222.337500", "201222.797500", "201223.257500", "201223.717500", "201224.177500", "201224.637500", "201225.097500", "201225.557500", "201226.017500", "201226.477500", "201226.937500", "201227.397500", "201227.857500", "201228.317500", "201228.777500", "201229.237500", "201229.697500", "201230.157500", "201230.617500", "201231.077500", "201231.537500", "201231.997500", "201232.457500", "201232.917500", "201233.377500", "201233.837500", "201234.297500", "201234.757500", "201235.217500", "201235.677500", "201236.137500", "201236.597500", "201237.057500", "201237.517500", "201237.977500", "201238.437500", "201238.897500", "201239.357500", "201239.817500", "201240.277500", "201240.737500", "201241.197500", "201241.657500", "201242.117500", "201242.577500", "201243.037500", "201243.497500", "201243.957500", "201244.417500", "201244.877500", "201245.337500", "201245.797500", "201246.257500", "201246.717500", "201247.177500", "201247.637500", "201248.097500", "201248.557500", "201249.017500", "201249.477500", "201249.937500", "201250.397500", "201250.857500", "201251.317500", "201251.777500", "201252.237500", "201252.697500", "201253.157500", "201253.617500", "201254.077500", "201254.537500", "201254.997500", "201255.457500", "201255.917500", "201256.377500", "201256.837500", "201257.297500", "201257.757500", "201258.217500", "201258.677500", "201259.137500", "201259.597500", "201300.057500", "201300.517500", "201300.977500", "201301.437500", "201301.897500", "201302.357500", "201302.817500", "201303.277500", "201303.737500", "201304.197500", "201304.657500", "201305.117500", "201305.577500", "201306.037500", "201306.497500", "201306.957500", "201307.417500", "201307.877500", "201308.337500", "201308.797500", "201309.257500", "201309.717500", "201310.177500", "201310.637500", "201311.097500", "201311.557500", "201312.017500", "201312.477500", "201312.937500", "201313.397500", "201313.857500", "201314.317500", "201314.777500", "201315.237500", "201315.697500", "201316.157500", "201316.617500", "201317.077500", "201317.537500", "201317.997500", "201318.457500", "201318.917500", "201319.377500", "201319.837500", "201320.297500", "201320.757500", "201321.217500", "201321.677500", "201322.137500", "201322.597500", "201323.057500", "201323.517500", "201323.977500", "201324.437500", "201324.897500", "201325.357500", "201325.817500", "201326.277500", "201326.737500", "201327.197500", "201327.657500", "201328.117500", "201328.577500", "201329.037500", "201329.497500", "201329.957500", "201330.417500", "201330.877500", "201331.337500", "201331.797500", "201332.257500", "201332.717500", "201333.177500", "201333.637500", "201334.097500", "201334.557500", "201335.017500", "201335.477500", "201335.937500", "201336.397500", "201336.857500", "201337.317500", "201337.777500", "201338.237500", "201338.697500", "201339.157500", "201339.617500", "201340.077500", "201340.537500", "201340.997500", "201341.457500", "201341.917500", "201342.377500", "201342.837500", "201343.297500", "201343.757500", "201344.217500", "201344.677500", "201345.137500", "201345.597500", "201346.057500", "201346.517500", "201346.977500", "201347.437500", "201347.897500", "201348.357500", "201348.817500", "201349.277500", "201349.737500", "201350.197500", "201350.657500", "201351.117500", "201351.577500", "201352.037500", "201352.497500", "201352.957500", "201353.417500", "201353.877500", "201354.337500", "201354.797500", "201355.257500", "201355.717500", "201356.177500", "201356.637500", "201357.097500", "201357.557500", "201358.017500", "201358.477500", "201358.937500", "201359.397500", "201359.857500", "201400.317500", "201400.777500", "201401.237500", "201401.697500", "201402.157500", "201402.617500", "201403.077500", "201403.537500", "201403.997500", "201404.457500", "201404.917500", "201405.377500", "201405.837500", "201406.297500", "201406.757500", "201407.217500", "201407.677500", "201408.137500", "201408.597500", "201409.057500", "201409.517500", "201409.977500", "201410.437500", "201410.897500", "201411.357500", "201411.817500", "201412.277500", "201412.737500", "201413.197500", "201413.657500", "201414.117500", "201414.577500", "201415.037500", "201415.497500", "201415.957500", "201416.417500", "201416.877500", "201417.337500", "201417.797500", "201418.257500", "201418.717500", "201419.177500", "201419.637500", "201420.097500", "201420.557500", "201421.017500", "201421.477500", "201421.937500", "201422.397500", "201422.857500", "201423.317500", "201423.777500", "201424.237500", "201424.697500", "201425.157500", "201425.617500", "201426.077500", "201426.537500", "201426.997500", "201427.457500", "201427.917500", "201428.377500", "201428.837500", "201429.297500", "201429.757500", "201430.217500", "201430.677500", "201431.137500", "201431.597500", "201432.057500", "201432.517500", "201432.977500", "201433.437500", "201433.897500", "201434.357500", "201434.817500", "201435.277500", "201435.737500", "201436.197500", "201436.657500", "201437.117500", "201437.577500", "201438.037500", "201438.497500", "201438.957500", "201439.417500", "201439.877500", "201440.337500", "201440.797500", "201441.257500", "201441.717500", "201442.177500", "201442.637500", "201443.097500", "201443.557500", "201444.017500", "201444.477500", "201444.937500", "201445.397500", "201445.857500", "201446.317500", "201446.777500", "201447.237500", "201447.697500", "201448.157500", "201448.617500", "201449.077500", "201449.537500", "201449.997500", "201450.457500", "201450.917500", "201451.377500", "201451.837500", "201452.297500", "201452.757500", "201453.217500", "201453.677500", "201454.137500", "201454.597500", "201455.057500", "201455.517500", "201455.977500", "201456.437500", "201456.897500", "201457.357500", "201457.817500", "201458.277500", "201458.737500", "201459.197500", "201459.657500", "201500.117500", "201500.577500", "201501.037500", "201501.497500", "201501.957500", "201502.417500", "201502.877500", "201503.337500", "201503.797500", "201504.257500", "201504.717500", "201505.177500", "201505.637500", "201506.097500", "201506.557500", "201507.017500", "201507.477500", "201507.937500", "201508.397500", "201508.857500", "201509.317500", "201509.777500", "201510.237500", "201510.697500", "201511.157500", "201511.617500", "201512.077500", "201512.537500", "201512.997500", "201513.457500", "201513.917500", "201514.377500", "201514.837500", "201515.297500", "201515.757500", "201516.217500", "201516.677500", "201517.137500", "201517.597500", "201518.057500", "201518.517500", "201518.977500", "201519.437500", "201519.897500", "201520.357500", "201520.817500", "201521.277500", "201521.737500", "201522.197500", "201522.657500", "201523.117500", "201523.577500", "201524.037500", "201524.497500", "201524.957500", "201525.417500", "201525.877500", "201526.337500", "201526.797500", "201527.257500", "201527.717500", "201528.177500", "201528.637500", "201529.097500", "201529.557500", "201530.017500", "201530.477500", "201530.937500", "201531.397500", "201531.857500", "201532.317500", "201532.777500", "201533.237500", "201533.697500", "201534.157500", "201534.617500", "201535.077500", "201535.537500", "201535.997500", "201536.457500", "201536.917500", "201537.377500", "201537.837500", "201538.297500", "201538.757500", "201539.217500", "201539.677500", "201540.137500", "201540.597500", "201541.057500", "201541.517500", "201541.977500", "201542.437500", "201542.897500", "201543.357500", "201543.817500", "201544.277500", "201544.737500", "201545.197500", "201545.657500", "201546.117500", "201546.577500", "201547.037500", "201547.497500", "201547.957500", "201548.417500", "201548.877500", "201549.337500", "201549.797500", "201550.257500", "201550.717500", "201551.177500", "201551.637500", "201552.097500", "201552.557500", "201553.017500", "201553.477500", "201553.937500", "201554.397500", "201554.857500", "201555.317500", "201555.777500", "201556.237500", "201556.697500", "201557.157500", "201557.617500", "201558.077500", "201558.537500", "201558.997500", "201559.457500", "201559.917500", "201600.377500", "201600.837500", "201601.297500", "201601.757500", "201602.217500", "201602.677500", "201603.137500", "201603.597500", "201604.057500", "201604.517500", "201604.977500", "201605.437500", "201605.897500", "201606.357500", "201606.817500", "201607.277500", "201607.737500", "201608.197500", "201608.657500", "201609.117500", "201609.577500", "201610.037500", "201610.497500", "201610.957500", "201611.417500", "201611.877500", "201612.337500", "201612.797500", "201613.257500", "201613.717500", "201614.177500", "201614.637500", "201615.097500", "201615.557500", "201616.017500", "201616.477500", "201616.937500", "201617.397500", "201617.857500", "201618.317500", "201618.777500", "201619.237500", "201619.697500", "201620.157500", "201620.617500", "201621.077500", "201621.537500", "201621.997500", "201622.457500", "201622.917500", "201623.377500", "201623.837500", "201624.297500", "201624.757500", "201625.217500", "201625.677500", "201626.137500", "201626.597500", "201627.057500", "201627.517500", "201627.977500", "201628.437500", "201628.897500", "201629.357500", "201629.817500", "201630.277500", "201630.737500", "201631.197500", "201631.657500", "201632.117500", "201632.577500", "201633.037500", "201633.497500", "201633.957500", "201634.417500", "201634.877500", "201635.337500", "201635.797500", "201636.257500", "201636.717500", "201637.177500", "201637.637500", "201638.097500", "201638.557500", "201639.017500", "201639.477500", "201639.937500", "201640.397500", "201640.857500", "201641.317500", "201641.777500", "201642.237500", "201642.697500", "201643.157500", "201643.617500", "201644.077500", "201644.537500", "201644.997500", "201645.457500", "201645.917500", "201646.377500", "201646.837500", "201647.297500", "201647.757500", "201648.217500", "201648.677500", "201649.137500", "201649.597500", "201650.057500", "201650.517500", "201650.977500", "201651.437500", "201651.897500", "201652.357500", "201652.817500", "201653.277500", "201653.737500", "201654.197500", "201654.657500", "201655.117500", "201655.577500", "201656.037500", "201656.497500", "201656.957500", "201657.417500", "201657.877500", "201658.337500", "201658.797500", "201659.257500", "201659.717500", "201700.177500", "201700.637500", "201701.097500", "201701.557500", "201702.017500", "201702.477500", "201702.937500", "201703.397500", "201703.857500", "201704.317500", "201704.777500", "201705.237500", "201705.697500", "201706.157500", "201706.617500", "201707.077500", "201707.537500", "201707.997500", "201708.457500", "201708.917500", "201709.377500", "201709.837500", "201710.297500", "201710.757500", "201711.217500", "201711.677500", "201712.137500", "201712.597500", "201713.057500", "201713.517500", "201713.977500", "201714.437500", "201714.897500", "201715.357500", "201715.817500", "201716.277500", "201716.737500", "201717.197500", "201717.657500", "201718.117500", "201718.577500", "201719.037500", "201719.497500", "201719.957500", "201720.417500", "201720.877500", "201721.337500", "201721.797500", "201722.257500", "201722.717500", "201723.177500", "201723.637500", "201724.097500", "201724.557500", "201725.017500", "201725.477500", "201725.937500", "201726.397500", "201726.857500", "201727.317500", "201727.777500", "201728.237500", "201728.697500", "201729.157500", "201729.617500", "201730.077500", "201730.537500", "201730.997500", "201731.457500", "201731.917500", "201732.377500", "201732.837500", "201733.297500", "201733.757500", "201734.217500", "201734.677500", "201735.137500", "201735.597500", "201736.057500", "201736.517500", "201736.977500", "201737.437500", "201737.897500", "201738.357500", "201738.817500", "201739.277500", "201739.737500", "201740.197500", "201740.657500", "201741.117500", "201741.577500", "201742.037500", "201742.497500", "201742.957500", "201743.417500", "201743.877500", "201744.337500", "201744.797500", "201745.257500", "201745.717500", "201746.177500", "201746.637500", "201747.097500", "201747.557500", "201748.017500", "201748.477500", "201748.937500", "201749.397500", "201749.857500", "201750.317500", "201750.777500", "201751.237500", "201751.697500", "201752.157500", "201752.617500", "201753.077500", "201753.537500", "201753.997500", "201754.457500", "201754.917500", "201755.377500", "201755.837500", "201756.297500", "201756.757500", "201757.217500", "201757.677500", "201758.137500", "201758.597500", "201759.057500", "201759.517500", "201759.977500", "201800.437500", "201800.897500", "201801.357500", "201801.817500", "201802.277500", "201802.737500", "201803.197500", "201803.657500", "201804.117500", "201804.577500", "201805.037500", "201805.497500", "201805.957500", "201806.417500", "201806.877500", "201807.337500", "201807.797500", "201808.257500", "201808.717500", "201809.177500", "201809.637500", "201810.097500", "201810.557500", "201811.017500", "201811.477500", "201811.937500", "201812.397500", "201812.857500", "201813.317500", "201813.777500", "201814.237500", "201814.697500", "201815.157500", "201815.617500", "201816.077500", "201816.537500", "201816.997500", "201817.457500", "201817.917500", "201818.377500", "201818.837500", "201819.297500", "201819.757500", "201820.217500", "201820.677500", "201821.137500", "201821.597500", "201822.057500", "201822.517500", "201822.977500", "201823.437500", "201823.897500", "201824.357500", "201824.817500", "201825.277500", "201825.737500", "201826.197500", "201826.657500", "201827.117500", "201827.577500", "201828.037500", "201828.497500", "201828.957500", "201829.417500", "201829.877500", "201830.337500", "201830.797500", "201831.257500", "201831.717500", "201832.177500", "201832.637500", "201833.097500", "201833.557500", "201834.017500", "201834.477500", "201834.937500", "201835.397500", "201835.857500", "201836.317500", "201836.777500", "201837.237500", "201837.697500", "201838.157500", "201838.617500"],
