{
  "AcquisitionMatrixPE": 82,
  "AcquisitionNumber": 1,
  "AcquisitionTime": "13:16:4.832500",
  "BandwidthPerPixelPhaseEncode": 24.888,
  "BaseResolution": 82,
  "BodyPartExamined": "BRAIN",
  "ConsistencyInfo": "N4_VE11E_LATEST_20181129",
  "ConversionSoftware": "dcm2niix",
  "ConversionSoftwareVersion": "v1.0.20201102",
  "DerivedVendorReportedEchoSpacing": 0.00049,
  "DeviceSerialNumber": "66112",
  "DwellTime": 2e-06,
  "EchoTime": 0.0272,
  "EchoTrainLength": 82,
  "EffectiveEchoSpacing": 0.00049,
  "FlipAngle": 44,
  "ImageComments": "Unaliased MB8/PE3",
  "ImageOrientationPatientDICOM": [0.99785, 0.0328139, 0.0567345, -0.0304871, 0.998677, -0.0414031],
  "ImageType": [
    "ORIGINAL",
    "PRIMARY",
    "M",
    "MB",
    "ND",
    "NORM",
    "MOSAIC"
],
  "ImagingFrequency": 123.252,
  "InPlanePhaseEncodingDirectionDICOM": "COL",
  "InstitutionAddress": "Maynard 3,Hanover,NH,US,03755",
  "InstitutionName": "Dartmouth College - PBS",
  "InstitutionalDepartmentName": "Department",
  "MRAcquisitionType": "2D",
  "MagneticFieldStrength": 3,
  "Manufacturer": "Siemens",
  "ManufacturersModelName": "Prisma",
  "Modality": "MR",
  "MultibandAccelerationFactor": 8,
  "PartialFourier": 1,
  "PatientPosition": "HFS",
  "PercentPhaseFOV": 100,
  "PercentSampling": 100,
  "PhaseEncodingDirection": "j-",
  "PhaseEncodingSteps": 82,
  "PhaseResolution": 1,
  "PixelBandwidth": 3050,
  "ProcedureStepDescription": "Wager_Wager^1076_spacetop",
  "ProtocolName": "func_run-01_task-alignvideo_acq-ap-mb8",
  "PulseSequenceDetails": "%CustomerSeq%\\cmrr_mbep2d_bold",
  "ReceiveCoilActiveElements": "HEA;HEP",
  "ReceiveCoilName": "Head_32",
  "ReconMatrixPE": 82,
  "RepetitionTime": 0.46,
  "SAR": 0.0866634,
  "ScanOptions": "FS",
  "ScanningSequence": "EP",
  "SequenceName": "epfid2d1_82",
  "SequenceVariant": "SK\\SS",
  "SeriesDescription": "func_run-01_task-alignvideo_acq-ap-mb8",
  "SeriesNumber": 32,
  "ShimSetting": [4170, -7691, -7244, 452, -52, -22, 52, 26],
  "SliceThickness": 2.7,
  "SliceTiming": [0, 0.2525, 0.065, 0.315, 0.1275, 0.3775, 0.19, 0, 0.2525, 0.065, 0.315, 0.1275, 0.3775, 0.19, 0, 0.2525, 0.065, 0.315, 0.1275, 0.3775, 0.19, 0, 0.2525, 0.065, 0.315, 0.1275, 0.3775, 0.19, 0, 0.2525, 0.065, 0.315, 0.1275, 0.3775, 0.19, 0, 0.2525, 0.065, 0.315, 0.1275, 0.3775, 0.19, 0, 0.2525, 0.065, 0.315, 0.1275, 0.3775, 0.19, 0, 0.2525, 0.065, 0.315, 0.1275, 0.3775, 0.19],
  "SoftwareVersions": "syngo MR E11",
  "SpacingBetweenSlices": 2.7,
  "StationName": "AWP66112",
  "TaskName": "alignvideo",
  "TotalReadoutTime": 0.03969,
  "TxRefAmp": 226.897,
  "WipMemBlock": "5103d255-b672-4cbb-b4ea-a6927f4f69dd||Sequence: R016 ve11e/master r/434b28f1; Aug  7 2019 18:53:46 by eja",
  "dcmmeta_affine": [
    [-2.6771583557128906, -0.08179459720849991, 0.1566486358642578, 111.93319702148438],
    [-0.08803732693195343, 2.679378032684326, -0.10687783360481262, -78.47505950927734],
    [0.1522144079208374, 0.11108141392469406, 2.6933321952819824, -80.84291076660156],
    [0.0, 0.0, 0.0, 1.0]
],
  "dcmmeta_reorient_transform": [
    [0.0, -1.0, 0.0, 81.0],
    [1.0, 0.0, 0.0, 0.0],
    [0.0, 0.0, 1.0, 0.0],
    [0.0, 0.0, 0.0, 1.0]
],
  "dcmmeta_shape": [82, 82, 56, 839],
  "dcmmeta_slice_dim": 2,
  "dcmmeta_version": 0.6,
  "global": {
    "const": {
      "AccessionNumber": "A004010",
      "AcquisitionMatrix": [82, 0, 0, 82],
      "AngioFlag": "N",
      "BitsAllocated": 16,
      "BitsStored": 16,
      "BodyPartExamined": "BRAIN",
      "Columns": 656,
      "EchoNumbers": 1,
      "EchoTime": 27.2,
      "EchoTrainLength": 82,
      "FlipAngle": 44.0,
      "HighBit": 15,
      "ImageOrientationPatient": [0.99784991270981, 0.03281391203671, 0.05673445938643, -0.0304870776033, 0.99867728706567, -0.04140307233],
      "ImagePositionPatient": [-850.17723663278, -932.80281678389, -83.650487813623],
      "ImageType": [
        "ORIGINAL",
        "PRIMARY",
        "M",
        "MB",
        "ND",
        "NORM",
        "MOSAIC"
],
      "ImagedNucleus": "1H",
      "ImagingFrequency": 123.252212,
      "InPlanePhaseEncodingDirection": "COL",
      "MRAcquisitionType": "2D",
      "MagneticFieldStrength": 3.0,
      "Manufacturer": "SIEMENS",
      "ManufacturerModelName": "Prisma",
      "Modality": "MR",
      "NumberOfAverages": 1.0,
      "NumberOfPhaseEncodingSteps": 82,
      "PercentPhaseFieldOfView": 100.0,
      "PercentSampling": 100.0,
      "PerformedProcedureStepStartTime": "114215.712000",
      "PhotometricInterpretation": "MONOCHROME2",
      "PixelBandwidth": 3050.0,
      "PixelRepresentation": 0,
      "PixelSpacing": [2.6829268932343, 2.6829268932343],
      "ProtocolName": "func_run-01_task-alignvideo_acq-ap-mb8",
      "RepetitionTime": 460.0,
      "Rows": 656,
      "SAR": 0.08666342586106,
      "SamplesPerPixel": 1,
      "ScanOptions": "FS",
      "ScanningSequence": "EP",
      "SequenceName": "epfid2d1_82",
      "SequenceVariant": [
        "SK",
        "SS"
],
      "SeriesDescription": "func_run-01_task-alignvideo_acq-ap-mb8",
      "SeriesNumber": 32,
      "SeriesTime": "131632.532000",
      "SliceLocation": -71.042739613472,
      "SliceThickness": 2.7000000476837,
      "SmallestImagePixelValue": 0,
      "SoftwareVersions": "syngo MR E11",
      "SpacingBetweenSlices": 2.6999999872273,
      "SpecificCharacterSet": "ISO_IR 100",
      "StudyID": "2",
      "StudyTime": "114215.628000",
      "TransmitCoilName": "Body",
      "VariableFlipAngleFlag": "N",
      "WindowCenterWidthExplanation": "Algo1"
    },
    "slices": {}
  },
  "time": {
    "samples": {
      "AcquisitionNumber": [1, 2, 3, 4, 5, 6, 7, 8, 9, 10, 11, 12, 13, 14, 15, 16, 17, 18, 19, 20, 21, 22, 23, 24, 25, 26, 27, 28, 29, 30, 31, 32, 33, 34, 35, 36, 37, 38, 39, 40, 41, 42, 43, 44, 45, 46, 47, 48, 49, 50, 51, 52, 53, 54, 55, 56, 57, 58, 59, 60, 61, 62, 63, 64, 65, 66, 67, 68, 69, 70, 71, 72, 73, 74, 75, 76, 77, 78, 79, 80, 81, 82, 83, 84, 85, 86, 87, 88, 89, 90, 91, 92, 93, 94, 95, 96, 97, 98, 99, 100, 101, 102, 103, 104, 105, 106, 107, 108, 109, 110, 111, 112, 113, 114, 115, 116, 117, 118, 119, 120, 121, 122, 123, 124, 125, 126, 127, 128, 129, 130, 131, 132, 133, 134, 135, 136, 137, 138, 139, 140, 141, 142, 143, 144, 145, 146, 147, 148, 149, 150, 151, 152, 153, 154, 155, 156, 157, 158, 159, 160, 161, 162, 163, 164, 165, 166, 167, 168, 169, 170, 171, 172, 173, 174, 175, 176, 177, 178, 179, 180, 181, 182, 183, 184, 185, 186, 187, 188, 189, 190, 191, 192, 193, 194, 195, 196, 197, 198, 199, 200, 201, 202, 203, 204, 205, 206, 207, 208, 209, 210, 211, 212, 213, 214, 215, 216, 217, 218, 219, 220, 221, 222, 223, 224, 225, 226, 227, 228, 229, 230, 231, 232, 233, 234, 235, 236, 237, 238, 239, 240, 241, 242, 243, 244, 245, 246, 247, 248, 249, 250, 251, 252, 253, 254, 255, 256, 257, 258, 259, 260, 261, 262, 263, 264, 265, 266, 267, 268, 269, 270, 271, 272, 273, 274, 275, 276, 277, 278, 279, 280, 281, 282, 283, 284, 285, 286, 287, 288, 289, 290, 291, 292, 293, 294, 295, 296, 297, 298, 299, 300, 301, 302, 303, 304, 305, 306, 307, 308, 309, 310, 311, 312, 313, 314, 315, 316, 317, 318, 319, 320, 321, 322, 323, 324, 325, 326, 327, 328, 329, 330, 331, 332, 333, 334, 335, 336, 337, 338, 339, 340, 341, 342, 343, 344, 345, 346, 347, 348, 349, 350, 351, 352, 353, 354, 355, 356, 357, 358, 359, 360, 361, 362, 363, 364, 365, 366, 367, 368, 369, 370, 371, 372, 373, 374, 375, 376, 377, 378, 379, 380, 381, 382, 383, 384, 385, 386, 387, 388, 389, 390, 391, 392, 393, 394, 395, 396, 397, 398, 399, 400, 401, 402, 403, 404, 405, 406, 407, 408, 409, 410, 411, 412, 413, 414, 415, 416, 417, 418, 419, 420, 421, 422, 423, 424, 425, 426, 427, 428, 429, 430, 431, 432, 433, 434, 435, 436, 437, 438, 439, 440, 441, 442, 443, 444, 445, 446, 447, 448, 449, 450, 451, 452, 453, 454, 455, 456, 457, 458, 459, 460, 461, 462, 463, 464, 465, 466, 467, 468, 469, 470, 471, 472, 473, 474, 475, 476, 477, 478, 479, 480, 481, 482, 483, 484, 485, 486, 487, 488, 489, 490, 491, 492, 493, 494, 495, 496, 497, 498, 499, 500, 501, 502, 503, 504, 505, 506, 507, 508, 509, 510, 511, 512, 513, 514, 515, 516, 517, 518, 519, 520, 521, 522, 523, 524, 525, 526, 527, 528, 529, 530, 531, 532, 533, 534, 535, 536, 537, 538, 539, 540, 541, 542, 543, 544, 545, 546, 547, 548, 549, 550, 551, 552, 553, 554, 555, 556, 557, 558, 559, 560, 561, 562, 563, 564, 565, 566, 567, 568, 569, 570, 571, 572, 573, 574, 575, 576, 577, 578, 579, 580, 581, 582, 583, 584, 585, 586, 587, 588, 589, 590, 591, 592, 593, 594, 595, 596, 597, 598, 599, 600, 601, 602, 603, 604, 605, 606, 607, 608, 609, 610, 611, 612, 613, 614, 615, 616, 617, 618, 619, 620, 621, 622, 623, 624, 625, 626, 627, 628, 629, 630, 631, 632, 633, 634, 635, 636, 637, 638, 639, 640, 641, 642, 643, 644, 645, 646, 647, 648, 649, 650, 651, 652, 653, 654, 655, 656, 657, 658, 659, 660, 661, 662, 663, 664, 665, 666, 667, 668, 669, 670, 671, 672, 673, 674, 675, 676, 677, 678, 679, 680, 681, 682, 683, 684, 685, 686, 687, 688, 689, 690, 691, 692, 693, 694, 695, 696, 697, 698, 699, 700, 701, 702, 703, 704, 705, 706, 707, 708, 709, 710, 711, 712, 713, 714, 715, 716, 717, 718, 719, 720, 721, 722, 723, 724, 725, 726, 727, 728, 729, 730, 731, 732, 733, 734, 735, 736, 737, 738, 739, 740, 741, 742, 743, 744, 745, 746, 747, 748, 749, 750, 751, 752, 753, 754, 755, 756, 757, 758, 759, 760, 761, 762, 763, 764, 765, 766, 767, 768, 769, 770, 771, 772, 773, 774, 775, 776, 777, 778, 779, 780, 781, 782, 783, 784, 785, 786, 787, 788, 789, 790, 791, 792, 793, 794, 795, 796, 797, 798, 799, 800, 801, 802, 803, 804, 805, 806, 807, 808, 809, 810, 811, 812, 813, 814, 815, 816, 817, 818, 819, 820, 821, 822, 823, 824, 825, 826, 827, 828, 829, 830, 831, 832, 833, 834, 835, 836, 837, 838, 839],
      "AcquisitionTime": ["131604.832500", "131605.292500", "131605.752500", "131606.212500", "131606.672500", "131607.132500", "131607.592500", "131608.052500", "131608.512500", "131608.972500", "131609.432500", "131609.892500", "131610.352500", "131610.812500", "131611.272500", "131611.732500", "131612.192500", "131612.652500", "131613.112500", "131613.572500", "131614.032500", "131614.492500", "131614.952500", "131615.412500", "131615.872500", "131616.332500", "131616.792500", "131617.252500", "131617.712500", "131618.172500", "131618.632500", "131619.092500", "131619.552500", "131620.012500", "131620.472500", "131620.932500", "131621.392500", "131621.852500", "131622.312500", "131622.772500", "131623.232500", "131623.692500", "131624.152500", "131624.612500", "131625.072500", "131625.532500", "131625.992500", "131626.452500", "131626.912500", "131627.372500", "131627.832500", "131628.292500", "131628.752500", "131629.212500", "131629.672500", "131630.132500", "131630.592500", "131631.052500", "131631.512500", "131631.972500", "131632.432500", "131632.892500", "131633.352500", "131633.812500", "131634.272500", "131634.732500", "131635.192500", "131635.652500", "131636.112500", "131636.572500", "131637.032500", "131637.492500", "131637.952500", "131638.412500", "131638.872500", "131639.332500", "131639.792500", "131640.252500", "131640.712500", "131641.172500", "131641.632500", "131642.092500", "131642.552500", "131643.012500", "131643.472500", "131643.932500", "131644.392500", "131644.852500", "131645.312500", "131645.772500", "131646.232500", "131646.692500", "131647.152500", "131647.612500", "131648.072500", "131648.532500", "131648.992500", "131649.452500", "131649.912500", "131650.372500", "131650.832500", "131651.292500", "131651.752500", "131652.212500", "131652.672500", "131653.132500", "131653.592500", "131654.052500", "131654.512500", "131654.972500", "131655.432500", "131655.892500", "131656.352500", "131656.812500", "131657.272500", "131657.732500", "131658.192500", "131658.652500", "131659.112500", "131659.572500", "131700.032500", "131700.492500", "131700.952500", "131701.412500", "131701.872500", "131702.332500", "131702.792500", "131703.252500", "131703.712500", "131704.172500", "131704.632500", "131705.092500", "131705.552500", "131706.012500", "131706.472500", "131706.932500", "131707.392500", "131707.852500", "131708.312500", "131708.772500", "131709.232500", "131709.692500", "131710.152500", "131710.612500", "131711.072500", "131711.532500", "131711.992500", "131712.452500", "131712.912500", "131713.372500", "131713.832500", "131714.292500", "131714.752500", "131715.212500", "131715.672500", "131716.132500", "131716.592500", "131717.052500", "131717.512500", "131717.972500", "131718.432500", "131718.892500", "131719.352500", "131719.812500", "131720.272500", "131720.732500", "131721.192500", "131721.652500", "131722.112500", "131722.572500", "131723.032500", "131723.492500", "131723.952500", "131724.412500", "131724.872500", "131725.332500", "131725.792500", "131726.252500", "131726.712500", "131727.172500", "131727.632500", "131728.092500", "131728.552500", "131729.012500", "131729.472500", "131729.932500", "131730.392500", "131730.852500", "131731.312500", "131731.772500", "131732.232500", "131732.692500", "131733.152500", "131733.612500", "131734.072500", "131734.532500", "131734.992500", "131735.452500", "131735.912500", "131736.372500", "131736.832500", "131737.292500", "131737.752500", "131738.212500", "131738.672500", "131739.132500", "131739.592500", "131740.052500", "131740.512500", "131740.972500", "131741.432500", "131741.892500", "131742.352500", "131742.812500", "131743.272500", "131743.732500", "131744.192500", "131744.652500", "131745.112500", "131745.572500", "131746.032500", "131746.492500", "131746.952500", "131747.412500", "131747.872500", "131748.332500", "131748.792500", "131749.252500", "131749.712500", "131750.172500", "131750.632500", "131751.092500", "131751.552500", "131752.012500", "131752.472500", "131752.932500", "131753.392500", "131753.852500", "131754.312500", "131754.772500", "131755.232500", "131755.692500", "131756.152500", "131756.612500", "131757.072500", "131757.532500", "131757.992500", "131758.452500", "131758.912500", "131759.372500", "131759.832500", "131800.292500", "131800.752500", "131801.212500", "131801.672500", "131802.132500", "131802.592500", "131803.052500", "131803.512500", "131803.972500", "131804.432500", "131804.892500", "131805.352500", "131805.812500", "131806.272500", "131806.732500", "131807.192500", "131807.652500", "131808.112500", "131808.572500", "131809.032500", "131809.492500", "131809.952500", "131810.412500", "131810.872500", "131811.332500", "131811.792500", "131812.252500", "131812.712500", "131813.172500", "131813.632500", "131814.092500", "131814.552500", "131815.012500", "131815.472500", "131815.932500", "131816.392500", "131816.852500", "131817.312500", "131817.772500", "131818.232500", "131818.692500", "131819.152500", "131819.612500", "131820.072500", "131820.532500", "131820.992500", "131821.452500", "131821.912500", "131822.372500", "131822.832500", "131823.292500", "131823.752500", "131824.212500", "131824.672500", "131825.132500", "131825.592500", "131826.052500", "131826.512500", "131826.972500", "131827.432500", "131827.892500", "131828.352500", "131828.812500", "131829.272500", "131829.732500", "131830.192500", "131830.652500", "131831.112500", "131831.572500", "131832.032500", "131832.492500", "131832.952500", "131833.412500", "131833.872500", "131834.332500", "131834.792500", "131835.252500", "131835.712500", "131836.172500", "131836.632500", "131837.092500", "131837.552500", "131838.012500", "131838.472500", "131838.932500", "131839.392500", "131839.852500", "131840.312500", "131840.772500", "131841.232500", "131841.692500", "131842.152500", "131842.612500", "131843.072500", "131843.532500", "131843.992500", "131844.452500", "131844.912500", "131845.372500", "131845.832500", "131846.292500", "131846.752500", "131847.212500", "131847.672500", "131848.132500", "131848.592500", "131849.052500", "131849.512500", "131849.972500", "131850.432500", "131850.892500", "131851.352500", "131851.812500", "131852.272500", "131852.732500", "131853.192500", "131853.652500", "131854.112500", "131854.572500", "131855.032500", "131855.492500", "131855.952500", "131856.412500", "131856.872500", "131857.332500", "131857.792500", "131858.252500", "131858.712500", "131859.172500", "131859.632500", "131900.092500", "131900.552500", "131901.012500", "131901.472500", "131901.932500", "131902.392500", "131902.852500", "131903.312500", "131903.772500", "131904.232500", "131904.692500", "131905.152500", "131905.612500", "131906.072500", "131906.532500", "131906.992500", "131907.452500", "131907.912500", "131908.372500", "131908.832500", "131909.292500", "131909.752500", "131910.212500", "131910.672500", "131911.132500", "131911.592500", "131912.052500", "131912.512500", "131912.972500", "131913.432500", "131913.892500", "131914.352500", "131914.812500", "131915.272500", "131915.732500", "131916.192500", "131916.652500", "131917.112500", "131917.572500", "131918.032500", "131918.492500", "131918.952500", "131919.412500", "131919.872500", "131920.332500", "131920.792500", "131921.252500", "131921.712500", "131922.172500", "131922.632500", "131923.092500", "131923.552500", "131924.012500", "131924.472500", "131924.932500", "131925.392500", "131925.852500", "131926.312500", "131926.772500", "131927.232500", "131927.692500", "131928.152500", "131928.612500", "131929.072500", "131929.532500", "131929.992500", "131930.452500", "131930.912500", "131931.372500", "131931.832500", "131932.292500", "131932.752500", "131933.212500", "131933.672500", "131934.132500", "131934.592500", "131935.052500", "131935.512500", "131935.972500", "131936.432500", "131936.892500", "131937.352500", "131937.812500", "131938.272500", "131938.732500", "131939.192500", "131939.652500", "131940.112500", "131940.572500", "131941.032500", "131941.492500", "131941.952500", "131942.412500", "131942.872500", "131943.332500", "131943.792500", "131944.252500", "131944.712500", "131945.172500", "131945.632500", "131946.092500", "131946.552500", "131947.012500", "131947.472500", "131947.932500", "131948.392500", "131948.852500", "131949.312500", "131949.772500", "131950.232500", "131950.692500", "131951.152500", "131951.612500", "131952.072500", "131952.532500", "131952.992500", "131953.452500", "131953.912500", "131954.372500", "131954.832500", "131955.292500", "131955.752500", "131956.212500", "131956.672500", "131957.132500", "131957.592500", "131958.052500", "131958.512500", "131958.972500", "131959.432500", "131959.892500", "132000.352500", "132000.812500", "132001.272500", "132001.732500", "132002.192500", "132002.652500", "132003.112500", "132003.572500", "132004.032500", "132004.492500", "132004.952500", "132005.412500", "132005.872500", "132006.332500", "132006.792500", "132007.252500", "132007.712500", "132008.172500", "132008.632500", "132009.092500", "132009.552500", "132010.012500", "132010.472500", "132010.932500", "132011.392500", "132011.852500", "132012.312500", "132012.772500", "132013.232500", "132013.692500", "132014.152500", "132014.612500", "132015.072500", "132015.532500", "132015.992500", "132016.452500", "132016.912500", "132017.372500", "132017.832500", "132018.292500", "132018.752500", "132019.212500", "132019.672500", "132020.132500", "132020.592500", "132021.052500", "132021.512500", "132021.972500", "132022.432500", "132022.892500", "132023.352500", "132023.812500", "132024.272500", "132024.732500", "132025.192500", "132025.652500", "132026.112500", "132026.572500", "132027.032500", "132027.492500", "132027.952500", "132028.412500", "132028.872500", "132029.332500", "132029.792500", "132030.252500", "132030.712500", "132031.172500", "132031.632500", "132032.092500", "132032.552500", "132033.012500", "132033.472500", "132033.932500", "132034.392500", "132034.852500", "132035.312500", "132035.772500", "132036.232500", "132036.692500", "132037.152500", "132037.612500", "132038.072500", "132038.532500", "132038.992500", "132039.452500", "132039.912500", "132040.372500", "132040.832500", "132041.292500", "132041.752500", "132042.212500", "132042.672500", "132043.132500", "132043.592500", "132044.052500", "132044.512500", "132044.972500", "132045.432500", "132045.892500", "132046.352500", "132046.812500", "132047.272500", "132047.732500", "132048.192500", "132048.652500", "132049.112500", "132049.572500", "132050.032500", "132050.492500", "132050.952500", "132051.412500", "132051.872500", "132052.332500", "132052.792500", "132053.252500", "132053.712500", "132054.172500", "132054.632500", "132055.092500", "132055.552500", "132056.012500", "132056.472500", "132056.932500", "132057.392500", "132057.852500", "132058.312500", "132058.772500", "132059.232500", "132059.692500", "132100.152500", "132100.612500", "132101.072500", "132101.532500", "132101.992500", "132102.452500", "132102.912500", "132103.372500", "132103.832500", "132104.292500", "132104.752500", "132105.212500", "132105.672500", "132106.132500", "132106.592500", "132107.052500", "132107.512500", "132107.972500", "132108.432500", "132108.892500", "132109.352500", "132109.812500", "132110.272500", "132110.732500", "132111.192500", "132111.652500", "132112.112500", "132112.572500", "132113.032500", "132113.492500", "132113.952500", "132114.412500", "132114.872500", "132115.332500", "132115.792500", "132116.252500", "132116.712500", "132117.172500", "132117.632500", "132118.092500", "132118.552500", "132119.012500", "132119.472500", "132119.932500", "132120.392500", "132120.852500", "132121.312500", "132121.772500", "132122.232500", "132122.692500", "132123.152500", "132123.612500", "132124.072500", "132124.532500", "132124.992500", "132125.452500", "132125.912500", "132126.372500", "132126.832500", "132127.292500", "132127.752500", "132128.212500", "132128.672500", "132129.132500", "132129.592500", "132130.052500", "132130.512500", "132130.972500", "132131.432500", "132131.892500", "132132.352500", "132132.812500", "132133.272500", "132133.732500", "132134.192500", "132134.652500", "132135.112500", "132135.572500", "132136.032500", "132136.492500", "132136.952500", "132137.412500", "132137.872500", "132138.332500", "132138.792500", "132139.252500", "132139.712500", "132140.172500", "132140.632500", "132141.092500", "132141.552500", "132142.012500", "132142.472500", "132142.932500", "132143.392500", "132143.852500", "132144.312500", "132144.772500", "132145.232500", "132145.692500", "132146.152500", "132146.612500", "132147.072500", "132147.532500", "132147.992500", "132148.452500", "132148.912500", "132149.372500", "132149.832500", "132150.292500", "132150.752500", "132151.212500", "132151.672500", "132152.132500", "132152.592500", "132153.052500", "132153.512500", "132153.972500", "132154.432500", "132154.892500", "132155.352500", "132155.812500", "132156.272500", "132156.732500", "132157.192500", "132157.652500", "132158.112500", "132158.572500", "132159.032500", "132159.492500", "132159.952500", "132200.412500", "132200.872500", "132201.332500", "132201.792500", "132202.252500", "132202.712500", "132203.172500", "132203.632500", "132204.092500", "132204.552500", "132205.012500", "132205.472500", "132205.932500", "132206.392500", "132206.852500", "132207.312500", "132207.772500", "132208.232500", "132208.692500", "132209.152500", "132209.612500", "132210.072500", "132210.532500", "132210.992500", "132211.452500", "132211.912500", "132212.372500", "132212.832500", "132213.292500", "132213.752500", "132214.212500", "132214.672500", "132215.132500", "132215.592500", "132216.052500", "132216.512500", "132216.972500", "132217.432500", "132217.892500", "132218.352500", "132218.812500", "132219.272500", "132219.732500", "132220.192500", "132220.652500", "132221.112500", "132221.572500", "132222.032500", "132222.492500", "132222.952500", "132223.412500", "132223.872500", "132224.332500", "132224.792500", "132225.252500", "132225.712500", "132226.172500", "132226.632500", "132227.092500", "132227.552500", "132228.012500", "132228.472500", "132228.932500", "132229.392500", "132229.852500", "132230.312500"],
