{
  "AcquisitionMatrixPE": 82,
  "AcquisitionNumber": 1,
  "AcquisitionTime": "12:51:48.222500",
  "BandwidthPerPixelPhaseEncode": 24.888,
  "BaseResolution": 82,
  "BodyPartExamined": "BRAIN",
  "ConsistencyInfo": "N4_VE11E_LATEST_20181129",
  "ConversionSoftware": "dcm2niix",
  "ConversionSoftwareVersion": "v1.0.20201102",
  "DerivedVendorReportedEchoSpacing": 0.00049,
  "DeviceSerialNumber": "66112",
  "DwellTime": 2e-06,
  "EchoTime": 0.0272,
  "EchoTrainLength": 82,
  "EffectiveEchoSpacing": 0.00049,
  "FlipAngle": 44,
  "ImageComments": "Unaliased MB8/PE3",
  "ImageOrientationPatientDICOM": [0.995831, 0.0432005, 0.0803443, -0.0391263, 0.9979, -0.0516112],
  "ImageType": [
    "ORIGINAL",
    "PRIMARY",
    "M",
    "MB",
    "ND",
    "NORM",
    "MOSAIC"
],
  "ImagingFrequency": 123.252,
  "InPlanePhaseEncodingDirectionDICOM": "COL",
  "InstitutionAddress": "Maynard 3,Hanover,NH,US,03755",
  "InstitutionName": "Dartmouth College - PBS",
  "InstitutionalDepartmentName": "Department",
  "MRAcquisitionType": "2D",
  "MagneticFieldStrength": 3,
  "Manufacturer": "Siemens",
  "ManufacturersModelName": "Prisma",
  "Modality": "MR",
  "MultibandAccelerationFactor": 8,
  "PartialFourier": 1,
  "PatientPosition": "HFS",
  "PercentPhaseFOV": 100,
  "PercentSampling": 100,
  "PhaseEncodingDirection": "j-",
  "PhaseEncodingSteps": 82,
  "PhaseResolution": 1,
  "PixelBandwidth": 3050,
  "ProcedureStepDescription": "Wager_Wager^1076_spacetop",
  "ProtocolName": "func_run-01_task-faces_acq-ap-mb8",
  "PulseSequenceDetails": "%CustomerSeq%\\cmrr_mbep2d_bold",
  "ReceiveCoilActiveElements": "HEA;HEP",
  "ReceiveCoilName": "Head_32",
  "ReconMatrixPE": 82,
  "RepetitionTime": 0.46,
  "SAR": 0.0867093,
  "ScanOptions": "FS",
  "ScanningSequence": "EP",
  "SequenceName": "epfid2d1_82",
  "SequenceVariant": "SK\\SS",
  "SeriesDescription": "func_run-01_task-faces_acq-ap-mb8",
  "SeriesNumber": 20,
  "ShimSetting": [4169, -7688, -7246, 454, -50, -3, 51, 29],
  "SliceThickness": 2.7,
  "SliceTiming": [0, 0.25, 0.0625, 0.3125, 0.125, 0.3775, 0.1875, 0, 0.25, 0.0625, 0.3125, 0.125, 0.3775, 0.1875, 0, 0.25, 0.0625, 0.3125, 0.125, 0.3775, 0.1875, 0, 0.25, 0.0625, 0.3125, 0.125, 0.3775, 0.1875, 0, 0.25, 0.0625, 0.3125, 0.125, 0.3775, 0.1875, 0, 0.25, 0.0625, 0.3125, 0.125, 0.3775, 0.1875, 0, 0.25, 0.0625, 0.3125, 0.125, 0.3775, 0.1875, 0, 0.25, 0.0625, 0.3125, 0.125, 0.3775, 0.1875],
  "SoftwareVersions": "syngo MR E11",
  "SpacingBetweenSlices": 2.7,
  "StationName": "AWP66112",
  "TaskName": "faces",
  "TotalReadoutTime": 0.03969,
  "TxRefAmp": 226.897,
  "WipMemBlock": "12e6e79e-8286-4505-bb58-a730a0a3a5e9||Sequence: R016 ve11e/master r/434b28f1; Aug  7 2019 18:53:46 by eja",
  "dcmmeta_affine": [
    [-2.6717405319213867, -0.1049729511141777, 0.22249412536621094, 110.5919418334961],
    [-0.1159038171172142, 2.6772940158843994, -0.13028167188167572, -75.78494262695312],
    [0.21555784344673157, 0.1384691596031189, 2.6876611709594727, -81.62056732177734],
    [0.0, 0.0, 0.0, 1.0]
],
  "dcmmeta_reorient_transform": [
    [0.0, -1.0, 0.0, 81.0],
    [1.0, 0.0, 0.0, 0.0],
    [0.0, 0.0, 1.0, 0.0],
    [0.0, 0.0, 0.0, 1.0]
],
  "dcmmeta_shape": [82, 82, 56, 914],
  "dcmmeta_slice_dim": 2,
  "dcmmeta_version": 0.6,
  "global": {
    "const": {
      "AccessionNumber": "A004010",
      "AcquisitionMatrix": [82, 0, 0, 82],
      "AngioFlag": "N",
      "BitsAllocated": 16,
      "BitsStored": 16,
      "BodyPartExamined": "BRAIN",
      "Columns": 656,
      "EchoNumbers": 1,
      "EchoTime": 27.2,
      "EchoTrainLength": 82,
      "FlipAngle": 44.0,
      "HighBit": 15,
      "ImageOrientationPatient": [0.99583056380111, 0.04320051377676, 0.08034428298879, -0.0391262814581, 0.99790050341299, -0.051611233151],
      "ImagePositionPatient": [-838.75145140854, -942.72367885675, -92.529011462013],
      "ImageType": [
        "ORIGINAL",
        "PRIMARY",
        "M",
        "MB",
        "ND",
        "NORM",
        "MOSAIC"
],
      "ImagedNucleus": "1H",
      "ImagingFrequency": 123.252207,
      "InPlanePhaseEncodingDirection": "COL",
      "MRAcquisitionType": "2D",
      "MagneticFieldStrength": 3.0,
      "Manufacturer": "SIEMENS",
      "ManufacturerModelName": "Prisma",
      "Modality": "MR",
      "NumberOfAverages": 1.0,
      "NumberOfPhaseEncodingSteps": 82,
      "PercentPhaseFieldOfView": 100.0,
      "PercentSampling": 100.0,
      "PerformedProcedureStepStartTime": "114215.712000",
      "PhotometricInterpretation": "MONOCHROME2",
      "PixelBandwidth": 3050.0,
      "PixelRepresentation": 0,
      "PixelSpacing": [2.6829268932343, 2.6829268932343],
      "ProtocolName": "func_run-01_task-faces_acq-ap-mb8",
      "RepetitionTime": 460.0,
      "Rows": 656,
      "SAR": 0.08670930613514,
      "SamplesPerPixel": 1,
      "ScanOptions": "FS",
      "ScanningSequence": "EP",
      "SequenceName": "epfid2d1_82",
      "SequenceVariant": [
        "SK",
        "SS"
],
      "SeriesDescription": "func_run-01_task-faces_acq-ap-mb8",
      "SeriesNumber": 20,
      "SeriesTime": "125212.529000",
      "SliceLocation": -68.477401050655,
      "SliceThickness": 2.7000000476837,
      "SmallestImagePixelValue": 0,
      "SoftwareVersions": "syngo MR E11",
      "SpacingBetweenSlices": 2.6999999272198,
      "SpecificCharacterSet": "ISO_IR 100",
      "StudyID": "2",
      "StudyTime": "114215.628000",
      "TransmitCoilName": "Body",
      "VariableFlipAngleFlag": "N",
      "WindowCenterWidthExplanation": "Algo1"
    },
    "slices": {}
  },
  "time": {
    "samples": {
      "AcquisitionNumber": [1, 2, 3, 4, 5, 6, 7, 8, 9, 10, 11, 12, 13, 14, 15, 16, 17, 18, 19, 20, 21, 22, 23, 24, 25, 26, 27, 28, 29, 30, 31, 32, 33, 34, 35, 36, 37, 38, 39, 40, 41, 42, 43, 44, 45, 46, 47, 48, 49, 50, 51, 52, 53, 54, 55, 56, 57, 58, 59, 60, 61, 62, 63, 64, 65, 66, 67, 68, 69, 70, 71, 72, 73, 74, 75, 76, 77, 78, 79, 80, 81, 82, 83, 84, 85, 86, 87, 88, 89, 90, 91, 92, 93, 94, 95, 96, 97, 98, 99, 100, 101, 102, 103, 104, 105, 106, 107, 108, 109, 110, 111, 112, 113, 114, 115, 116, 117, 118, 119, 120, 121, 122, 123, 124, 125, 126, 127, 128, 129, 130, 131, 132, 133, 134, 135, 136, 137, 138, 139, 140, 141, 142, 143, 144, 145, 146, 147, 148, 149, 150, 151, 152, 153, 154, 155, 156, 157, 158, 159, 160, 161, 162, 163, 164, 165, 166, 167, 168, 169, 170, 171, 172, 173, 174, 175, 176, 177, 178, 179, 180, 181, 182, 183, 184, 185, 186, 187, 188, 189, 190, 191, 192, 193, 194, 195, 196, 197, 198, 199, 200, 201, 202, 203, 204, 205, 206, 207, 208, 209, 210, 211, 212, 213, 214, 215, 216, 217, 218, 219, 220, 221, 222, 223, 224, 225, 226, 227, 228, 229, 230, 231, 232, 233, 234, 235, 236, 237, 238, 239, 240, 241, 242, 243, 244, 245, 246, 247, 248, 249, 250, 251, 252, 253, 254, 255, 256, 257, 258, 259, 260, 261, 262, 263, 264, 265, 266, 267, 268, 269, 270, 271, 272, 273, 274, 275, 276, 277, 278, 279, 280, 281, 282, 283, 284, 285, 286, 287, 288, 289, 290, 291, 292, 293, 294, 295, 296, 297, 298, 299, 300, 301, 302, 303, 304, 305, 306, 307, 308, 309, 310, 311, 312, 313, 314, 315, 316, 317, 318, 319, 320, 321, 322, 323, 324, 325, 326, 327, 328, 329, 330, 331, 332, 333, 334, 335, 336, 337, 338, 339, 340, 341, 342, 343, 344, 345, 346, 347, 348, 349, 350, 351, 352, 353, 354, 355, 356, 357, 358, 359, 360, 361, 362, 363, 364, 365, 366, 367, 368, 369, 370, 371, 372, 373, 374, 375, 376, 377, 378, 379, 380, 381, 382, 383, 384, 385, 386, 387, 388, 389, 390, 391, 392, 393, 394, 395, 396, 397, 398, 399, 400, 401, 402, 403, 404, 405, 406, 407, 408, 409, 410, 411, 412, 413, 414, 415, 416, 417, 418, 419, 420, 421, 422, 423, 424, 425, 426, 427, 428, 429, 430, 431, 432, 433, 434, 435, 436, 437, 438, 439, 440, 441, 442, 443, 444, 445, 446, 447, 448, 449, 450, 451, 452, 453, 454, 455, 456, 457, 458, 459, 460, 461, 462, 463, 464, 465, 466, 467, 468, 469, 470, 471, 472, 473, 474, 475, 476, 477, 478, 479, 480, 481, 482, 483, 484, 485, 486, 487, 488, 489, 490, 491, 492, 493, 494, 495, 496, 497, 498, 499, 500, 501, 502, 503, 504, 505, 506, 507, 508, 509, 510, 511, 512, 513, 514, 515, 516, 517, 518, 519, 520, 521, 522, 523, 524, 525, 526, 527, 528, 529, 530, 531, 532, 533, 534, 535, 536, 537, 538, 539, 540, 541, 542, 543, 544, 545, 546, 547, 548, 549, 550, 551, 552, 553, 554, 555, 556, 557, 558, 559, 560, 561, 562, 563, 564, 565, 566, 567, 568, 569, 570, 571, 572, 573, 574, 575, 576, 577, 578, 579, 580, 581, 582, 583, 584, 585, 586, 587, 588, 589, 590, 591, 592, 593, 594, 595, 596, 597, 598, 599, 600, 601, 602, 603, 604, 605, 606, 607, 608, 609, 610, 611, 612, 613, 614, 615, 616, 617, 618, 619, 620, 621, 622, 623, 624, 625, 626, 627, 628, 629, 630, 631, 632, 633, 634, 635, 636, 637, 638, 639, 640, 641, 642, 643, 644, 645, 646, 647, 648, 649, 650, 651, 652, 653, 654, 655, 656, 657, 658, 659, 660, 661, 662, 663, 664, 665, 666, 667, 668, 669, 670, 671, 672, 673, 674, 675, 676, 677, 678, 679, 680, 681, 682, 683, 684, 685, 686, 687, 688, 689, 690, 691, 692, 693, 694, 695, 696, 697, 698, 699, 700, 701, 702, 703, 704, 705, 706, 707, 708, 709, 710, 711, 712, 713, 714, 715, 716, 717, 718, 719, 720, 721, 722, 723, 724, 725, 726, 727, 728, 729, 730, 731, 732, 733, 734, 735, 736, 737, 738, 739, 740, 741, 742, 743, 744, 745, 746, 747, 748, 749, 750, 751, 752, 753, 754, 755, 756, 757, 758, 759, 760, 761, 762, 763, 764, 765, 766, 767, 768, 769, 770, 771, 772, 773, 774, 775, 776, 777, 778, 779, 780, 781, 782, 783, 784, 785, 786, 787, 788, 789, 790, 791, 792, 793, 794, 795, 796, 797, 798, 799, 800, 801, 802, 803, 804, 805, 806, 807, 808, 809, 810, 811, 812, 813, 814, 815, 816, 817, 818, 819, 820, 821, 822, 823, 824, 825, 826, 827, 828, 829, 830, 831, 832, 833, 834, 835, 836, 837, 838, 839, 840, 841, 842, 843, 844, 845, 846, 847, 848, 849, 850, 851, 852, 853, 854, 855, 856, 857, 858, 859, 860, 861, 862, 863, 864, 865, 866, 867, 868, 869, 870, 871, 872, 873, 874, 875, 876, 877, 878, 879, 880, 881, 882, 883, 884, 885, 886, 887, 888, 889, 890, 891, 892, 893, 894, 895, 896, 897, 898, 899, 900, 901, 902, 903, 904, 905, 906, 907, 908, 909, 910, 911, 912, 913, 914],
      "AcquisitionTime": ["125148.222500", "125148.682500", "125149.142500", "125149.602500", "125150.062500", "125150.522500", "125150.982500", "125151.442500", "125151.902500", "125152.362500", "125152.822500", "125153.282500", "125153.742500", "125154.202500", "125154.662500", "125155.122500", "125155.582500", "125156.042500", "125156.502500", "125156.962500", "125157.422500", "125157.882500", "125158.342500", "125158.802500", "125159.262500", "125159.722500", "125200.182500", "125200.642500", "125201.102500", "125201.562500", "125202.022500", "125202.482500", "125202.942500", "125203.402500", "125203.862500", "125204.322500", "125204.782500", "125205.242500", "125205.702500", "125206.162500", "125206.622500", "125207.082500", "125207.542500", "125208.002500", "125208.462500", "125208.922500", "125209.382500", "125209.842500", "125210.302500", "125210.762500", "125211.222500", "125211.682500", "125212.142500", "125212.602500", "125213.062500", "125213.522500", "125213.982500", "125214.442500", "125214.902500", "125215.362500", "125215.822500", "125216.282500", "125216.742500", "125217.202500", "125217.662500", "125218.122500", "125218.582500", "125219.042500", "125219.502500", "125219.962500", "125220.422500", "125220.882500", "125221.342500", "125221.802500", "125222.262500", "125222.722500", "125223.182500", "125223.642500", "125224.102500", "125224.562500", "125225.022500", "125225.482500", "125225.942500", "125226.402500", "125226.862500", "125227.322500", "125227.782500", "125228.242500", "125228.702500", "125229.162500", "125229.622500", "125230.082500", "125230.542500", "125231.002500", "125231.462500", "125231.922500", "125232.382500", "125232.842500", "125233.302500", "125233.762500", "125234.222500", "125234.682500", "125235.142500", "125235.602500", "125236.062500", "125236.522500", "125236.982500", "125237.442500", "125237.902500", "125238.362500", "125238.822500", "125239.282500", "125239.742500", "125240.202500", "125240.662500", "125241.122500", "125241.582500", "125242.042500", "125242.502500", "125242.962500", "125243.422500", "125243.882500", "125244.342500", "125244.802500", "125245.262500", "125245.722500", "125246.182500", "125246.642500", "125247.102500", "125247.562500", "125248.022500", "125248.482500", "125248.942500", "125249.402500", "125249.862500", "125250.322500", "125250.782500", "125251.242500", "125251.702500", "125252.162500", "125252.622500", "125253.082500", "125253.542500", "125254.002500", "125254.462500", "125254.922500", "125255.382500", "125255.842500", "125256.302500", "125256.762500", "125257.222500", "125257.682500", "125258.142500", "125258.602500", "125259.062500", "125259.522500", "125259.982500", "125300.442500", "125300.902500", "125301.362500", "125301.822500", "125302.282500", "125302.742500", "125303.202500", "125303.662500", "125304.122500", "125304.582500", "125305.042500", "125305.502500", "125305.962500", "125306.422500", "125306.882500", "125307.342500", "125307.802500", "125308.262500", "125308.722500", "125309.182500", "125309.642500", "125310.102500", "125310.562500", "125311.022500", "125311.482500", "125311.942500", "125312.402500", "125312.862500", "125313.322500", "125313.782500", "125314.242500", "125314.702500", "125315.162500", "125315.622500", "125316.082500", "125316.542500", "125317.002500", "125317.462500", "125317.922500", "125318.382500", "125318.842500", "125319.302500", "125319.762500", "125320.222500", "125320.682500", "125321.142500", "125321.602500", "125322.062500", "125322.522500", "125322.982500", "125323.442500", "125323.902500", "125324.362500", "125324.822500", "125325.282500", "125325.742500", "125326.202500", "125326.662500", "125327.122500", "125327.582500", "125328.042500", "125328.502500", "125328.962500", "125329.422500", "125329.882500", "125330.342500", "125330.802500", "125331.262500", "125331.722500", "125332.182500", "125332.642500", "125333.102500", "125333.562500", "125334.022500", "125334.482500", "125334.942500", "125335.402500", "125335.862500", "125336.322500", "125336.782500", "125337.242500", "125337.702500", "125338.162500", "125338.622500", "125339.082500", "125339.542500", "125340.002500", "125340.462500", "125340.922500", "125341.382500", "125341.842500", "125342.302500", "125342.762500", "125343.222500", "125343.682500", "125344.142500", "125344.602500", "125345.062500", "125345.522500", "125345.982500", "125346.442500", "125346.902500", "125347.362500", "125347.822500", "125348.282500", "125348.742500", "125349.202500", "125349.662500", "125350.122500", "125350.582500", "125351.042500", "125351.502500", "125351.962500", "125352.422500", "125352.882500", "125353.342500", "125353.802500", "125354.262500", "125354.722500", "125355.182500", "125355.642500", "125356.102500", "125356.562500", "125357.022500", "125357.482500", "125357.942500", "125358.402500", "125358.862500", "125359.322500", "125359.782500", "125400.242500", "125400.702500", "125401.162500", "125401.622500", "125402.082500", "125402.542500", "125403.002500", "125403.462500", "125403.922500", "125404.382500", "125404.842500", "125405.302500", "125405.762500", "125406.222500", "125406.682500", "125407.142500", "125407.602500", "125408.062500", "125408.522500", "125408.982500", "125409.442500", "125409.902500", "125410.362500", "125410.822500", "125411.282500", "125411.742500", "125412.202500", "125412.662500", "125413.122500", "125413.582500", "125414.042500", "125414.502500", "125414.962500", "125415.422500", "125415.882500", "125416.342500", "125416.802500", "125417.262500", "125417.722500", "125418.182500", "125418.642500", "125419.102500", "125419.562500", "125420.022500", "125420.482500", "125420.942500", "125421.402500", "125421.862500", "125422.322500", "125422.782500", "125423.242500", "125423.702500", "125424.162500", "125424.622500", "125425.082500", "125425.542500", "125426.002500", "125426.462500", "125426.922500", "125427.382500", "125427.842500", "125428.302500", "125428.762500", "125429.222500", "125429.682500", "125430.142500", "125430.602500", "125431.062500", "125431.522500", "125431.982500", "125432.442500", "125432.902500", "125433.362500", "125433.822500", "125434.282500", "125434.742500", "125435.202500", "125435.662500", "125436.122500", "125436.582500", "125437.042500", "125437.502500", "125437.962500", "125438.422500", "125438.882500", "125439.342500", "125439.802500", "125440.262500", "125440.722500", "125441.182500", "125441.642500", "125442.102500", "125442.562500", "125443.022500", "125443.482500", "125443.942500", "125444.402500", "125444.862500", "125445.322500", "125445.782500", "125446.242500", "125446.702500", "125447.162500", "125447.622500", "125448.082500", "125448.542500", "125449.002500", "125449.462500", "125449.922500", "125450.382500", "125450.842500", "125451.302500", "125451.762500", "125452.222500", "125452.682500", "125453.142500", "125453.602500", "125454.062500", "125454.522500", "125454.982500", "125455.442500", "125455.902500", "125456.362500", "125456.822500", "125457.282500", "125457.742500", "125458.202500", "125458.662500", "125459.122500", "125459.582500", "125500.042500", "125500.502500", "125500.962500", "125501.422500", "125501.882500", "125502.342500", "125502.802500", "125503.262500", "125503.722500", "125504.182500", "125504.642500", "125505.102500", "125505.562500", "125506.022500", "125506.482500", "125506.942500", "125507.402500", "125507.862500", "125508.322500", "125508.782500", "125509.242500", "125509.702500", "125510.162500", "125510.622500", "125511.082500", "125511.542500", "125512.002500", "125512.462500", "125512.922500", "125513.382500", "125513.842500", "125514.302500", "125514.762500", "125515.222500", "125515.682500", "125516.142500", "125516.602500", "125517.062500", "125517.522500", "125517.982500", "125518.442500", "125518.902500", "125519.362500", "125519.822500", "125520.282500", "125520.742500", "125521.202500", "125521.662500", "125522.122500", "125522.582500", "125523.042500", "125523.502500", "125523.962500", "125524.422500", "125524.882500", "125525.342500", "125525.802500", "125526.262500", "125526.722500", "125527.182500", "125527.642500", "125528.102500", "125528.562500", "125529.022500", "125529.482500", "125529.942500", "125530.402500", "125530.862500", "125531.322500", "125531.782500", "125532.242500", "125532.702500", "125533.162500", "125533.622500", "125534.082500", "125534.542500", "125535.002500", "125535.462500", "125535.922500", "125536.382500", "125536.842500", "125537.302500", "125537.762500", "125538.222500", "125538.682500", "125539.142500", "125539.602500", "125540.062500", "125540.522500", "125540.982500", "125541.442500", "125541.902500", "125542.362500", "125542.822500", "125543.282500", "125543.742500", "125544.202500", "125544.662500", "125545.122500", "125545.582500", "125546.042500", "125546.502500", "125546.962500", "125547.422500", "125547.882500", "125548.342500", "125548.802500", "125549.262500", "125549.722500", "125550.182500", "125550.642500", "125551.102500", "125551.562500", "125552.022500", "125552.482500", "125552.942500", "125553.402500", "125553.862500", "125554.322500", "125554.782500", "125555.242500", "125555.702500", "125556.162500", "125556.622500", "125557.082500", "125557.542500", "125558.002500", "125558.462500", "125558.922500", "125559.382500", "125559.842500", "125600.302500", "125600.762500", "125601.222500", "125601.682500", "125602.142500", "125602.602500", "125603.062500", "125603.522500", "125603.982500", "125604.442500", "125604.902500", "125605.362500", "125605.822500", "125606.282500", "125606.742500", "125607.202500", "125607.662500", "125608.122500", "125608.582500", "125609.042500", "125609.502500", "125609.962500", "125610.422500", "125610.882500", "125611.342500", "125611.802500", "125612.262500", "125612.722500", "125613.182500", "125613.642500", "125614.102500", "125614.562500", "125615.022500", "125615.482500", "125615.942500", "125616.402500", "125616.862500", "125617.322500", "125617.782500", "125618.242500", "125618.702500", "125619.162500", "125619.622500", "125620.082500", "125620.542500", "125621.002500", "125621.462500", "125621.922500", "125622.382500", "125622.842500", "125623.302500", "125623.762500", "125624.222500", "125624.682500", "125625.142500", "125625.602500", "125626.062500", "125626.522500", "125626.982500", "125627.442500", "125627.902500", "125628.362500", "125628.822500", "125629.282500", "125629.742500", "125630.202500", "125630.662500", "125631.122500", "125631.582500", "125632.042500", "125632.502500", "125632.962500", "125633.422500", "125633.882500", "125634.342500", "125634.802500", "125635.262500", "125635.722500", "125636.182500", "125636.642500", "125637.102500", "125637.562500", "125638.022500", "125638.482500", "125638.942500", "125639.402500", "125639.862500", "125640.322500", "125640.782500", "125641.242500", "125641.702500", "125642.162500", "125642.622500", "125643.082500", "125643.542500", "125644.002500", "125644.462500", "125644.922500", "125645.382500", "125645.842500", "125646.302500", "125646.762500", "125647.222500", "125647.682500", "125648.142500", "125648.602500", "125649.062500", "125649.522500", "125649.982500", "125650.442500", "125650.902500", "125651.362500", "125651.822500", "125652.282500", "125652.742500", "125653.202500", "125653.662500", "125654.122500", "125654.582500", "125655.042500", "125655.502500", "125655.962500", "125656.422500", "125656.882500", "125657.342500", "125657.802500", "125658.262500", "125658.722500", "125659.182500", "125659.642500", "125700.102500", "125700.562500", "125701.022500", "125701.482500", "125701.942500", "125702.402500", "125702.862500", "125703.322500", "125703.782500", "125704.242500", "125704.702500", "125705.162500", "125705.622500", "125706.082500", "125706.542500", "125707.002500", "125707.462500", "125707.922500", "125708.382500", "125708.842500", "125709.302500", "125709.762500", "125710.222500", "125710.682500", "125711.142500", "125711.602500", "125712.062500", "125712.522500", "125712.982500", "125713.442500", "125713.902500", "125714.362500", "125714.822500", "125715.282500", "125715.742500", "125716.202500", "125716.662500", "125717.122500", "125717.582500", "125718.042500", "125718.502500", "125718.962500", "125719.422500", "125719.882500", "125720.342500", "125720.802500", "125721.262500", "125721.722500", "125722.182500", "125722.642500", "125723.102500", "125723.562500", "125724.022500", "125724.482500", "125724.942500", "125725.402500", "125725.862500", "125726.322500", "125726.782500", "125727.242500", "125727.702500", "125728.162500", "125728.622500", "125729.082500", "125729.542500", "125730.002500", "125730.462500", "125730.922500", "125731.382500", "125731.842500", "125732.302500", "125732.762500", "125733.222500", "125733.682500", "125734.142500", "125734.602500", "125735.062500", "125735.522500", "125735.982500", "125736.442500", "125736.902500", "125737.362500", "125737.822500", "125738.282500", "125738.742500", "125739.202500", "125739.662500", "125740.122500", "125740.582500", "125741.042500", "125741.502500", "125741.962500", "125742.422500", "125742.882500", "125743.342500", "125743.802500", "125744.262500", "125744.722500", "125745.182500", "125745.642500", "125746.102500", "125746.562500", "125747.022500", "125747.482500", "125747.942500", "125748.402500", "125748.862500", "125749.322500", "125749.782500", "125750.242500", "125750.702500", "125751.162500", "125751.622500", "125752.082500", "125752.542500", "125753.002500", "125753.462500", "125753.922500", "125754.382500", "125754.842500", "125755.302500", "125755.762500", "125756.222500", "125756.682500", "125757.142500", "125757.602500", "125758.062500", "125758.522500", "125758.982500", "125759.442500", "125759.902500", "125800.362500", "125800.822500", "125801.282500", "125801.742500", "125802.202500", "125802.662500", "125803.122500", "125803.582500", "125804.042500", "125804.502500", "125804.962500", "125805.422500", "125805.882500", "125806.342500", "125806.802500", "125807.262500", "125807.722500", "125808.182500", "125808.642500", "125809.102500", "125809.562500", "125810.022500", "125810.482500", "125810.942500", "125811.402500", "125811.862500", "125812.322500", "125812.782500", "125813.242500", "125813.702500", "125814.162500", "125814.622500", "125815.082500", "125815.542500", "125816.002500", "125816.462500", "125816.922500", "125817.382500", "125817.842500", "125818.302500", "125818.762500", "125819.222500", "125819.682500", "125820.142500", "125820.602500", "125821.062500", "125821.522500", "125821.982500", "125822.442500", "125822.902500", "125823.362500", "125823.822500", "125824.282500", "125824.742500", "125825.202500", "125825.662500", "125826.122500", "125826.582500", "125827.042500", "125827.502500", "125827.962500", "125828.422500", "125828.882500", "125829.342500", "125829.802500", "125830.262500", "125830.722500", "125831.182500", "125831.642500", "125832.102500", "125832.562500", "125833.022500", "125833.482500", "125833.942500", "125834.402500", "125834.862500", "125835.322500", "125835.782500", "125836.242500", "125836.702500", "125837.162500", "125837.622500", "125838.082500", "125838.542500", "125839.002500", "125839.462500", "125839.922500", "125840.382500", "125840.842500", "125841.302500", "125841.762500", "125842.222500", "125842.682500", "125843.142500", "125843.602500", "125844.062500", "125844.522500", "125844.982500", "125845.442500", "125845.902500", "125846.362500", "125846.822500", "125847.282500", "125847.742500", "125848.202500"],
