{
  "AcquisitionMatrixPE": 82,
  "AcquisitionNumber": 1,
  "AcquisitionTime": "13:47:0.220000",
  "BandwidthPerPixelPhaseEncode": 24.888,
  "BaseResolution": 82,
  "BodyPartExamined": "BRAIN",
  "ConsistencyInfo": "N4_VE11E_LATEST_20181129",
  "ConversionSoftware": "dcm2niix",
  "ConversionSoftwareVersion": "v1.0.20201102",
  "DerivedVendorReportedEchoSpacing": 0.00049,
  "DeviceSerialNumber": "66112",
  "DwellTime": 2e-06,
  "EchoTime": 0.0272,
  "EchoTrainLength": 82,
  "EffectiveEchoSpacing": 0.00049,
  "FlipAngle": 44,
  "ImageComments": "Unaliased MB8/PE3",
  "ImageOrientationPatientDICOM": [0.99785, 0.0328139, 0.0567345, -0.0304871, 0.998677, -0.0414031],
  "ImageType": [
    "ORIGINAL",
    "PRIMARY",
    "M",
    "MB",
    "ND",
    "NORM",
    "MOSAIC"
],
  "ImagingFrequency": 123.252,
  "InPlanePhaseEncodingDirectionDICOM": "COL",
  "InstitutionAddress": "Maynard 3,Hanover,NH,US,03755",
  "InstitutionName": "Dartmouth College - PBS",
  "InstitutionalDepartmentName": "Department",
  "MRAcquisitionType": "2D",
  "MagneticFieldStrength": 3,
  "Manufacturer": "Siemens",
  "ManufacturersModelName": "Prisma",
  "Modality": "MR",
  "MultibandAccelerationFactor": 8,
  "PartialFourier": 1,
  "PatientPosition": "HFS",
  "PercentPhaseFOV": 100,
  "PercentSampling": 100,
  "PhaseEncodingDirection": "j-",
  "PhaseEncodingSteps": 82,
  "PhaseResolution": 1,
  "PixelBandwidth": 3050,
  "ProcedureStepDescription": "Wager_Wager^1076_spacetop",
  "ProtocolName": "func_run-04_task-alignvideo_acq-ap-mb8",
  "PulseSequenceDetails": "%CustomerSeq%\\cmrr_mbep2d_bold",
  "ReceiveCoilActiveElements": "HEA;HEP",
  "ReceiveCoilName": "Head_32",
  "ReconMatrixPE": 82,
  "RepetitionTime": 0.46,
  "SAR": 0.0867093,
  "ScanOptions": "FS",
  "ScanningSequence": "EP",
  "SequenceName": "epfid2d1_82",
  "SequenceVariant": "SK\\SS",
  "SeriesDescription": "func_run-04_task-alignvideo_acq-ap-mb8",
  "SeriesNumber": 38,
  "ShimSetting": [4170, -7691, -7244, 452, -52, -22, 52, 26],
  "SliceThickness": 2.7,
  "SliceTiming": [0, 0.2525, 0.0625, 0.315, 0.1275, 0.3775, 0.19, 0, 0.2525, 0.0625, 0.315, 0.1275, 0.3775, 0.19, 0, 0.2525, 0.0625, 0.315, 0.1275, 0.3775, 0.19, 0, 0.2525, 0.0625, 0.315, 0.1275, 0.3775, 0.19, 0, 0.2525, 0.0625, 0.315, 0.1275, 0.3775, 0.19, 0, 0.2525, 0.0625, 0.315, 0.1275, 0.3775, 0.19, 0, 0.2525, 0.0625, 0.315, 0.1275, 0.3775, 0.19, 0, 0.2525, 0.0625, 0.315, 0.1275, 0.3775, 0.19],
  "SoftwareVersions": "syngo MR E11",
  "SpacingBetweenSlices": 2.7,
  "StationName": "AWP66112",
  "TaskName": "alignvideo",
  "TotalReadoutTime": 0.03969,
  "TxRefAmp": 226.897,
  "WipMemBlock": "00fe5092-a6eb-46af-834c-f4bcfa9b3cc8||Sequence: R016 ve11e/master r/434b28f1; Aug  7 2019 18:53:46 by eja",
  "dcmmeta_affine": [
    [-2.6771583557128906, -0.08179459720849991, 0.1566486358642578, 111.93319702148438],
    [-0.08803732693195343, 2.679378032684326, -0.10687783360481262, -78.47505950927734],
    [0.1522144079208374, 0.11108141392469406, 2.6933321952819824, -80.84291076660156],
    [0.0, 0.0, 0.0, 1.0]
],
  "dcmmeta_reorient_transform": [
    [0.0, -1.0, 0.0, 81.0],
    [1.0, 0.0, 0.0, 0.0],
    [0.0, 0.0, 1.0, 0.0],
    [0.0, 0.0, 0.0, 1.0]
],
  "dcmmeta_shape": [82, 82, 56, 914],
  "dcmmeta_slice_dim": 2,
  "dcmmeta_version": 0.6,
  "global": {
    "const": {
      "AccessionNumber": "A004010",
      "AcquisitionMatrix": [82, 0, 0, 82],
      "AngioFlag": "N",
      "BitsAllocated": 16,
      "BitsStored": 16,
      "BodyPartExamined": "BRAIN",
      "Columns": 656,
      "EchoNumbers": 1,
      "EchoTime": 27.2,
      "EchoTrainLength": 82,
      "FlipAngle": 44.0,
      "HighBit": 15,
      "ImageOrientationPatient": [0.99784991270981, 0.03281391203671, 0.05673445938643, -0.0304870776033, 0.99867728706567, -0.04140307233],
      "ImagePositionPatient": [-850.17723663278, -932.80281678389, -83.650487813623],
      "ImageType": [
        "ORIGINAL",
        "PRIMARY",
        "M",
        "MB",
        "ND",
        "NORM",
        "MOSAIC"
],
      "ImagedNucleus": "1H",
      "ImagingFrequency": 123.252219,
      "InPlanePhaseEncodingDirection": "COL",
      "MRAcquisitionType": "2D",
      "MagneticFieldStrength": 3.0,
      "Manufacturer": "SIEMENS",
      "ManufacturerModelName": "Prisma",
      "Modality": "MR",
      "NumberOfAverages": 1.0,
      "NumberOfPhaseEncodingSteps": 82,
      "PercentPhaseFieldOfView": 100.0,
      "PercentSampling": 100.0,
      "PerformedProcedureStepStartTime": "114215.712000",
      "PhotometricInterpretation": "MONOCHROME2",
      "PixelBandwidth": 3050.0,
      "PixelRepresentation": 0,
      "PixelSpacing": [2.6829268932343, 2.6829268932343],
      "ProtocolName": "func_run-04_task-alignvideo_acq-ap-mb8",
      "RepetitionTime": 460.0,
      "Rows": 656,
      "SAR": 0.08670930613514,
      "SamplesPerPixel": 1,
      "ScanOptions": "FS",
      "ScanningSequence": "EP",
      "SequenceName": "epfid2d1_82",
      "SequenceVariant": [
        "SK",
        "SS"
],
      "SeriesDescription": "func_run-04_task-alignvideo_acq-ap-mb8",
      "SeriesNumber": 38,
      "SeriesTime": "134712.556000",
      "SliceLocation": -71.042739613472,
      "SliceThickness": 2.7000000476837,
      "SmallestImagePixelValue": 0,
      "SoftwareVersions": "syngo MR E11",
      "SpacingBetweenSlices": 2.6999999872273,
      "SpecificCharacterSet": "ISO_IR 100",
      "StudyID": "2",
      "StudyTime": "114215.628000",
      "TransmitCoilName": "Body",
      "VariableFlipAngleFlag": "N",
      "WindowCenterWidthExplanation": "Algo1"
    },
    "slices": {}
  },
  "time": {
    "samples": {
      "AcquisitionNumber": [1, 2, 3, 4, 5, 6, 7, 8, 9, 10, 11, 12, 13, 14, 15, 16, 17, 18, 19, 20, 21, 22, 23, 24, 25, 26, 27, 28, 29, 30, 31, 32, 33, 34, 35, 36, 37, 38, 39, 40, 41, 42, 43, 44, 45, 46, 47, 48, 49, 50, 51, 52, 53, 54, 55, 56, 57, 58, 59, 60, 61, 62, 63, 64, 65, 66, 67, 68, 69, 70, 71, 72, 73, 74, 75, 76, 77, 78, 79, 80, 81, 82, 83, 84, 85, 86, 87, 88, 89, 90, 91, 92, 93, 94, 95, 96, 97, 98, 99, 100, 101, 102, 103, 104, 105, 106, 107, 108, 109, 110, 111, 112, 113, 114, 115, 116, 117, 118, 119, 120, 121, 122, 123, 124, 125, 126, 127, 128, 129, 130, 131, 132, 133, 134, 135, 136, 137, 138, 139, 140, 141, 142, 143, 144, 145, 146, 147, 148, 149, 150, 151, 152, 153, 154, 155, 156, 157, 158, 159, 160, 161, 162, 163, 164, 165, 166, 167, 168, 169, 170, 171, 172, 173, 174, 175, 176, 177, 178, 179, 180, 181, 182, 183, 184, 185, 186, 187, 188, 189, 190, 191, 192, 193, 194, 195, 196, 197, 198, 199, 200, 201, 202, 203, 204, 205, 206, 207, 208, 209, 210, 211, 212, 213, 214, 215, 216, 217, 218, 219, 220, 221, 222, 223, 224, 225, 226, 227, 228, 229, 230, 231, 232, 233, 234, 235, 236, 237, 238, 239, 240, 241, 242, 243, 244, 245, 246, 247, 248, 249, 250, 251, 252, 253, 254, 255, 256, 257, 258, 259, 260, 261, 262, 263, 264, 265, 266, 267, 268, 269, 270, 271, 272, 273, 274, 275, 276, 277, 278, 279, 280, 281, 282, 283, 284, 285, 286, 287, 288, 289, 290, 291, 292, 293, 294, 295, 296, 297, 298, 299, 300, 301, 302, 303, 304, 305, 306, 307, 308, 309, 310, 311, 312, 313, 314, 315, 316, 317, 318, 319, 320, 321, 322, 323, 324, 325, 326, 327, 328, 329, 330, 331, 332, 333, 334, 335, 336, 337, 338, 339, 340, 341, 342, 343, 344, 345, 346, 347, 348, 349, 350, 351, 352, 353, 354, 355, 356, 357, 358, 359, 360, 361, 362, 363, 364, 365, 366, 367, 368, 369, 370, 371, 372, 373, 374, 375, 376, 377, 378, 379, 380, 381, 382, 383, 384, 385, 386, 387, 388, 389, 390, 391, 392, 393, 394, 395, 396, 397, 398, 399, 400, 401, 402, 403, 404, 405, 406, 407, 408, 409, 410, 411, 412, 413, 414, 415, 416, 417, 418, 419, 420, 421, 422, 423, 424, 425, 426, 427, 428, 429, 430, 431, 432, 433, 434, 435, 436, 437, 438, 439, 440, 441, 442, 443, 444, 445, 446, 447, 448, 449, 450, 451, 452, 453, 454, 455, 456, 457, 458, 459, 460, 461, 462, 463, 464, 465, 466, 467, 468, 469, 470, 471, 472, 473, 474, 475, 476, 477, 478, 479, 480, 481, 482, 483, 484, 485, 486, 487, 488, 489, 490, 491, 492, 493, 494, 495, 496, 497, 498, 499, 500, 501, 502, 503, 504, 505, 506, 507, 508, 509, 510, 511, 512, 513, 514, 515, 516, 517, 518, 519, 520, 521, 522, 523, 524, 525, 526, 527, 528, 529, 530, 531, 532, 533, 534, 535, 536, 537, 538, 539, 540, 541, 542, 543, 544, 545, 546, 547, 548, 549, 550, 551, 552, 553, 554, 555, 556, 557, 558, 559, 560, 561, 562, 563, 564, 565, 566, 567, 568, 569, 570, 571, 572, 573, 574, 575, 576, 577, 578, 579, 580, 581, 582, 583, 584, 585, 586, 587, 588, 589, 590, 591, 592, 593, 594, 595, 596, 597, 598, 599, 600, 601, 602, 603, 604, 605, 606, 607, 608, 609, 610, 611, 612, 613, 614, 615, 616, 617, 618, 619, 620, 621, 622, 623, 624, 625, 626, 627, 628, 629, 630, 631, 632, 633, 634, 635, 636, 637, 638, 639, 640, 641, 642, 643, 644, 645, 646, 647, 648, 649, 650, 651, 652, 653, 654, 655, 656, 657, 658, 659, 660, 661, 662, 663, 664, 665, 666, 667, 668, 669, 670, 671, 672, 673, 674, 675, 676, 677, 678, 679, 680, 681, 682, 683, 684, 685, 686, 687, 688, 689, 690, 691, 692, 693, 694, 695, 696, 697, 698, 699, 700, 701, 702, 703, 704, 705, 706, 707, 708, 709, 710, 711, 712, 713, 714, 715, 716, 717, 718, 719, 720, 721, 722, 723, 724, 725, 726, 727, 728, 729, 730, 731, 732, 733, 734, 735, 736, 737, 738, 739, 740, 741, 742, 743, 744, 745, 746, 747, 748, 749, 750, 751, 752, 753, 754, 755, 756, 757, 758, 759, 760, 761, 762, 763, 764, 765, 766, 767, 768, 769, 770, 771, 772, 773, 774, 775, 776, 777, 778, 779, 780, 781, 782, 783, 784, 785, 786, 787, 788, 789, 790, 791, 792, 793, 794, 795, 796, 797, 798, 799, 800, 801, 802, 803, 804, 805, 806, 807, 808, 809, 810, 811, 812, 813, 814, 815, 816, 817, 818, 819, 820, 821, 822, 823, 824, 825, 826, 827, 828, 829, 830, 831, 832, 833, 834, 835, 836, 837, 838, 839, 840, 841, 842, 843, 844, 845, 846, 847, 848, 849, 850, 851, 852, 853, 854, 855, 856, 857, 858, 859, 860, 861, 862, 863, 864, 865, 866, 867, 868, 869, 870, 871, 872, 873, 874, 875, 876, 877, 878, 879, 880, 881, 882, 883, 884, 885, 886, 887, 888, 889, 890, 891, 892, 893, 894, 895, 896, 897, 898, 899, 900, 901, 902, 903, 904, 905, 906, 907, 908, 909, 910, 911, 912, 913, 914],
      "AcquisitionTime": ["134700.220000", "134700.680000", "134701.140000", "134701.600000", "134702.060000", "134702.520000", "134702.980000", "134703.440000", "134703.900000", "134704.360000", "134704.820000", "134705.280000", "134705.740000", "134706.200000", "134706.660000", "134707.120000", "134707.580000", "134708.040000", "134708.500000", "134708.960000", "134709.420000", "134709.880000", "134710.340000", "134710.800000", "134711.260000", "134711.720000", "134712.180000", "134712.640000", "134713.100000", "134713.560000", "134714.020000", "134714.480000", "134714.940000", "134715.400000", "134715.860000", "134716.320000", "134716.780000", "134717.240000", "134717.700000", "134718.160000", "134718.620000", "134719.080000", "134719.540000", "134720.000000", "134720.460000", "134720.920000", "134721.380000", "134721.840000", "134722.300000", "134722.760000", "134723.220000", "134723.680000", "134724.140000", "134724.600000", "134725.060000", "134725.520000", "134725.980000", "134726.440000", "134726.900000", "134727.360000", "134727.820000", "134728.280000", "134728.740000", "134729.200000", "134729.660000", "134730.120000", "134730.580000", "134731.040000", "134731.500000", "134731.960000", "134732.420000", "134732.880000", "134733.340000", "134733.800000", "134734.260000", "134734.720000", "134735.180000", "134735.640000", "134736.100000", "134736.560000", "134737.020000", "134737.480000", "134737.940000", "134738.400000", "134738.860000", "134739.320000", "134739.780000", "134740.240000", "134740.700000", "134741.160000", "134741.620000", "134742.080000", "134742.540000", "134743.000000", "134743.460000", "134743.920000", "134744.380000", "134744.840000", "134745.300000", "134745.760000", "134746.220000", "134746.680000", "134747.140000", "134747.600000", "134748.060000", "134748.520000", "134748.980000", "134749.440000", "134749.900000", "134750.360000", "134750.820000", "134751.280000", "134751.740000", "134752.200000", "134752.660000", "134753.120000", "134753.580000", "134754.040000", "134754.500000", "134754.960000", "134755.420000", "134755.880000", "134756.340000", "134756.800000", "134757.260000", "134757.720000", "134758.180000", "134758.640000", "134759.100000", "134759.560000", "134800.020000", "134800.480000", "134800.940000", "134801.400000", "134801.860000", "134802.320000", "134802.780000", "134803.240000", "134803.700000", "134804.160000", "134804.620000", "134805.080000", "134805.540000", "134806.000000", "134806.460000", "134806.920000", "134807.380000", "134807.840000", "134808.300000", "134808.760000", "134809.220000", "134809.680000", "134810.140000", "134810.600000", "134811.060000", "134811.520000", "134811.980000", "134812.440000", "134812.900000", "134813.360000", "134813.820000", "134814.280000", "134814.740000", "134815.200000", "134815.660000", "134816.120000", "134816.580000", "134817.040000", "134817.500000", "134817.960000", "134818.420000", "134818.880000", "134819.340000", "134819.800000", "134820.260000", "134820.720000", "134821.180000", "134821.640000", "134822.100000", "134822.560000", "134823.020000", "134823.480000", "134823.940000", "134824.400000", "134824.860000", "134825.320000", "134825.780000", "134826.240000", "134826.700000", "134827.160000", "134827.620000", "134828.080000", "134828.540000", "134829.000000", "134829.460000", "134829.920000", "134830.380000", "134830.840000", "134831.300000", "134831.760000", "134832.220000", "134832.680000", "134833.140000", "134833.600000", "134834.060000", "134834.520000", "134834.980000", "134835.440000", "134835.900000", "134836.360000", "134836.820000", "134837.280000", "134837.740000", "134838.200000", "134838.660000", "134839.120000", "134839.580000", "134840.040000", "134840.500000", "134840.960000", "134841.420000", "134841.880000", "134842.340000", "134842.800000", "134843.260000", "134843.720000", "134844.180000", "134844.640000", "134845.100000", "134845.560000", "134846.020000", "134846.480000", "134846.940000", "134847.400000", "134847.860000", "134848.320000", "134848.780000", "134849.240000", "134849.700000", "134850.160000", "134850.620000", "134851.080000", "134851.540000", "134852.000000", "134852.460000", "134852.920000", "134853.380000", "134853.840000", "134854.300000", "134854.760000", "134855.220000", "134855.680000", "134856.140000", "134856.600000", "134857.060000", "134857.520000", "134857.980000", "134858.440000", "134858.900000", "134859.360000", "134859.820000", "134900.280000", "134900.740000", "134901.200000", "134901.660000", "134902.120000", "134902.580000", "134903.040000", "134903.500000", "134903.960000", "134904.420000", "134904.880000", "134905.340000", "134905.800000", "134906.260000", "134906.720000", "134907.180000", "134907.640000", "134908.100000", "134908.560000", "134909.020000", "134909.480000", "134909.940000", "134910.400000", "134910.860000", "134911.320000", "134911.780000", "134912.240000", "134912.700000", "134913.160000", "134913.620000", "134914.080000", "134914.540000", "134915.000000", "134915.460000", "134915.920000", "134916.380000", "134916.840000", "134917.300000", "134917.760000", "134918.220000", "134918.680000", "134919.140000", "134919.600000", "134920.060000", "134920.520000", "134920.980000", "134921.440000", "134921.900000", "134922.360000", "134922.820000", "134923.280000", "134923.740000", "134924.200000", "134924.660000", "134925.120000", "134925.580000", "134926.040000", "134926.500000", "134926.960000", "134927.420000", "134927.880000", "134928.340000", "134928.800000", "134929.260000", "134929.720000", "134930.180000", "134930.640000", "134931.100000", "134931.560000", "134932.020000", "134932.480000", "134932.940000", "134933.400000", "134933.860000", "134934.320000", "134934.780000", "134935.240000", "134935.700000", "134936.160000", "134936.620000", "134937.080000", "134937.540000", "134938.000000", "134938.460000", "134938.920000", "134939.380000", "134939.840000", "134940.300000", "134940.760000", "134941.220000", "134941.680000", "134942.140000", "134942.600000", "134943.060000", "134943.520000", "134943.980000", "134944.440000", "134944.900000", "134945.360000", "134945.820000", "134946.280000", "134946.740000", "134947.200000", "134947.660000", "134948.120000", "134948.580000", "134949.040000", "134949.500000", "134949.960000", "134950.420000", "134950.880000", "134951.340000", "134951.800000", "134952.260000", "134952.720000", "134953.180000", "134953.640000", "134954.100000", "134954.560000", "134955.020000", "134955.480000", "134955.940000", "134956.400000", "134956.860000", "134957.320000", "134957.780000", "134958.240000", "134958.700000", "134959.160000", "134959.620000", "135000.080000", "135000.540000", "135001.000000", "135001.460000", "135001.920000", "135002.380000", "135002.840000", "135003.300000", "135003.760000", "135004.220000", "135004.680000", "135005.140000", "135005.600000", "135006.060000", "135006.520000", "135006.980000", "135007.440000", "135007.900000", "135008.360000", "135008.820000", "135009.280000", "135009.740000", "135010.200000", "135010.660000", "135011.120000", "135011.580000", "135012.040000", "135012.500000", "135012.960000", "135013.420000", "135013.880000", "135014.340000", "135014.800000", "135015.260000", "135015.720000", "135016.180000", "135016.640000", "135017.100000", "135017.560000", "135018.020000", "135018.480000", "135018.940000", "135019.400000", "135019.860000", "135020.320000", "135020.780000", "135021.240000", "135021.700000", "135022.160000", "135022.620000", "135023.080000", "135023.540000", "135024.000000", "135024.460000", "135024.920000", "135025.380000", "135025.840000", "135026.300000", "135026.760000", "135027.220000", "135027.680000", "135028.140000", "135028.600000", "135029.060000", "135029.520000", "135029.980000", "135030.440000", "135030.900000", "135031.360000", "135031.820000", "135032.280000", "135032.740000", "135033.200000", "135033.660000", "135034.120000", "135034.580000", "135035.040000", "135035.500000", "135035.960000", "135036.420000", "135036.880000", "135037.340000", "135037.800000", "135038.260000", "135038.720000", "135039.180000", "135039.640000", "135040.100000", "135040.560000", "135041.020000", "135041.480000", "135041.940000", "135042.400000", "135042.860000", "135043.320000", "135043.780000", "135044.240000", "135044.700000", "135045.160000", "135045.620000", "135046.080000", "135046.540000", "135047.000000", "135047.460000", "135047.920000", "135048.380000", "135048.840000", "135049.300000", "135049.760000", "135050.220000", "135050.680000", "135051.140000", "135051.600000", "135052.060000", "135052.520000", "135052.980000", "135053.440000", "135053.900000", "135054.360000", "135054.820000", "135055.280000", "135055.740000", "135056.200000", "135056.660000", "135057.120000", "135057.580000", "135058.040000", "135058.500000", "135058.960000", "135059.420000", "135059.880000", "135100.340000", "135100.800000", "135101.260000", "135101.720000", "135102.180000", "135102.640000", "135103.100000", "135103.560000", "135104.020000", "135104.480000", "135104.940000", "135105.400000", "135105.860000", "135106.320000", "135106.780000", "135107.240000", "135107.700000", "135108.160000", "135108.620000", "135109.080000", "135109.540000", "135110.000000", "135110.460000", "135110.920000", "135111.380000", "135111.840000", "135112.300000", "135112.760000", "135113.220000", "135113.680000", "135114.140000", "135114.600000", "135115.060000", "135115.520000", "135115.980000", "135116.440000", "135116.900000", "135117.360000", "135117.820000", "135118.280000", "135118.740000", "135119.200000", "135119.660000", "135120.120000", "135120.580000", "135121.040000", "135121.500000", "135121.960000", "135122.420000", "135122.880000", "135123.340000", "135123.800000", "135124.260000", "135124.720000", "135125.180000", "135125.640000", "135126.100000", "135126.560000", "135127.020000", "135127.480000", "135127.940000", "135128.400000", "135128.860000", "135129.320000", "135129.780000", "135130.240000", "135130.700000", "135131.160000", "135131.620000", "135132.080000", "135132.540000", "135133.000000", "135133.460000", "135133.920000", "135134.380000", "135134.840000", "135135.300000", "135135.760000", "135136.220000", "135136.680000", "135137.140000", "135137.600000", "135138.060000", "135138.520000", "135138.980000", "135139.440000", "135139.900000", "135140.360000", "135140.820000", "135141.280000", "135141.740000", "135142.200000", "135142.660000", "135143.120000", "135143.580000", "135144.040000", "135144.500000", "135144.960000", "135145.420000", "135145.880000", "135146.340000", "135146.800000", "135147.260000", "135147.720000", "135148.180000", "135148.640000", "135149.100000", "135149.560000", "135150.020000", "135150.480000", "135150.940000", "135151.400000", "135151.860000", "135152.320000", "135152.780000", "135153.240000", "135153.700000", "135154.160000", "135154.620000", "135155.080000", "135155.540000", "135156.000000", "135156.460000", "135156.920000", "135157.380000", "135157.840000", "135158.300000", "135158.760000", "135159.220000", "135159.680000", "135200.140000", "135200.600000", "135201.060000", "135201.520000", "135201.980000", "135202.440000", "135202.900000", "135203.360000", "135203.820000", "135204.280000", "135204.740000", "135205.200000", "135205.660000", "135206.120000", "135206.580000", "135207.040000", "135207.500000", "135207.960000", "135208.420000", "135208.880000", "135209.340000", "135209.800000", "135210.260000", "135210.720000", "135211.180000", "135211.640000", "135212.100000", "135212.560000", "135213.020000", "135213.480000", "135213.940000", "135214.400000", "135214.860000", "135215.320000", "135215.780000", "135216.240000", "135216.700000", "135217.160000", "135217.620000", "135218.080000", "135218.540000", "135219.000000", "135219.460000", "135219.920000", "135220.380000", "135220.840000", "135221.300000", "135221.760000", "135222.220000", "135222.680000", "135223.140000", "135223.600000", "135224.060000", "135224.520000", "135224.980000", "135225.440000", "135225.900000", "135226.360000", "135226.820000", "135227.280000", "135227.740000", "135228.200000", "135228.660000", "135229.120000", "135229.580000", "135230.040000", "135230.500000", "135230.960000", "135231.420000", "135231.880000", "135232.340000", "135232.800000", "135233.260000", "135233.720000", "135234.180000", "135234.640000", "135235.100000", "135235.560000", "135236.020000", "135236.480000", "135236.940000", "135237.400000", "135237.860000", "135238.320000", "135238.780000", "135239.240000", "135239.700000", "135240.160000", "135240.620000", "135241.080000", "135241.540000", "135242.000000", "135242.460000", "135242.920000", "135243.380000", "135243.840000", "135244.300000", "135244.760000", "135245.220000", "135245.680000", "135246.140000", "135246.600000", "135247.060000", "135247.520000", "135247.980000", "135248.440000", "135248.900000", "135249.360000", "135249.820000", "135250.280000", "135250.740000", "135251.200000", "135251.660000", "135252.120000", "135252.580000", "135253.040000", "135253.500000", "135253.960000", "135254.420000", "135254.880000", "135255.340000", "135255.800000", "135256.260000", "135256.720000", "135257.180000", "135257.640000", "135258.100000", "135258.560000", "135259.020000", "135259.480000", "135259.940000", "135300.400000", "135300.860000", "135301.320000", "135301.780000", "135302.240000", "135302.700000", "135303.160000", "135303.620000", "135304.080000", "135304.540000", "135305.000000", "135305.460000", "135305.920000", "135306.380000", "135306.840000", "135307.300000", "135307.760000", "135308.220000", "135308.680000", "135309.140000", "135309.600000", "135310.060000", "135310.520000", "135310.980000", "135311.440000", "135311.900000", "135312.360000", "135312.820000", "135313.280000", "135313.740000", "135314.200000", "135314.660000", "135315.120000", "135315.580000", "135316.040000", "135316.500000", "135316.960000", "135317.420000", "135317.880000", "135318.340000", "135318.800000", "135319.260000", "135319.720000", "135320.180000", "135320.640000", "135321.100000", "135321.560000", "135322.020000", "135322.480000", "135322.940000", "135323.400000", "135323.860000", "135324.320000", "135324.780000", "135325.240000", "135325.700000", "135326.160000", "135326.620000", "135327.080000", "135327.540000", "135328.000000", "135328.460000", "135328.920000", "135329.380000", "135329.840000", "135330.300000", "135330.760000", "135331.220000", "135331.680000", "135332.140000", "135332.600000", "135333.060000", "135333.520000", "135333.980000", "135334.440000", "135334.900000", "135335.360000", "135335.820000", "135336.280000", "135336.740000", "135337.200000", "135337.660000", "135338.120000", "135338.580000", "135339.040000", "135339.500000", "135339.960000", "135340.420000", "135340.880000", "135341.340000", "135341.800000", "135342.260000", "135342.720000", "135343.180000", "135343.640000", "135344.100000", "135344.560000", "135345.020000", "135345.480000", "135345.940000", "135346.400000", "135346.860000", "135347.320000", "135347.780000", "135348.240000", "135348.700000", "135349.160000", "135349.620000", "135350.080000", "135350.540000", "135351.000000", "135351.460000", "135351.920000", "135352.380000", "135352.840000", "135353.300000", "135353.760000", "135354.220000", "135354.680000", "135355.140000", "135355.600000", "135356.060000", "135356.520000", "135356.980000", "135357.440000", "135357.900000", "135358.360000", "135358.820000", "135359.280000", "135359.740000", "135400.200000"],
