{
  "AcquisitionMatrixPE": 82,
  "AcquisitionNumber": 1,
  "AcquisitionTime": "10:51:30.647500",
  "BandwidthPerPixelPhaseEncode": 24.888,
  "BaseResolution": 82,
  "BodyPartExamined": "BRAIN",
  "ConsistencyInfo": "N4_VE11E_LATEST_20181129",
  "ConversionSoftware": "dcm2niix",
  "ConversionSoftwareVersion": "v1.0.20201102",
  "DerivedVendorReportedEchoSpacing": 0.00049,
  "DeviceSerialNumber": "66112",
  "DwellTime": 2e-06,
  "EchoTime": 0.0272,
  "EchoTrainLength": 82,
  "EffectiveEchoSpacing": 0.00049,
  "FlipAngle": 44,
  "ImageComments": "Unaliased MB8/PE3",
  "ImageOrientationPatientDICOM": [0.995502, 0.0668574, -0.0671223, -0.0764249, 0.985432, -0.151928],
  "ImageType": [
    "ORIGINAL",
    "PRIMARY",
    "M",
    "MB",
    "ND",
    "NORM",
    "MOSAIC"
],
  "ImagingFrequency": 123.259,
  "InPlanePhaseEncodingDirectionDICOM": "COL",
  "InstitutionAddress": "Maynard 3,Hanover,NH,US,03755",
  "InstitutionName": "Dartmouth College - PBS",
  "InstitutionalDepartmentName": "Department",
  "MRAcquisitionType": "2D",
  "MagneticFieldStrength": 3,
  "Manufacturer": "Siemens",
  "ManufacturersModelName": "Prisma",
  "Modality": "MR",
  "MultibandAccelerationFactor": 8,
  "PartialFourier": 1,
  "PatientPosition": "HFS",
  "PercentPhaseFOV": 100,
  "PercentSampling": 100,
  "PhaseEncodingDirection": "j-",
  "PhaseEncodingSteps": 82,
  "PhaseResolution": 1,
  "PixelBandwidth": 3050,
  "ProcedureStepDescription": "Wager_Wager^1076_spacetop",
  "ProtocolName": "func_run-02_task-social_acq-ap-mb8",
  "PulseSequenceDetails": "%CustomerSeq%\\cmrr_mbep2d_bold",
  "ReceiveCoilActiveElements": "HEA;HEP",
  "ReceiveCoilName": "Head_32",
  "ReconMatrixPE": 82,
  "RepetitionTime": 0.46,
  "SAR": 0.0832372,
  "ScanOptions": "FS",
  "ScanningSequence": "EP",
  "SequenceName": "epfid2d1_82",
  "SequenceVariant": "SK\\SS",
  "SeriesDescription": "func_run-02_task-social_acq-ap-mb8",
  "SeriesNumber": 14,
  "ShimSetting": [4188, -7739, -7253, 205, -167, 115, -65, 124],
  "SliceThickness": 2.7,
  "SliceTiming": [0, 0.2525, 0.0625, 0.315, 0.125, 0.3775, 0.19, 0, 0.2525, 0.0625, 0.315, 0.125, 0.3775, 0.19, 0, 0.2525, 0.0625, 0.315, 0.125, 0.3775, 0.19, 0, 0.2525, 0.0625, 0.315, 0.125, 0.3775, 0.19, 0, 0.2525, 0.0625, 0.315, 0.125, 0.3775, 0.19, 0, 0.2525, 0.0625, 0.315, 0.125, 0.3775, 0.19, 0, 0.2525, 0.0625, 0.315, 0.125, 0.3775, 0.19, 0, 0.2525, 0.0625, 0.315, 0.125, 0.3775, 0.19],
  "SoftwareVersions": "syngo MR E11",
  "SpacingBetweenSlices": 2.7,
  "StationName": "AWP66112",
  "TaskName": "social",
  "TotalReadoutTime": 0.03969,
  "TxRefAmp": 243.555,
  "WipMemBlock": "785002db-349e-49b0-be38-8d34cdb90565||Sequence: R016 ve11e/master r/434b28f1; Aug  7 2019 18:53:46 by eja",
  "dcmmeta_affine": [
    [-2.6708598136901855, -0.20504248142242432, -0.1511649340391159, 126.71813201904297],
    [-0.1793733835220337, 2.643843173980713, -0.4222117066383362, -80.26376342773438],
    [-0.18008433282375336, 0.40761232376098633, 2.662496328353882, -91.35884857177734],
    [0.0, 0.0, 0.0, 1.0]
],
  "dcmmeta_reorient_transform": [
    [0.0, -1.0, 0.0, 81.0],
    [1.0, 0.0, 0.0, 0.0],
    [0.0, 0.0, 1.0, 0.0],
    [0.0, 0.0, 0.0, 1.0]
],
  "dcmmeta_shape": [82, 82, 56, 872],
  "dcmmeta_slice_dim": 2,
  "dcmmeta_version": 0.6,
  "global": {
    "const": {
      "AccessionNumber": "A004845",
      "AcquisitionMatrix": [82, 0, 0, 82],
      "AngioFlag": "N",
      "BitsAllocated": 16,
      "BitsStored": 16,
      "BodyPartExamined": "BRAIN",
      "Columns": 656,
      "EchoNumbers": 1,
      "EchoTime": 27.2,
      "EchoTrainLength": 82,
      "FlipAngle": 44.0,
      "HighBit": 15,
      "ImageOrientationPatient": [0.99550222784174, 0.06685735135375, -0.0671223430171, -0.0764249213254, 0.98543241631916, -0.1519282207748],
      "ImagePositionPatient": [-817.79923466347, -944.15067017219, 110.32668792752],
      "ImageType": [
        "ORIGINAL",
        "PRIMARY",
        "M",
        "MB",
        "ND",
        "NORM",
        "MOSAIC"
],
      "ImagedNucleus": "1H",
      "ImagingFrequency": 123.259234,
      "InPlanePhaseEncodingDirection": "COL",
      "MRAcquisitionType": "2D",
      "MagneticFieldStrength": 3.0,
      "Manufacturer": "SIEMENS",
      "ManufacturerModelName": "Prisma",
      "Modality": "MR",
      "NumberOfAverages": 1.0,
      "NumberOfPhaseEncodingSteps": 82,
      "PercentPhaseFieldOfView": 100.0,
      "PercentSampling": 100.0,
      "PerformedProcedureStepStartTime": "101206.751000",
      "PhotometricInterpretation": "MONOCHROME2",
      "PixelBandwidth": 3050.0,
      "PixelRepresentation": 0,
      "PixelSpacing": [2.6829268932343, 2.6829268932343],
      "ProtocolName": "func_run-02_task-social_acq-ap-mb8",
      "RepetitionTime": 460.0,
      "Rows": 656,
      "SAR": 0.08323721170328,
      "SamplesPerPixel": 1,
      "ScanOptions": "FS",
      "ScanningSequence": "EP",
      "SequenceName": "epfid2d1_82",
      "SequenceVariant": [
        "SK",
        "SS"
],
      "SeriesDescription": "func_run-02_task-social_acq-ap-mb8",
      "SeriesNumber": 14,
      "SeriesTime": "105151.054000",
      "SliceLocation": -84.633196269573,
      "SliceThickness": 2.7000000476837,
      "SmallestImagePixelValue": 0,
      "SoftwareVersions": "syngo MR E11",
      "SpacingBetweenSlices": 2.7000000412594,
      "SpecificCharacterSet": "ISO_IR 100",
      "StudyID": "1",
      "StudyTime": "101206.640000",
      "TransmitCoilName": "Body",
      "VariableFlipAngleFlag": "N",
      "WindowCenterWidthExplanation": "Algo1"
    },
    "slices": {}
  },
  "time": {
    "samples": {
      "AcquisitionNumber": [1, 2, 3, 4, 5, 6, 7, 8, 9, 10, 11, 12, 13, 14, 15, 16, 17, 18, 19, 20, 21, 22, 23, 24, 25, 26, 27, 28, 29, 30, 31, 32, 33, 34, 35, 36, 37, 38, 39, 40, 41, 42, 43, 44, 45, 46, 47, 48, 49, 50, 51, 52, 53, 54, 55, 56, 57, 58, 59, 60, 61, 62, 63, 64, 65, 66, 67, 68, 69, 70, 71, 72, 73, 74, 75, 76, 77, 78, 79, 80, 81, 82, 83, 84, 85, 86, 87, 88, 89, 90, 91, 92, 93, 94, 95, 96, 97, 98, 99, 100, 101, 102, 103, 104, 105, 106, 107, 108, 109, 110, 111, 112, 113, 114, 115, 116, 117, 118, 119, 120, 121, 122, 123, 124, 125, 126, 127, 128, 129, 130, 131, 132, 133, 134, 135, 136, 137, 138, 139, 140, 141, 142, 143, 144, 145, 146, 147, 148, 149, 150, 151, 152, 153, 154, 155, 156, 157, 158, 159, 160, 161, 162, 163, 164, 165, 166, 167, 168, 169, 170, 171, 172, 173, 174, 175, 176, 177, 178, 179, 180, 181, 182, 183, 184, 185, 186, 187, 188, 189, 190, 191, 192, 193, 194, 195, 196, 197, 198, 199, 200, 201, 202, 203, 204, 205, 206, 207, 208, 209, 210, 211, 212, 213, 214, 215, 216, 217, 218, 219, 220, 221, 222, 223, 224, 225, 226, 227, 228, 229, 230, 231, 232, 233, 234, 235, 236, 237, 238, 239, 240, 241, 242, 243, 244, 245, 246, 247, 248, 249, 250, 251, 252, 253, 254, 255, 256, 257, 258, 259, 260, 261, 262, 263, 264, 265, 266, 267, 268, 269, 270, 271, 272, 273, 274, 275, 276, 277, 278, 279, 280, 281, 282, 283, 284, 285, 286, 287, 288, 289, 290, 291, 292, 293, 294, 295, 296, 297, 298, 299, 300, 301, 302, 303, 304, 305, 306, 307, 308, 309, 310, 311, 312, 313, 314, 315, 316, 317, 318, 319, 320, 321, 322, 323, 324, 325, 326, 327, 328, 329, 330, 331, 332, 333, 334, 335, 336, 337, 338, 339, 340, 341, 342, 343, 344, 345, 346, 347, 348, 349, 350, 351, 352, 353, 354, 355, 356, 357, 358, 359, 360, 361, 362, 363, 364, 365, 366, 367, 368, 369, 370, 371, 372, 373, 374, 375, 376, 377, 378, 379, 380, 381, 382, 383, 384, 385, 386, 387, 388, 389, 390, 391, 392, 393, 394, 395, 396, 397, 398, 399, 400, 401, 402, 403, 404, 405, 406, 407, 408, 409, 410, 411, 412, 413, 414, 415, 416, 417, 418, 419, 420, 421, 422, 423, 424, 425, 426, 427, 428, 429, 430, 431, 432, 433, 434, 435, 436, 437, 438, 439, 440, 441, 442, 443, 444, 445, 446, 447, 448, 449, 450, 451, 452, 453, 454, 455, 456, 457, 458, 459, 460, 461, 462, 463, 464, 465, 466, 467, 468, 469, 470, 471, 472, 473, 474, 475, 476, 477, 478, 479, 480, 481, 482, 483, 484, 485, 486, 487, 488, 489, 490, 491, 492, 493, 494, 495, 496, 497, 498, 499, 500, 501, 502, 503, 504, 505, 506, 507, 508, 509, 510, 511, 512, 513, 514, 515, 516, 517, 518, 519, 520, 521, 522, 523, 524, 525, 526, 527, 528, 529, 530, 531, 532, 533, 534, 535, 536, 537, 538, 539, 540, 541, 542, 543, 544, 545, 546, 547, 548, 549, 550, 551, 552, 553, 554, 555, 556, 557, 558, 559, 560, 561, 562, 563, 564, 565, 566, 567, 568, 569, 570, 571, 572, 573, 574, 575, 576, 577, 578, 579, 580, 581, 582, 583, 584, 585, 586, 587, 588, 589, 590, 591, 592, 593, 594, 595, 596, 597, 598, 599, 600, 601, 602, 603, 604, 605, 606, 607, 608, 609, 610, 611, 612, 613, 614, 615, 616, 617, 618, 619, 620, 621, 622, 623, 624, 625, 626, 627, 628, 629, 630, 631, 632, 633, 634, 635, 636, 637, 638, 639, 640, 641, 642, 643, 644, 645, 646, 647, 648, 649, 650, 651, 652, 653, 654, 655, 656, 657, 658, 659, 660, 661, 662, 663, 664, 665, 666, 667, 668, 669, 670, 671, 672, 673, 674, 675, 676, 677, 678, 679, 680, 681, 682, 683, 684, 685, 686, 687, 688, 689, 690, 691, 692, 693, 694, 695, 696, 697, 698, 699, 700, 701, 702, 703, 704, 705, 706, 707, 708, 709, 710, 711, 712, 713, 714, 715, 716, 717, 718, 719, 720, 721, 722, 723, 724, 725, 726, 727, 728, 729, 730, 731, 732, 733, 734, 735, 736, 737, 738, 739, 740, 741, 742, 743, 744, 745, 746, 747, 748, 749, 750, 751, 752, 753, 754, 755, 756, 757, 758, 759, 760, 761, 762, 763, 764, 765, 766, 767, 768, 769, 770, 771, 772, 773, 774, 775, 776, 777, 778, 779, 780, 781, 782, 783, 784, 785, 786, 787, 788, 789, 790, 791, 792, 793, 794, 795, 796, 797, 798, 799, 800, 801, 802, 803, 804, 805, 806, 807, 808, 809, 810, 811, 812, 813, 814, 815, 816, 817, 818, 819, 820, 821, 822, 823, 824, 825, 826, 827, 828, 829, 830, 831, 832, 833, 834, 835, 836, 837, 838, 839, 840, 841, 842, 843, 844, 845, 846, 847, 848, 849, 850, 851, 852, 853, 854, 855, 856, 857, 858, 859, 860, 861, 862, 863, 864, 865, 866, 867, 868, 869, 870, 871, 872],
      "AcquisitionTime": ["105130.647500", "105131.107500", "105131.567500", "105132.027500", "105132.487500", "105132.947500", "105133.407500", "105133.867500", "105134.327500", "105134.787500", "105135.247500", "105135.707500", "105136.167500", "105136.627500", "105137.087500", "105137.547500", "105138.007500", "105138.467500", "105138.927500", "105139.387500", "105139.847500", "105140.307500", "105140.767500", "105141.227500", "105141.687500", "105142.147500", "105142.607500", "105143.067500", "105143.527500", "105143.987500", "105144.447500", "105144.907500", "105145.367500", "105145.827500", "105146.287500", "105146.747500", "105147.207500", "105147.667500", "105148.127500", "105148.587500", "105149.047500", "105149.507500", "105149.967500", "105150.427500", "105150.887500", "105151.347500", "105151.807500", "105152.267500", "105152.727500", "105153.187500", "105153.647500", "105154.107500", "105154.567500", "105155.027500", "105155.487500", "105155.947500", "105156.407500", "105156.867500", "105157.327500", "105157.787500", "105158.247500", "105158.707500", "105159.167500", "105159.627500", "105200.087500", "105200.547500", "105201.007500", "105201.467500", "105201.927500", "105202.387500", "105202.847500", "105203.307500", "105203.767500", "105204.227500", "105204.687500", "105205.147500", "105205.607500", "105206.067500", "105206.527500", "105206.987500", "105207.447500", "105207.907500", "105208.367500", "105208.827500", "105209.287500", "105209.747500", "105210.207500", "105210.667500", "105211.127500", "105211.587500", "105212.047500", "105212.507500", "105212.967500", "105213.427500", "105213.887500", "105214.347500", "105214.807500", "105215.267500", "105215.727500", "105216.187500", "105216.647500", "105217.107500", "105217.567500", "105218.027500", "105218.487500", "105218.947500", "105219.407500", "105219.867500", "105220.327500", "105220.787500", "105221.247500", "105221.707500", "105222.167500", "105222.627500", "105223.087500", "105223.547500", "105224.007500", "105224.467500", "105224.927500", "105225.387500", "105225.847500", "105226.307500", "105226.767500", "105227.227500", "105227.687500", "105228.147500", "105228.607500", "105229.067500", "105229.527500", "105229.987500", "105230.447500", "105230.907500", "105231.367500", "105231.827500", "105232.287500", "105232.747500", "105233.207500", "105233.667500", "105234.127500", "105234.587500", "105235.047500", "105235.507500", "105235.967500", "105236.427500", "105236.887500", "105237.347500", "105237.807500", "105238.267500", "105238.727500", "105239.187500", "105239.647500", "105240.107500", "105240.567500", "105241.027500", "105241.487500", "105241.947500", "105242.407500", "105242.867500", "105243.327500", "105243.787500", "105244.247500", "105244.707500", "105245.167500", "105245.627500", "105246.087500", "105246.547500", "105247.007500", "105247.467500", "105247.927500", "105248.387500", "105248.847500", "105249.307500", "105249.767500", "105250.227500", "105250.687500", "105251.147500", "105251.607500", "105252.067500", "105252.527500", "105252.987500", "105253.447500", "105253.907500", "105254.367500", "105254.827500", "105255.287500", "105255.747500", "105256.207500", "105256.667500", "105257.127500", "105257.587500", "105258.047500", "105258.507500", "105258.967500", "105259.427500", "105259.887500", "105300.347500", "105300.807500", "105301.267500", "105301.727500", "105302.187500", "105302.647500", "105303.107500", "105303.567500", "105304.027500", "105304.487500", "105304.947500", "105305.407500", "105305.867500", "105306.327500", "105306.787500", "105307.247500", "105307.707500", "105308.167500", "105308.627500", "105309.087500", "105309.547500", "105310.007500", "105310.467500", "105310.927500", "105311.387500", "105311.847500", "105312.307500", "105312.767500", "105313.227500", "105313.687500", "105314.147500", "105314.607500", "105315.067500", "105315.527500", "105315.987500", "105316.447500", "105316.907500", "105317.367500", "105317.827500", "105318.287500", "105318.747500", "105319.207500", "105319.667500", "105320.127500", "105320.587500", "105321.047500", "105321.507500", "105321.967500", "105322.427500", "105322.887500", "105323.347500", "105323.807500", "105324.267500", "105324.727500", "105325.187500", "105325.647500", "105326.107500", "105326.567500", "105327.027500", "105327.487500", "105327.947500", "105328.407500", "105328.867500", "105329.327500", "105329.787500", "105330.247500", "105330.707500", "105331.167500", "105331.627500", "105332.087500", "105332.547500", "105333.007500", "105333.467500", "105333.927500", "105334.387500", "105334.847500", "105335.307500", "105335.767500", "105336.227500", "105336.687500", "105337.147500", "105337.607500", "105338.067500", "105338.527500", "105338.987500", "105339.447500", "105339.907500", "105340.367500", "105340.827500", "105341.287500", "105341.747500", "105342.207500", "105342.667500", "105343.127500", "105343.587500", "105344.047500", "105344.507500", "105344.967500", "105345.427500", "105345.887500", "105346.347500", "105346.807500", "105347.267500", "105347.727500", "105348.187500", "105348.647500", "105349.107500", "105349.567500", "105350.027500", "105350.487500", "105350.947500", "105351.407500", "105351.867500", "105352.327500", "105352.787500", "105353.247500", "105353.707500", "105354.167500", "105354.627500", "105355.087500", "105355.547500", "105356.007500", "105356.467500", "105356.927500", "105357.387500", "105357.847500", "105358.307500", "105358.767500", "105359.227500", "105359.687500", "105400.147500", "105400.607500", "105401.067500", "105401.527500", "105401.987500", "105402.447500", "105402.907500", "105403.367500", "105403.827500", "105404.287500", "105404.747500", "105405.207500", "105405.667500", "105406.127500", "105406.587500", "105407.047500", "105407.507500", "105407.967500", "105408.427500", "105408.887500", "105409.347500", "105409.807500", "105410.267500", "105410.727500", "105411.187500", "105411.647500", "105412.107500", "105412.567500", "105413.027500", "105413.487500", "105413.947500", "105414.407500", "105414.867500", "105415.327500", "105415.787500", "105416.247500", "105416.707500", "105417.167500", "105417.627500", "105418.087500", "105418.547500", "105419.007500", "105419.467500", "105419.927500", "105420.387500", "105420.847500", "105421.307500", "105421.767500", "105422.227500", "105422.687500", "105423.147500", "105423.607500", "105424.067500", "105424.527500", "105424.987500", "105425.447500", "105425.907500", "105426.367500", "105426.827500", "105427.287500", "105427.747500", "105428.207500", "105428.667500", "105429.127500", "105429.587500", "105430.047500", "105430.507500", "105430.967500", "105431.427500", "105431.887500", "105432.347500", "105432.807500", "105433.267500", "105433.727500", "105434.187500", "105434.647500", "105435.107500", "105435.567500", "105436.027500", "105436.487500", "105436.947500", "105437.407500", "105437.867500", "105438.327500", "105438.787500", "105439.247500", "105439.707500", "105440.167500", "105440.627500", "105441.087500", "105441.547500", "105442.007500", "105442.467500", "105442.927500", "105443.387500", "105443.847500", "105444.307500", "105444.767500", "105445.227500", "105445.687500", "105446.147500", "105446.607500", "105447.067500", "105447.527500", "105447.987500", "105448.447500", "105448.907500", "105449.367500", "105449.827500", "105450.287500", "105450.747500", "105451.207500", "105451.667500", "105452.127500", "105452.587500", "105453.047500", "105453.507500", "105453.967500", "105454.427500", "105454.887500", "105455.347500", "105455.807500", "105456.267500", "105456.727500", "105457.187500", "105457.647500", "105458.107500", "105458.567500", "105459.027500", "105459.487500", "105459.947500", "105500.407500", "105500.867500", "105501.327500", "105501.787500", "105502.247500", "105502.707500", "105503.167500", "105503.627500", "105504.087500", "105504.547500", "105505.007500", "105505.467500", "105505.927500", "105506.387500", "105506.847500", "105507.307500", "105507.767500", "105508.227500", "105508.687500", "105509.147500", "105509.607500", "105510.067500", "105510.527500", "105510.987500", "105511.447500", "105511.907500", "105512.367500", "105512.827500", "105513.287500", "105513.747500", "105514.207500", "105514.667500", "105515.127500", "105515.587500", "105516.047500", "105516.507500", "105516.967500", "105517.427500", "105517.887500", "105518.347500", "105518.807500", "105519.267500", "105519.727500", "105520.187500", "105520.647500", "105521.107500", "105521.567500", "105522.027500", "105522.487500", "105522.947500", "105523.407500", "105523.867500", "105524.327500", "105524.787500", "105525.247500", "105525.707500", "105526.167500", "105526.627500", "105527.087500", "105527.547500", "105528.007500", "105528.467500", "105528.927500", "105529.387500", "105529.847500", "105530.307500", "105530.767500", "105531.227500", "105531.687500", "105532.147500", "105532.607500", "105533.067500", "105533.527500", "105533.987500", "105534.447500", "105534.907500", "105535.367500", "105535.827500", "105536.287500", "105536.747500", "105537.207500", "105537.667500", "105538.127500", "105538.587500", "105539.047500", "105539.507500", "105539.967500", "105540.427500", "105540.887500", "105541.347500", "105541.807500", "105542.267500", "105542.727500", "105543.187500", "105543.647500", "105544.107500", "105544.567500", "105545.027500", "105545.487500", "105545.947500", "105546.407500", "105546.867500", "105547.327500", "105547.787500", "105548.247500", "105548.707500", "105549.167500", "105549.627500", "105550.087500", "105550.547500", "105551.007500", "105551.467500", "105551.927500", "105552.387500", "105552.847500", "105553.307500", "105553.767500", "105554.227500", "105554.687500", "105555.147500", "105555.607500", "105556.067500", "105556.527500", "105556.987500", "105557.447500", "105557.907500", "105558.367500", "105558.827500", "105559.287500", "105559.747500", "105600.207500", "105600.667500", "105601.127500", "105601.587500", "105602.047500", "105602.507500", "105602.967500", "105603.427500", "105603.887500", "105604.347500", "105604.807500", "105605.267500", "105605.727500", "105606.187500", "105606.647500", "105607.107500", "105607.567500", "105608.027500", "105608.487500", "105608.947500", "105609.407500", "105609.867500", "105610.327500", "105610.787500", "105611.247500", "105611.707500", "105612.167500", "105612.627500", "105613.087500", "105613.547500", "105614.007500", "105614.467500", "105614.927500", "105615.387500", "105615.847500", "105616.307500", "105616.767500", "105617.227500", "105617.687500", "105618.147500", "105618.607500", "105619.067500", "105619.527500", "105619.987500", "105620.447500", "105620.907500", "105621.367500", "105621.827500", "105622.287500", "105622.747500", "105623.207500", "105623.667500", "105624.127500", "105624.587500", "105625.047500", "105625.507500", "105625.967500", "105626.427500", "105626.887500", "105627.347500", "105627.807500", "105628.267500", "105628.727500", "105629.187500", "105629.647500", "105630.107500", "105630.567500", "105631.027500", "105631.487500", "105631.947500", "105632.407500", "105632.867500", "105633.327500", "105633.787500", "105634.247500", "105634.707500", "105635.167500", "105635.627500", "105636.087500", "105636.547500", "105637.007500", "105637.467500", "105637.927500", "105638.387500", "105638.847500", "105639.307500", "105639.767500", "105640.227500", "105640.687500", "105641.147500", "105641.607500", "105642.067500", "105642.527500", "105642.987500", "105643.447500", "105643.907500", "105644.367500", "105644.827500", "105645.287500", "105645.747500", "105646.207500", "105646.667500", "105647.127500", "105647.587500", "105648.047500", "105648.507500", "105648.967500", "105649.427500", "105649.887500", "105650.347500", "105650.807500", "105651.267500", "105651.727500", "105652.187500", "105652.647500", "105653.107500", "105653.567500", "105654.027500", "105654.487500", "105654.947500", "105655.407500", "105655.867500", "105656.327500", "105656.787500", "105657.247500", "105657.707500", "105658.167500", "105658.627500", "105659.087500", "105659.547500", "105700.007500", "105700.467500", "105700.927500", "105701.387500", "105701.847500", "105702.307500", "105702.767500", "105703.227500", "105703.687500", "105704.147500", "105704.607500", "105705.067500", "105705.527500", "105705.987500", "105706.447500", "105706.907500", "105707.367500", "105707.827500", "105708.287500", "105708.747500", "105709.207500", "105709.667500", "105710.127500", "105710.587500", "105711.047500", "105711.507500", "105711.967500", "105712.427500", "105712.887500", "105713.347500", "105713.807500", "105714.267500", "105714.727500", "105715.187500", "105715.647500", "105716.107500", "105716.567500", "105717.027500", "105717.487500", "105717.947500", "105718.407500", "105718.867500", "105719.327500", "105719.787500", "105720.247500", "105720.707500", "105721.167500", "105721.627500", "105722.087500", "105722.547500", "105723.007500", "105723.467500", "105723.927500", "105724.387500", "105724.847500", "105725.307500", "105725.767500", "105726.227500", "105726.687500", "105727.147500", "105727.607500", "105728.067500", "105728.527500", "105728.987500", "105729.447500", "105729.907500", "105730.367500", "105730.827500", "105731.287500", "105731.747500", "105732.207500", "105732.667500", "105733.127500", "105733.587500", "105734.047500", "105734.507500", "105734.967500", "105735.427500", "105735.887500", "105736.347500", "105736.807500", "105737.267500", "105737.727500", "105738.187500", "105738.647500", "105739.107500", "105739.567500", "105740.027500", "105740.487500", "105740.947500", "105741.407500", "105741.867500", "105742.327500", "105742.787500", "105743.247500", "105743.707500", "105744.167500", "105744.627500", "105745.087500", "105745.547500", "105746.007500", "105746.467500", "105746.927500", "105747.387500", "105747.847500", "105748.307500", "105748.767500", "105749.227500", "105749.687500", "105750.147500", "105750.607500", "105751.067500", "105751.527500", "105751.987500", "105752.447500", "105752.907500", "105753.367500", "105753.827500", "105754.287500", "105754.747500", "105755.207500", "105755.667500", "105756.127500", "105756.587500", "105757.047500", "105757.507500", "105757.967500", "105758.427500", "105758.887500", "105759.347500", "105759.807500", "105800.267500", "105800.727500", "105801.187500", "105801.647500", "105802.107500", "105802.567500", "105803.027500", "105803.487500", "105803.947500", "105804.407500", "105804.867500", "105805.327500", "105805.787500", "105806.247500", "105806.707500", "105807.167500", "105807.627500", "105808.087500", "105808.547500", "105809.007500", "105809.467500", "105809.927500", "105810.387500", "105810.847500", "105811.307500"],
