{
  "AcquisitionMatrixPE": 82,
  "AcquisitionNumber": 1,
  "AcquisitionTime": "13:01:30.552500",
  "BandwidthPerPixelPhaseEncode": 24.888,
  "BaseResolution": 82,
  "BodyPartExamined": "BRAIN",
  "ConsistencyInfo": "N4_VE11E_LATEST_20181129",
  "ConversionSoftware": "dcm2niix",
  "ConversionSoftwareVersion": "v1.0.20201102",
  "DerivedVendorReportedEchoSpacing": 0.00049,
  "DeviceSerialNumber": "66112",
  "DwellTime": 2e-06,
  "EchoTime": 0.0272,
  "EchoTrainLength": 82,
  "EffectiveEchoSpacing": 0.00049,
  "FlipAngle": 44,
  "ImageComments": "Unaliased MB8/PE3",
  "ImageOrientationPatientDICOM": [0.997668, 0.0248219, 0.0635729, -0.0221176, 0.998835, -0.0428955],
  "ImageType": [
    "ORIGINAL",
    "PRIMARY",
    "M",
    "MB",
    "ND",
    "NORM",
    "MOSAIC"
],
  "ImagingFrequency": 123.252,
  "InPlanePhaseEncodingDirectionDICOM": "COL",
  "InstitutionAddress": "Maynard 3,Hanover,NH,US,03755",
  "InstitutionName": "Dartmouth College - PBS",
  "InstitutionalDepartmentName": "Department",
  "MRAcquisitionType": "2D",
  "MagneticFieldStrength": 3,
  "Manufacturer": "Siemens",
  "ManufacturersModelName": "Prisma",
  "Modality": "MR",
  "MultibandAccelerationFactor": 8,
  "PartialFourier": 1,
  "PatientPosition": "HFS",
  "PercentPhaseFOV": 100,
  "PercentSampling": 100,
  "PhaseEncodingDirection": "j-",
  "PhaseEncodingSteps": 82,
  "PhaseResolution": 1,
  "PixelBandwidth": 3050,
  "ProcedureStepDescription": "Wager_Wager^1076_spacetop",
  "ProtocolName": "func_run-03_task-social_acq-ap-mb8",
  "PulseSequenceDetails": "%CustomerSeq%\\cmrr_mbep2d_bold",
  "ReceiveCoilActiveElements": "HEA;HEP",
  "ReceiveCoilName": "Head_32",
  "ReconMatrixPE": 82,
  "RepetitionTime": 0.46,
  "SAR": 0.0874926,
  "ScanOptions": "FS",
  "ScanningSequence": "EP",
  "SequenceName": "epfid2d1_82",
  "SequenceVariant": "SK\\SS",
  "SeriesDescription": "func_run-03_task-social_acq-ap-mb8",
  "SeriesNumber": 16,
  "ShimSetting": [4168, -7691, -7245, 519, 0, 6, 26, 26],
  "SliceThickness": 2.7,
  "SliceTiming": [0, 0.2525, 0.0625, 0.315, 0.125, 0.3775, 0.19, 0, 0.2525, 0.0625, 0.315, 0.125, 0.3775, 0.19, 0, 0.2525, 0.0625, 0.315, 0.125, 0.3775, 0.19, 0, 0.2525, 0.0625, 0.315, 0.125, 0.3775, 0.19, 0, 0.2525, 0.0625, 0.315, 0.125, 0.3775, 0.19, 0, 0.2525, 0.0625, 0.315, 0.125, 0.3775, 0.19, 0, 0.2525, 0.0625, 0.315, 0.125, 0.3775, 0.19, 0, 0.2525, 0.0625, 0.315, 0.125, 0.3775, 0.19],
  "SoftwareVersions": "syngo MR E11",
  "SpacingBetweenSlices": 2.7,
  "StationName": "AWP66112",
  "TaskName": "social",
  "TotalReadoutTime": 0.03969,
  "TxRefAmp": 229.189,
  "WipMemBlock": "aa3564dc-8495-440b-939a-bfc3c717132e||Sequence: R016 ve11e/master r/434b28f1; Aug  7 2019 18:53:46 by eja",
  "dcmmeta_affine": [
    [-2.6766715049743652, -0.05933988839387894, 0.17432165145874023, 109.3919448852539],
    [-0.06659546494483948, 2.679800510406494, -0.11175147444009781, -82.46585845947266],
    [0.17056146264076233, 0.11508557200431824, 2.6920480728149414, -85.70490264892578],
    [0.0, 0.0, 0.0, 1.0]
],
  "dcmmeta_reorient_transform": [
    [0.0, -1.0, 0.0, 81.0],
    [1.0, 0.0, 0.0, 0.0],
    [0.0, 0.0, 1.0, 0.0],
    [0.0, 0.0, 0.0, 1.0]
],
  "dcmmeta_shape": [82, 82, 56, 872],
  "dcmmeta_slice_dim": 2,
  "dcmmeta_version": 0.6,
  "global": {
    "const": {
      "AccessionNumber": "A004053",
      "AcquisitionMatrix": [82, 0, 0, 82],
      "AngioFlag": "N",
      "BitsAllocated": 16,
      "BitsStored": 16,
      "BodyPartExamined": "BRAIN",
      "Columns": 656,
      "EchoNumbers": 1,
      "EchoTime": 27.2,
      "EchoTrainLength": 82,
      "FlipAngle": 44.0,
      "HighBit": 15,
      "ImageOrientationPatient": [0.99766846018238, 0.02482194501437, 0.06357290777548, -0.0221175948829, 0.99883471384384, -0.0428955291038],
      "ImagePositionPatient": [-855.75960130548, -922.81362979229, -92.304553137582],
      "ImageType": [
        "ORIGINAL",
        "PRIMARY",
        "M",
        "MB",
        "ND",
        "NORM",
        "MOSAIC"
],
      "ImagedNucleus": "1H",
      "ImagingFrequency": 123.252232,
      "InPlanePhaseEncodingDirection": "COL",
      "MRAcquisitionType": "2D",
      "MagneticFieldStrength": 3.0,
      "Manufacturer": "SIEMENS",
      "ManufacturerModelName": "Prisma",
      "Modality": "MR",
      "NumberOfAverages": 1.0,
      "NumberOfPhaseEncodingSteps": 82,
      "PercentPhaseFieldOfView": 100.0,
      "PercentSampling": 100.0,
      "PerformedProcedureStepStartTime": "121237.882000",
      "PhotometricInterpretation": "MONOCHROME2",
      "PixelBandwidth": 3050.0,
      "PixelRepresentation": 0,
      "PixelSpacing": [2.6829268932343, 2.6829268932343],
      "ProtocolName": "func_run-03_task-social_acq-ap-mb8",
      "RepetitionTime": 460.0,
      "Rows": 656,
      "SAR": 0.0874926361782,
      "SamplesPerPixel": 1,
      "ScanOptions": "FS",
      "ScanningSequence": "EP",
      "SequenceName": "epfid2d1_82",
      "SequenceVariant": [
        "SK",
        "SS"
],
      "SeriesDescription": "func_run-03_task-social_acq-ap-mb8",
      "SeriesNumber": 16,
      "SeriesTime": "130157.690000",
      "SliceLocation": -74.976541155583,
      "SliceThickness": 2.7000000476837,
      "SmallestImagePixelValue": 0,
      "SoftwareVersions": "syngo MR E11",
      "SpacingBetweenSlices": 2.6999998794169,
      "SpecificCharacterSet": "ISO_IR 100",
      "StudyID": "1",
      "StudyTime": "121237.823000",
      "TransmitCoilName": "Body",
      "VariableFlipAngleFlag": "N",
      "WindowCenterWidthExplanation": "Algo1"
    },
    "slices": {}
  },
  "time": {
    "samples": {
      "AcquisitionNumber": [1, 2, 3, 4, 5, 6, 7, 8, 9, 10, 11, 12, 13, 14, 15, 16, 17, 18, 19, 20, 21, 22, 23, 24, 25, 26, 27, 28, 29, 30, 31, 32, 33, 34, 35, 36, 37, 38, 39, 40, 41, 42, 43, 44, 45, 46, 47, 48, 49, 50, 51, 52, 53, 54, 55, 56, 57, 58, 59, 60, 61, 62, 63, 64, 65, 66, 67, 68, 69, 70, 71, 72, 73, 74, 75, 76, 77, 78, 79, 80, 81, 82, 83, 84, 85, 86, 87, 88, 89, 90, 91, 92, 93, 94, 95, 96, 97, 98, 99, 100, 101, 102, 103, 104, 105, 106, 107, 108, 109, 110, 111, 112, 113, 114, 115, 116, 117, 118, 119, 120, 121, 122, 123, 124, 125, 126, 127, 128, 129, 130, 131, 132, 133, 134, 135, 136, 137, 138, 139, 140, 141, 142, 143, 144, 145, 146, 147, 148, 149, 150, 151, 152, 153, 154, 155, 156, 157, 158, 159, 160, 161, 162, 163, 164, 165, 166, 167, 168, 169, 170, 171, 172, 173, 174, 175, 176, 177, 178, 179, 180, 181, 182, 183, 184, 185, 186, 187, 188, 189, 190, 191, 192, 193, 194, 195, 196, 197, 198, 199, 200, 201, 202, 203, 204, 205, 206, 207, 208, 209, 210, 211, 212, 213, 214, 215, 216, 217, 218, 219, 220, 221, 222, 223, 224, 225, 226, 227, 228, 229, 230, 231, 232, 233, 234, 235, 236, 237, 238, 239, 240, 241, 242, 243, 244, 245, 246, 247, 248, 249, 250, 251, 252, 253, 254, 255, 256, 257, 258, 259, 260, 261, 262, 263, 264, 265, 266, 267, 268, 269, 270, 271, 272, 273, 274, 275, 276, 277, 278, 279, 280, 281, 282, 283, 284, 285, 286, 287, 288, 289, 290, 291, 292, 293, 294, 295, 296, 297, 298, 299, 300, 301, 302, 303, 304, 305, 306, 307, 308, 309, 310, 311, 312, 313, 314, 315, 316, 317, 318, 319, 320, 321, 322, 323, 324, 325, 326, 327, 328, 329, 330, 331, 332, 333, 334, 335, 336, 337, 338, 339, 340, 341, 342, 343, 344, 345, 346, 347, 348, 349, 350, 351, 352, 353, 354, 355, 356, 357, 358, 359, 360, 361, 362, 363, 364, 365, 366, 367, 368, 369, 370, 371, 372, 373, 374, 375, 376, 377, 378, 379, 380, 381, 382, 383, 384, 385, 386, 387, 388, 389, 390, 391, 392, 393, 394, 395, 396, 397, 398, 399, 400, 401, 402, 403, 404, 405, 406, 407, 408, 409, 410, 411, 412, 413, 414, 415, 416, 417, 418, 419, 420, 421, 422, 423, 424, 425, 426, 427, 428, 429, 430, 431, 432, 433, 434, 435, 436, 437, 438, 439, 440, 441, 442, 443, 444, 445, 446, 447, 448, 449, 450, 451, 452, 453, 454, 455, 456, 457, 458, 459, 460, 461, 462, 463, 464, 465, 466, 467, 468, 469, 470, 471, 472, 473, 474, 475, 476, 477, 478, 479, 480, 481, 482, 483, 484, 485, 486, 487, 488, 489, 490, 491, 492, 493, 494, 495, 496, 497, 498, 499, 500, 501, 502, 503, 504, 505, 506, 507, 508, 509, 510, 511, 512, 513, 514, 515, 516, 517, 518, 519, 520, 521, 522, 523, 524, 525, 526, 527, 528, 529, 530, 531, 532, 533, 534, 535, 536, 537, 538, 539, 540, 541, 542, 543, 544, 545, 546, 547, 548, 549, 550, 551, 552, 553, 554, 555, 556, 557, 558, 559, 560, 561, 562, 563, 564, 565, 566, 567, 568, 569, 570, 571, 572, 573, 574, 575, 576, 577, 578, 579, 580, 581, 582, 583, 584, 585, 586, 587, 588, 589, 590, 591, 592, 593, 594, 595, 596, 597, 598, 599, 600, 601, 602, 603, 604, 605, 606, 607, 608, 609, 610, 611, 612, 613, 614, 615, 616, 617, 618, 619, 620, 621, 622, 623, 624, 625, 626, 627, 628, 629, 630, 631, 632, 633, 634, 635, 636, 637, 638, 639, 640, 641, 642, 643, 644, 645, 646, 647, 648, 649, 650, 651, 652, 653, 654, 655, 656, 657, 658, 659, 660, 661, 662, 663, 664, 665, 666, 667, 668, 669, 670, 671, 672, 673, 674, 675, 676, 677, 678, 679, 680, 681, 682, 683, 684, 685, 686, 687, 688, 689, 690, 691, 692, 693, 694, 695, 696, 697, 698, 699, 700, 701, 702, 703, 704, 705, 706, 707, 708, 709, 710, 711, 712, 713, 714, 715, 716, 717, 718, 719, 720, 721, 722, 723, 724, 725, 726, 727, 728, 729, 730, 731, 732, 733, 734, 735, 736, 737, 738, 739, 740, 741, 742, 743, 744, 745, 746, 747, 748, 749, 750, 751, 752, 753, 754, 755, 756, 757, 758, 759, 760, 761, 762, 763, 764, 765, 766, 767, 768, 769, 770, 771, 772, 773, 774, 775, 776, 777, 778, 779, 780, 781, 782, 783, 784, 785, 786, 787, 788, 789, 790, 791, 792, 793, 794, 795, 796, 797, 798, 799, 800, 801, 802, 803, 804, 805, 806, 807, 808, 809, 810, 811, 812, 813, 814, 815, 816, 817, 818, 819, 820, 821, 822, 823, 824, 825, 826, 827, 828, 829, 830, 831, 832, 833, 834, 835, 836, 837, 838, 839, 840, 841, 842, 843, 844, 845, 846, 847, 848, 849, 850, 851, 852, 853, 854, 855, 856, 857, 858, 859, 860, 861, 862, 863, 864, 865, 866, 867, 868, 869, 870, 871, 872],
      "AcquisitionTime": ["130130.552500", "130131.012500", "130131.472500", "130131.932500", "130132.392500", "130132.852500", "130133.312500", "130133.772500", "130134.232500", "130134.692500", "130135.152500", "130135.612500", "130136.072500", "130136.532500", "130136.992500", "130137.452500", "130137.912500", "130138.372500", "130138.832500", "130139.292500", "130139.752500", "130140.212500", "130140.672500", "130141.132500", "130141.592500", "130142.052500", "130142.512500", "130142.972500", "130143.432500", "130143.892500", "130144.352500", "130144.812500", "130145.272500", "130145.732500", "130146.192500", "130146.652500", "130147.112500", "130147.572500", "130148.032500", "130148.492500", "130148.952500", "130149.412500", "130149.872500", "130150.332500", "130150.792500", "130151.252500", "130151.712500", "130152.172500", "130152.632500", "130153.092500", "130153.552500", "130154.012500", "130154.472500", "130154.932500", "130155.392500", "130155.852500", "130156.312500", "130156.772500", "130157.232500", "130157.692500", "130158.152500", "130158.612500", "130159.072500", "130159.532500", "130159.992500", "130200.452500", "130200.912500", "130201.372500", "130201.832500", "130202.292500", "130202.752500", "130203.212500", "130203.672500", "130204.132500", "130204.592500", "130205.052500", "130205.512500", "130205.972500", "130206.432500", "130206.892500", "130207.352500", "130207.812500", "130208.272500", "130208.732500", "130209.192500", "130209.652500", "130210.112500", "130210.572500", "130211.032500", "130211.492500", "130211.952500", "130212.412500", "130212.872500", "130213.332500", "130213.792500", "130214.252500", "130214.712500", "130215.172500", "130215.632500", "130216.092500", "130216.552500", "130217.012500", "130217.472500", "130217.932500", "130218.392500", "130218.852500", "130219.312500", "130219.772500", "130220.232500", "130220.692500", "130221.152500", "130221.612500", "130222.072500", "130222.532500", "130222.992500", "130223.452500", "130223.912500", "130224.372500", "130224.832500", "130225.292500", "130225.752500", "130226.212500", "130226.672500", "130227.132500", "130227.592500", "130228.052500", "130228.512500", "130228.972500", "130229.432500", "130229.892500", "130230.352500", "130230.812500", "130231.272500", "130231.732500", "130232.192500", "130232.652500", "130233.112500", "130233.572500", "130234.032500", "130234.492500", "130234.952500", "130235.412500", "130235.872500", "130236.332500", "130236.792500", "130237.252500", "130237.712500", "130238.172500", "130238.632500", "130239.092500", "130239.552500", "130240.012500", "130240.472500", "130240.932500", "130241.392500", "130241.852500", "130242.312500", "130242.772500", "130243.232500", "130243.692500", "130244.152500", "130244.612500", "130245.072500", "130245.532500", "130245.992500", "130246.452500", "130246.912500", "130247.372500", "130247.832500", "130248.292500", "130248.752500", "130249.212500", "130249.672500", "130250.132500", "130250.592500", "130251.052500", "130251.512500", "130251.972500", "130252.432500", "130252.892500", "130253.352500", "130253.812500", "130254.272500", "130254.732500", "130255.192500", "130255.652500", "130256.112500", "130256.572500", "130257.032500", "130257.492500", "130257.952500", "130258.412500", "130258.872500", "130259.332500", "130259.792500", "130300.252500", "130300.712500", "130301.172500", "130301.632500", "130302.092500", "130302.552500", "130303.012500", "130303.472500", "130303.932500", "130304.392500", "130304.852500", "130305.312500", "130305.772500", "130306.232500", "130306.692500", "130307.152500", "130307.612500", "130308.072500", "130308.532500", "130308.992500", "130309.452500", "130309.912500", "130310.372500", "130310.832500", "130311.292500", "130311.752500", "130312.212500", "130312.672500", "130313.132500", "130313.592500", "130314.052500", "130314.512500", "130314.972500", "130315.432500", "130315.892500", "130316.352500", "130316.812500", "130317.272500", "130317.732500", "130318.192500", "130318.652500", "130319.112500", "130319.572500", "130320.032500", "130320.492500", "130320.952500", "130321.412500", "130321.872500", "130322.332500", "130322.792500", "130323.252500", "130323.712500", "130324.172500", "130324.632500", "130325.092500", "130325.552500", "130326.012500", "130326.472500", "130326.932500", "130327.392500", "130327.852500", "130328.312500", "130328.772500", "130329.232500", "130329.692500", "130330.152500", "130330.612500", "130331.072500", "130331.532500", "130331.992500", "130332.452500", "130332.912500", "130333.372500", "130333.832500", "130334.292500", "130334.752500", "130335.212500", "130335.672500", "130336.132500", "130336.592500", "130337.052500", "130337.512500", "130337.972500", "130338.432500", "130338.892500", "130339.352500", "130339.812500", "130340.272500", "130340.732500", "130341.192500", "130341.652500", "130342.112500", "130342.572500", "130343.032500", "130343.492500", "130343.952500", "130344.412500", "130344.872500", "130345.332500", "130345.792500", "130346.252500", "130346.712500", "130347.172500", "130347.632500", "130348.092500", "130348.552500", "130349.012500", "130349.472500", "130349.932500", "130350.392500", "130350.852500", "130351.312500", "130351.772500", "130352.232500", "130352.692500", "130353.152500", "130353.612500", "130354.072500", "130354.532500", "130354.992500", "130355.452500", "130355.912500", "130356.372500", "130356.832500", "130357.292500", "130357.752500", "130358.212500", "130358.672500", "130359.132500", "130359.592500", "130400.052500", "130400.512500", "130400.972500", "130401.432500", "130401.892500", "130402.352500", "130402.812500", "130403.272500", "130403.732500", "130404.192500", "130404.652500", "130405.112500", "130405.572500", "130406.032500", "130406.492500", "130406.952500", "130407.412500", "130407.872500", "130408.332500", "130408.792500", "130409.252500", "130409.712500", "130410.172500", "130410.632500", "130411.092500", "130411.552500", "130412.012500", "130412.472500", "130412.932500", "130413.392500", "130413.852500", "130414.312500", "130414.772500", "130415.232500", "130415.692500", "130416.152500", "130416.612500", "130417.072500", "130417.532500", "130417.992500", "130418.452500", "130418.912500", "130419.372500", "130419.832500", "130420.292500", "130420.752500", "130421.212500", "130421.672500", "130422.132500", "130422.592500", "130423.052500", "130423.512500", "130423.972500", "130424.432500", "130424.892500", "130425.352500", "130425.812500", "130426.272500", "130426.732500", "130427.192500", "130427.652500", "130428.112500", "130428.572500", "130429.032500", "130429.492500", "130429.952500", "130430.412500", "130430.872500", "130431.332500", "130431.792500", "130432.252500", "130432.712500", "130433.172500", "130433.632500", "130434.092500", "130434.552500", "130435.012500", "130435.472500", "130435.932500", "130436.392500", "130436.852500", "130437.312500", "130437.772500", "130438.232500", "130438.692500", "130439.152500", "130439.612500", "130440.072500", "130440.532500", "130440.992500", "130441.452500", "130441.912500", "130442.372500", "130442.832500", "130443.292500", "130443.752500", "130444.212500", "130444.672500", "130445.132500", "130445.592500", "130446.052500", "130446.512500", "130446.972500", "130447.432500", "130447.892500", "130448.352500", "130448.812500", "130449.272500", "130449.732500", "130450.192500", "130450.652500", "130451.112500", "130451.572500", "130452.032500", "130452.492500", "130452.952500", "130453.412500", "130453.872500", "130454.332500", "130454.792500", "130455.252500", "130455.712500", "130456.172500", "130456.632500", "130457.092500", "130457.552500", "130458.012500", "130458.472500", "130458.932500", "130459.392500", "130459.852500", "130500.312500", "130500.772500", "130501.232500", "130501.692500", "130502.152500", "130502.612500", "130503.072500", "130503.532500", "130503.992500", "130504.452500", "130504.912500", "130505.372500", "130505.832500", "130506.292500", "130506.752500", "130507.212500", "130507.672500", "130508.132500", "130508.592500", "130509.052500", "130509.512500", "130509.972500", "130510.432500", "130510.892500", "130511.352500", "130511.812500", "130512.272500", "130512.732500", "130513.192500", "130513.652500", "130514.112500", "130514.572500", "130515.032500", "130515.492500", "130515.952500", "130516.412500", "130516.872500", "130517.332500", "130517.792500", "130518.252500", "130518.712500", "130519.172500", "130519.632500", "130520.092500", "130520.552500", "130521.012500", "130521.472500", "130521.932500", "130522.392500", "130522.852500", "130523.312500", "130523.772500", "130524.232500", "130524.692500", "130525.152500", "130525.612500", "130526.072500", "130526.532500", "130526.992500", "130527.452500", "130527.912500", "130528.372500", "130528.832500", "130529.292500", "130529.752500", "130530.212500", "130530.672500", "130531.132500", "130531.592500", "130532.052500", "130532.512500", "130532.972500", "130533.432500", "130533.892500", "130534.352500", "130534.812500", "130535.272500", "130535.732500", "130536.192500", "130536.652500", "130537.112500", "130537.572500", "130538.032500", "130538.492500", "130538.952500", "130539.412500", "130539.872500", "130540.332500", "130540.792500", "130541.252500", "130541.712500", "130542.172500", "130542.632500", "130543.092500", "130543.552500", "130544.012500", "130544.472500", "130544.932500", "130545.392500", "130545.852500", "130546.312500", "130546.772500", "130547.232500", "130547.692500", "130548.152500", "130548.612500", "130549.072500", "130549.532500", "130549.992500", "130550.452500", "130550.912500", "130551.372500", "130551.832500", "130552.292500", "130552.752500", "130553.212500", "130553.672500", "130554.132500", "130554.592500", "130555.052500", "130555.512500", "130555.972500", "130556.432500", "130556.892500", "130557.352500", "130557.812500", "130558.272500", "130558.732500", "130559.192500", "130559.652500", "130600.112500", "130600.572500", "130601.032500", "130601.492500", "130601.952500", "130602.412500", "130602.872500", "130603.332500", "130603.792500", "130604.252500", "130604.712500", "130605.172500", "130605.632500", "130606.092500", "130606.552500", "130607.012500", "130607.472500", "130607.932500", "130608.392500", "130608.852500", "130609.312500", "130609.772500", "130610.232500", "130610.692500", "130611.152500", "130611.612500", "130612.072500", "130612.532500", "130612.992500", "130613.452500", "130613.912500", "130614.372500", "130614.832500", "130615.292500", "130615.752500", "130616.212500", "130616.672500", "130617.132500", "130617.592500", "130618.052500", "130618.512500", "130618.972500", "130619.432500", "130619.892500", "130620.352500", "130620.812500", "130621.272500", "130621.732500", "130622.192500", "130622.652500", "130623.112500", "130623.572500", "130624.032500", "130624.492500", "130624.952500", "130625.412500", "130625.872500", "130626.332500", "130626.792500", "130627.252500", "130627.712500", "130628.172500", "130628.632500", "130629.092500", "130629.552500", "130630.012500", "130630.472500", "130630.932500", "130631.392500", "130631.852500", "130632.312500", "130632.772500", "130633.232500", "130633.692500", "130634.152500", "130634.612500", "130635.072500", "130635.532500", "130635.992500", "130636.452500", "130636.912500", "130637.372500", "130637.832500", "130638.292500", "130638.752500", "130639.212500", "130639.672500", "130640.132500", "130640.592500", "130641.052500", "130641.512500", "130641.972500", "130642.432500", "130642.892500", "130643.352500", "130643.812500", "130644.272500", "130644.732500", "130645.192500", "130645.652500", "130646.112500", "130646.572500", "130647.032500", "130647.492500", "130647.952500", "130648.412500", "130648.872500", "130649.332500", "130649.792500", "130650.252500", "130650.712500", "130651.172500", "130651.632500", "130652.092500", "130652.552500", "130653.012500", "130653.472500", "130653.932500", "130654.392500", "130654.852500", "130655.312500", "130655.772500", "130656.232500", "130656.692500", "130657.152500", "130657.612500", "130658.072500", "130658.532500", "130658.992500", "130659.452500", "130659.912500", "130700.372500", "130700.832500", "130701.292500", "130701.752500", "130702.212500", "130702.672500", "130703.132500", "130703.592500", "130704.052500", "130704.512500", "130704.972500", "130705.432500", "130705.892500", "130706.352500", "130706.812500", "130707.272500", "130707.732500", "130708.192500", "130708.652500", "130709.112500", "130709.572500", "130710.032500", "130710.492500", "130710.952500", "130711.412500", "130711.872500", "130712.332500", "130712.792500", "130713.252500", "130713.712500", "130714.172500", "130714.632500", "130715.092500", "130715.552500", "130716.012500", "130716.472500", "130716.932500", "130717.392500", "130717.852500", "130718.312500", "130718.772500", "130719.232500", "130719.692500", "130720.152500", "130720.612500", "130721.072500", "130721.532500", "130721.992500", "130722.452500", "130722.912500", "130723.372500", "130723.832500", "130724.292500", "130724.752500", "130725.212500", "130725.672500", "130726.132500", "130726.592500", "130727.052500", "130727.512500", "130727.972500", "130728.432500", "130728.892500", "130729.352500", "130729.812500", "130730.272500", "130730.732500", "130731.192500", "130731.652500", "130732.112500", "130732.572500", "130733.032500", "130733.492500", "130733.952500", "130734.412500", "130734.872500", "130735.332500", "130735.792500", "130736.252500", "130736.712500", "130737.172500", "130737.632500", "130738.092500", "130738.552500", "130739.012500", "130739.472500", "130739.932500", "130740.392500", "130740.852500", "130741.312500", "130741.772500", "130742.232500", "130742.692500", "130743.152500", "130743.612500", "130744.072500", "130744.532500", "130744.992500", "130745.452500", "130745.912500", "130746.372500", "130746.832500", "130747.292500", "130747.752500", "130748.212500", "130748.672500", "130749.132500", "130749.592500", "130750.052500", "130750.512500", "130750.972500", "130751.432500", "130751.892500", "130752.352500", "130752.812500", "130753.272500", "130753.732500", "130754.192500", "130754.652500", "130755.112500", "130755.572500", "130756.032500", "130756.492500", "130756.952500", "130757.412500", "130757.872500", "130758.332500", "130758.792500", "130759.252500", "130759.712500", "130800.172500", "130800.632500", "130801.092500", "130801.552500", "130802.012500", "130802.472500", "130802.932500", "130803.392500", "130803.852500", "130804.312500", "130804.772500", "130805.232500", "130805.692500", "130806.152500", "130806.612500", "130807.072500", "130807.532500", "130807.992500", "130808.452500", "130808.912500", "130809.372500", "130809.832500", "130810.292500", "130810.752500", "130811.212500"],
