{
  "AcquisitionMatrixPE": 140,
  "AcquisitionNumber": 1,
  "AcquisitionTime": "10:33:33.082500",
  "BandwidthPerPixelPhaseEncode": 10.352,
  "BaseResolution": 140,
  "BodyPartExamined": "BRAIN",
  "ConsistencyInfo": "N4_VE11E_LATEST_20181129",
  "ConversionSoftware": "dcm2niix",
  "ConversionSoftwareVersion": "v1.0.20201102",
  "DerivedVendorReportedEchoSpacing": 0.000689998,
  "DeviceSerialNumber": "66112",
  "DiffusionScheme": "Monopolar",
  "DwellTime": 2.1e-06,
  "EchoTime": 0.0884,
  "EchoTrainLength": 105,
  "EffectiveEchoSpacing": 0.000689998,
  "FlipAngle": 90,
  "ImageComments": "Unaliased MB3/PE3 SENSE1",
  "ImageOrientationPatientDICOM": [0.995511, 0.066732, -0.0671166, -0.0650747, 0.997526, 0.0265853],
  "ImageType": [
    "ORIGINAL",
    "PRIMARY",
    "DIFFUSION",
    "NONE",
    "MB",
    "ND",
    "MOSAIC"
],
  "ImagingFrequency": 123.259,
  "InPlanePhaseEncodingDirectionDICOM": "COL",
  "InstitutionAddress": "Maynard 3,Hanover,NH,US,03755",
  "InstitutionName": "Dartmouth College - PBS",
  "InstitutionalDepartmentName": "Department",
  "MRAcquisitionType": "2D",
  "MagneticFieldStrength": 3,
  "Manufacturer": "Siemens",
  "ManufacturersModelName": "Prisma",
  "Modality": "MR",
  "MultibandAccelerationFactor": 3,
  "PartialFourier": 0.75,
  "PatientPosition": "HFS",
  "PercentPhaseFOV": 100,
  "PercentSampling": 100,
  "PhaseEncodingDirection": "j-",
  "PhaseEncodingSteps": 105,
  "PhaseResolution": 1,
  "PixelBandwidth": 1700,
  "ProcedureStepDescription": "Wager_Wager^1076_spacetop",
  "ProtocolName": "dwi_acq-96dir-6b0-mb",
  "PulseSequenceDetails": "%CustomerSeq%\\cmrr_mbep2d_diff",
  "ReceiveCoilActiveElements": "HEA;HEP",
  "ReceiveCoilName": "Head_32",
  "ReconMatrixPE": 140,
  "RepetitionTime": 4.11,
  "SAR": 0.216265,
  "ScanOptions": "PFP\\FS",
  "ScanningSequence": "EP",
  "SequenceName": "ep_b5#1",
  "SequenceVariant": "SK\\SS",
  "SeriesDescription": "dwi_acq-96dir-6b0-mb",
  "SeriesNumber": 8,
  "ShimSetting": [4188, -7738, -7255, 168, -155, 129, -55, 120],
  "SliceThickness": 1.7,
  "SliceTiming": [0, 2.12, 0.15, 2.2725, 0.3025, 2.4225, 0.455, 2.575, 0.605, 2.725, 0.7575, 2.8775, 0.9075, 3.03, 1.06, 3.18, 1.2125, 3.3325, 1.3625, 3.4825, 1.515, 3.635, 1.665, 3.7875, 1.8175, 3.9375, 1.97, 0, 2.12, 0.15, 2.2725, 0.3025, 2.4225, 0.455, 2.575, 0.605, 2.725, 0.7575, 2.8775, 0.9075, 3.03, 1.06, 3.18, 1.2125, 3.3325, 1.3625, 3.4825, 1.515, 3.635, 1.665, 3.7875, 1.8175, 3.9375, 1.97, 0, 2.12, 0.15, 2.2725, 0.3025, 2.4225, 0.455, 2.575, 0.605, 2.725, 0.7575, 2.8775, 0.9075, 3.03, 1.06, 3.18, 1.2125, 3.3325, 1.3625, 3.4825, 1.515, 3.635, 1.665, 3.7875, 1.8175, 3.9375, 1.97],
  "SoftwareVersions": "syngo MR E11",
  "SpacingBetweenSlices": 1.7,
  "StationName": "AWP66112",
  "TotalReadoutTime": 0.0959097,
  "TxRefAmp": 243.555,
  "WipMemBlock": "8f3486ab-3cae-4480-a915-bb18ced35cff||Sequence: R016 ve11e/master r/434b28f1; Aug  7 2019 19:06:17 by eja",
  "dcmmeta_affine": [
    [-1.7065902948379517, -0.11155661195516586, -0.11683191359043121, 136.0962371826172],
    [-0.11439766734838486, 1.7100448608398438, 0.03756731003522873, -86.54090881347656],
    [-0.11505702137947083, -0.04557488486170769, 1.6955645084381104, -64.83179473876953],
    [0.0, 0.0, 0.0, 1.0]
],
  "dcmmeta_reorient_transform": [
    [0.0, -1.0, 0.0, 139.0],
    [1.0, 0.0, 0.0, 0.0],
    [0.0, 0.0, 1.0, 0.0],
    [0.0, 0.0, 0.0, 1.0]
],
  "dcmmeta_shape": [140, 140, 81, 103],
  "dcmmeta_slice_dim": 2,
  "dcmmeta_version": 0.6,
  "global": {
    "const": {
      "AccessionNumber": "A004845",
      "AcquisitionMatrix": [140, 0, 0, 140],
      "AngioFlag": "N",
      "BitsAllocated": 16,
      "BitsStored": 16,
      "BodyPartExamined": "BRAIN",
      "Columns": 1260,
      "EchoNumbers": 1,
      "EchoTime": 88.4,
      "EchoTrainLength": 105,
      "FlipAngle": 90.0,
      "HighBit": 15,
      "ImageOrientationPatient": [0.99551102779291, 0.0667319706701, -0.0671165973004, -0.0650746888433, 0.99752619215839, 0.02658534991171],
      "ImagePositionPatient": [-1013.8087684459, -1172.8431803767, -32.256708928326],
      "ImageType": [
        "ORIGINAL",
        "PRIMARY",
        "DIFFUSION",
        "NONE",
        "MB",
        "ND",
        "MOSAIC"
],
      "ImagedNucleus": "1H",
      "ImagingFrequency": 123.259211,
      "InPlanePhaseEncodingDirection": "COL",
      "MRAcquisitionType": "2D",
      "MagneticFieldStrength": 3.0,
      "Manufacturer": "SIEMENS",
      "ManufacturerModelName": "Prisma",
      "Modality": "MR",
      "NumberOfAverages": 1.0,
      "NumberOfPhaseEncodingSteps": 105,
      "PercentPhaseFieldOfView": 100.0,
      "PercentSampling": 100.0,
      "PerformedProcedureStepStartTime": "101206.751000",
      "PhotometricInterpretation": "MONOCHROME2",
      "PixelBandwidth": 1700.0,
      "PixelRepresentation": 0,
      "PixelSpacing": [1.7142857313156, 1.7142857313156],
      "ProtocolName": "dwi_acq-96dir-6b0-mb",
      "RepetitionTime": 4110.0,
      "Rows": 1260,
      "SAR": 0.21626529059702,
      "SamplesPerPixel": 1,
      "ScanOptions": [
        "PFP",
        "FS"
],
      "ScanningSequence": "EP",
      "SequenceVariant": [
        "SK",
        "SS"
],
      "SeriesDescription": "dwi_acq-96dir-6b0-mb",
      "SeriesNumber": 8,
      "SeriesTime": "103430.945000",
      "SliceLocation": -75.928228863767,
      "SliceThickness": 1.7000000476837,
      "SmallestImagePixelValue": 0,
      "SoftwareVersions": "syngo MR E11",
      "SpacingBetweenSlices": 1.7000000010415,
      "SpecificCharacterSet": "ISO_IR 100",
      "StudyID": "1",
      "StudyTime": "101206.640000",
      "TransmitCoilName": "Body",
      "VariableFlipAngleFlag": "N",
      "WindowCenterWidthExplanation": "Algo1"
    },
    "slices": {}
  },
  "time": {
    "samples": {
      "AcquisitionNumber": [1, 2, 3, 4, 5, 6, 7, 8, 9, 10, 11, 12, 13, 14, 15, 16, 17, 18, 19, 20, 21, 22, 23, 24, 25, 26, 27, 28, 29, 30, 31, 32, 33, 34, 35, 36, 37, 38, 39, 40, 41, 42, 43, 44, 45, 46, 47, 48, 49, 50, 51, 52, 53, 54, 55, 56, 57, 58, 59, 60, 61, 62, 63, 64, 65, 66, 67, 68, 69, 70, 71, 72, 73, 74, 75, 76, 77, 78, 79, 80, 81, 82, 83, 84, 85, 86, 87, 88, 89, 90, 91, 92, 93, 94, 95, 96, 97, 98, 99, 100, 101, 102, 103],
      "AcquisitionTime": ["103333.082500", "103337.192500", "103341.302500", "103345.412500", "103349.522500", "103353.632500", "103357.742500", "103401.852500", "103405.962500", "103410.072500", "103414.182500", "103418.292500", "103422.402500", "103426.512500", "103430.622500", "103434.732500", "103438.842500", "103442.952500", "103447.062500", "103451.172500", "103455.282500", "103459.392500", "103503.502500", "103507.612500", "103511.722500", "103515.832500", "103519.942500", "103524.052500", "103528.162500", "103532.272500", "103536.382500", "103540.492500", "103544.602500", "103548.712500", "103552.822500", "103556.932500", "103601.042500", "103605.152500", "103609.262500", "103613.372500", "103617.482500", "103621.592500", "103625.702500", "103629.812500", "103633.922500", "103638.032500", "103642.142500", "103646.252500", "103650.362500", "103654.472500", "103658.582500", "103702.692500", "103706.802500", "103710.912500", "103715.022500", "103719.132500", "103723.242500", "103727.352500", "103731.462500", "103735.572500", "103739.682500", "103743.792500", "103747.902500", "103752.012500", "103756.122500", "103800.232500", "103804.342500", "103808.452500", "103812.562500", "103816.672500", "103820.782500", "103824.892500", "103829.002500", "103833.112500", "103837.222500", "103841.332500", "103845.442500", "103849.552500", "103853.662500", "103857.772500", "103901.882500", "103905.992500", "103910.102500", "103914.212500", "103918.322500", "103922.432500", "103926.542500", "103930.652500", "103934.762500", "103938.872500", "103942.982500", "103947.092500", "103951.202500", "103955.312500", "103959.422500", "104003.532500", "104007.642500", "104011.752500", "104015.862500", "104019.972500", "104024.082500", "104028.192500", "104032.302500"],
      "ContentTime": ["103430.949000", "103430.953000", "103430.956000", "103430.959000", "103430.962000", "103430.965000", "103430.968000", "103430.978000", "103430.981000", "103430.984000", "103430.987000", "103430.990000", "103430.993000", "103550.945000", "103550.948000", "103550.951000", "103550.954000", "103550.957000", "103550.960000", "103550.963000", "103550.966000", "103550.969000", "103550.972000", "103550.975000", "103550.988000", "103550.991000", "103550.994000", "103550.997000", "103551.007000", "103551.010000", "103551.013000", "103551.016000", "103551.019000", "103730.945000", "103730.948000", "103730.951000", "103730.954000", "103730.960000", "103730.963000", "103730.966000", "103730.969000", "103730.972000", "103730.975000", "103730.978000", "103730.981000", "103730.984000", "103730.987000", "103730.990000", "103730.993000", "103730.996000", "103731.000000", "103731.003000", "103731.015000", "103731.018000", "103731.021000", "103731.024000", "103731.027000", "103850.945000", "103850.948000", "103850.951000", "103850.954000", "103850.957000", "103850.960000", "103850.963000", "103850.966000", "103850.969000", "103850.972000", "103850.975000", "103850.978000", "103850.981000", "103850.984000", "103850.987000", "103850.990000", "103850.993000", "103850.996000", "103851.000000", "103851.003000", "104030.945000", "104030.948000", "104030.951000", "104030.954000", "104030.957000", "104030.960000", "104030.963000", "104030.966000", "104030.969000", "104030.972000", "104030.975000", "104030.978000", "104030.981000", "104030.984000", "104030.987000", "104030.990000", "104030.994000", "104030.997000", "104031.001000", "104031.004000", "104031.007000", "104031.010000", "104031.013000", "104031.016000", "104037.372000", "104037.376000"],
      "InstanceCreationTime": ["103430.949000", "103430.953000", "103430.956000", "103430.959000", "103430.962000", "103430.965000", "103430.968000", "103430.978000", "103430.981000", "103430.984000", "103430.987000", "103430.990000", "103430.993000", "103550.945000", "103550.948000", "103550.951000", "103550.954000", "103550.957000", "103550.960000", "103550.963000", "103550.966000", "103550.969000", "103550.972000", "103550.975000", "103550.988000", "103550.991000", "103550.994000", "103550.997000", "103551.007000", "103551.010000", "103551.013000", "103551.016000", "103551.019000", "103730.945000", "103730.948000", "103730.951000", "103730.954000", "103730.960000", "103730.963000", "103730.966000", "103730.969000", "103730.972000", "103730.975000", "103730.978000", "103730.981000", "103730.984000", "103730.987000", "103730.990000", "103730.993000", "103730.996000", "103731.000000", "103731.003000", "103731.015000", "103731.018000", "103731.021000", "103731.024000", "103731.027000", "103850.945000", "103850.948000", "103850.951000", "103850.954000", "103850.957000", "103850.960000", "103850.963000", "103850.966000", "103850.969000", "103850.972000", "103850.975000", "103850.978000", "103850.981000", "103850.984000", "103850.987000", "103850.990000", "103850.993000", "103850.996000", "103851.000000", "103851.003000", "104030.945000", "104030.948000", "104030.951000", "104030.954000", "104030.957000", "104030.960000", "104030.963000", "104030.966000", "104030.969000", "104030.972000", "104030.975000", "104030.978000", "104030.981000", "104030.984000", "104030.987000", "104030.990000", "104030.994000", "104030.997000", "104031.001000", "104031.004000", "104031.007000", "104031.010000", "104031.013000", "104031.016000", "104037.372000", "104037.376000"],
      "InstanceNumber": [1, 2, 3, 4, 5, 6, 7, 8, 9, 10, 11, 12, 13, 14, 15, 16, 17, 18, 19, 20, 21, 22, 23, 24, 25, 26, 27, 28, 29, 30, 31, 32, 33, 34, 35, 36, 37, 38, 39, 40, 41, 42, 43, 44, 45, 46, 47, 48, 49, 50, 51, 52, 53, 54, 55, 56, 57, 58, 59, 60, 61, 62, 63, 64, 65, 66, 67, 68, 69, 70, 71, 72, 73, 74, 75, 76, 77, 78, 79, 80, 81, 82, 83, 84, 85, 86, 87, 88, 89, 90, 91, 92, 93, 94, 95, 96, 97, 98, 99, 100, 101, 102, 103],
      "LargestImagePixelValue": [65535, 65535, 52972, 55949, 56165, 58635, 53715, 52165, 65535, 34822, 39555, 38557, 37652, 38675, 36039, 36283, 38449, 40936, 37253, 36498, 37897, 37034, 39407, 35182, 65535, 19071, 19617, 20138, 18194, 18632, 20408, 18012, 20474, 19081, 19722, 19639, 19763, 19944, 20049, 19349, 65535, 10926, 12731, 12349, 12557, 10007, 9889, 11381, 11809, 11209, 12804, 12547, 10465, 11250, 11548, 9853, 12537, 10679, 10915, 12351, 10849, 11727, 10292, 10275, 10358, 10747, 10743, 10594, 13185, 11717, 11431, 9279, 10524, 65535, 11643, 10833, 12136, 10176, 11483, 11475, 10902, 14081, 11195, 11007, 11561, 10933, 13207, 12592, 12857, 11124, 13273, 11101, 10814, 10131, 11342, 12880, 10337, 10315, 11795, 9627, 12184, 10005, 65535],
      "SequenceName": [
 "ep_b5#1",
 "ep_b5#1",
 "ep_b500#2",
 "ep_b495#3",
 "ep_b500#4",
 "ep_b505#5",
 "ep_b495#6",
 "ep_b500#7",
 "ep_b5#8",
 "ep_b1000#9",
 "ep_b1005#10",
 "ep_b995#11",
 "ep_b1005#12",
 "ep_b995#13",
 "ep_b995#14",
 "ep_b1005#15",
 "ep_b1000#16",
 "ep_b1005#17",
 "ep_b995#18",
 "ep_b1000#19",
 "ep_b995#20",
 "ep_b1000#21",
 "ep_b1005#22",
 "ep_b1005#23",
 "ep_b5#24",
 "ep_b2000#25",
 "ep_b1995#26",
 "ep_b1990#27",
 "ep_b2000#28",
 "ep_b2005#29",
 "ep_b2010#30",
 "ep_b2005#31",
 "ep_b2010#32",
 "ep_b2000#33",
 "ep_b1995#34",
 "ep_b1995#35",
 "ep_b2005#36",
 "ep_b1995#37",
 "ep_b2005#38",
 "ep_b1995#39",
 "ep_b5#40",
 "ep_b3000#41",
 "ep_b3005#42",
 "ep_b3010#43",
 "ep_b3010#44",
 "ep_b3000#45",
 "ep_b3000#46",
 "ep_b2990#47",
 "ep_b3005#48",
 "ep_b3000#49",
 "ep_b2990#50",
 "ep_b2990#51",
 "ep_b2995#52",
 "ep_b2995#53",
 "ep_b3010#54",
 "ep_b3000#55",
 "ep_b2995#56",
 "ep_b2995#57",
 "ep_b2990#58",
 "ep_b2990#59",
 "ep_b3000#60",
 "ep_b2990#61",
 "ep_b2990#62",
 "ep_b2995#63",
 "ep_b3000#64",
 "ep_b3010#65",
 "ep_b2995#66",
 "ep_b3005#67",
 "ep_b3005#68",
 "ep_b3005#69",
 "ep_b3005#70",
 "ep_b3005#71",
 "ep_b2990#72",
 "ep_b5#73",
 "ep_b3010#74",
 "ep_b3000#75",
 "ep_b3005#76",
 "ep_b3000#77",
 "ep_b2990#78",
 "ep_b3005#79",
 "ep_b2995#80",
 "ep_b3010#81",
 "ep_b3005#82",
 "ep_b3005#83",
 "ep_b3000#84",
 "ep_b3005#85",
 "ep_b3010#86",
 "ep_b3010#87",
 "ep_b2990#88",
 "ep_b3010#89",
 "ep_b2995#90",
 "ep_b2995#91",
 "ep_b2990#92",
 "ep_b2995#93",
 "ep_b3005#94",
 "ep_b3010#95",
 "ep_b2995#96",
 "ep_b3000#97",
 "ep_b2990#98",
 "ep_b3000#99",
 "ep_b2995#100",
 "ep_b2995#101",
 "ep_b5#102"
],
      "WindowCenter": [10918.0, 10929.0, 7670.0, 7718.0, 7678.0, 7640.0, 7695.0, 7671.0, 10913.0, 5808.0, 5805.0, 5828.0, 5787.0, 5858.0, 5813.0, 5757.0, 5849.0, 5836.0, 5864.0, 5777.0, 5844.0, 5816.0, 5831.0, 5788.0, 10916.0, 3723.0, 3707.0, 3730.0, 3708.0, 3681.0, 3712.0, 3715.0, 3713.0, 3699.0, 3776.0, 3757.0, 3688.0, 3681.0, 3694.0, 3698.0, 10924.0, 2602.0, 2583.0, 2631.0, 2609.0, 2479.0, 2513.0, 2593.0, 2557.0, 2581.0, 2641.0, 2615.0, 2594.0, 2624.0, 2626.0, 2538.0, 2647.0, 2524.0, 2597.0, 2643.0, 2563.0, 2635.0, 2586.0, 2574.0, 2555.0, 2612.0, 2550.0, 2530.0, 2616.0, 2590.0, 2594.0, 2553.0, 2585.0, 10896.0, 2574.0, 2536.0, 2576.0, 2574.0, 2579.0, 2551.0, 2573.0, 2635.0, 2583.0, 2542.0, 2594.0, 2598.0, 2609.0, 2601.0, 2643.0, 2559.0, 2651.0, 2549.0, 2569.0, 2540.0, 2585.0, 2665.0, 2557.0, 2516.0, 2607.0, 2518.0, 2631.0, 2594.0, 10904.0],
      "WindowWidth": [24511.0, 24543.0, 16209.0, 16299.0, 16200.0, 16141.0, 16259.0, 16212.0, 24499.0, 12448.0, 12425.0, 12466.0, 12407.0, 12545.0, 12457.0, 12343.0, 12500.0, 12481.0, 12536.0, 12368.0, 12494.0, 12450.0, 12479.0, 12390.0, 24492.0, 8402.0, 8365.0, 8402.0, 8358.0, 8319.0, 8356.0, 8378.0, 8370.0, 8345.0, 8485.0, 8456.0, 8322.0, 8296.0, 8317.0, 8338.0, 24516.0, 6264.0, 6149.0, 6259.0, 6193.0, 6007.0, 6046.0, 6189.0, 6103.0, 6203.0, 6258.0, 6211.0, 6232.0, 6297.0, 6267.0, 6117.0, 6336.0, 6051.0, 6205.0, 6264.0, 6127.0, 6265.0, 6199.0, 6180.0, 6130.0, 6240.0, 6135.0, 6085.0, 6230.0, 6217.0, 6230.0, 6154.0, 6182.0, 24444.0, 6135.0, 6076.0, 6150.0, 6176.0, 6155.0, 6112.0, 6167.0, 6238.0, 6186.0, 6112.0, 6233.0, 6249.0, 6197.0, 6194.0, 6275.0, 6110.0, 6315.0, 6095.0, 6148.0, 6133.0, 6192.0, 6345.0, 6143.0, 6055.0, 6214.0, 6059.0, 6294.0, 6234.0, 24460.0]
    },
    "slices": {}
  }
}