{
  "AcquisitionMatrixPE": 82,
  "AcquisitionNumber": 1,
  "AcquisitionTime": "12:53:37.672500",
  "BandwidthPerPixelPhaseEncode": 24.888,
  "BaseResolution": 82,
  "BodyPartExamined": "BRAIN",
  "ConsistencyInfo": "N4_VE11E_LATEST_20181129",
  "ConversionSoftware": "dcm2niix",
  "ConversionSoftwareVersion": "v1.0.20201102",
  "DerivedVendorReportedEchoSpacing": 0.00049,
  "DeviceSerialNumber": "66112",
  "DwellTime": 2e-06,
  "EchoTime": 0.0272,
  "EchoTrainLength": 82,
  "EffectiveEchoSpacing": 0.00049,
  "FlipAngle": 44,
  "ImageComments": "Unaliased MB8/PE3",
  "ImageOrientationPatientDICOM": [0.99877, 0.00133566, 0.0495619, -0.0094135, 0.986562, 0.163113],
  "ImageType": [
    "ORIGINAL",
    "PRIMARY",
    "FMRI",
    "NONE",
    "MB",
    "ND",
    "NORM",
    "MOSAIC"
],
  "ImagingFrequency": 123.252,
  "InPlanePhaseEncodingDirectionDICOM": "COL",
  "InstitutionAddress": "Maynard 3,Hanover,NH,US,03755",
  "InstitutionName": "Dartmouth College - PBS",
  "InstitutionalDepartmentName": "Department",
  "MRAcquisitionType": "2D",
  "MagneticFieldStrength": 3,
  "Manufacturer": "Siemens",
  "ManufacturersModelName": "Prisma",
  "Modality": "MR",
  "MultibandAccelerationFactor": 8,
  "PartialFourier": 1,
  "PatientPosition": "HFS",
  "PercentPhaseFOV": 100,
  "PercentSampling": 100,
  "PhaseEncodingDirection": "j-",
  "PhaseEncodingSteps": 82,
  "PhaseResolution": 1,
  "PixelBandwidth": 3050,
  "ProcedureStepDescription": "Wager_Wager^1076_spacetop",
  "ProtocolName": "func_run-02_task-social_acq-ap-mb8",
  "PulseSequenceDetails": "%CustomerSeq%\\cmrr_mbep2d_bold",
  "ReceiveCoilActiveElements": "HEA;HEP",
  "ReceiveCoilName": "Head_32",
  "ReconMatrixPE": 82,
  "RepetitionTime": 0.46,
  "SAR": 0.0941075,
  "ScanOptions": "FS",
  "ScanningSequence": "EP",
  "SequenceName": "epfid2d1_82",
  "SequenceVariant": "SK\\SS",
  "SeriesDescription": "func_run-02_task-social_acq-ap-mb8",
  "SeriesNumber": 13,
  "ShimSetting": [4172, -7799, -7244, 618, -8, -134, 33, 37],
  "SliceThickness": 2.7,
  "SliceTiming": [0, 0.25, 0.0625, 0.315, 0.125, 0.3775, 0.1875, 0, 0.25, 0.0625, 0.315, 0.125, 0.3775, 0.1875, 0, 0.25, 0.0625, 0.315, 0.125, 0.3775, 0.1875, 0, 0.25, 0.0625, 0.315, 0.125, 0.3775, 0.1875, 0, 0.25, 0.0625, 0.315, 0.125, 0.3775, 0.1875, 0, 0.25, 0.0625, 0.315, 0.125, 0.3775, 0.1875, 0, 0.25, 0.0625, 0.315, 0.125, 0.3775, 0.1875, 0, 0.25, 0.0625, 0.315, 0.125, 0.3775, 0.1875],
  "SoftwareVersions": "syngo MR E11",
  "SpacingBetweenSlices": 2.7,
  "StationName": "AWP66112",
  "TaskName": "social",
  "TotalReadoutTime": 0.03969,
  "TxRefAmp": 239.056,
  "WipMemBlock": "68b11874-4fce-4f63-be00-b31d695a9758||Sequence: R016 ve11e/master r/434b28f1; Aug  7 2019 18:53:46 by eja",
  "dcmmeta_affine": [
    [-2.6796274185180664, -0.025255728513002396, 0.1314307302236557, 108.91647338867188],
    [-0.003583471290767193, 2.6468749046325684, 0.4411243200302124, -97.76973724365234],
    [0.13297095894813538, -0.43762141466140747, 2.6604764461517334, -41.579071044921875],
    [0.0, 0.0, 0.0, 1.0]
],
  "dcmmeta_reorient_transform": [
    [0.0, -1.0, 0.0, 81.0],
    [1.0, 0.0, 0.0, 0.0],
    [0.0, 0.0, 1.0, 0.0],
    [0.0, 0.0, 0.0, 1.0]
],
  "dcmmeta_shape": [82, 82, 56, 872],
  "dcmmeta_slice_dim": 2,
  "dcmmeta_version": 0.6,
  "global": {
    "const": {
      "AccessionNumber": "A003890",
      "AcquisitionMatrix": [82, 0, 0, 82],
      "AngioFlag": "N",
      "BitsAllocated": 16,
      "BitsStored": 12,
      "BodyPartExamined": "BRAIN",
      "Columns": 656,
      "EchoNumbers": 1,
      "EchoTime": 27.2,
      "EchoTrainLength": 82,
      "FlipAngle": 44.0,
      "HighBit": 11,
      "ImageOrientationPatient": [0.99877016062881, 0.00133565747098, 0.04956190327893, -0.0094134986051, 0.98656241307803, 0.16311343030443],
      "ImagePositionPatient": [-868.67540894076, -877.30865296448, -240.78641624056],
      "ImageType": [
        "ORIGINAL",
        "PRIMARY",
        "FMRI",
        "NONE",
        "MB",
        "ND",
        "NORM",
        "MOSAIC"
],
      "ImagedNucleus": "1H",
      "ImagingFrequency": 123.252161,
      "InPlanePhaseEncodingDirection": "COL",
      "MRAcquisitionType": "2D",
      "MagneticFieldStrength": 3.0,
      "Manufacturer": "SIEMENS",
      "ManufacturerModelName": "Prisma",
      "Modality": "MR",
      "NumberOfAverages": 1.0,
      "NumberOfPhaseEncodingSteps": 82,
      "PercentPhaseFieldOfView": 100.0,
      "PercentSampling": 100.0,
      "PerformedProcedureStepStartTime": "120213.534000",
      "PhotometricInterpretation": "MONOCHROME2",
      "PixelBandwidth": 3050.0,
      "PixelRepresentation": 0,
      "PixelSpacing": [2.6829268932343, 2.6829268932343],
      "ProtocolName": "func_run-02_task-social_acq-ap-mb8",
      "RepetitionTime": 460.0,
      "Rows": 656,
      "SAR": 0.09410745414848,
      "SamplesPerPixel": 1,
      "ScanOptions": "FS",
      "ScanningSequence": "EP",
      "SequenceName": "epfid2d1_82",
      "SequenceVariant": [
        "SK",
        "SS"
],
      "SeriesDescription": "func_run-02_task-social_acq-ap-mb8",
      "SeriesNumber": 13,
      "SeriesTime": "125341.460000",
      "SliceLocation": -51.642141419799,
      "SliceThickness": 2.7000000476837,
      "SmallestImagePixelValue": 0,
      "SoftwareVersions": "syngo MR E11",
      "SpacingBetweenSlices": 2.7000000212075,
      "SpecificCharacterSet": "ISO_IR 100",
      "StudyID": "1",
      "StudyTime": "120213.408000",
      "TransmitCoilName": "Body",
      "VariableFlipAngleFlag": "N",
      "WindowCenterWidthExplanation": "Algo1"
    },
    "slices": {}
  },
  "time": {
    "samples": {
      "AcquisitionNumber": [1, 2, 3, 4, 5, 6, 7, 8, 9, 10, 11, 12, 13, 14, 15, 16, 17, 18, 19, 20, 21, 22, 23, 24, 25, 26, 27, 28, 29, 30, 31, 32, 33, 34, 35, 36, 37, 38, 39, 40, 41, 42, 43, 44, 45, 46, 47, 48, 49, 50, 51, 52, 53, 54, 55, 56, 57, 58, 59, 60, 61, 62, 63, 64, 65, 66, 67, 68, 69, 70, 71, 72, 73, 74, 75, 76, 77, 78, 79, 80, 81, 82, 83, 84, 85, 86, 87, 88, 89, 90, 91, 92, 93, 94, 95, 96, 97, 98, 99, 100, 101, 102, 103, 104, 105, 106, 107, 108, 109, 110, 111, 112, 113, 114, 115, 116, 117, 118, 119, 120, 121, 122, 123, 124, 125, 126, 127, 128, 129, 130, 131, 132, 133, 134, 135, 136, 137, 138, 139, 140, 141, 142, 143, 144, 145, 146, 147, 148, 149, 150, 151, 152, 153, 154, 155, 156, 157, 158, 159, 160, 161, 162, 163, 164, 165, 166, 167, 168, 169, 170, 171, 172, 173, 174, 175, 176, 177, 178, 179, 180, 181, 182, 183, 184, 185, 186, 187, 188, 189, 190, 191, 192, 193, 194, 195, 196, 197, 198, 199, 200, 201, 202, 203, 204, 205, 206, 207, 208, 209, 210, 211, 212, 213, 214, 215, 216, 217, 218, 219, 220, 221, 222, 223, 224, 225, 226, 227, 228, 229, 230, 231, 232, 233, 234, 235, 236, 237, 238, 239, 240, 241, 242, 243, 244, 245, 246, 247, 248, 249, 250, 251, 252, 253, 254, 255, 256, 257, 258, 259, 260, 261, 262, 263, 264, 265, 266, 267, 268, 269, 270, 271, 272, 273, 274, 275, 276, 277, 278, 279, 280, 281, 282, 283, 284, 285, 286, 287, 288, 289, 290, 291, 292, 293, 294, 295, 296, 297, 298, 299, 300, 301, 302, 303, 304, 305, 306, 307, 308, 309, 310, 311, 312, 313, 314, 315, 316, 317, 318, 319, 320, 321, 322, 323, 324, 325, 326, 327, 328, 329, 330, 331, 332, 333, 334, 335, 336, 337, 338, 339, 340, 341, 342, 343, 344, 345, 346, 347, 348, 349, 350, 351, 352, 353, 354, 355, 356, 357, 358, 359, 360, 361, 362, 363, 364, 365, 366, 367, 368, 369, 370, 371, 372, 373, 374, 375, 376, 377, 378, 379, 380, 381, 382, 383, 384, 385, 386, 387, 388, 389, 390, 391, 392, 393, 394, 395, 396, 397, 398, 399, 400, 401, 402, 403, 404, 405, 406, 407, 408, 409, 410, 411, 412, 413, 414, 415, 416, 417, 418, 419, 420, 421, 422, 423, 424, 425, 426, 427, 428, 429, 430, 431, 432, 433, 434, 435, 436, 437, 438, 439, 440, 441, 442, 443, 444, 445, 446, 447, 448, 449, 450, 451, 452, 453, 454, 455, 456, 457, 458, 459, 460, 461, 462, 463, 464, 465, 466, 467, 468, 469, 470, 471, 472, 473, 474, 475, 476, 477, 478, 479, 480, 481, 482, 483, 484, 485, 486, 487, 488, 489, 490, 491, 492, 493, 494, 495, 496, 497, 498, 499, 500, 501, 502, 503, 504, 505, 506, 507, 508, 509, 510, 511, 512, 513, 514, 515, 516, 517, 518, 519, 520, 521, 522, 523, 524, 525, 526, 527, 528, 529, 530, 531, 532, 533, 534, 535, 536, 537, 538, 539, 540, 541, 542, 543, 544, 545, 546, 547, 548, 549, 550, 551, 552, 553, 554, 555, 556, 557, 558, 559, 560, 561, 562, 563, 564, 565, 566, 567, 568, 569, 570, 571, 572, 573, 574, 575, 576, 577, 578, 579, 580, 581, 582, 583, 584, 585, 586, 587, 588, 589, 590, 591, 592, 593, 594, 595, 596, 597, 598, 599, 600, 601, 602, 603, 604, 605, 606, 607, 608, 609, 610, 611, 612, 613, 614, 615, 616, 617, 618, 619, 620, 621, 622, 623, 624, 625, 626, 627, 628, 629, 630, 631, 632, 633, 634, 635, 636, 637, 638, 639, 640, 641, 642, 643, 644, 645, 646, 647, 648, 649, 650, 651, 652, 653, 654, 655, 656, 657, 658, 659, 660, 661, 662, 663, 664, 665, 666, 667, 668, 669, 670, 671, 672, 673, 674, 675, 676, 677, 678, 679, 680, 681, 682, 683, 684, 685, 686, 687, 688, 689, 690, 691, 692, 693, 694, 695, 696, 697, 698, 699, 700, 701, 702, 703, 704, 705, 706, 707, 708, 709, 710, 711, 712, 713, 714, 715, 716, 717, 718, 719, 720, 721, 722, 723, 724, 725, 726, 727, 728, 729, 730, 731, 732, 733, 734, 735, 736, 737, 738, 739, 740, 741, 742, 743, 744, 745, 746, 747, 748, 749, 750, 751, 752, 753, 754, 755, 756, 757, 758, 759, 760, 761, 762, 763, 764, 765, 766, 767, 768, 769, 770, 771, 772, 773, 774, 775, 776, 777, 778, 779, 780, 781, 782, 783, 784, 785, 786, 787, 788, 789, 790, 791, 792, 793, 794, 795, 796, 797, 798, 799, 800, 801, 802, 803, 804, 805, 806, 807, 808, 809, 810, 811, 812, 813, 814, 815, 816, 817, 818, 819, 820, 821, 822, 823, 824, 825, 826, 827, 828, 829, 830, 831, 832, 833, 834, 835, 836, 837, 838, 839, 840, 841, 842, 843, 844, 845, 846, 847, 848, 849, 850, 851, 852, 853, 854, 855, 856, 857, 858, 859, 860, 861, 862, 863, 864, 865, 866, 867, 868, 869, 870, 871, 872],
      "AcquisitionTime": ["125337.672500", "125338.132500", "125338.592500", "125339.052500", "125339.512500", "125339.972500", "125340.432500", "125340.892500", "125341.352500", "125341.812500", "125342.272500", "125342.732500", "125343.192500", "125343.652500", "125344.112500", "125344.572500", "125345.032500", "125345.492500", "125345.952500", "125346.412500", "125346.872500", "125347.332500", "125347.792500", "125348.252500", "125348.712500", "125349.172500", "125349.632500", "125350.092500", "125350.552500", "125351.012500", "125351.472500", "125351.932500", "125352.392500", "125352.852500", "125353.312500", "125353.772500", "125354.232500", "125354.692500", "125355.152500", "125355.612500", "125356.072500", "125356.532500", "125356.992500", "125357.452500", "125357.912500", "125358.372500", "125358.832500", "125359.292500", "125359.752500", "125400.212500", "125400.672500", "125401.132500", "125401.592500", "125402.052500", "125402.512500", "125402.972500", "125403.432500", "125403.892500", "125404.352500", "125404.812500", "125405.272500", "125405.732500", "125406.192500", "125406.652500", "125407.112500", "125407.572500", "125408.032500", "125408.492500", "125408.952500", "125409.412500", "125409.872500", "125410.332500", "125410.792500", "125411.252500", "125411.712500", "125412.172500", "125412.632500", "125413.092500", "125413.552500", "125414.012500", "125414.472500", "125414.932500", "125415.392500", "125415.852500", "125416.312500", "125416.772500", "125417.232500", "125417.692500", "125418.152500", "125418.612500", "125419.072500", "125419.532500", "125419.992500", "125420.452500", "125420.912500", "125421.372500", "125421.832500", "125422.292500", "125422.752500", "125423.212500", "125423.672500", "125424.132500", "125424.592500", "125425.052500", "125425.512500", "125425.972500", "125426.432500", "125426.892500", "125427.352500", "125427.812500", "125428.272500", "125428.732500", "125429.192500", "125429.652500", "125430.112500", "125430.572500", "125431.032500", "125431.492500", "125431.952500", "125432.412500", "125432.872500", "125433.332500", "125433.792500", "125434.252500", "125434.712500", "125435.172500", "125435.632500", "125436.092500", "125436.552500", "125437.012500", "125437.472500", "125437.932500", "125438.392500", "125438.852500", "125439.312500", "125439.772500", "125440.232500", "125440.692500", "125441.152500", "125441.612500", "125442.072500", "125442.532500", "125442.992500", "125443.452500", "125443.912500", "125444.372500", "125444.832500", "125445.292500", "125445.752500", "125446.212500", "125446.672500", "125447.132500", "125447.592500", "125448.052500", "125448.512500", "125448.972500", "125449.432500", "125449.892500", "125450.352500", "125450.812500", "125451.272500", "125451.732500", "125452.192500", "125452.652500", "125453.112500", "125453.572500", "125454.032500", "125454.492500", "125454.952500", "125455.412500", "125455.872500", "125456.332500", "125456.792500", "125457.252500", "125457.712500", "125458.172500", "125458.632500", "125459.092500", "125459.552500", "125500.012500", "125500.472500", "125500.932500", "125501.392500", "125501.852500", "125502.312500", "125502.772500", "125503.232500", "125503.692500", "125504.152500", "125504.612500", "125505.072500", "125505.532500", "125505.992500", "125506.452500", "125506.912500", "125507.372500", "125507.832500", "125508.292500", "125508.752500", "125509.212500", "125509.672500", "125510.132500", "125510.592500", "125511.052500", "125511.512500", "125511.972500", "125512.432500", "125512.892500", "125513.352500", "125513.812500", "125514.272500", "125514.732500", "125515.192500", "125515.652500", "125516.112500", "125516.572500", "125517.032500", "125517.492500", "125517.952500", "125518.412500", "125518.872500", "125519.332500", "125519.792500", "125520.252500", "125520.712500", "125521.172500", "125521.632500", "125522.092500", "125522.552500", "125523.012500", "125523.472500", "125523.932500", "125524.392500", "125524.852500", "125525.312500", "125525.772500", "125526.232500", "125526.692500", "125527.152500", "125527.612500", "125528.072500", "125528.532500", "125528.992500", "125529.452500", "125529.912500", "125530.372500", "125530.832500", "125531.292500", "125531.752500", "125532.212500", "125532.672500", "125533.132500", "125533.592500", "125534.052500", "125534.512500", "125534.972500", "125535.432500", "125535.892500", "125536.352500", "125536.812500", "125537.272500", "125537.732500", "125538.192500", "125538.652500", "125539.112500", "125539.572500", "125540.032500", "125540.492500", "125540.952500", "125541.412500", "125541.872500", "125542.332500", "125542.792500", "125543.252500", "125543.712500", "125544.172500", "125544.632500", "125545.092500", "125545.552500", "125546.012500", "125546.472500", "125546.932500", "125547.392500", "125547.852500", "125548.312500", "125548.772500", "125549.232500", "125549.692500", "125550.152500", "125550.612500", "125551.072500", "125551.532500", "125551.992500", "125552.452500", "125552.912500", "125553.372500", "125553.832500", "125554.292500", "125554.752500", "125555.212500", "125555.672500", "125556.132500", "125556.592500", "125557.052500", "125557.512500", "125557.972500", "125558.432500", "125558.892500", "125559.352500", "125559.812500", "125600.272500", "125600.732500", "125601.192500", "125601.652500", "125602.112500", "125602.572500", "125603.032500", "125603.492500", "125603.952500", "125604.412500", "125604.872500", "125605.332500", "125605.792500", "125606.252500", "125606.712500", "125607.172500", "125607.632500", "125608.092500", "125608.552500", "125609.012500", "125609.472500", "125609.932500", "125610.392500", "125610.852500", "125611.312500", "125611.772500", "125612.232500", "125612.692500", "125613.152500", "125613.612500", "125614.072500", "125614.532500", "125614.992500", "125615.452500", "125615.912500", "125616.372500", "125616.832500", "125617.292500", "125617.752500", "125618.212500", "125618.672500", "125619.132500", "125619.592500", "125620.052500", "125620.512500", "125620.972500", "125621.432500", "125621.892500", "125622.352500", "125622.812500", "125623.272500", "125623.732500", "125624.192500", "125624.652500", "125625.112500", "125625.572500", "125626.032500", "125626.492500", "125626.952500", "125627.412500", "125627.872500", "125628.332500", "125628.792500", "125629.252500", "125629.712500", "125630.172500", "125630.632500", "125631.092500", "125631.552500", "125632.012500", "125632.472500", "125632.932500", "125633.392500", "125633.852500", "125634.312500", "125634.772500", "125635.232500", "125635.692500", "125636.152500", "125636.612500", "125637.072500", "125637.532500", "125637.992500", "125638.452500", "125638.912500", "125639.372500", "125639.832500", "125640.292500", "125640.752500", "125641.212500", "125641.672500", "125642.132500", "125642.592500", "125643.052500", "125643.512500", "125643.972500", "125644.432500", "125644.892500", "125645.352500", "125645.812500", "125646.272500", "125646.732500", "125647.192500", "125647.652500", "125648.112500", "125648.572500", "125649.032500", "125649.492500", "125649.952500", "125650.412500", "125650.872500", "125651.332500", "125651.792500", "125652.252500", "125652.712500", "125653.172500", "125653.632500", "125654.092500", "125654.552500", "125655.012500", "125655.472500", "125655.932500", "125656.392500", "125656.852500", "125657.312500", "125657.772500", "125658.232500", "125658.692500", "125659.152500", "125659.612500", "125700.072500", "125700.532500", "125700.992500", "125701.452500", "125701.912500", "125702.372500", "125702.832500", "125703.292500", "125703.752500", "125704.212500", "125704.672500", "125705.132500", "125705.592500", "125706.052500", "125706.512500", "125706.972500", "125707.432500", "125707.892500", "125708.352500", "125708.812500", "125709.272500", "125709.732500", "125710.192500", "125710.652500", "125711.112500", "125711.572500", "125712.032500", "125712.492500", "125712.952500", "125713.412500", "125713.872500", "125714.332500", "125714.792500", "125715.252500", "125715.712500", "125716.172500", "125716.632500", "125717.092500", "125717.552500", "125718.012500", "125718.472500", "125718.932500", "125719.392500", "125719.852500", "125720.312500", "125720.772500", "125721.232500", "125721.692500", "125722.152500", "125722.612500", "125723.072500", "125723.532500", "125723.992500", "125724.452500", "125724.912500", "125725.372500", "125725.832500", "125726.292500", "125726.752500", "125727.212500", "125727.672500", "125728.132500", "125728.592500", "125729.052500", "125729.512500", "125729.972500", "125730.432500", "125730.892500", "125731.352500", "125731.812500", "125732.272500", "125732.732500", "125733.192500", "125733.652500", "125734.112500", "125734.572500", "125735.032500", "125735.492500", "125735.952500", "125736.412500", "125736.872500", "125737.332500", "125737.792500", "125738.252500", "125738.712500", "125739.172500", "125739.632500", "125740.092500", "125740.552500", "125741.012500", "125741.472500", "125741.932500", "125742.392500", "125742.852500", "125743.312500", "125743.772500", "125744.232500", "125744.692500", "125745.152500", "125745.612500", "125746.072500", "125746.532500", "125746.992500", "125747.452500", "125747.912500", "125748.372500", "125748.832500", "125749.292500", "125749.752500", "125750.212500", "125750.672500", "125751.132500", "125751.592500", "125752.052500", "125752.512500", "125752.972500", "125753.432500", "125753.892500", "125754.352500", "125754.812500", "125755.272500", "125755.732500", "125756.192500", "125756.652500", "125757.112500", "125757.572500", "125758.032500", "125758.492500", "125758.952500", "125759.412500", "125759.872500", "125800.332500", "125800.792500", "125801.252500", "125801.712500", "125802.172500", "125802.632500", "125803.092500", "125803.552500", "125804.012500", "125804.472500", "125804.932500", "125805.392500", "125805.852500", "125806.312500", "125806.772500", "125807.232500", "125807.692500", "125808.152500", "125808.612500", "125809.072500", "125809.532500", "125809.992500", "125810.452500", "125810.912500", "125811.372500", "125811.832500", "125812.292500", "125812.752500", "125813.212500", "125813.672500", "125814.132500", "125814.592500", "125815.052500", "125815.512500", "125815.972500", "125816.432500", "125816.892500", "125817.352500", "125817.812500", "125818.272500", "125818.732500", "125819.192500", "125819.652500", "125820.112500", "125820.572500", "125821.032500", "125821.492500", "125821.952500", "125822.412500", "125822.872500", "125823.332500", "125823.792500", "125824.252500", "125824.712500", "125825.172500", "125825.632500", "125826.092500", "125826.552500", "125827.012500", "125827.472500", "125827.932500", "125828.392500", "125828.852500", "125829.312500", "125829.772500", "125830.232500", "125830.692500", "125831.152500", "125831.612500", "125832.072500", "125832.532500", "125832.992500", "125833.452500", "125833.912500", "125834.372500", "125834.832500", "125835.292500", "125835.752500", "125836.212500", "125836.672500", "125837.132500", "125837.592500", "125838.052500", "125838.512500", "125838.972500", "125839.432500", "125839.892500", "125840.352500", "125840.812500", "125841.272500", "125841.732500", "125842.192500", "125842.652500", "125843.112500", "125843.572500", "125844.032500", "125844.492500", "125844.952500", "125845.412500", "125845.872500", "125846.332500", "125846.792500", "125847.252500", "125847.712500", "125848.172500", "125848.632500", "125849.092500", "125849.552500", "125850.012500", "125850.472500", "125850.932500", "125851.392500", "125851.852500", "125852.312500", "125852.772500", "125853.232500", "125853.692500", "125854.152500", "125854.612500", "125855.072500", "125855.532500", "125855.992500", "125856.452500", "125856.912500", "125857.372500", "125857.832500", "125858.292500", "125858.752500", "125859.212500", "125859.672500", "125900.132500", "125900.592500", "125901.052500", "125901.512500", "125901.972500", "125902.432500", "125902.892500", "125903.352500", "125903.812500", "125904.272500", "125904.732500", "125905.192500", "125905.652500", "125906.112500", "125906.572500", "125907.032500", "125907.492500", "125907.952500", "125908.412500", "125908.872500", "125909.332500", "125909.792500", "125910.252500", "125910.712500", "125911.172500", "125911.632500", "125912.092500", "125912.552500", "125913.012500", "125913.472500", "125913.932500", "125914.392500", "125914.852500", "125915.312500", "125915.772500", "125916.232500", "125916.692500", "125917.152500", "125917.612500", "125918.072500", "125918.532500", "125918.992500", "125919.452500", "125919.912500", "125920.372500", "125920.832500", "125921.292500", "125921.752500", "125922.212500", "125922.672500", "125923.132500", "125923.592500", "125924.052500", "125924.512500", "125924.972500", "125925.432500", "125925.892500", "125926.352500", "125926.812500", "125927.272500", "125927.732500", "125928.192500", "125928.652500", "125929.112500", "125929.572500", "125930.032500", "125930.492500", "125930.952500", "125931.412500", "125931.872500", "125932.332500", "125932.792500", "125933.252500", "125933.712500", "125934.172500", "125934.632500", "125935.092500", "125935.552500", "125936.012500", "125936.472500", "125936.932500", "125937.392500", "125937.852500", "125938.312500", "125938.772500", "125939.232500", "125939.692500", "125940.152500", "125940.612500", "125941.072500", "125941.532500", "125941.992500", "125942.452500", "125942.912500", "125943.372500", "125943.832500", "125944.292500", "125944.752500", "125945.212500", "125945.672500", "125946.132500", "125946.592500", "125947.052500", "125947.512500", "125947.972500", "125948.432500", "125948.892500", "125949.352500", "125949.812500", "125950.272500", "125950.732500", "125951.192500", "125951.652500", "125952.112500", "125952.572500", "125953.032500", "125953.492500", "125953.952500", "125954.412500", "125954.872500", "125955.332500", "125955.792500", "125956.252500", "125956.712500", "125957.172500", "125957.632500", "125958.092500", "125958.552500", "125959.012500", "125959.472500", "125959.932500", "130000.392500", "130000.852500", "130001.312500", "130001.772500", "130002.232500", "130002.692500", "130003.152500", "130003.612500", "130004.072500", "130004.532500", "130004.992500", "130005.452500", "130005.912500", "130006.372500", "130006.832500", "130007.292500", "130007.752500", "130008.212500", "130008.672500", "130009.132500", "130009.592500", "130010.052500", "130010.512500", "130010.972500", "130011.432500", "130011.892500", "130012.352500", "130012.812500", "130013.272500", "130013.732500", "130014.192500", "130014.652500", "130015.112500", "130015.572500", "130016.032500", "130016.492500", "130016.952500", "130017.412500", "130017.872500", "130018.332500"],
