{
  "AcquisitionMatrixPE": 82,
  "AcquisitionNumber": 1,
  "AcquisitionTime": "13:23:49.275000",
  "BandwidthPerPixelPhaseEncode": 24.888,
  "BaseResolution": 82,
  "BodyPartExamined": "BRAIN",
  "ConsistencyInfo": "N4_VE11E_LATEST_20181129",
  "ConversionSoftware": "dcm2niix",
  "ConversionSoftwareVersion": "v1.0.20201102",
  "DerivedVendorReportedEchoSpacing": 0.00049,
  "DeviceSerialNumber": "66112",
  "DwellTime": 2e-06,
  "EchoTime": 0.0272,
  "EchoTrainLength": 82,
  "EffectiveEchoSpacing": 0.00049,
  "FlipAngle": 44,
  "ImageComments": "Unaliased MB8/PE3",
  "ImageOrientationPatientDICOM": [0.99877, 0.00133566, 0.0495619, -0.0094135, 0.986562, 0.163113],
  "ImageType": [
    "ORIGINAL",
    "PRIMARY",
    "M",
    "MB",
    "ND",
    "NORM",
    "MOSAIC"
],
  "ImagingFrequency": 123.252,
  "InPlanePhaseEncodingDirectionDICOM": "COL",
  "InstitutionAddress": "Maynard 3,Hanover,NH,US,03755",
  "InstitutionName": "Dartmouth College - PBS",
  "InstitutionalDepartmentName": "Department",
  "MRAcquisitionType": "2D",
  "MagneticFieldStrength": 3,
  "Manufacturer": "Siemens",
  "ManufacturersModelName": "Prisma",
  "Modality": "MR",
  "MultibandAccelerationFactor": 8,
  "PartialFourier": 1,
  "PatientPosition": "HFS",
  "PercentPhaseFOV": 100,
  "PercentSampling": 100,
  "PhaseEncodingDirection": "j-",
  "PhaseEncodingSteps": 82,
  "PhaseResolution": 1,
  "PixelBandwidth": 3050,
  "ProcedureStepDescription": "Wager_Wager^1076_spacetop",
  "ProtocolName": "func_run-06_task-social_acq-ap-mb8",
  "PulseSequenceDetails": "%CustomerSeq%\\cmrr_mbep2d_bold",
  "ReceiveCoilActiveElements": "HEA;HEP",
  "ReceiveCoilName": "Head_32",
  "ReconMatrixPE": 82,
  "RepetitionTime": 0.46,
  "SAR": 0.0941075,
  "ScanOptions": "FS",
  "ScanningSequence": "EP",
  "SequenceName": "epfid2d1_82",
  "SequenceVariant": "SK\\SS",
  "SeriesDescription": "func_run-06_task-social_acq-ap-mb8",
  "SeriesNumber": 32,
  "ShimSetting": [4172, -7799, -7244, 618, -8, -134, 33, 37],
  "SliceThickness": 2.7,
  "SliceTiming": [0, 0.2525, 0.0625, 0.315, 0.1275, 0.3775, 0.19, 0, 0.2525, 0.0625, 0.315, 0.1275, 0.3775, 0.19, 0, 0.2525, 0.0625, 0.315, 0.1275, 0.3775, 0.19, 0, 0.2525, 0.0625, 0.315, 0.1275, 0.3775, 0.19, 0, 0.2525, 0.0625, 0.315, 0.1275, 0.3775, 0.19, 0, 0.2525, 0.0625, 0.315, 0.1275, 0.3775, 0.19, 0, 0.2525, 0.0625, 0.315, 0.1275, 0.3775, 0.19, 0, 0.2525, 0.0625, 0.315, 0.1275, 0.3775, 0.19],
  "SoftwareVersions": "syngo MR E11",
  "SpacingBetweenSlices": 2.7,
  "StationName": "AWP66112",
  "TaskName": "social",
  "TotalReadoutTime": 0.03969,
  "TxRefAmp": 239.056,
  "WipMemBlock": "72beac71-7904-4b56-987e-a13ccd46671f||Sequence: R016 ve11e/master r/434b28f1; Aug  7 2019 18:53:46 by eja",
  "dcmmeta_affine": [
    [-2.6796274185180664, -0.025255728513002396, 0.1314307302236557, 108.91647338867188],
    [-0.003583471290767193, 2.6468749046325684, 0.4411243200302124, -97.76973724365234],
    [0.13297095894813538, -0.43762141466140747, 2.6604764461517334, -41.579071044921875],
    [0.0, 0.0, 0.0, 1.0]
],
  "dcmmeta_reorient_transform": [
    [0.0, -1.0, 0.0, 81.0],
    [1.0, 0.0, 0.0, 0.0],
    [0.0, 0.0, 1.0, 0.0],
    [0.0, 0.0, 0.0, 1.0]
],
  "dcmmeta_shape": [82, 82, 56, 872],
  "dcmmeta_slice_dim": 2,
  "dcmmeta_version": 0.6,
  "global": {
    "const": {
      "AccessionNumber": "A003890",
      "AcquisitionMatrix": [82, 0, 0, 82],
      "AngioFlag": "N",
      "BitsAllocated": 16,
      "BitsStored": 16,
      "BodyPartExamined": "BRAIN",
      "Columns": 656,
      "EchoNumbers": 1,
      "EchoTime": 27.2,
      "EchoTrainLength": 82,
      "FlipAngle": 44.0,
      "HighBit": 15,
      "ImageOrientationPatient": [0.99877016062881, 0.00133565747098, 0.04956190327893, -0.0094134986051, 0.98656241307803, 0.16311343030443],
      "ImagePositionPatient": [-868.67540894076, -877.30865296448, -240.78641624056],
      "ImageType": [
        "ORIGINAL",
        "PRIMARY",
        "M",
        "MB",
        "ND",
        "NORM",
        "MOSAIC"
],
      "ImagedNucleus": "1H",
      "ImagingFrequency": 123.252168,
      "InPlanePhaseEncodingDirection": "COL",
      "MRAcquisitionType": "2D",
      "MagneticFieldStrength": 3.0,
      "Manufacturer": "SIEMENS",
      "ManufacturerModelName": "Prisma",
      "Modality": "MR",
      "NumberOfAverages": 1.0,
      "NumberOfPhaseEncodingSteps": 82,
      "PercentPhaseFieldOfView": 100.0,
      "PercentSampling": 100.0,
      "PerformedProcedureStepStartTime": "120213.534000",
      "PhotometricInterpretation": "MONOCHROME2",
      "PixelBandwidth": 3050.0,
      "PixelRepresentation": 0,
      "PixelSpacing": [2.6829268932343, 2.6829268932343],
      "ProtocolName": "func_run-06_task-social_acq-ap-mb8",
      "RepetitionTime": 460.0,
      "Rows": 656,
      "SAR": 0.09410745414848,
      "SamplesPerPixel": 1,
      "ScanOptions": "FS",
      "ScanningSequence": "EP",
      "SequenceName": "epfid2d1_82",
      "SequenceVariant": [
        "SK",
        "SS"
],
      "SeriesDescription": "func_run-06_task-social_acq-ap-mb8",
      "SeriesNumber": 32,
      "SeriesTime": "132415.445000",
      "SliceLocation": -51.642141419799,
      "SliceThickness": 2.7000000476837,
      "SmallestImagePixelValue": 0,
      "SoftwareVersions": "syngo MR E11",
      "SpacingBetweenSlices": 2.7000000212075,
      "SpecificCharacterSet": "ISO_IR 100",
      "StudyID": "1",
      "StudyTime": "120213.408000",
      "TransmitCoilName": "Body",
      "VariableFlipAngleFlag": "N",
      "WindowCenterWidthExplanation": "Algo1"
    },
    "slices": {}
  },
  "time": {
    "samples": {
      "AcquisitionNumber": [1, 2, 3, 4, 5, 6, 7, 8, 9, 10, 11, 12, 13, 14, 15, 16, 17, 18, 19, 20, 21, 22, 23, 24, 25, 26, 27, 28, 29, 30, 31, 32, 33, 34, 35, 36, 37, 38, 39, 40, 41, 42, 43, 44, 45, 46, 47, 48, 49, 50, 51, 52, 53, 54, 55, 56, 57, 58, 59, 60, 61, 62, 63, 64, 65, 66, 67, 68, 69, 70, 71, 72, 73, 74, 75, 76, 77, 78, 79, 80, 81, 82, 83, 84, 85, 86, 87, 88, 89, 90, 91, 92, 93, 94, 95, 96, 97, 98, 99, 100, 101, 102, 103, 104, 105, 106, 107, 108, 109, 110, 111, 112, 113, 114, 115, 116, 117, 118, 119, 120, 121, 122, 123, 124, 125, 126, 127, 128, 129, 130, 131, 132, 133, 134, 135, 136, 137, 138, 139, 140, 141, 142, 143, 144, 145, 146, 147, 148, 149, 150, 151, 152, 153, 154, 155, 156, 157, 158, 159, 160, 161, 162, 163, 164, 165, 166, 167, 168, 169, 170, 171, 172, 173, 174, 175, 176, 177, 178, 179, 180, 181, 182, 183, 184, 185, 186, 187, 188, 189, 190, 191, 192, 193, 194, 195, 196, 197, 198, 199, 200, 201, 202, 203, 204, 205, 206, 207, 208, 209, 210, 211, 212, 213, 214, 215, 216, 217, 218, 219, 220, 221, 222, 223, 224, 225, 226, 227, 228, 229, 230, 231, 232, 233, 234, 235, 236, 237, 238, 239, 240, 241, 242, 243, 244, 245, 246, 247, 248, 249, 250, 251, 252, 253, 254, 255, 256, 257, 258, 259, 260, 261, 262, 263, 264, 265, 266, 267, 268, 269, 270, 271, 272, 273, 274, 275, 276, 277, 278, 279, 280, 281, 282, 283, 284, 285, 286, 287, 288, 289, 290, 291, 292, 293, 294, 295, 296, 297, 298, 299, 300, 301, 302, 303, 304, 305, 306, 307, 308, 309, 310, 311, 312, 313, 314, 315, 316, 317, 318, 319, 320, 321, 322, 323, 324, 325, 326, 327, 328, 329, 330, 331, 332, 333, 334, 335, 336, 337, 338, 339, 340, 341, 342, 343, 344, 345, 346, 347, 348, 349, 350, 351, 352, 353, 354, 355, 356, 357, 358, 359, 360, 361, 362, 363, 364, 365, 366, 367, 368, 369, 370, 371, 372, 373, 374, 375, 376, 377, 378, 379, 380, 381, 382, 383, 384, 385, 386, 387, 388, 389, 390, 391, 392, 393, 394, 395, 396, 397, 398, 399, 400, 401, 402, 403, 404, 405, 406, 407, 408, 409, 410, 411, 412, 413, 414, 415, 416, 417, 418, 419, 420, 421, 422, 423, 424, 425, 426, 427, 428, 429, 430, 431, 432, 433, 434, 435, 436, 437, 438, 439, 440, 441, 442, 443, 444, 445, 446, 447, 448, 449, 450, 451, 452, 453, 454, 455, 456, 457, 458, 459, 460, 461, 462, 463, 464, 465, 466, 467, 468, 469, 470, 471, 472, 473, 474, 475, 476, 477, 478, 479, 480, 481, 482, 483, 484, 485, 486, 487, 488, 489, 490, 491, 492, 493, 494, 495, 496, 497, 498, 499, 500, 501, 502, 503, 504, 505, 506, 507, 508, 509, 510, 511, 512, 513, 514, 515, 516, 517, 518, 519, 520, 521, 522, 523, 524, 525, 526, 527, 528, 529, 530, 531, 532, 533, 534, 535, 536, 537, 538, 539, 540, 541, 542, 543, 544, 545, 546, 547, 548, 549, 550, 551, 552, 553, 554, 555, 556, 557, 558, 559, 560, 561, 562, 563, 564, 565, 566, 567, 568, 569, 570, 571, 572, 573, 574, 575, 576, 577, 578, 579, 580, 581, 582, 583, 584, 585, 586, 587, 588, 589, 590, 591, 592, 593, 594, 595, 596, 597, 598, 599, 600, 601, 602, 603, 604, 605, 606, 607, 608, 609, 610, 611, 612, 613, 614, 615, 616, 617, 618, 619, 620, 621, 622, 623, 624, 625, 626, 627, 628, 629, 630, 631, 632, 633, 634, 635, 636, 637, 638, 639, 640, 641, 642, 643, 644, 645, 646, 647, 648, 649, 650, 651, 652, 653, 654, 655, 656, 657, 658, 659, 660, 661, 662, 663, 664, 665, 666, 667, 668, 669, 670, 671, 672, 673, 674, 675, 676, 677, 678, 679, 680, 681, 682, 683, 684, 685, 686, 687, 688, 689, 690, 691, 692, 693, 694, 695, 696, 697, 698, 699, 700, 701, 702, 703, 704, 705, 706, 707, 708, 709, 710, 711, 712, 713, 714, 715, 716, 717, 718, 719, 720, 721, 722, 723, 724, 725, 726, 727, 728, 729, 730, 731, 732, 733, 734, 735, 736, 737, 738, 739, 740, 741, 742, 743, 744, 745, 746, 747, 748, 749, 750, 751, 752, 753, 754, 755, 756, 757, 758, 759, 760, 761, 762, 763, 764, 765, 766, 767, 768, 769, 770, 771, 772, 773, 774, 775, 776, 777, 778, 779, 780, 781, 782, 783, 784, 785, 786, 787, 788, 789, 790, 791, 792, 793, 794, 795, 796, 797, 798, 799, 800, 801, 802, 803, 804, 805, 806, 807, 808, 809, 810, 811, 812, 813, 814, 815, 816, 817, 818, 819, 820, 821, 822, 823, 824, 825, 826, 827, 828, 829, 830, 831, 832, 833, 834, 835, 836, 837, 838, 839, 840, 841, 842, 843, 844, 845, 846, 847, 848, 849, 850, 851, 852, 853, 854, 855, 856, 857, 858, 859, 860, 861, 862, 863, 864, 865, 866, 867, 868, 869, 870, 871, 872],
      "AcquisitionTime": ["132349.275000", "132349.735000", "132350.195000", "132350.655000", "132351.115000", "132351.575000", "132352.035000", "132352.495000", "132352.955000", "132353.415000", "132353.875000", "132354.335000", "132354.795000", "132355.255000", "132355.715000", "132356.175000", "132356.635000", "132357.095000", "132357.555000", "132358.015000", "132358.475000", "132358.935000", "132359.395000", "132359.855000", "132400.315000", "132400.775000", "132401.235000", "132401.695000", "132402.155000", "132402.615000", "132403.075000", "132403.535000", "132403.995000", "132404.455000", "132404.915000", "132405.375000", "132405.835000", "132406.295000", "132406.755000", "132407.215000", "132407.675000", "132408.135000", "132408.595000", "132409.055000", "132409.515000", "132409.975000", "132410.435000", "132410.895000", "132411.355000", "132411.815000", "132412.275000", "132412.735000", "132413.195000", "132413.655000", "132414.115000", "132414.575000", "132415.035000", "132415.495000", "132415.955000", "132416.415000", "132416.875000", "132417.335000", "132417.795000", "132418.255000", "132418.715000", "132419.175000", "132419.635000", "132420.095000", "132420.555000", "132421.015000", "132421.475000", "132421.935000", "132422.395000", "132422.855000", "132423.315000", "132423.775000", "132424.235000", "132424.695000", "132425.155000", "132425.615000", "132426.075000", "132426.535000", "132426.995000", "132427.455000", "132427.915000", "132428.375000", "132428.835000", "132429.295000", "132429.755000", "132430.215000", "132430.675000", "132431.135000", "132431.595000", "132432.055000", "132432.515000", "132432.975000", "132433.435000", "132433.895000", "132434.355000", "132434.815000", "132435.275000", "132435.735000", "132436.195000", "132436.655000", "132437.115000", "132437.575000", "132438.035000", "132438.495000", "132438.955000", "132439.415000", "132439.875000", "132440.335000", "132440.795000", "132441.255000", "132441.715000", "132442.175000", "132442.635000", "132443.095000", "132443.555000", "132444.015000", "132444.475000", "132444.935000", "132445.395000", "132445.855000", "132446.315000", "132446.775000", "132447.235000", "132447.695000", "132448.155000", "132448.615000", "132449.075000", "132449.535000", "132449.995000", "132450.455000", "132450.915000", "132451.375000", "132451.835000", "132452.295000", "132452.755000", "132453.215000", "132453.675000", "132454.135000", "132454.595000", "132455.055000", "132455.515000", "132455.975000", "132456.435000", "132456.895000", "132457.355000", "132457.815000", "132458.275000", "132458.735000", "132459.195000", "132459.655000", "132500.115000", "132500.575000", "132501.035000", "132501.495000", "132501.955000", "132502.415000", "132502.875000", "132503.335000", "132503.795000", "132504.255000", "132504.715000", "132505.175000", "132505.635000", "132506.095000", "132506.555000", "132507.015000", "132507.475000", "132507.935000", "132508.395000", "132508.855000", "132509.315000", "132509.775000", "132510.235000", "132510.695000", "132511.155000", "132511.615000", "132512.075000", "132512.535000", "132512.995000", "132513.455000", "132513.915000", "132514.375000", "132514.835000", "132515.295000", "132515.755000", "132516.215000", "132516.675000", "132517.135000", "132517.595000", "132518.055000", "132518.515000", "132518.975000", "132519.435000", "132519.895000", "132520.355000", "132520.815000", "132521.275000", "132521.735000", "132522.195000", "132522.655000", "132523.115000", "132523.575000", "132524.035000", "132524.495000", "132524.955000", "132525.415000", "132525.875000", "132526.335000", "132526.795000", "132527.255000", "132527.715000", "132528.175000", "132528.635000", "132529.095000", "132529.555000", "132530.015000", "132530.475000", "132530.935000", "132531.395000", "132531.855000", "132532.315000", "132532.775000", "132533.235000", "132533.695000", "132534.155000", "132534.615000", "132535.075000", "132535.535000", "132535.995000", "132536.455000", "132536.915000", "132537.375000", "132537.835000", "132538.295000", "132538.755000", "132539.215000", "132539.675000", "132540.135000", "132540.595000", "132541.055000", "132541.515000", "132541.975000", "132542.435000", "132542.895000", "132543.355000", "132543.815000", "132544.275000", "132544.735000", "132545.195000", "132545.655000", "132546.115000", "132546.575000", "132547.035000", "132547.495000", "132547.955000", "132548.415000", "132548.875000", "132549.335000", "132549.795000", "132550.255000", "132550.715000", "132551.175000", "132551.635000", "132552.095000", "132552.555000", "132553.015000", "132553.475000", "132553.935000", "132554.395000", "132554.855000", "132555.315000", "132555.775000", "132556.235000", "132556.695000", "132557.155000", "132557.615000", "132558.075000", "132558.535000", "132558.995000", "132559.455000", "132559.915000", "132600.375000", "132600.835000", "132601.295000", "132601.755000", "132602.215000", "132602.675000", "132603.135000", "132603.595000", "132604.055000", "132604.515000", "132604.975000", "132605.435000", "132605.895000", "132606.355000", "132606.815000", "132607.275000", "132607.735000", "132608.195000", "132608.655000", "132609.115000", "132609.575000", "132610.035000", "132610.495000", "132610.955000", "132611.415000", "132611.875000", "132612.335000", "132612.795000", "132613.255000", "132613.715000", "132614.175000", "132614.635000", "132615.095000", "132615.555000", "132616.015000", "132616.475000", "132616.935000", "132617.395000", "132617.855000", "132618.315000", "132618.775000", "132619.235000", "132619.695000", "132620.155000", "132620.615000", "132621.075000", "132621.535000", "132621.995000", "132622.455000", "132622.915000", "132623.375000", "132623.835000", "132624.295000", "132624.755000", "132625.215000", "132625.675000", "132626.135000", "132626.595000", "132627.055000", "132627.515000", "132627.975000", "132628.435000", "132628.895000", "132629.355000", "132629.815000", "132630.275000", "132630.735000", "132631.195000", "132631.655000", "132632.115000", "132632.575000", "132633.035000", "132633.495000", "132633.955000", "132634.415000", "132634.875000", "132635.335000", "132635.795000", "132636.255000", "132636.715000", "132637.175000", "132637.635000", "132638.095000", "132638.555000", "132639.015000", "132639.475000", "132639.935000", "132640.395000", "132640.855000", "132641.315000", "132641.775000", "132642.235000", "132642.695000", "132643.155000", "132643.615000", "132644.075000", "132644.535000", "132644.995000", "132645.455000", "132645.915000", "132646.375000", "132646.835000", "132647.295000", "132647.755000", "132648.215000", "132648.675000", "132649.135000", "132649.595000", "132650.055000", "132650.515000", "132650.975000", "132651.435000", "132651.895000", "132652.355000", "132652.815000", "132653.275000", "132653.735000", "132654.195000", "132654.655000", "132655.115000", "132655.575000", "132656.035000", "132656.495000", "132656.955000", "132657.415000", "132657.875000", "132658.335000", "132658.795000", "132659.255000", "132659.715000", "132700.175000", "132700.635000", "132701.095000", "132701.555000", "132702.015000", "132702.475000", "132702.935000", "132703.395000", "132703.855000", "132704.315000", "132704.775000", "132705.235000", "132705.695000", "132706.155000", "132706.615000", "132707.075000", "132707.535000", "132707.995000", "132708.455000", "132708.915000", "132709.375000", "132709.835000", "132710.295000", "132710.755000", "132711.215000", "132711.675000", "132712.135000", "132712.595000", "132713.055000", "132713.515000", "132713.975000", "132714.435000", "132714.895000", "132715.355000", "132715.815000", "132716.275000", "132716.735000", "132717.195000", "132717.655000", "132718.115000", "132718.575000", "132719.035000", "132719.495000", "132719.955000", "132720.415000", "132720.875000", "132721.335000", "132721.795000", "132722.255000", "132722.715000", "132723.175000", "132723.635000", "132724.095000", "132724.555000", "132725.015000", "132725.475000", "132725.935000", "132726.395000", "132726.855000", "132727.315000", "132727.775000", "132728.235000", "132728.695000", "132729.155000", "132729.615000", "132730.075000", "132730.535000", "132730.995000", "132731.455000", "132731.915000", "132732.375000", "132732.835000", "132733.295000", "132733.755000", "132734.215000", "132734.675000", "132735.135000", "132735.595000", "132736.055000", "132736.515000", "132736.975000", "132737.435000", "132737.895000", "132738.355000", "132738.815000", "132739.275000", "132739.735000", "132740.195000", "132740.655000", "132741.115000", "132741.575000", "132742.035000", "132742.495000", "132742.955000", "132743.415000", "132743.875000", "132744.335000", "132744.795000", "132745.255000", "132745.715000", "132746.175000", "132746.635000", "132747.095000", "132747.555000", "132748.015000", "132748.475000", "132748.935000", "132749.395000", "132749.855000", "132750.315000", "132750.775000", "132751.235000", "132751.695000", "132752.155000", "132752.615000", "132753.075000", "132753.535000", "132753.995000", "132754.455000", "132754.915000", "132755.375000", "132755.835000", "132756.295000", "132756.755000", "132757.215000", "132757.675000", "132758.135000", "132758.595000", "132759.055000", "132759.515000", "132759.975000", "132800.435000", "132800.895000", "132801.355000", "132801.815000", "132802.275000", "132802.735000", "132803.195000", "132803.655000", "132804.115000", "132804.575000", "132805.035000", "132805.495000", "132805.955000", "132806.415000", "132806.875000", "132807.335000", "132807.795000", "132808.255000", "132808.715000", "132809.175000", "132809.635000", "132810.095000", "132810.555000", "132811.015000", "132811.475000", "132811.935000", "132812.395000", "132812.855000", "132813.315000", "132813.775000", "132814.235000", "132814.695000", "132815.155000", "132815.615000", "132816.075000", "132816.535000", "132816.995000", "132817.455000", "132817.915000", "132818.375000", "132818.835000", "132819.295000", "132819.755000", "132820.215000", "132820.675000", "132821.135000", "132821.595000", "132822.055000", "132822.515000", "132822.975000", "132823.435000", "132823.895000", "132824.355000", "132824.815000", "132825.275000", "132825.735000", "132826.195000", "132826.655000", "132827.115000", "132827.575000", "132828.035000", "132828.495000", "132828.955000", "132829.415000", "132829.875000", "132830.335000", "132830.795000", "132831.255000", "132831.715000", "132832.175000", "132832.635000", "132833.095000", "132833.555000", "132834.015000", "132834.475000", "132834.935000", "132835.395000", "132835.855000", "132836.315000", "132836.775000", "132837.235000", "132837.695000", "132838.155000", "132838.615000", "132839.075000", "132839.535000", "132839.995000", "132840.455000", "132840.915000", "132841.375000", "132841.835000", "132842.295000", "132842.755000", "132843.215000", "132843.675000", "132844.135000", "132844.595000", "132845.055000", "132845.515000", "132845.975000", "132846.435000", "132846.895000", "132847.355000", "132847.815000", "132848.275000", "132848.735000", "132849.195000", "132849.655000", "132850.115000", "132850.575000", "132851.035000", "132851.495000", "132851.955000", "132852.415000", "132852.875000", "132853.335000", "132853.795000", "132854.255000", "132854.715000", "132855.175000", "132855.635000", "132856.095000", "132856.555000", "132857.015000", "132857.475000", "132857.935000", "132858.395000", "132858.855000", "132859.315000", "132859.775000", "132900.235000", "132900.695000", "132901.155000", "132901.615000", "132902.075000", "132902.535000", "132902.995000", "132903.455000", "132903.915000", "132904.375000", "132904.835000", "132905.295000", "132905.755000", "132906.215000", "132906.675000", "132907.135000", "132907.595000", "132908.055000", "132908.515000", "132908.975000", "132909.435000", "132909.895000", "132910.355000", "132910.815000", "132911.275000", "132911.735000", "132912.195000", "132912.655000", "132913.115000", "132913.575000", "132914.035000", "132914.495000", "132914.955000", "132915.415000", "132915.875000", "132916.335000", "132916.795000", "132917.255000", "132917.715000", "132918.175000", "132918.635000", "132919.095000", "132919.555000", "132920.015000", "132920.475000", "132920.935000", "132921.395000", "132921.855000", "132922.315000", "132922.775000", "132923.235000", "132923.695000", "132924.155000", "132924.615000", "132925.075000", "132925.535000", "132925.995000", "132926.455000", "132926.915000", "132927.375000", "132927.835000", "132928.295000", "132928.755000", "132929.215000", "132929.675000", "132930.135000", "132930.595000", "132931.055000", "132931.515000", "132931.975000", "132932.435000", "132932.895000", "132933.355000", "132933.815000", "132934.275000", "132934.735000", "132935.195000", "132935.655000", "132936.115000", "132936.575000", "132937.035000", "132937.495000", "132937.955000", "132938.415000", "132938.875000", "132939.335000", "132939.795000", "132940.255000", "132940.715000", "132941.175000", "132941.635000", "132942.095000", "132942.555000", "132943.015000", "132943.475000", "132943.935000", "132944.395000", "132944.855000", "132945.315000", "132945.775000", "132946.235000", "132946.695000", "132947.155000", "132947.615000", "132948.075000", "132948.535000", "132948.995000", "132949.455000", "132949.915000", "132950.375000", "132950.835000", "132951.295000", "132951.755000", "132952.215000", "132952.675000", "132953.135000", "132953.595000", "132954.055000", "132954.515000", "132954.975000", "132955.435000", "132955.895000", "132956.355000", "132956.815000", "132957.275000", "132957.735000", "132958.195000", "132958.655000", "132959.115000", "132959.575000", "133000.035000", "133000.495000", "133000.955000", "133001.415000", "133001.875000", "133002.335000", "133002.795000", "133003.255000", "133003.715000", "133004.175000", "133004.635000", "133005.095000", "133005.555000", "133006.015000", "133006.475000", "133006.935000", "133007.395000", "133007.855000", "133008.315000", "133008.775000", "133009.235000", "133009.695000", "133010.155000", "133010.615000", "133011.075000", "133011.535000", "133011.995000", "133012.455000", "133012.915000", "133013.375000", "133013.835000", "133014.295000", "133014.755000", "133015.215000", "133015.675000", "133016.135000", "133016.595000", "133017.055000", "133017.515000", "133017.975000", "133018.435000", "133018.895000", "133019.355000", "133019.815000", "133020.275000", "133020.735000", "133021.195000", "133021.655000", "133022.115000", "133022.575000", "133023.035000", "133023.495000", "133023.955000", "133024.415000", "133024.875000", "133025.335000", "133025.795000", "133026.255000", "133026.715000", "133027.175000", "133027.635000", "133028.095000", "133028.555000", "133029.015000", "133029.475000", "133029.935000"],
