{
  "AcquisitionMatrixPE": 82,
  "AcquisitionNumber": 1,
  "AcquisitionTime": "12:44:55.985000",
  "BandwidthPerPixelPhaseEncode": 24.888,
  "BaseResolution": 82,
  "BodyPartExamined": "BRAIN",
  "ConsistencyInfo": "N4_VE11E_LATEST_20181129",
  "ConversionSoftware": "dcm2niix",
  "ConversionSoftwareVersion": "v1.0.20201102",
  "DerivedVendorReportedEchoSpacing": 0.00049,
  "DeviceSerialNumber": "66112",
  "DwellTime": 2e-06,
  "EchoTime": 0.0272,
  "EchoTrainLength": 82,
  "EffectiveEchoSpacing": 0.00049,
  "FlipAngle": 44,
  "ImageComments": "Unaliased MB8/PE3",
  "ImageOrientationPatientDICOM": [0.99877, 0.00133566, 0.0495619, -0.0094135, 0.986562, 0.163113],
  "ImageType": [
    "ORIGINAL",
    "PRIMARY",
    "M",
    "MB",
    "ND",
    "NORM",
    "MOSAIC"
],
  "ImagingFrequency": 123.252,
  "InPlanePhaseEncodingDirectionDICOM": "COL",
  "InstitutionAddress": "Maynard 3,Hanover,NH,US,03755",
  "InstitutionName": "Dartmouth College - PBS",
  "InstitutionalDepartmentName": "Department",
  "MRAcquisitionType": "2D",
  "MagneticFieldStrength": 3,
  "Manufacturer": "Siemens",
  "ManufacturersModelName": "Prisma",
  "Modality": "MR",
  "MultibandAccelerationFactor": 8,
  "PartialFourier": 1,
  "PatientPosition": "HFS",
  "PercentPhaseFOV": 100,
  "PercentSampling": 100,
  "PhaseEncodingDirection": "j-",
  "PhaseEncodingSteps": 82,
  "PhaseResolution": 1,
  "PixelBandwidth": 3050,
  "ProcedureStepDescription": "Wager_Wager^1076_spacetop",
  "ProtocolName": "func_run-01_task-social_acq-ap-mb8",
  "PulseSequenceDetails": "%CustomerSeq%\\cmrr_mbep2d_bold",
  "ReceiveCoilActiveElements": "HEA;HEP",
  "ReceiveCoilName": "Head_32",
  "ReconMatrixPE": 82,
  "RepetitionTime": 0.46,
  "SAR": 0.0941075,
  "ScanOptions": "FS",
  "ScanningSequence": "EP",
  "SequenceName": "epfid2d1_82",
  "SequenceVariant": "SK\\SS",
  "SeriesDescription": "func_run-01_task-social_acq-ap-mb8",
  "SeriesNumber": 12,
  "ShimSetting": [4172, -7799, -7244, 618, -8, -134, 33, 37],
  "SliceThickness": 2.7,
  "SliceTiming": [0, 0.2525, 0.0625, 0.315, 0.1275, 0.3775, 0.19, 0, 0.2525, 0.0625, 0.315, 0.1275, 0.3775, 0.19, 0, 0.2525, 0.0625, 0.315, 0.1275, 0.3775, 0.19, 0, 0.2525, 0.0625, 0.315, 0.1275, 0.3775, 0.19, 0, 0.2525, 0.0625, 0.315, 0.1275, 0.3775, 0.19, 0, 0.2525, 0.0625, 0.315, 0.1275, 0.3775, 0.19, 0, 0.2525, 0.0625, 0.315, 0.1275, 0.3775, 0.19, 0, 0.2525, 0.0625, 0.315, 0.1275, 0.3775, 0.19],
  "SoftwareVersions": "syngo MR E11",
  "SpacingBetweenSlices": 2.7,
  "StationName": "AWP66112",
  "TaskName": "social",
  "TotalReadoutTime": 0.03969,
  "TxRefAmp": 239.056,
  "WipMemBlock": "07831fad-e8cb-4247-90c4-205269272145||Sequence: R016 ve11e/master r/434b28f1; Aug  7 2019 18:53:46 by eja",
  "dcmmeta_affine": [
    [-2.6796274185180664, -0.025255728513002396, 0.1314307302236557, 108.91647338867188],
    [-0.003583471290767193, 2.6468749046325684, 0.4411243200302124, -97.76973724365234],
    [0.13297095894813538, -0.43762141466140747, 2.6604764461517334, -41.579071044921875],
    [0.0, 0.0, 0.0, 1.0]
],
  "dcmmeta_reorient_transform": [
    [0.0, -1.0, 0.0, 81.0],
    [1.0, 0.0, 0.0, 0.0],
    [0.0, 0.0, 1.0, 0.0],
    [0.0, 0.0, 0.0, 1.0]
],
  "dcmmeta_shape": [82, 82, 56, 872],
  "dcmmeta_slice_dim": 2,
  "dcmmeta_version": 0.6,
  "global": {
    "const": {
      "AccessionNumber": "A003890",
      "AcquisitionMatrix": [82, 0, 0, 82],
      "AngioFlag": "N",
      "BitsAllocated": 16,
      "BitsStored": 16,
      "BodyPartExamined": "BRAIN",
      "Columns": 656,
      "EchoNumbers": 1,
      "EchoTime": 27.2,
      "EchoTrainLength": 82,
      "FlipAngle": 44.0,
      "HighBit": 15,
      "ImageOrientationPatient": [0.99877016062881, 0.00133565747098, 0.04956190327893, -0.0094134986051, 0.98656241307803, 0.16311343030443],
      "ImagePositionPatient": [-868.67540894076, -877.30865296448, -240.78641624056],
      "ImageType": [
        "ORIGINAL",
        "PRIMARY",
        "M",
        "MB",
        "ND",
        "NORM",
        "MOSAIC"
],
      "ImagedNucleus": "1H",
      "ImagingFrequency": 123.252155,
      "InPlanePhaseEncodingDirection": "COL",
      "MRAcquisitionType": "2D",
      "MagneticFieldStrength": 3.0,
      "Manufacturer": "SIEMENS",
      "ManufacturerModelName": "Prisma",
      "Modality": "MR",
      "NumberOfAverages": 1.0,
      "NumberOfPhaseEncodingSteps": 82,
      "PercentPhaseFieldOfView": 100.0,
      "PercentSampling": 100.0,
      "PerformedProcedureStepStartTime": "120213.534000",
      "PhotometricInterpretation": "MONOCHROME2",
      "PixelBandwidth": 3050.0,
      "PixelRepresentation": 0,
      "PixelSpacing": [2.6829268932343, 2.6829268932343],
      "ProtocolName": "func_run-01_task-social_acq-ap-mb8",
      "RepetitionTime": 460.0,
      "Rows": 656,
      "SAR": 0.09410745414848,
      "SamplesPerPixel": 1,
      "ScanOptions": "FS",
      "ScanningSequence": "EP",
      "SequenceName": "epfid2d1_82",
      "SequenceVariant": [
        "SK",
        "SS"
],
      "SeriesDescription": "func_run-01_task-social_acq-ap-mb8",
      "SeriesNumber": 12,
      "SeriesTime": "124515.543000",
      "SliceLocation": -51.642141419799,
      "SliceThickness": 2.7000000476837,
      "SmallestImagePixelValue": 0,
      "SoftwareVersions": "syngo MR E11",
      "SpacingBetweenSlices": 2.7000000212075,
      "SpecificCharacterSet": "ISO_IR 100",
      "StudyID": "1",
      "StudyTime": "120213.408000",
      "TransmitCoilName": "Body",
      "VariableFlipAngleFlag": "N",
      "WindowCenterWidthExplanation": "Algo1"
    },
    "slices": {}
  },
  "time": {
    "samples": {
      "AcquisitionNumber": [1, 2, 3, 4, 5, 6, 7, 8, 9, 10, 11, 12, 13, 14, 15, 16, 17, 18, 19, 20, 21, 22, 23, 24, 25, 26, 27, 28, 29, 30, 31, 32, 33, 34, 35, 36, 37, 38, 39, 40, 41, 42, 43, 44, 45, 46, 47, 48, 49, 50, 51, 52, 53, 54, 55, 56, 57, 58, 59, 60, 61, 62, 63, 64, 65, 66, 67, 68, 69, 70, 71, 72, 73, 74, 75, 76, 77, 78, 79, 80, 81, 82, 83, 84, 85, 86, 87, 88, 89, 90, 91, 92, 93, 94, 95, 96, 97, 98, 99, 100, 101, 102, 103, 104, 105, 106, 107, 108, 109, 110, 111, 112, 113, 114, 115, 116, 117, 118, 119, 120, 121, 122, 123, 124, 125, 126, 127, 128, 129, 130, 131, 132, 133, 134, 135, 136, 137, 138, 139, 140, 141, 142, 143, 144, 145, 146, 147, 148, 149, 150, 151, 152, 153, 154, 155, 156, 157, 158, 159, 160, 161, 162, 163, 164, 165, 166, 167, 168, 169, 170, 171, 172, 173, 174, 175, 176, 177, 178, 179, 180, 181, 182, 183, 184, 185, 186, 187, 188, 189, 190, 191, 192, 193, 194, 195, 196, 197, 198, 199, 200, 201, 202, 203, 204, 205, 206, 207, 208, 209, 210, 211, 212, 213, 214, 215, 216, 217, 218, 219, 220, 221, 222, 223, 224, 225, 226, 227, 228, 229, 230, 231, 232, 233, 234, 235, 236, 237, 238, 239, 240, 241, 242, 243, 244, 245, 246, 247, 248, 249, 250, 251, 252, 253, 254, 255, 256, 257, 258, 259, 260, 261, 262, 263, 264, 265, 266, 267, 268, 269, 270, 271, 272, 273, 274, 275, 276, 277, 278, 279, 280, 281, 282, 283, 284, 285, 286, 287, 288, 289, 290, 291, 292, 293, 294, 295, 296, 297, 298, 299, 300, 301, 302, 303, 304, 305, 306, 307, 308, 309, 310, 311, 312, 313, 314, 315, 316, 317, 318, 319, 320, 321, 322, 323, 324, 325, 326, 327, 328, 329, 330, 331, 332, 333, 334, 335, 336, 337, 338, 339, 340, 341, 342, 343, 344, 345, 346, 347, 348, 349, 350, 351, 352, 353, 354, 355, 356, 357, 358, 359, 360, 361, 362, 363, 364, 365, 366, 367, 368, 369, 370, 371, 372, 373, 374, 375, 376, 377, 378, 379, 380, 381, 382, 383, 384, 385, 386, 387, 388, 389, 390, 391, 392, 393, 394, 395, 396, 397, 398, 399, 400, 401, 402, 403, 404, 405, 406, 407, 408, 409, 410, 411, 412, 413, 414, 415, 416, 417, 418, 419, 420, 421, 422, 423, 424, 425, 426, 427, 428, 429, 430, 431, 432, 433, 434, 435, 436, 437, 438, 439, 440, 441, 442, 443, 444, 445, 446, 447, 448, 449, 450, 451, 452, 453, 454, 455, 456, 457, 458, 459, 460, 461, 462, 463, 464, 465, 466, 467, 468, 469, 470, 471, 472, 473, 474, 475, 476, 477, 478, 479, 480, 481, 482, 483, 484, 485, 486, 487, 488, 489, 490, 491, 492, 493, 494, 495, 496, 497, 498, 499, 500, 501, 502, 503, 504, 505, 506, 507, 508, 509, 510, 511, 512, 513, 514, 515, 516, 517, 518, 519, 520, 521, 522, 523, 524, 525, 526, 527, 528, 529, 530, 531, 532, 533, 534, 535, 536, 537, 538, 539, 540, 541, 542, 543, 544, 545, 546, 547, 548, 549, 550, 551, 552, 553, 554, 555, 556, 557, 558, 559, 560, 561, 562, 563, 564, 565, 566, 567, 568, 569, 570, 571, 572, 573, 574, 575, 576, 577, 578, 579, 580, 581, 582, 583, 584, 585, 586, 587, 588, 589, 590, 591, 592, 593, 594, 595, 596, 597, 598, 599, 600, 601, 602, 603, 604, 605, 606, 607, 608, 609, 610, 611, 612, 613, 614, 615, 616, 617, 618, 619, 620, 621, 622, 623, 624, 625, 626, 627, 628, 629, 630, 631, 632, 633, 634, 635, 636, 637, 638, 639, 640, 641, 642, 643, 644, 645, 646, 647, 648, 649, 650, 651, 652, 653, 654, 655, 656, 657, 658, 659, 660, 661, 662, 663, 664, 665, 666, 667, 668, 669, 670, 671, 672, 673, 674, 675, 676, 677, 678, 679, 680, 681, 682, 683, 684, 685, 686, 687, 688, 689, 690, 691, 692, 693, 694, 695, 696, 697, 698, 699, 700, 701, 702, 703, 704, 705, 706, 707, 708, 709, 710, 711, 712, 713, 714, 715, 716, 717, 718, 719, 720, 721, 722, 723, 724, 725, 726, 727, 728, 729, 730, 731, 732, 733, 734, 735, 736, 737, 738, 739, 740, 741, 742, 743, 744, 745, 746, 747, 748, 749, 750, 751, 752, 753, 754, 755, 756, 757, 758, 759, 760, 761, 762, 763, 764, 765, 766, 767, 768, 769, 770, 771, 772, 773, 774, 775, 776, 777, 778, 779, 780, 781, 782, 783, 784, 785, 786, 787, 788, 789, 790, 791, 792, 793, 794, 795, 796, 797, 798, 799, 800, 801, 802, 803, 804, 805, 806, 807, 808, 809, 810, 811, 812, 813, 814, 815, 816, 817, 818, 819, 820, 821, 822, 823, 824, 825, 826, 827, 828, 829, 830, 831, 832, 833, 834, 835, 836, 837, 838, 839, 840, 841, 842, 843, 844, 845, 846, 847, 848, 849, 850, 851, 852, 853, 854, 855, 856, 857, 858, 859, 860, 861, 862, 863, 864, 865, 866, 867, 868, 869, 870, 871, 872],
      "AcquisitionTime": ["124455.985000", "124456.445000", "124456.905000", "124457.365000", "124457.825000", "124458.285000", "124458.745000", "124459.205000", "124459.665000", "124500.125000", "124500.585000", "124501.045000", "124501.505000", "124501.965000", "124502.425000", "124502.885000", "124503.345000", "124503.805000", "124504.265000", "124504.725000", "124505.185000", "124505.645000", "124506.105000", "124506.565000", "124507.025000", "124507.485000", "124507.945000", "124508.405000", "124508.865000", "124509.325000", "124509.785000", "124510.245000", "124510.705000", "124511.165000", "124511.625000", "124512.085000", "124512.545000", "124513.005000", "124513.465000", "124513.925000", "124514.385000", "124514.845000", "124515.305000", "124515.765000", "124516.225000", "124516.685000", "124517.145000", "124517.605000", "124518.065000", "124518.525000", "124518.985000", "124519.445000", "124519.905000", "124520.365000", "124520.825000", "124521.285000", "124521.745000", "124522.205000", "124522.665000", "124523.125000", "124523.585000", "124524.045000", "124524.505000", "124524.965000", "124525.425000", "124525.885000", "124526.345000", "124526.805000", "124527.265000", "124527.725000", "124528.185000", "124528.645000", "124529.105000", "124529.565000", "124530.025000", "124530.485000", "124530.945000", "124531.405000", "124531.865000", "124532.325000", "124532.785000", "124533.245000", "124533.705000", "124534.165000", "124534.625000", "124535.085000", "124535.545000", "124536.005000", "124536.465000", "124536.925000", "124537.385000", "124537.845000", "124538.305000", "124538.765000", "124539.225000", "124539.685000", "124540.145000", "124540.605000", "124541.065000", "124541.525000", "124541.985000", "124542.445000", "124542.905000", "124543.365000", "124543.825000", "124544.285000", "124544.745000", "124545.205000", "124545.665000", "124546.125000", "124546.585000", "124547.045000", "124547.505000", "124547.965000", "124548.425000", "124548.885000", "124549.345000", "124549.805000", "124550.265000", "124550.725000", "124551.185000", "124551.645000", "124552.105000", "124552.565000", "124553.025000", "124553.485000", "124553.945000", "124554.405000", "124554.865000", "124555.325000", "124555.785000", "124556.245000", "124556.705000", "124557.165000", "124557.625000", "124558.085000", "124558.545000", "124559.005000", "124559.465000", "124559.925000", "124600.385000", "124600.845000", "124601.305000", "124601.765000", "124602.225000", "124602.685000", "124603.145000", "124603.605000", "124604.065000", "124604.525000", "124604.985000", "124605.445000", "124605.905000", "124606.365000", "124606.825000", "124607.285000", "124607.745000", "124608.205000", "124608.665000", "124609.125000", "124609.585000", "124610.045000", "124610.505000", "124610.965000", "124611.425000", "124611.885000", "124612.345000", "124612.805000", "124613.265000", "124613.725000", "124614.185000", "124614.645000", "124615.105000", "124615.565000", "124616.025000", "124616.485000", "124616.945000", "124617.405000", "124617.865000", "124618.325000", "124618.785000", "124619.245000", "124619.705000", "124620.165000", "124620.625000", "124621.085000", "124621.545000", "124622.005000", "124622.465000", "124622.925000", "124623.385000", "124623.845000", "124624.305000", "124624.765000", "124625.225000", "124625.685000", "124626.145000", "124626.605000", "124627.065000", "124627.525000", "124627.985000", "124628.445000", "124628.905000", "124629.365000", "124629.825000", "124630.285000", "124630.745000", "124631.205000", "124631.665000", "124632.125000", "124632.585000", "124633.045000", "124633.505000", "124633.965000", "124634.425000", "124634.885000", "124635.345000", "124635.805000", "124636.265000", "124636.725000", "124637.185000", "124637.645000", "124638.105000", "124638.565000", "124639.025000", "124639.485000", "124639.945000", "124640.405000", "124640.865000", "124641.325000", "124641.785000", "124642.245000", "124642.705000", "124643.165000", "124643.625000", "124644.085000", "124644.545000", "124645.005000", "124645.465000", "124645.925000", "124646.385000", "124646.845000", "124647.305000", "124647.765000", "124648.225000", "124648.685000", "124649.145000", "124649.605000", "124650.065000", "124650.525000", "124650.985000", "124651.445000", "124651.905000", "124652.365000", "124652.825000", "124653.285000", "124653.745000", "124654.205000", "124654.665000", "124655.125000", "124655.585000", "124656.045000", "124656.505000", "124656.965000", "124657.425000", "124657.885000", "124658.345000", "124658.805000", "124659.265000", "124659.725000", "124700.185000", "124700.645000", "124701.105000", "124701.565000", "124702.025000", "124702.485000", "124702.945000", "124703.405000", "124703.865000", "124704.325000", "124704.785000", "124705.245000", "124705.705000", "124706.165000", "124706.625000", "124707.085000", "124707.545000", "124708.005000", "124708.465000", "124708.925000", "124709.385000", "124709.845000", "124710.305000", "124710.765000", "124711.225000", "124711.685000", "124712.145000", "124712.605000", "124713.065000", "124713.525000", "124713.985000", "124714.445000", "124714.905000", "124715.365000", "124715.825000", "124716.285000", "124716.745000", "124717.205000", "124717.665000", "124718.125000", "124718.585000", "124719.045000", "124719.505000", "124719.965000", "124720.425000", "124720.885000", "124721.345000", "124721.805000", "124722.265000", "124722.725000", "124723.185000", "124723.645000", "124724.105000", "124724.565000", "124725.025000", "124725.485000", "124725.945000", "124726.405000", "124726.865000", "124727.325000", "124727.785000", "124728.245000", "124728.705000", "124729.165000", "124729.625000", "124730.085000", "124730.545000", "124731.005000", "124731.465000", "124731.925000", "124732.385000", "124732.845000", "124733.305000", "124733.765000", "124734.225000", "124734.685000", "124735.145000", "124735.605000", "124736.065000", "124736.525000", "124736.985000", "124737.445000", "124737.905000", "124738.365000", "124738.825000", "124739.285000", "124739.745000", "124740.205000", "124740.665000", "124741.125000", "124741.585000", "124742.045000", "124742.505000", "124742.965000", "124743.425000", "124743.885000", "124744.345000", "124744.805000", "124745.265000", "124745.725000", "124746.185000", "124746.645000", "124747.105000", "124747.565000", "124748.025000", "124748.485000", "124748.945000", "124749.405000", "124749.865000", "124750.325000", "124750.785000", "124751.245000", "124751.705000", "124752.165000", "124752.625000", "124753.085000", "124753.545000", "124754.005000", "124754.465000", "124754.925000", "124755.385000", "124755.845000", "124756.305000", "124756.765000", "124757.225000", "124757.685000", "124758.145000", "124758.605000", "124759.065000", "124759.525000", "124759.985000", "124800.445000", "124800.905000", "124801.365000", "124801.825000", "124802.285000", "124802.745000", "124803.205000", "124803.665000", "124804.125000", "124804.585000", "124805.045000", "124805.505000", "124805.965000", "124806.425000", "124806.885000", "124807.345000", "124807.805000", "124808.265000", "124808.725000", "124809.185000", "124809.645000", "124810.105000", "124810.565000", "124811.025000", "124811.485000", "124811.945000", "124812.405000", "124812.865000", "124813.325000", "124813.785000", "124814.245000", "124814.705000", "124815.165000", "124815.625000", "124816.085000", "124816.545000", "124817.005000", "124817.465000", "124817.925000", "124818.385000", "124818.845000", "124819.305000", "124819.765000", "124820.225000", "124820.685000", "124821.145000", "124821.605000", "124822.065000", "124822.525000", "124822.985000", "124823.445000", "124823.905000", "124824.365000", "124824.825000", "124825.285000", "124825.745000", "124826.205000", "124826.665000", "124827.125000", "124827.585000", "124828.045000", "124828.505000", "124828.965000", "124829.425000", "124829.885000", "124830.345000", "124830.805000", "124831.265000", "124831.725000", "124832.185000", "124832.645000", "124833.105000", "124833.565000", "124834.025000", "124834.485000", "124834.945000", "124835.405000", "124835.865000", "124836.325000", "124836.785000", "124837.245000", "124837.705000", "124838.165000", "124838.625000", "124839.085000", "124839.545000", "124840.005000", "124840.465000", "124840.925000", "124841.385000", "124841.845000", "124842.305000", "124842.765000", "124843.225000", "124843.685000", "124844.145000", "124844.605000", "124845.065000", "124845.525000", "124845.985000", "124846.445000", "124846.905000", "124847.365000", "124847.825000", "124848.285000", "124848.745000", "124849.205000", "124849.665000", "124850.125000", "124850.585000", "124851.045000", "124851.505000", "124851.965000", "124852.425000", "124852.885000", "124853.345000", "124853.805000", "124854.265000", "124854.725000", "124855.185000", "124855.645000", "124856.105000", "124856.565000", "124857.025000", "124857.485000", "124857.945000", "124858.405000", "124858.865000", "124859.325000", "124859.785000", "124900.245000", "124900.705000", "124901.165000", "124901.625000", "124902.085000", "124902.545000", "124903.005000", "124903.465000", "124903.925000", "124904.385000", "124904.845000", "124905.305000", "124905.765000", "124906.225000", "124906.685000", "124907.145000", "124907.605000", "124908.065000", "124908.525000", "124908.985000", "124909.445000", "124909.905000", "124910.365000", "124910.825000", "124911.285000", "124911.745000", "124912.205000", "124912.665000", "124913.125000", "124913.585000", "124914.045000", "124914.505000", "124914.965000", "124915.425000", "124915.885000", "124916.345000", "124916.805000", "124917.265000", "124917.725000", "124918.185000", "124918.645000", "124919.105000", "124919.565000", "124920.025000", "124920.485000", "124920.945000", "124921.405000", "124921.865000", "124922.325000", "124922.785000", "124923.245000", "124923.705000", "124924.165000", "124924.625000", "124925.085000", "124925.545000", "124926.005000", "124926.465000", "124926.925000", "124927.385000", "124927.845000", "124928.305000", "124928.765000", "124929.225000", "124929.685000", "124930.145000", "124930.605000", "124931.065000", "124931.525000", "124931.985000", "124932.445000", "124932.905000", "124933.365000", "124933.825000", "124934.285000", "124934.745000", "124935.205000", "124935.665000", "124936.125000", "124936.585000", "124937.045000", "124937.505000", "124937.965000", "124938.425000", "124938.885000", "124939.345000", "124939.805000", "124940.265000", "124940.725000", "124941.185000", "124941.645000", "124942.105000", "124942.565000", "124943.025000", "124943.485000", "124943.945000", "124944.405000", "124944.865000", "124945.325000", "124945.785000", "124946.245000", "124946.705000", "124947.165000", "124947.625000", "124948.085000", "124948.545000", "124949.005000", "124949.465000", "124949.925000", "124950.385000", "124950.845000", "124951.305000", "124951.765000", "124952.225000", "124952.685000", "124953.145000", "124953.605000", "124954.065000", "124954.525000", "124954.985000", "124955.445000", "124955.905000", "124956.365000", "124956.825000", "124957.285000", "124957.745000", "124958.205000", "124958.665000", "124959.125000", "124959.585000", "125000.045000", "125000.505000", "125000.965000", "125001.425000", "125001.885000", "125002.345000", "125002.805000", "125003.265000", "125003.725000", "125004.185000", "125004.645000", "125005.105000", "125005.565000", "125006.025000", "125006.485000", "125006.945000", "125007.405000", "125007.865000", "125008.325000", "125008.785000", "125009.245000", "125009.705000", "125010.165000", "125010.625000", "125011.085000", "125011.545000", "125012.005000", "125012.465000", "125012.925000", "125013.385000", "125013.845000", "125014.305000", "125014.765000", "125015.225000", "125015.685000", "125016.145000", "125016.605000", "125017.065000", "125017.525000", "125017.985000", "125018.445000", "125018.905000", "125019.365000", "125019.825000", "125020.285000", "125020.745000", "125021.205000", "125021.665000", "125022.125000", "125022.585000", "125023.045000", "125023.505000", "125023.965000", "125024.425000", "125024.885000", "125025.345000", "125025.805000", "125026.265000", "125026.725000", "125027.185000", "125027.645000", "125028.105000", "125028.565000", "125029.025000", "125029.485000", "125029.945000", "125030.405000", "125030.865000", "125031.325000", "125031.785000", "125032.245000", "125032.705000", "125033.165000", "125033.625000", "125034.085000", "125034.545000", "125035.005000", "125035.465000", "125035.925000", "125036.385000", "125036.845000", "125037.305000", "125037.765000", "125038.225000", "125038.685000", "125039.145000", "125039.605000", "125040.065000", "125040.525000", "125040.985000", "125041.445000", "125041.905000", "125042.365000", "125042.825000", "125043.285000", "125043.745000", "125044.205000", "125044.665000", "125045.125000", "125045.585000", "125046.045000", "125046.505000", "125046.965000", "125047.425000", "125047.885000", "125048.345000", "125048.805000", "125049.265000", "125049.725000", "125050.185000", "125050.645000", "125051.105000", "125051.565000", "125052.025000", "125052.485000", "125052.945000", "125053.405000", "125053.865000", "125054.325000", "125054.785000", "125055.245000", "125055.705000", "125056.165000", "125056.625000", "125057.085000", "125057.545000", "125058.005000", "125058.465000", "125058.925000", "125059.385000", "125059.845000", "125100.305000", "125100.765000", "125101.225000", "125101.685000", "125102.145000", "125102.605000", "125103.065000", "125103.525000", "125103.985000", "125104.445000", "125104.905000", "125105.365000", "125105.825000", "125106.285000", "125106.745000", "125107.205000", "125107.665000", "125108.125000", "125108.585000", "125109.045000", "125109.505000", "125109.965000", "125110.425000", "125110.885000", "125111.345000", "125111.805000", "125112.265000", "125112.725000", "125113.185000", "125113.645000", "125114.105000", "125114.565000", "125115.025000", "125115.485000", "125115.945000", "125116.405000", "125116.865000", "125117.325000", "125117.785000", "125118.245000", "125118.705000", "125119.165000", "125119.625000", "125120.085000", "125120.545000", "125121.005000", "125121.465000", "125121.925000", "125122.385000", "125122.845000", "125123.305000", "125123.765000", "125124.225000", "125124.685000", "125125.145000", "125125.605000", "125126.065000", "125126.525000", "125126.985000", "125127.445000", "125127.905000", "125128.365000", "125128.825000", "125129.285000", "125129.745000", "125130.205000", "125130.665000", "125131.125000", "125131.585000", "125132.045000", "125132.505000", "125132.965000", "125133.425000", "125133.885000", "125134.345000", "125134.805000", "125135.265000", "125135.725000", "125136.185000", "125136.645000"],
