{
  "AcquisitionMatrixPE": 82,
  "AcquisitionNumber": 1,
  "AcquisitionTime": "13:52:47.150000",
  "BandwidthPerPixelPhaseEncode": 24.888,
  "BaseResolution": 82,
  "BodyPartExamined": "BRAIN",
  "ConsistencyInfo": "N4_VE11E_LATEST_20181129",
  "ConversionSoftware": "dcm2niix",
  "ConversionSoftwareVersion": "v1.0.20201102",
  "DerivedVendorReportedEchoSpacing": 0.00049,
  "DeviceSerialNumber": "66112",
  "DwellTime": 2e-06,
  "EchoTime": 0.0272,
  "EchoTrainLength": 82,
  "EffectiveEchoSpacing": 0.00049,
  "FlipAngle": 44,
  "ImageComments": "Unaliased MB8/PE3",
  "ImageOrientationPatientDICOM": [0.99664, -0.0359581, 0.0735878, 0.0264461, 0.991629, 0.126379],
  "ImageType": [
    "ORIGINAL",
    "PRIMARY",
    "M",
    "MB",
    "ND",
    "NORM",
    "MOSAIC"
],
  "ImagingFrequency": 123.252,
  "InPlanePhaseEncodingDirectionDICOM": "COL",
  "InstitutionAddress": "Maynard 3,Hanover,NH,US,03755",
  "InstitutionName": "Dartmouth College - PBS",
  "InstitutionalDepartmentName": "Department",
  "MRAcquisitionType": "2D",
  "MagneticFieldStrength": 3,
  "Manufacturer": "Siemens",
  "ManufacturersModelName": "Prisma",
  "Modality": "MR",
  "MultibandAccelerationFactor": 8,
  "PartialFourier": 1,
  "PatientPosition": "HFS",
  "PercentPhaseFOV": 100,
  "PercentSampling": 100,
  "PhaseEncodingDirection": "j-",
  "PhaseEncodingSteps": 82,
  "PhaseResolution": 1,
  "PixelBandwidth": 3050,
  "ProcedureStepDescription": "Wager_Wager^1076_spacetop",
  "ProtocolName": "func_run-03_task-alignvideo_acq-ap-mb8",
  "PulseSequenceDetails": "%CustomerSeq%\\cmrr_mbep2d_bold",
  "ReceiveCoilActiveElements": "HEA;HEP",
  "ReceiveCoilName": "Head_32",
  "ReconMatrixPE": 82,
  "RepetitionTime": 0.46,
  "SAR": 0.0941904,
  "ScanOptions": "FS",
  "ScanningSequence": "EP",
  "SequenceName": "epfid2d1_82",
  "SequenceVariant": "SK\\SS",
  "SeriesDescription": "func_run-03_task-alignvideo_acq-ap-mb8",
  "SeriesNumber": 44,
  "ShimSetting": [4171, -7804, -7246, 580, -16, -143, 36, 36],
  "SliceThickness": 2.7,
  "SliceTiming": [0, 0.25, 0.0625, 0.3125, 0.125, 0.375, 0.1875, 0, 0.25, 0.0625, 0.3125, 0.125, 0.375, 0.1875, 0, 0.25, 0.0625, 0.3125, 0.125, 0.375, 0.1875, 0, 0.25, 0.0625, 0.3125, 0.125, 0.375, 0.1875, 0, 0.25, 0.0625, 0.3125, 0.125, 0.375, 0.1875, 0, 0.25, 0.0625, 0.3125, 0.125, 0.375, 0.1875, 0, 0.25, 0.0625, 0.3125, 0.125, 0.375, 0.1875, 0, 0.25, 0.0625, 0.3125, 0.125, 0.375, 0.1875],
  "SoftwareVersions": "syngo MR E11",
  "SpacingBetweenSlices": 2.7,
  "StationName": "AWP66112",
  "TaskName": "alignvideo",
  "TotalReadoutTime": 0.03969,
  "TxRefAmp": 239.056,
  "WipMemBlock": "1a6ec274-8010-4ed3-a651-15d18d12965e||Sequence: R016 ve11e/master r/434b28f1; Aug  7 2019 18:53:46 by eja",
  "dcmmeta_affine": [
    [-2.67391300201416, 0.0709528848528862, 0.20929375290870667, 102.69432067871094],
    [0.09647304564714432, 2.6604695320129395, 0.3348211944103241, -101.39857482910156],
    [0.1974307745695114, -0.33906441926956177, 2.6709718704223633, -52.55632400512695],
    [0.0, 0.0, 0.0, 1.0]
],
  "dcmmeta_reorient_transform": [
    [0.0, -1.0, 0.0, 81.0],
    [1.0, 0.0, 0.0, 0.0],
    [0.0, 0.0, 1.0, 0.0],
    [0.0, 0.0, 0.0, 1.0]
],
  "dcmmeta_shape": [82, 82, 56, 1016],
  "dcmmeta_slice_dim": 2,
  "dcmmeta_version": 0.6,
  "global": {
    "const": {
      "AccessionNumber": "A003890",
      "AcquisitionMatrix": [82, 0, 0, 82],
      "AngioFlag": "N",
      "BitsAllocated": 16,
      "BitsStored": 16,
      "BodyPartExamined": "BRAIN",
      "Columns": 656,
      "EchoNumbers": 1,
      "EchoTime": 27.2,
      "EchoTrainLength": 82,
      "FlipAngle": 44.0,
      "HighBit": 15,
      "ImageOrientationPatient": [0.99664027800494, -0.0359581336435, 0.07358783108035, 0.02644607416355, 0.99162950096182, 0.12637855033018],
      "ImagePositionPatient": [-896.2180127544, -849.96641971886, -233.99465842315],
      "ImageType": [
        "ORIGINAL",
        "PRIMARY",
        "M",
        "MB",
        "ND",
        "NORM",
        "MOSAIC"
],
      "ImagedNucleus": "1H",
      "ImagingFrequency": 123.252178,
      "InPlanePhaseEncodingDirection": "COL",
      "MRAcquisitionType": "2D",
      "MagneticFieldStrength": 3.0,
      "Manufacturer": "SIEMENS",
      "ManufacturerModelName": "Prisma",
      "Modality": "MR",
      "NumberOfAverages": 1.0,
      "NumberOfPhaseEncodingSteps": 82,
      "PercentPhaseFieldOfView": 100.0,
      "PercentSampling": 100.0,
      "PerformedProcedureStepStartTime": "120213.534000",
      "PhotometricInterpretation": "MONOCHROME2",
      "PixelBandwidth": 3050.0,
      "PixelRepresentation": 0,
      "PixelSpacing": [2.6829268932343, 2.6829268932343],
      "ProtocolName": "func_run-03_task-alignvideo_acq-ap-mb8",
      "RepetitionTime": 460.0,
      "Rows": 656,
      "SAR": 0.09419042672977,
      "SamplesPerPixel": 1,
      "ScanOptions": "FS",
      "ScanningSequence": "EP",
      "SequenceName": "epfid2d1_82",
      "SequenceVariant": [
        "SK",
        "SS"
],
      "SeriesDescription": "func_run-03_task-alignvideo_acq-ap-mb8",
      "SeriesNumber": 44,
      "SeriesTime": "135315.446000",
      "SliceLocation": -56.605028387392,
      "SliceThickness": 2.7000000476837,
      "SmallestImagePixelValue": 0,
      "SoftwareVersions": "syngo MR E11",
      "SpacingBetweenSlices": 2.7000000511385,
      "SpecificCharacterSet": "ISO_IR 100",
      "StudyID": "1",
      "StudyTime": "120213.408000",
      "TransmitCoilName": "Body",
      "VariableFlipAngleFlag": "N",
      "WindowCenterWidthExplanation": "Algo1"
    },
    "slices": {}
  },
  "time": {
    "samples": {
      "AcquisitionNumber": [1, 2, 3, 4, 5, 6, 7, 8, 9, 10, 11, 12, 13, 14, 15, 16, 17, 18, 19, 20, 21, 22, 23, 24, 25, 26, 27, 28, 29, 30, 31, 32, 33, 34, 35, 36, 37, 38, 39, 40, 41, 42, 43, 44, 45, 46, 47, 48, 49, 50, 51, 52, 53, 54, 55, 56, 57, 58, 59, 60, 61, 62, 63, 64, 65, 66, 67, 68, 69, 70, 71, 72, 73, 74, 75, 76, 77, 78, 79, 80, 81, 82, 83, 84, 85, 86, 87, 88, 89, 90, 91, 92, 93, 94, 95, 96, 97, 98, 99, 100, 101, 102, 103, 104, 105, 106, 107, 108, 109, 110, 111, 112, 113, 114, 115, 116, 117, 118, 119, 120, 121, 122, 123, 124, 125, 126, 127, 128, 129, 130, 131, 132, 133, 134, 135, 136, 137, 138, 139, 140, 141, 142, 143, 144, 145, 146, 147, 148, 149, 150, 151, 152, 153, 154, 155, 156, 157, 158, 159, 160, 161, 162, 163, 164, 165, 166, 167, 168, 169, 170, 171, 172, 173, 174, 175, 176, 177, 178, 179, 180, 181, 182, 183, 184, 185, 186, 187, 188, 189, 190, 191, 192, 193, 194, 195, 196, 197, 198, 199, 200, 201, 202, 203, 204, 205, 206, 207, 208, 209, 210, 211, 212, 213, 214, 215, 216, 217, 218, 219, 220, 221, 222, 223, 224, 225, 226, 227, 228, 229, 230, 231, 232, 233, 234, 235, 236, 237, 238, 239, 240, 241, 242, 243, 244, 245, 246, 247, 248, 249, 250, 251, 252, 253, 254, 255, 256, 257, 258, 259, 260, 261, 262, 263, 264, 265, 266, 267, 268, 269, 270, 271, 272, 273, 274, 275, 276, 277, 278, 279, 280, 281, 282, 283, 284, 285, 286, 287, 288, 289, 290, 291, 292, 293, 294, 295, 296, 297, 298, 299, 300, 301, 302, 303, 304, 305, 306, 307, 308, 309, 310, 311, 312, 313, 314, 315, 316, 317, 318, 319, 320, 321, 322, 323, 324, 325, 326, 327, 328, 329, 330, 331, 332, 333, 334, 335, 336, 337, 338, 339, 340, 341, 342, 343, 344, 345, 346, 347, 348, 349, 350, 351, 352, 353, 354, 355, 356, 357, 358, 359, 360, 361, 362, 363, 364, 365, 366, 367, 368, 369, 370, 371, 372, 373, 374, 375, 376, 377, 378, 379, 380, 381, 382, 383, 384, 385, 386, 387, 388, 389, 390, 391, 392, 393, 394, 395, 396, 397, 398, 399, 400, 401, 402, 403, 404, 405, 406, 407, 408, 409, 410, 411, 412, 413, 414, 415, 416, 417, 418, 419, 420, 421, 422, 423, 424, 425, 426, 427, 428, 429, 430, 431, 432, 433, 434, 435, 436, 437, 438, 439, 440, 441, 442, 443, 444, 445, 446, 447, 448, 449, 450, 451, 452, 453, 454, 455, 456, 457, 458, 459, 460, 461, 462, 463, 464, 465, 466, 467, 468, 469, 470, 471, 472, 473, 474, 475, 476, 477, 478, 479, 480, 481, 482, 483, 484, 485, 486, 487, 488, 489, 490, 491, 492, 493, 494, 495, 496, 497, 498, 499, 500, 501, 502, 503, 504, 505, 506, 507, 508, 509, 510, 511, 512, 513, 514, 515, 516, 517, 518, 519, 520, 521, 522, 523, 524, 525, 526, 527, 528, 529, 530, 531, 532, 533, 534, 535, 536, 537, 538, 539, 540, 541, 542, 543, 544, 545, 546, 547, 548, 549, 550, 551, 552, 553, 554, 555, 556, 557, 558, 559, 560, 561, 562, 563, 564, 565, 566, 567, 568, 569, 570, 571, 572, 573, 574, 575, 576, 577, 578, 579, 580, 581, 582, 583, 584, 585, 586, 587, 588, 589, 590, 591, 592, 593, 594, 595, 596, 597, 598, 599, 600, 601, 602, 603, 604, 605, 606, 607, 608, 609, 610, 611, 612, 613, 614, 615, 616, 617, 618, 619, 620, 621, 622, 623, 624, 625, 626, 627, 628, 629, 630, 631, 632, 633, 634, 635, 636, 637, 638, 639, 640, 641, 642, 643, 644, 645, 646, 647, 648, 649, 650, 651, 652, 653, 654, 655, 656, 657, 658, 659, 660, 661, 662, 663, 664, 665, 666, 667, 668, 669, 670, 671, 672, 673, 674, 675, 676, 677, 678, 679, 680, 681, 682, 683, 684, 685, 686, 687, 688, 689, 690, 691, 692, 693, 694, 695, 696, 697, 698, 699, 700, 701, 702, 703, 704, 705, 706, 707, 708, 709, 710, 711, 712, 713, 714, 715, 716, 717, 718, 719, 720, 721, 722, 723, 724, 725, 726, 727, 728, 729, 730, 731, 732, 733, 734, 735, 736, 737, 738, 739, 740, 741, 742, 743, 744, 745, 746, 747, 748, 749, 750, 751, 752, 753, 754, 755, 756, 757, 758, 759, 760, 761, 762, 763, 764, 765, 766, 767, 768, 769, 770, 771, 772, 773, 774, 775, 776, 777, 778, 779, 780, 781, 782, 783, 784, 785, 786, 787, 788, 789, 790, 791, 792, 793, 794, 795, 796, 797, 798, 799, 800, 801, 802, 803, 804, 805, 806, 807, 808, 809, 810, 811, 812, 813, 814, 815, 816, 817, 818, 819, 820, 821, 822, 823, 824, 825, 826, 827, 828, 829, 830, 831, 832, 833, 834, 835, 836, 837, 838, 839, 840, 841, 842, 843, 844, 845, 846, 847, 848, 849, 850, 851, 852, 853, 854, 855, 856, 857, 858, 859, 860, 861, 862, 863, 864, 865, 866, 867, 868, 869, 870, 871, 872, 873, 874, 875, 876, 877, 878, 879, 880, 881, 882, 883, 884, 885, 886, 887, 888, 889, 890, 891, 892, 893, 894, 895, 896, 897, 898, 899, 900, 901, 902, 903, 904, 905, 906, 907, 908, 909, 910, 911, 912, 913, 914, 915, 916, 917, 918, 919, 920, 921, 922, 923, 924, 925, 926, 927, 928, 929, 930, 931, 932, 933, 934, 935, 936, 937, 938, 939, 940, 941, 942, 943, 944, 945, 946, 947, 948, 949, 950, 951, 952, 953, 954, 955, 956, 957, 958, 959, 960, 961, 962, 963, 964, 965, 966, 967, 968, 969, 970, 971, 972, 973, 974, 975, 976, 977, 978, 979, 980, 981, 982, 983, 984, 985, 986, 987, 988, 989, 990, 991, 992, 993, 994, 995, 996, 997, 998, 999, 1000, 1001, 1002, 1003, 1004, 1005, 1006, 1007, 1008, 1009, 1010, 1011, 1012, 1013, 1014, 1015, 1016],
      "AcquisitionTime": ["135247.150000", "135247.610000", "135248.070000", "135248.530000", "135248.990000", "135249.450000", "135249.910000", "135250.370000", "135250.830000", "135251.290000", "135251.750000", "135252.210000", "135252.670000", "135253.130000", "135253.590000", "135254.050000", "135254.510000", "135254.970000", "135255.430000", "135255.890000", "135256.350000", "135256.810000", "135257.270000", "135257.730000", "135258.190000", "135258.650000", "135259.110000", "135259.570000", "135300.030000", "135300.490000", "135300.950000", "135301.410000", "135301.870000", "135302.330000", "135302.790000", "135303.250000", "135303.710000", "135304.170000", "135304.630000", "135305.090000", "135305.550000", "135306.010000", "135306.470000", "135306.930000", "135307.390000", "135307.850000", "135308.310000", "135308.770000", "135309.230000", "135309.690000", "135310.150000", "135310.610000", "135311.070000", "135311.530000", "135311.990000", "135312.450000", "135312.910000", "135313.370000", "135313.830000", "135314.290000", "135314.750000", "135315.210000", "135315.670000", "135316.130000", "135316.590000", "135317.050000", "135317.510000", "135317.970000", "135318.430000", "135318.890000", "135319.350000", "135319.810000", "135320.270000", "135320.730000", "135321.190000", "135321.650000", "135322.110000", "135322.570000", "135323.030000", "135323.490000", "135323.950000", "135324.410000", "135324.870000", "135325.330000", "135325.790000", "135326.250000", "135326.710000", "135327.170000", "135327.630000", "135328.090000", "135328.550000", "135329.010000", "135329.470000", "135329.930000", "135330.390000", "135330.850000", "135331.310000", "135331.770000", "135332.230000", "135332.690000", "135333.150000", "135333.610000", "135334.070000", "135334.530000", "135334.990000", "135335.450000", "135335.910000", "135336.370000", "135336.830000", "135337.290000", "135337.750000", "135338.210000", "135338.670000", "135339.130000", "135339.590000", "135340.050000", "135340.510000", "135340.970000", "135341.430000", "135341.890000", "135342.350000", "135342.810000", "135343.270000", "135343.730000", "135344.190000", "135344.650000", "135345.110000", "135345.570000", "135346.030000", "135346.490000", "135346.950000", "135347.410000", "135347.870000", "135348.330000", "135348.790000", "135349.250000", "135349.710000", "135350.170000", "135350.630000", "135351.090000", "135351.550000", "135352.010000", "135352.470000", "135352.930000", "135353.390000", "135353.850000", "135354.310000", "135354.770000", "135355.230000", "135355.690000", "135356.150000", "135356.610000", "135357.070000", "135357.530000", "135357.990000", "135358.450000", "135358.910000", "135359.370000", "135359.830000", "135400.290000", "135400.750000", "135401.210000", "135401.670000", "135402.130000", "135402.590000", "135403.050000", "135403.510000", "135403.970000", "135404.430000", "135404.890000", "135405.350000", "135405.810000", "135406.270000", "135406.730000", "135407.190000", "135407.650000", "135408.110000", "135408.570000", "135409.030000", "135409.490000", "135409.950000", "135410.410000", "135410.870000", "135411.330000", "135411.790000", "135412.250000", "135412.710000", "135413.170000", "135413.630000", "135414.090000", "135414.550000", "135415.010000", "135415.470000", "135415.930000", "135416.390000", "135416.850000", "135417.310000", "135417.770000", "135418.230000", "135418.690000", "135419.150000", "135419.610000", "135420.070000", "135420.530000", "135420.990000", "135421.450000", "135421.910000", "135422.370000", "135422.830000", "135423.290000", "135423.750000", "135424.210000", "135424.670000", "135425.130000", "135425.590000", "135426.050000", "135426.510000", "135426.970000", "135427.430000", "135427.890000", "135428.350000", "135428.810000", "135429.270000", "135429.730000", "135430.190000", "135430.650000", "135431.110000", "135431.570000", "135432.030000", "135432.490000", "135432.950000", "135433.410000", "135433.870000", "135434.330000", "135434.790000", "135435.250000", "135435.710000", "135436.170000", "135436.630000", "135437.090000", "135437.550000", "135438.010000", "135438.470000", "135438.930000", "135439.390000", "135439.850000", "135440.310000", "135440.770000", "135441.230000", "135441.690000", "135442.150000", "135442.610000", "135443.070000", "135443.530000", "135443.990000", "135444.450000", "135444.910000", "135445.370000", "135445.830000", "135446.290000", "135446.750000", "135447.210000", "135447.670000", "135448.130000", "135448.590000", "135449.050000", "135449.510000", "135449.970000", "135450.430000", "135450.890000", "135451.350000", "135451.810000", "135452.270000", "135452.730000", "135453.190000", "135453.650000", "135454.110000", "135454.570000", "135455.030000", "135455.490000", "135455.950000", "135456.410000", "135456.870000", "135457.330000", "135457.790000", "135458.250000", "135458.710000", "135459.170000", "135459.630000", "135500.090000", "135500.550000", "135501.010000", "135501.470000", "135501.930000", "135502.390000", "135502.850000", "135503.310000", "135503.770000", "135504.230000", "135504.690000", "135505.150000", "135505.610000", "135506.070000", "135506.530000", "135506.990000", "135507.450000", "135507.910000", "135508.370000", "135508.830000", "135509.290000", "135509.750000", "135510.210000", "135510.670000", "135511.130000", "135511.590000", "135512.050000", "135512.510000", "135512.970000", "135513.430000", "135513.890000", "135514.350000", "135514.810000", "135515.270000", "135515.730000", "135516.190000", "135516.650000", "135517.110000", "135517.570000", "135518.030000", "135518.490000", "135518.950000", "135519.410000", "135519.870000", "135520.330000", "135520.790000", "135521.250000", "135521.710000", "135522.170000", "135522.630000", "135523.090000", "135523.550000", "135524.010000", "135524.470000", "135524.930000", "135525.390000", "135525.850000", "135526.310000", "135526.770000", "135527.230000", "135527.690000", "135528.150000", "135528.610000", "135529.070000", "135529.530000", "135529.990000", "135530.450000", "135530.910000", "135531.370000", "135531.830000", "135532.290000", "135532.750000", "135533.210000", "135533.670000", "135534.130000", "135534.590000", "135535.050000", "135535.510000", "135535.970000", "135536.430000", "135536.890000", "135537.350000", "135537.810000", "135538.270000", "135538.730000", "135539.190000", "135539.650000", "135540.110000", "135540.570000", "135541.030000", "135541.490000", "135541.950000", "135542.410000", "135542.870000", "135543.330000", "135543.790000", "135544.250000", "135544.710000", "135545.170000", "135545.630000", "135546.090000", "135546.550000", "135547.010000", "135547.470000", "135547.930000", "135548.390000", "135548.850000", "135549.310000", "135549.770000", "135550.230000", "135550.690000", "135551.150000", "135551.610000", "135552.070000", "135552.530000", "135552.990000", "135553.450000", "135553.910000", "135554.370000", "135554.830000", "135555.290000", "135555.750000", "135556.210000", "135556.670000", "135557.130000", "135557.590000", "135558.050000", "135558.510000", "135558.970000", "135559.430000", "135559.890000", "135600.350000", "135600.810000", "135601.270000", "135601.730000", "135602.190000", "135602.650000", "135603.110000", "135603.570000", "135604.030000", "135604.490000", "135604.950000", "135605.410000", "135605.870000", "135606.330000", "135606.790000", "135607.250000", "135607.710000", "135608.170000", "135608.630000", "135609.090000", "135609.550000", "135610.010000", "135610.470000", "135610.930000", "135611.390000", "135611.850000", "135612.310000", "135612.770000", "135613.230000", "135613.690000", "135614.150000", "135614.610000", "135615.070000", "135615.530000", "135615.990000", "135616.450000", "135616.910000", "135617.370000", "135617.830000", "135618.290000", "135618.750000", "135619.210000", "135619.670000", "135620.130000", "135620.590000", "135621.050000", "135621.510000", "135621.970000", "135622.430000", "135622.890000", "135623.350000", "135623.810000", "135624.270000", "135624.730000", "135625.190000", "135625.650000", "135626.110000", "135626.570000", "135627.030000", "135627.490000", "135627.950000", "135628.410000", "135628.870000", "135629.330000", "135629.790000", "135630.250000", "135630.710000", "135631.170000", "135631.630000", "135632.090000", "135632.550000", "135633.010000", "135633.470000", "135633.930000", "135634.390000", "135634.850000", "135635.310000", "135635.770000", "135636.230000", "135636.690000", "135637.150000", "135637.610000", "135638.070000", "135638.530000", "135638.990000", "135639.450000", "135639.910000", "135640.370000", "135640.830000", "135641.290000", "135641.750000", "135642.210000", "135642.670000", "135643.130000", "135643.590000", "135644.050000", "135644.510000", "135644.970000", "135645.430000", "135645.890000", "135646.350000", "135646.810000", "135647.270000", "135647.730000", "135648.190000", "135648.650000", "135649.110000", "135649.570000", "135650.030000", "135650.490000", "135650.950000", "135651.410000", "135651.870000", "135652.330000", "135652.790000", "135653.250000", "135653.710000", "135654.170000", "135654.630000", "135655.090000", "135655.550000", "135656.010000", "135656.470000", "135656.930000", "135657.390000", "135657.850000", "135658.310000", "135658.770000", "135659.230000", "135659.690000", "135700.150000", "135700.610000", "135701.070000", "135701.530000", "135701.990000", "135702.450000", "135702.910000", "135703.370000", "135703.830000", "135704.290000", "135704.750000", "135705.210000", "135705.670000", "135706.130000", "135706.590000", "135707.050000", "135707.510000", "135707.970000", "135708.430000", "135708.890000", "135709.350000", "135709.810000", "135710.270000", "135710.730000", "135711.190000", "135711.650000", "135712.110000", "135712.570000", "135713.030000", "135713.490000", "135713.950000", "135714.410000", "135714.870000", "135715.330000", "135715.790000", "135716.250000", "135716.710000", "135717.170000", "135717.630000", "135718.090000", "135718.550000", "135719.010000", "135719.470000", "135719.930000", "135720.390000", "135720.850000", "135721.310000", "135721.770000", "135722.230000", "135722.690000", "135723.150000", "135723.610000", "135724.070000", "135724.530000", "135724.990000", "135725.450000", "135725.910000", "135726.370000", "135726.830000", "135727.290000", "135727.750000", "135728.210000", "135728.670000", "135729.130000", "135729.590000", "135730.050000", "135730.510000", "135730.970000", "135731.430000", "135731.890000", "135732.350000", "135732.810000", "135733.270000", "135733.730000", "135734.190000", "135734.650000", "135735.110000", "135735.570000", "135736.030000", "135736.490000", "135736.950000", "135737.410000", "135737.870000", "135738.330000", "135738.790000", "135739.250000", "135739.710000", "135740.170000", "135740.630000", "135741.090000", "135741.550000", "135742.010000", "135742.470000", "135742.930000", "135743.390000", "135743.850000", "135744.310000", "135744.770000", "135745.230000", "135745.690000", "135746.150000", "135746.610000", "135747.070000", "135747.530000", "135747.990000", "135748.450000", "135748.910000", "135749.370000", "135749.830000", "135750.290000", "135750.750000", "135751.210000", "135751.670000", "135752.130000", "135752.590000", "135753.050000", "135753.510000", "135753.970000", "135754.430000", "135754.890000", "135755.350000", "135755.810000", "135756.270000", "135756.730000", "135757.190000", "135757.650000", "135758.110000", "135758.570000", "135759.030000", "135759.490000", "135759.950000", "135800.410000", "135800.870000", "135801.330000", "135801.790000", "135802.250000", "135802.710000", "135803.170000", "135803.630000", "135804.090000", "135804.550000", "135805.010000", "135805.470000", "135805.930000", "135806.390000", "135806.850000", "135807.310000", "135807.770000", "135808.230000", "135808.690000", "135809.150000", "135809.610000", "135810.070000", "135810.530000", "135810.990000", "135811.450000", "135811.910000", "135812.370000", "135812.830000", "135813.290000", "135813.750000", "135814.210000", "135814.670000", "135815.130000", "135815.590000", "135816.050000", "135816.510000", "135816.970000", "135817.430000", "135817.890000", "135818.350000", "135818.810000", "135819.270000", "135819.730000", "135820.190000", "135820.650000", "135821.110000", "135821.570000", "135822.030000", "135822.490000", "135822.950000", "135823.410000", "135823.870000", "135824.330000", "135824.790000", "135825.250000", "135825.710000", "135826.170000", "135826.630000", "135827.090000", "135827.550000", "135828.010000", "135828.470000", "135828.930000", "135829.390000", "135829.850000", "135830.310000", "135830.770000", "135831.230000", "135831.690000", "135832.150000", "135832.610000", "135833.070000", "135833.530000", "135833.990000", "135834.450000", "135834.910000", "135835.370000", "135835.830000", "135836.290000", "135836.750000", "135837.210000", "135837.670000", "135838.130000", "135838.590000", "135839.050000", "135839.510000", "135839.970000", "135840.430000", "135840.890000", "135841.350000", "135841.810000", "135842.270000", "135842.730000", "135843.190000", "135843.650000", "135844.110000", "135844.570000", "135845.030000", "135845.490000", "135845.950000", "135846.410000", "135846.870000", "135847.330000", "135847.790000", "135848.250000", "135848.710000", "135849.170000", "135849.630000", "135850.090000", "135850.550000", "135851.010000", "135851.470000", "135851.930000", "135852.390000", "135852.850000", "135853.310000", "135853.770000", "135854.230000", "135854.690000", "135855.150000", "135855.610000", "135856.070000", "135856.530000", "135856.990000", "135857.450000", "135857.910000", "135858.370000", "135858.830000", "135859.290000", "135859.750000", "135900.210000", "135900.670000", "135901.130000", "135901.590000", "135902.050000", "135902.510000", "135902.970000", "135903.430000", "135903.890000", "135904.350000", "135904.810000", "135905.270000", "135905.730000", "135906.190000", "135906.650000", "135907.110000", "135907.570000", "135908.030000", "135908.490000", "135908.950000", "135909.410000", "135909.870000", "135910.330000", "135910.790000", "135911.250000", "135911.710000", "135912.170000", "135912.630000", "135913.090000", "135913.550000", "135914.010000", "135914.470000", "135914.930000", "135915.390000", "135915.850000", "135916.310000", "135916.770000", "135917.230000", "135917.690000", "135918.150000", "135918.610000", "135919.070000", "135919.530000", "135919.990000", "135920.450000", "135920.910000", "135921.370000", "135921.830000", "135922.290000", "135922.750000", "135923.210000", "135923.670000", "135924.130000", "135924.590000", "135925.050000", "135925.510000", "135925.970000", "135926.430000", "135926.890000", "135927.350000", "135927.810000", "135928.270000", "135928.730000", "135929.190000", "135929.650000", "135930.110000", "135930.570000", "135931.030000", "135931.490000", "135931.950000", "135932.410000", "135932.870000", "135933.330000", "135933.790000", "135934.250000", "135934.710000", "135935.170000", "135935.630000", "135936.090000", "135936.550000", "135937.010000", "135937.470000", "135937.930000", "135938.390000", "135938.850000", "135939.310000", "135939.770000", "135940.230000", "135940.690000", "135941.150000", "135941.610000", "135942.070000", "135942.530000", "135942.990000", "135943.450000", "135943.910000", "135944.370000", "135944.830000", "135945.290000", "135945.750000", "135946.210000", "135946.670000", "135947.130000", "135947.590000", "135948.050000", "135948.510000", "135948.970000", "135949.430000", "135949.890000", "135950.350000", "135950.810000", "135951.270000", "135951.730000", "135952.190000", "135952.650000", "135953.110000", "135953.570000", "135954.030000", "135954.490000", "135954.950000", "135955.410000", "135955.870000", "135956.330000", "135956.790000", "135957.250000", "135957.710000", "135958.170000", "135958.630000", "135959.090000", "135959.550000", "140000.010000", "140000.470000", "140000.930000", "140001.390000", "140001.850000", "140002.310000", "140002.770000", "140003.230000", "140003.690000", "140004.150000", "140004.610000", "140005.070000", "140005.530000", "140005.990000", "140006.450000", "140006.910000", "140007.370000", "140007.830000", "140008.290000", "140008.750000", "140009.210000", "140009.670000", "140010.130000", "140010.590000", "140011.050000", "140011.510000", "140011.970000", "140012.430000", "140012.890000", "140013.350000", "140013.810000", "140014.270000", "140014.730000", "140015.190000", "140015.650000", "140016.110000", "140016.570000", "140017.030000", "140017.490000", "140017.950000", "140018.410000", "140018.870000", "140019.330000", "140019.790000", "140020.250000", "140020.710000", "140021.170000", "140021.630000", "140022.090000", "140022.550000", "140023.010000", "140023.470000", "140023.930000", "140024.390000", "140024.850000", "140025.310000", "140025.770000", "140026.230000", "140026.690000", "140027.150000", "140027.610000", "140028.070000", "140028.530000", "140028.990000", "140029.450000", "140029.910000", "140030.370000", "140030.830000", "140031.290000", "140031.750000", "140032.210000", "140032.670000", "140033.130000", "140033.590000", "140034.050000"],
