{
  "AcquisitionMatrixPE": 82,
  "AcquisitionNumber": 1,
  "AcquisitionTime": "13:00:47.632500",
  "BandwidthPerPixelPhaseEncode": 24.888,
  "BaseResolution": 82,
  "BodyPartExamined": "BRAIN",
  "ConsistencyInfo": "N4_VE11E_LATEST_20181129",
  "ConversionSoftware": "dcm2niix",
  "ConversionSoftwareVersion": "v1.0.20201102",
  "DerivedVendorReportedEchoSpacing": 0.00049,
  "DeviceSerialNumber": "66112",
  "DwellTime": 2e-06,
  "EchoTime": 0.0272,
  "EchoTrainLength": 82,
  "EffectiveEchoSpacing": 0.00049,
  "FlipAngle": 44,
  "ImageComments": "Unaliased MB8/PE3",
  "ImageOrientationPatientDICOM": [0.99877, 0.00133566, 0.0495619, -0.0094135, 0.986562, 0.163113],
  "ImageType": [
    "ORIGINAL",
    "PRIMARY",
    "FMRI",
    "NONE",
    "MB",
    "ND",
    "NORM",
    "MOSAIC"
],
  "ImagingFrequency": 123.252,
  "InPlanePhaseEncodingDirectionDICOM": "COL",
  "InstitutionAddress": "Maynard 3,Hanover,NH,US,03755",
  "InstitutionName": "Dartmouth College - PBS",
  "InstitutionalDepartmentName": "Department",
  "MRAcquisitionType": "2D",
  "MagneticFieldStrength": 3,
  "Manufacturer": "Siemens",
  "ManufacturersModelName": "Prisma",
  "Modality": "MR",
  "MultibandAccelerationFactor": 8,
  "PartialFourier": 1,
  "PatientPosition": "HFS",
  "PercentPhaseFOV": 100,
  "PercentSampling": 100,
  "PhaseEncodingDirection": "j-",
  "PhaseEncodingSteps": 82,
  "PhaseResolution": 1,
  "PixelBandwidth": 3050,
  "ProcedureStepDescription": "Wager_Wager^1076_spacetop",
  "ProtocolName": "func_run-03_task-social_acq-ap-mb8",
  "PulseSequenceDetails": "%CustomerSeq%\\cmrr_mbep2d_bold",
  "ReceiveCoilActiveElements": "HEA;HEP",
  "ReceiveCoilName": "Head_32",
  "ReconMatrixPE": 82,
  "RepetitionTime": 0.46,
  "SAR": 0.0941075,
  "ScanOptions": "FS",
  "ScanningSequence": "EP",
  "SequenceName": "epfid2d1_82",
  "SequenceVariant": "SK\\SS",
  "SeriesDescription": "func_run-03_task-social_acq-ap-mb8",
  "SeriesNumber": 20,
  "ShimSetting": [4172, -7799, -7244, 618, -8, -134, 33, 37],
  "SliceThickness": 2.7,
  "SliceTiming": [0, 0.2525, 0.0625, 0.315, 0.125, 0.3775, 0.19, 0, 0.2525, 0.0625, 0.315, 0.125, 0.3775, 0.19, 0, 0.2525, 0.0625, 0.315, 0.125, 0.3775, 0.19, 0, 0.2525, 0.0625, 0.315, 0.125, 0.3775, 0.19, 0, 0.2525, 0.0625, 0.315, 0.125, 0.3775, 0.19, 0, 0.2525, 0.0625, 0.315, 0.125, 0.3775, 0.19, 0, 0.2525, 0.0625, 0.315, 0.125, 0.3775, 0.19, 0, 0.2525, 0.0625, 0.315, 0.125, 0.3775, 0.19],
  "SoftwareVersions": "syngo MR E11",
  "SpacingBetweenSlices": 2.7,
  "StationName": "AWP66112",
  "TaskName": "social",
  "TotalReadoutTime": 0.03969,
  "TxRefAmp": 239.056,
  "WipMemBlock": "a0d3eb8f-3130-4edb-a350-7df7cff514de||Sequence: R016 ve11e/master r/434b28f1; Aug  7 2019 18:53:46 by eja",
  "dcmmeta_affine": [
    [-2.6796274185180664, -0.025255728513002396, 0.1314307302236557, 108.91647338867188],
    [-0.003583471290767193, 2.6468749046325684, 0.4411243200302124, -97.76973724365234],
    [0.13297095894813538, -0.43762141466140747, 2.6604764461517334, -41.579071044921875],
    [0.0, 0.0, 0.0, 1.0]
],
  "dcmmeta_reorient_transform": [
    [0.0, -1.0, 0.0, 81.0],
    [1.0, 0.0, 0.0, 0.0],
    [0.0, 0.0, 1.0, 0.0],
    [0.0, 0.0, 0.0, 1.0]
],
  "dcmmeta_shape": [82, 82, 56, 872],
  "dcmmeta_slice_dim": 2,
  "dcmmeta_version": 0.6,
  "global": {
    "const": {
      "AccessionNumber": "A003890",
      "AcquisitionMatrix": [82, 0, 0, 82],
      "AngioFlag": "N",
      "BitsAllocated": 16,
      "BitsStored": 12,
      "BodyPartExamined": "BRAIN",
      "Columns": 656,
      "EchoNumbers": 1,
      "EchoTime": 27.2,
      "EchoTrainLength": 82,
      "FlipAngle": 44.0,
      "HighBit": 11,
      "ImageOrientationPatient": [0.99877016062881, 0.00133565747098, 0.04956190327893, -0.0094134986051, 0.98656241307803, 0.16311343030443],
      "ImagePositionPatient": [-868.67540894076, -877.30865296448, -240.78641624056],
      "ImageType": [
        "ORIGINAL",
        "PRIMARY",
        "FMRI",
        "NONE",
        "MB",
        "ND",
        "NORM",
        "MOSAIC"
],
      "ImagedNucleus": "1H",
      "ImagingFrequency": 123.252162,
      "InPlanePhaseEncodingDirection": "COL",
      "MRAcquisitionType": "2D",
      "MagneticFieldStrength": 3.0,
      "Manufacturer": "SIEMENS",
      "ManufacturerModelName": "Prisma",
      "Modality": "MR",
      "NumberOfAverages": 1.0,
      "NumberOfPhaseEncodingSteps": 82,
      "PercentPhaseFieldOfView": 100.0,
      "PercentSampling": 100.0,
      "PerformedProcedureStepStartTime": "120213.534000",
      "PhotometricInterpretation": "MONOCHROME2",
      "PixelBandwidth": 3050.0,
      "PixelRepresentation": 0,
      "PixelSpacing": [2.6829268932343, 2.6829268932343],
      "ProtocolName": "func_run-03_task-social_acq-ap-mb8",
      "RepetitionTime": 460.0,
      "Rows": 656,
      "SAR": 0.09410745414848,
      "SamplesPerPixel": 1,
      "ScanOptions": "FS",
      "ScanningSequence": "EP",
      "SequenceName": "epfid2d1_82",
      "SequenceVariant": [
        "SK",
        "SS"
],
      "SeriesDescription": "func_run-03_task-social_acq-ap-mb8",
      "SeriesNumber": 20,
      "SeriesTime": "130051.032000",
      "SliceLocation": -51.642141419799,
      "SliceThickness": 2.7000000476837,
      "SmallestImagePixelValue": 0,
      "SoftwareVersions": "syngo MR E11",
      "SpacingBetweenSlices": 2.7000000212075,
      "SpecificCharacterSet": "ISO_IR 100",
      "StudyID": "1",
      "StudyTime": "120213.408000",
      "TransmitCoilName": "Body",
      "VariableFlipAngleFlag": "N",
      "WindowCenterWidthExplanation": "Algo1"
    },
    "slices": {}
  },
  "time": {
    "samples": {
      "AcquisitionNumber": [1, 2, 3, 4, 5, 6, 7, 8, 9, 10, 11, 12, 13, 14, 15, 16, 17, 18, 19, 20, 21, 22, 23, 24, 25, 26, 27, 28, 29, 30, 31, 32, 33, 34, 35, 36, 37, 38, 39, 40, 41, 42, 43, 44, 45, 46, 47, 48, 49, 50, 51, 52, 53, 54, 55, 56, 57, 58, 59, 60, 61, 62, 63, 64, 65, 66, 67, 68, 69, 70, 71, 72, 73, 74, 75, 76, 77, 78, 79, 80, 81, 82, 83, 84, 85, 86, 87, 88, 89, 90, 91, 92, 93, 94, 95, 96, 97, 98, 99, 100, 101, 102, 103, 104, 105, 106, 107, 108, 109, 110, 111, 112, 113, 114, 115, 116, 117, 118, 119, 120, 121, 122, 123, 124, 125, 126, 127, 128, 129, 130, 131, 132, 133, 134, 135, 136, 137, 138, 139, 140, 141, 142, 143, 144, 145, 146, 147, 148, 149, 150, 151, 152, 153, 154, 155, 156, 157, 158, 159, 160, 161, 162, 163, 164, 165, 166, 167, 168, 169, 170, 171, 172, 173, 174, 175, 176, 177, 178, 179, 180, 181, 182, 183, 184, 185, 186, 187, 188, 189, 190, 191, 192, 193, 194, 195, 196, 197, 198, 199, 200, 201, 202, 203, 204, 205, 206, 207, 208, 209, 210, 211, 212, 213, 214, 215, 216, 217, 218, 219, 220, 221, 222, 223, 224, 225, 226, 227, 228, 229, 230, 231, 232, 233, 234, 235, 236, 237, 238, 239, 240, 241, 242, 243, 244, 245, 246, 247, 248, 249, 250, 251, 252, 253, 254, 255, 256, 257, 258, 259, 260, 261, 262, 263, 264, 265, 266, 267, 268, 269, 270, 271, 272, 273, 274, 275, 276, 277, 278, 279, 280, 281, 282, 283, 284, 285, 286, 287, 288, 289, 290, 291, 292, 293, 294, 295, 296, 297, 298, 299, 300, 301, 302, 303, 304, 305, 306, 307, 308, 309, 310, 311, 312, 313, 314, 315, 316, 317, 318, 319, 320, 321, 322, 323, 324, 325, 326, 327, 328, 329, 330, 331, 332, 333, 334, 335, 336, 337, 338, 339, 340, 341, 342, 343, 344, 345, 346, 347, 348, 349, 350, 351, 352, 353, 354, 355, 356, 357, 358, 359, 360, 361, 362, 363, 364, 365, 366, 367, 368, 369, 370, 371, 372, 373, 374, 375, 376, 377, 378, 379, 380, 381, 382, 383, 384, 385, 386, 387, 388, 389, 390, 391, 392, 393, 394, 395, 396, 397, 398, 399, 400, 401, 402, 403, 404, 405, 406, 407, 408, 409, 410, 411, 412, 413, 414, 415, 416, 417, 418, 419, 420, 421, 422, 423, 424, 425, 426, 427, 428, 429, 430, 431, 432, 433, 434, 435, 436, 437, 438, 439, 440, 441, 442, 443, 444, 445, 446, 447, 448, 449, 450, 451, 452, 453, 454, 455, 456, 457, 458, 459, 460, 461, 462, 463, 464, 465, 466, 467, 468, 469, 470, 471, 472, 473, 474, 475, 476, 477, 478, 479, 480, 481, 482, 483, 484, 485, 486, 487, 488, 489, 490, 491, 492, 493, 494, 495, 496, 497, 498, 499, 500, 501, 502, 503, 504, 505, 506, 507, 508, 509, 510, 511, 512, 513, 514, 515, 516, 517, 518, 519, 520, 521, 522, 523, 524, 525, 526, 527, 528, 529, 530, 531, 532, 533, 534, 535, 536, 537, 538, 539, 540, 541, 542, 543, 544, 545, 546, 547, 548, 549, 550, 551, 552, 553, 554, 555, 556, 557, 558, 559, 560, 561, 562, 563, 564, 565, 566, 567, 568, 569, 570, 571, 572, 573, 574, 575, 576, 577, 578, 579, 580, 581, 582, 583, 584, 585, 586, 587, 588, 589, 590, 591, 592, 593, 594, 595, 596, 597, 598, 599, 600, 601, 602, 603, 604, 605, 606, 607, 608, 609, 610, 611, 612, 613, 614, 615, 616, 617, 618, 619, 620, 621, 622, 623, 624, 625, 626, 627, 628, 629, 630, 631, 632, 633, 634, 635, 636, 637, 638, 639, 640, 641, 642, 643, 644, 645, 646, 647, 648, 649, 650, 651, 652, 653, 654, 655, 656, 657, 658, 659, 660, 661, 662, 663, 664, 665, 666, 667, 668, 669, 670, 671, 672, 673, 674, 675, 676, 677, 678, 679, 680, 681, 682, 683, 684, 685, 686, 687, 688, 689, 690, 691, 692, 693, 694, 695, 696, 697, 698, 699, 700, 701, 702, 703, 704, 705, 706, 707, 708, 709, 710, 711, 712, 713, 714, 715, 716, 717, 718, 719, 720, 721, 722, 723, 724, 725, 726, 727, 728, 729, 730, 731, 732, 733, 734, 735, 736, 737, 738, 739, 740, 741, 742, 743, 744, 745, 746, 747, 748, 749, 750, 751, 752, 753, 754, 755, 756, 757, 758, 759, 760, 761, 762, 763, 764, 765, 766, 767, 768, 769, 770, 771, 772, 773, 774, 775, 776, 777, 778, 779, 780, 781, 782, 783, 784, 785, 786, 787, 788, 789, 790, 791, 792, 793, 794, 795, 796, 797, 798, 799, 800, 801, 802, 803, 804, 805, 806, 807, 808, 809, 810, 811, 812, 813, 814, 815, 816, 817, 818, 819, 820, 821, 822, 823, 824, 825, 826, 827, 828, 829, 830, 831, 832, 833, 834, 835, 836, 837, 838, 839, 840, 841, 842, 843, 844, 845, 846, 847, 848, 849, 850, 851, 852, 853, 854, 855, 856, 857, 858, 859, 860, 861, 862, 863, 864, 865, 866, 867, 868, 869, 870, 871, 872],
      "AcquisitionTime": ["130047.632500", "130048.092500", "130048.552500", "130049.012500", "130049.472500", "130049.932500", "130050.392500", "130050.852500", "130051.312500", "130051.772500", "130052.232500", "130052.692500", "130053.152500", "130053.612500", "130054.072500", "130054.532500", "130054.992500", "130055.452500", "130055.912500", "130056.372500", "130056.832500", "130057.292500", "130057.752500", "130058.212500", "130058.672500", "130059.132500", "130059.592500", "130100.052500", "130100.512500", "130100.972500", "130101.432500", "130101.892500", "130102.352500", "130102.812500", "130103.272500", "130103.732500", "130104.192500", "130104.652500", "130105.112500", "130105.572500", "130106.032500", "130106.492500", "130106.952500", "130107.412500", "130107.872500", "130108.332500", "130108.792500", "130109.252500", "130109.712500", "130110.172500", "130110.632500", "130111.092500", "130111.552500", "130112.012500", "130112.472500", "130112.932500", "130113.392500", "130113.852500", "130114.312500", "130114.772500", "130115.232500", "130115.692500", "130116.152500", "130116.612500", "130117.072500", "130117.532500", "130117.992500", "130118.452500", "130118.912500", "130119.372500", "130119.832500", "130120.292500", "130120.752500", "130121.212500", "130121.672500", "130122.132500", "130122.592500", "130123.052500", "130123.512500", "130123.972500", "130124.432500", "130124.892500", "130125.352500", "130125.812500", "130126.272500", "130126.732500", "130127.192500", "130127.652500", "130128.112500", "130128.572500", "130129.032500", "130129.492500", "130129.952500", "130130.412500", "130130.872500", "130131.332500", "130131.792500", "130132.252500", "130132.712500", "130133.172500", "130133.632500", "130134.092500", "130134.552500", "130135.012500", "130135.472500", "130135.932500", "130136.392500", "130136.852500", "130137.312500", "130137.772500", "130138.232500", "130138.692500", "130139.152500", "130139.612500", "130140.072500", "130140.532500", "130140.992500", "130141.452500", "130141.912500", "130142.372500", "130142.832500", "130143.292500", "130143.752500", "130144.212500", "130144.672500", "130145.132500", "130145.592500", "130146.052500", "130146.512500", "130146.972500", "130147.432500", "130147.892500", "130148.352500", "130148.812500", "130149.272500", "130149.732500", "130150.192500", "130150.652500", "130151.112500", "130151.572500", "130152.032500", "130152.492500", "130152.952500", "130153.412500", "130153.872500", "130154.332500", "130154.792500", "130155.252500", "130155.712500", "130156.172500", "130156.632500", "130157.092500", "130157.552500", "130158.012500", "130158.472500", "130158.932500", "130159.392500", "130159.852500", "130200.312500", "130200.772500", "130201.232500", "130201.692500", "130202.152500", "130202.612500", "130203.072500", "130203.532500", "130203.992500", "130204.452500", "130204.912500", "130205.372500", "130205.832500", "130206.292500", "130206.752500", "130207.212500", "130207.672500", "130208.132500", "130208.592500", "130209.052500", "130209.512500", "130209.972500", "130210.432500", "130210.892500", "130211.352500", "130211.812500", "130212.272500", "130212.732500", "130213.192500", "130213.652500", "130214.112500", "130214.572500", "130215.032500", "130215.492500", "130215.952500", "130216.412500", "130216.872500", "130217.332500", "130217.792500", "130218.252500", "130218.712500", "130219.172500", "130219.632500", "130220.092500", "130220.552500", "130221.012500", "130221.472500", "130221.932500", "130222.392500", "130222.852500", "130223.312500", "130223.772500", "130224.232500", "130224.692500", "130225.152500", "130225.612500", "130226.072500", "130226.532500", "130226.992500", "130227.452500", "130227.912500", "130228.372500", "130228.832500", "130229.292500", "130229.752500", "130230.212500", "130230.672500", "130231.132500", "130231.592500", "130232.052500", "130232.512500", "130232.972500", "130233.432500", "130233.892500", "130234.352500", "130234.812500", "130235.272500", "130235.732500", "130236.192500", "130236.652500", "130237.112500", "130237.572500", "130238.032500", "130238.492500", "130238.952500", "130239.412500", "130239.872500", "130240.332500", "130240.792500", "130241.252500", "130241.712500", "130242.172500", "130242.632500", "130243.092500", "130243.552500", "130244.012500", "130244.472500", "130244.932500", "130245.392500", "130245.852500", "130246.312500", "130246.772500", "130247.232500", "130247.692500", "130248.152500", "130248.612500", "130249.072500", "130249.532500", "130249.992500", "130250.452500", "130250.912500", "130251.372500", "130251.832500", "130252.292500", "130252.752500", "130253.212500", "130253.672500", "130254.132500", "130254.592500", "130255.052500", "130255.512500", "130255.972500", "130256.432500", "130256.892500", "130257.352500", "130257.812500", "130258.272500", "130258.732500", "130259.192500", "130259.652500", "130300.112500", "130300.572500", "130301.032500", "130301.492500", "130301.952500", "130302.412500", "130302.872500", "130303.332500", "130303.792500", "130304.252500", "130304.712500", "130305.172500", "130305.632500", "130306.092500", "130306.552500", "130307.012500", "130307.472500", "130307.932500", "130308.392500", "130308.852500", "130309.312500", "130309.772500", "130310.232500", "130310.692500", "130311.152500", "130311.612500", "130312.072500", "130312.532500", "130312.992500", "130313.452500", "130313.912500", "130314.372500", "130314.832500", "130315.292500", "130315.752500", "130316.212500", "130316.672500", "130317.132500", "130317.592500", "130318.052500", "130318.512500", "130318.972500", "130319.432500", "130319.892500", "130320.352500", "130320.812500", "130321.272500", "130321.732500", "130322.192500", "130322.652500", "130323.112500", "130323.572500", "130324.032500", "130324.492500", "130324.952500", "130325.412500", "130325.872500", "130326.332500", "130326.792500", "130327.252500", "130327.712500", "130328.172500", "130328.632500", "130329.092500", "130329.552500", "130330.012500", "130330.472500", "130330.932500", "130331.392500", "130331.852500", "130332.312500", "130332.772500", "130333.232500", "130333.692500", "130334.152500", "130334.612500", "130335.072500", "130335.532500", "130335.992500", "130336.452500", "130336.912500", "130337.372500", "130337.832500", "130338.292500", "130338.752500", "130339.212500", "130339.672500", "130340.132500", "130340.592500", "130341.052500", "130341.512500", "130341.972500", "130342.432500", "130342.892500", "130343.352500", "130343.812500", "130344.272500", "130344.732500", "130345.192500", "130345.652500", "130346.112500", "130346.572500", "130347.032500", "130347.492500", "130347.952500", "130348.412500", "130348.872500", "130349.332500", "130349.792500", "130350.252500", "130350.712500", "130351.172500", "130351.632500", "130352.092500", "130352.552500", "130353.012500", "130353.472500", "130353.932500", "130354.392500", "130354.852500", "130355.312500", "130355.772500", "130356.232500", "130356.692500", "130357.152500", "130357.612500", "130358.072500", "130358.532500", "130358.992500", "130359.452500", "130359.912500", "130400.372500", "130400.832500", "130401.292500", "130401.752500", "130402.212500", "130402.672500", "130403.132500", "130403.592500", "130404.052500", "130404.512500", "130404.972500", "130405.432500", "130405.892500", "130406.352500", "130406.812500", "130407.272500", "130407.732500", "130408.192500", "130408.652500", "130409.112500", "130409.572500", "130410.032500", "130410.492500", "130410.952500", "130411.412500", "130411.872500", "130412.332500", "130412.792500", "130413.252500", "130413.712500", "130414.172500", "130414.632500", "130415.092500", "130415.552500", "130416.012500", "130416.472500", "130416.932500", "130417.392500", "130417.852500", "130418.312500", "130418.772500", "130419.232500", "130419.692500", "130420.152500", "130420.612500", "130421.072500", "130421.532500", "130421.992500", "130422.452500", "130422.912500", "130423.372500", "130423.832500", "130424.292500", "130424.752500", "130425.212500", "130425.672500", "130426.132500", "130426.592500", "130427.052500", "130427.512500", "130427.972500", "130428.432500", "130428.892500", "130429.352500", "130429.812500", "130430.272500", "130430.732500", "130431.192500", "130431.652500", "130432.112500", "130432.572500", "130433.032500", "130433.492500", "130433.952500", "130434.412500", "130434.872500", "130435.332500", "130435.792500", "130436.252500", "130436.712500", "130437.172500", "130437.632500", "130438.092500", "130438.552500", "130439.012500", "130439.472500", "130439.932500", "130440.392500", "130440.852500", "130441.312500", "130441.772500", "130442.232500", "130442.692500", "130443.152500", "130443.612500", "130444.072500", "130444.532500", "130444.992500", "130445.452500", "130445.912500", "130446.372500", "130446.832500", "130447.292500", "130447.752500", "130448.212500", "130448.672500", "130449.132500", "130449.592500", "130450.052500", "130450.512500", "130450.972500", "130451.432500", "130451.892500", "130452.352500", "130452.812500", "130453.272500", "130453.732500", "130454.192500", "130454.652500", "130455.112500", "130455.572500", "130456.032500", "130456.492500", "130456.952500", "130457.412500", "130457.872500", "130458.332500", "130458.792500", "130459.252500", "130459.712500", "130500.172500", "130500.632500", "130501.092500", "130501.552500", "130502.012500", "130502.472500", "130502.932500", "130503.392500", "130503.852500", "130504.312500", "130504.772500", "130505.232500", "130505.692500", "130506.152500", "130506.612500", "130507.072500", "130507.532500", "130507.992500", "130508.452500", "130508.912500", "130509.372500", "130509.832500", "130510.292500", "130510.752500", "130511.212500", "130511.672500", "130512.132500", "130512.592500", "130513.052500", "130513.512500", "130513.972500", "130514.432500", "130514.892500", "130515.352500", "130515.812500", "130516.272500", "130516.732500", "130517.192500", "130517.652500", "130518.112500", "130518.572500", "130519.032500", "130519.492500", "130519.952500", "130520.412500", "130520.872500", "130521.332500", "130521.792500", "130522.252500", "130522.712500", "130523.172500", "130523.632500", "130524.092500", "130524.552500", "130525.012500", "130525.472500", "130525.932500", "130526.392500", "130526.852500", "130527.312500", "130527.772500", "130528.232500", "130528.692500", "130529.152500", "130529.612500", "130530.072500", "130530.532500", "130530.992500", "130531.452500", "130531.912500", "130532.372500", "130532.832500", "130533.292500", "130533.752500", "130534.212500", "130534.672500", "130535.132500", "130535.592500", "130536.052500", "130536.512500", "130536.972500", "130537.432500", "130537.892500", "130538.352500", "130538.812500", "130539.272500", "130539.732500", "130540.192500", "130540.652500", "130541.112500", "130541.572500", "130542.032500", "130542.492500", "130542.952500", "130543.412500", "130543.872500", "130544.332500", "130544.792500", "130545.252500", "130545.712500", "130546.172500", "130546.632500", "130547.092500", "130547.552500", "130548.012500", "130548.472500", "130548.932500", "130549.392500", "130549.852500", "130550.312500", "130550.772500", "130551.232500", "130551.692500", "130552.152500", "130552.612500", "130553.072500", "130553.532500", "130553.992500", "130554.452500", "130554.912500", "130555.372500", "130555.832500", "130556.292500", "130556.752500", "130557.212500", "130557.672500", "130558.132500", "130558.592500", "130559.052500", "130559.512500", "130559.972500", "130600.432500", "130600.892500", "130601.352500", "130601.812500", "130602.272500", "130602.732500", "130603.192500", "130603.652500", "130604.112500", "130604.572500", "130605.032500", "130605.492500", "130605.952500", "130606.412500", "130606.872500", "130607.332500", "130607.792500", "130608.252500", "130608.712500", "130609.172500", "130609.632500", "130610.092500", "130610.552500", "130611.012500", "130611.472500", "130611.932500", "130612.392500", "130612.852500", "130613.312500", "130613.772500", "130614.232500", "130614.692500", "130615.152500", "130615.612500", "130616.072500", "130616.532500", "130616.992500", "130617.452500", "130617.912500", "130618.372500", "130618.832500", "130619.292500", "130619.752500", "130620.212500", "130620.672500", "130621.132500", "130621.592500", "130622.052500", "130622.512500", "130622.972500", "130623.432500", "130623.892500", "130624.352500", "130624.812500", "130625.272500", "130625.732500", "130626.192500", "130626.652500", "130627.112500", "130627.572500", "130628.032500", "130628.492500", "130628.952500", "130629.412500", "130629.872500", "130630.332500", "130630.792500", "130631.252500", "130631.712500", "130632.172500", "130632.632500", "130633.092500", "130633.552500", "130634.012500", "130634.472500", "130634.932500", "130635.392500", "130635.852500", "130636.312500", "130636.772500", "130637.232500", "130637.692500", "130638.152500", "130638.612500", "130639.072500", "130639.532500", "130639.992500", "130640.452500", "130640.912500", "130641.372500", "130641.832500", "130642.292500", "130642.752500", "130643.212500", "130643.672500", "130644.132500", "130644.592500", "130645.052500", "130645.512500", "130645.972500", "130646.432500", "130646.892500", "130647.352500", "130647.812500", "130648.272500", "130648.732500", "130649.192500", "130649.652500", "130650.112500", "130650.572500", "130651.032500", "130651.492500", "130651.952500", "130652.412500", "130652.872500", "130653.332500", "130653.792500", "130654.252500", "130654.712500", "130655.172500", "130655.632500", "130656.092500", "130656.552500", "130657.012500", "130657.472500", "130657.932500", "130658.392500", "130658.852500", "130659.312500", "130659.772500", "130700.232500", "130700.692500", "130701.152500", "130701.612500", "130702.072500", "130702.532500", "130702.992500", "130703.452500", "130703.912500", "130704.372500", "130704.832500", "130705.292500", "130705.752500", "130706.212500", "130706.672500", "130707.132500", "130707.592500", "130708.052500", "130708.512500", "130708.972500", "130709.432500", "130709.892500", "130710.352500", "130710.812500", "130711.272500", "130711.732500", "130712.192500", "130712.652500", "130713.112500", "130713.572500", "130714.032500", "130714.492500", "130714.952500", "130715.412500", "130715.872500", "130716.332500", "130716.792500", "130717.252500", "130717.712500", "130718.172500", "130718.632500", "130719.092500", "130719.552500", "130720.012500", "130720.472500", "130720.932500", "130721.392500", "130721.852500", "130722.312500", "130722.772500", "130723.232500", "130723.692500", "130724.152500", "130724.612500", "130725.072500", "130725.532500", "130725.992500", "130726.452500", "130726.912500", "130727.372500", "130727.832500", "130728.292500"],
