{
  "AcquisitionMatrixPE": 82,
  "AcquisitionNumber": 1,
  "AcquisitionTime": "13:33:14.170000",
  "BandwidthPerPixelPhaseEncode": 24.888,
  "BaseResolution": 82,
  "BodyPartExamined": "BRAIN",
  "ConsistencyInfo": "N4_VE11E_LATEST_20181129",
  "ConversionSoftware": "dcm2niix",
  "ConversionSoftwareVersion": "v1.0.20201102",
  "DerivedVendorReportedEchoSpacing": 0.00049,
  "DeviceSerialNumber": "66112",
  "DwellTime": 2e-06,
  "EchoTime": 0.0272,
  "EchoTrainLength": 82,
  "EffectiveEchoSpacing": 0.00049,
  "FlipAngle": 44,
  "ImageComments": "Unaliased MB8/PE3",
  "ImageOrientationPatientDICOM": [0.99664, -0.0359581, 0.0735878, 0.0264461, 0.991629, 0.126379],
  "ImageType": [
    "ORIGINAL",
    "PRIMARY",
    "M",
    "MB",
    "ND",
    "NORM",
    "MOSAIC"
],
  "ImagingFrequency": 123.252,
  "InPlanePhaseEncodingDirectionDICOM": "COL",
  "InstitutionAddress": "Maynard 3,Hanover,NH,US,03755",
  "InstitutionName": "Dartmouth College - PBS",
  "InstitutionalDepartmentName": "Department",
  "MRAcquisitionType": "2D",
  "MagneticFieldStrength": 3,
  "Manufacturer": "Siemens",
  "ManufacturersModelName": "Prisma",
  "Modality": "MR",
  "MultibandAccelerationFactor": 8,
  "PartialFourier": 1,
  "PatientPosition": "HFS",
  "PercentPhaseFOV": 100,
  "PercentSampling": 100,
  "PhaseEncodingDirection": "j-",
  "PhaseEncodingSteps": 82,
  "PhaseResolution": 1,
  "PixelBandwidth": 3050,
  "ProcedureStepDescription": "Wager_Wager^1076_spacetop",
  "ProtocolName": "func_run-01_task-alignvideo_acq-ap-mb8",
  "PulseSequenceDetails": "%CustomerSeq%\\cmrr_mbep2d_bold",
  "ReceiveCoilActiveElements": "HEA;HEP",
  "ReceiveCoilName": "Head_32",
  "ReconMatrixPE": 82,
  "RepetitionTime": 0.46,
  "SAR": 0.0942172,
  "ScanOptions": "FS",
  "ScanningSequence": "EP",
  "SequenceName": "epfid2d1_82",
  "SequenceVariant": "SK\\SS",
  "SeriesDescription": "func_run-01_task-alignvideo_acq-ap-mb8",
  "SeriesNumber": 40,
  "ShimSetting": [4171, -7804, -7246, 580, -16, -143, 36, 36],
  "SliceThickness": 2.7,
  "SliceTiming": [0, 0.2525, 0.0625, 0.315, 0.1275, 0.3775, 0.19, 0, 0.2525, 0.0625, 0.315, 0.1275, 0.3775, 0.19, 0, 0.2525, 0.0625, 0.315, 0.1275, 0.3775, 0.19, 0, 0.2525, 0.0625, 0.315, 0.1275, 0.3775, 0.19, 0, 0.2525, 0.0625, 0.315, 0.1275, 0.3775, 0.19, 0, 0.2525, 0.0625, 0.315, 0.1275, 0.3775, 0.19, 0, 0.2525, 0.0625, 0.315, 0.1275, 0.3775, 0.19, 0, 0.2525, 0.0625, 0.315, 0.1275, 0.3775, 0.19],
  "SoftwareVersions": "syngo MR E11",
  "SpacingBetweenSlices": 2.7,
  "StationName": "AWP66112",
  "TaskName": "alignvideo",
  "TotalReadoutTime": 0.03969,
  "TxRefAmp": 239.056,
  "WipMemBlock": "1279c94c-365d-470c-be05-eec3f0e20f78||Sequence: R016 ve11e/master r/434b28f1; Aug  7 2019 18:53:46 by eja",
  "dcmmeta_affine": [
    [-2.67391300201416, 0.0709528848528862, 0.20929375290870667, 102.69432067871094],
    [0.09647304564714432, 2.6604695320129395, 0.3348211944103241, -101.39857482910156],
    [0.1974307745695114, -0.33906441926956177, 2.6709718704223633, -52.55632400512695],
    [0.0, 0.0, 0.0, 1.0]
],
  "dcmmeta_reorient_transform": [
    [0.0, -1.0, 0.0, 81.0],
    [1.0, 0.0, 0.0, 0.0],
    [0.0, 0.0, 1.0, 0.0],
    [0.0, 0.0, 0.0, 1.0]
],
  "dcmmeta_shape": [82, 82, 56, 1073],
  "dcmmeta_slice_dim": 2,
  "dcmmeta_version": 0.6,
  "global": {
    "const": {
      "AccessionNumber": "A003890",
      "AcquisitionMatrix": [82, 0, 0, 82],
      "AngioFlag": "N",
      "BitsAllocated": 16,
      "BitsStored": 16,
      "BodyPartExamined": "BRAIN",
      "Columns": 656,
      "EchoNumbers": 1,
      "EchoTime": 27.2,
      "EchoTrainLength": 82,
      "FlipAngle": 44.0,
      "HighBit": 15,
      "ImageOrientationPatient": [0.99664027800494, -0.0359581336435, 0.07358783108035, 0.02644607416355, 0.99162950096182, 0.12637855033018],
      "ImagePositionPatient": [-896.2180127544, -849.96641971886, -233.99465842315],
      "ImageType": [
        "ORIGINAL",
        "PRIMARY",
        "M",
        "MB",
        "ND",
        "NORM",
        "MOSAIC"
],
      "ImagedNucleus": "1H",
      "ImagingFrequency": 123.252171,
      "InPlanePhaseEncodingDirection": "COL",
      "MRAcquisitionType": "2D",
      "MagneticFieldStrength": 3.0,
      "Manufacturer": "SIEMENS",
      "ManufacturerModelName": "Prisma",
      "Modality": "MR",
      "NumberOfAverages": 1.0,
      "NumberOfPhaseEncodingSteps": 82,
      "PercentPhaseFieldOfView": 100.0,
      "PercentSampling": 100.0,
      "PerformedProcedureStepStartTime": "120213.534000",
      "PhotometricInterpretation": "MONOCHROME2",
      "PixelBandwidth": 3050.0,
      "PixelRepresentation": 0,
      "PixelSpacing": [2.6829268932343, 2.6829268932343],
      "ProtocolName": "func_run-01_task-alignvideo_acq-ap-mb8",
      "RepetitionTime": 460.0,
      "Rows": 656,
      "SAR": 0.09421720411374,
      "SamplesPerPixel": 1,
      "ScanOptions": "FS",
      "ScanningSequence": "EP",
      "SequenceName": "epfid2d1_82",
      "SequenceVariant": [
        "SK",
        "SS"
],
      "SeriesDescription": "func_run-01_task-alignvideo_acq-ap-mb8",
      "SeriesNumber": 40,
      "SeriesTime": "133335.533000",
      "SliceLocation": -56.605028387392,
      "SliceThickness": 2.7000000476837,
      "SmallestImagePixelValue": 0,
      "SoftwareVersions": "syngo MR E11",
      "SpacingBetweenSlices": 2.7000000511385,
      "SpecificCharacterSet": "ISO_IR 100",
      "StudyID": "1",
      "StudyTime": "120213.408000",
      "TransmitCoilName": "Body",
      "VariableFlipAngleFlag": "N",
      "WindowCenterWidthExplanation": "Algo1"
    },
    "slices": {}
  },
  "time": {
    "samples": {
      "AcquisitionNumber": [1, 2, 3, 4, 5, 6, 7, 8, 9, 10, 11, 12, 13, 14, 15, 16, 17, 18, 19, 20, 21, 22, 23, 24, 25, 26, 27, 28, 29, 30, 31, 32, 33, 34, 35, 36, 37, 38, 39, 40, 41, 42, 43, 44, 45, 46, 47, 48, 49, 50, 51, 52, 53, 54, 55, 56, 57, 58, 59, 60, 61, 62, 63, 64, 65, 66, 67, 68, 69, 70, 71, 72, 73, 74, 75, 76, 77, 78, 79, 80, 81, 82, 83, 84, 85, 86, 87, 88, 89, 90, 91, 92, 93, 94, 95, 96, 97, 98, 99, 100, 101, 102, 103, 104, 105, 106, 107, 108, 109, 110, 111, 112, 113, 114, 115, 116, 117, 118, 119, 120, 121, 122, 123, 124, 125, 126, 127, 128, 129, 130, 131, 132, 133, 134, 135, 136, 137, 138, 139, 140, 141, 142, 143, 144, 145, 146, 147, 148, 149, 150, 151, 152, 153, 154, 155, 156, 157, 158, 159, 160, 161, 162, 163, 164, 165, 166, 167, 168, 169, 170, 171, 172, 173, 174, 175, 176, 177, 178, 179, 180, 181, 182, 183, 184, 185, 186, 187, 188, 189, 190, 191, 192, 193, 194, 195, 196, 197, 198, 199, 200, 201, 202, 203, 204, 205, 206, 207, 208, 209, 210, 211, 212, 213, 214, 215, 216, 217, 218, 219, 220, 221, 222, 223, 224, 225, 226, 227, 228, 229, 230, 231, 232, 233, 234, 235, 236, 237, 238, 239, 240, 241, 242, 243, 244, 245, 246, 247, 248, 249, 250, 251, 252, 253, 254, 255, 256, 257, 258, 259, 260, 261, 262, 263, 264, 265, 266, 267, 268, 269, 270, 271, 272, 273, 274, 275, 276, 277, 278, 279, 280, 281, 282, 283, 284, 285, 286, 287, 288, 289, 290, 291, 292, 293, 294, 295, 296, 297, 298, 299, 300, 301, 302, 303, 304, 305, 306, 307, 308, 309, 310, 311, 312, 313, 314, 315, 316, 317, 318, 319, 320, 321, 322, 323, 324, 325, 326, 327, 328, 329, 330, 331, 332, 333, 334, 335, 336, 337, 338, 339, 340, 341, 342, 343, 344, 345, 346, 347, 348, 349, 350, 351, 352, 353, 354, 355, 356, 357, 358, 359, 360, 361, 362, 363, 364, 365, 366, 367, 368, 369, 370, 371, 372, 373, 374, 375, 376, 377, 378, 379, 380, 381, 382, 383, 384, 385, 386, 387, 388, 389, 390, 391, 392, 393, 394, 395, 396, 397, 398, 399, 400, 401, 402, 403, 404, 405, 406, 407, 408, 409, 410, 411, 412, 413, 414, 415, 416, 417, 418, 419, 420, 421, 422, 423, 424, 425, 426, 427, 428, 429, 430, 431, 432, 433, 434, 435, 436, 437, 438, 439, 440, 441, 442, 443, 444, 445, 446, 447, 448, 449, 450, 451, 452, 453, 454, 455, 456, 457, 458, 459, 460, 461, 462, 463, 464, 465, 466, 467, 468, 469, 470, 471, 472, 473, 474, 475, 476, 477, 478, 479, 480, 481, 482, 483, 484, 485, 486, 487, 488, 489, 490, 491, 492, 493, 494, 495, 496, 497, 498, 499, 500, 501, 502, 503, 504, 505, 506, 507, 508, 509, 510, 511, 512, 513, 514, 515, 516, 517, 518, 519, 520, 521, 522, 523, 524, 525, 526, 527, 528, 529, 530, 531, 532, 533, 534, 535, 536, 537, 538, 539, 540, 541, 542, 543, 544, 545, 546, 547, 548, 549, 550, 551, 552, 553, 554, 555, 556, 557, 558, 559, 560, 561, 562, 563, 564, 565, 566, 567, 568, 569, 570, 571, 572, 573, 574, 575, 576, 577, 578, 579, 580, 581, 582, 583, 584, 585, 586, 587, 588, 589, 590, 591, 592, 593, 594, 595, 596, 597, 598, 599, 600, 601, 602, 603, 604, 605, 606, 607, 608, 609, 610, 611, 612, 613, 614, 615, 616, 617, 618, 619, 620, 621, 622, 623, 624, 625, 626, 627, 628, 629, 630, 631, 632, 633, 634, 635, 636, 637, 638, 639, 640, 641, 642, 643, 644, 645, 646, 647, 648, 649, 650, 651, 652, 653, 654, 655, 656, 657, 658, 659, 660, 661, 662, 663, 664, 665, 666, 667, 668, 669, 670, 671, 672, 673, 674, 675, 676, 677, 678, 679, 680, 681, 682, 683, 684, 685, 686, 687, 688, 689, 690, 691, 692, 693, 694, 695, 696, 697, 698, 699, 700, 701, 702, 703, 704, 705, 706, 707, 708, 709, 710, 711, 712, 713, 714, 715, 716, 717, 718, 719, 720, 721, 722, 723, 724, 725, 726, 727, 728, 729, 730, 731, 732, 733, 734, 735, 736, 737, 738, 739, 740, 741, 742, 743, 744, 745, 746, 747, 748, 749, 750, 751, 752, 753, 754, 755, 756, 757, 758, 759, 760, 761, 762, 763, 764, 765, 766, 767, 768, 769, 770, 771, 772, 773, 774, 775, 776, 777, 778, 779, 780, 781, 782, 783, 784, 785, 786, 787, 788, 789, 790, 791, 792, 793, 794, 795, 796, 797, 798, 799, 800, 801, 802, 803, 804, 805, 806, 807, 808, 809, 810, 811, 812, 813, 814, 815, 816, 817, 818, 819, 820, 821, 822, 823, 824, 825, 826, 827, 828, 829, 830, 831, 832, 833, 834, 835, 836, 837, 838, 839, 840, 841, 842, 843, 844, 845, 846, 847, 848, 849, 850, 851, 852, 853, 854, 855, 856, 857, 858, 859, 860, 861, 862, 863, 864, 865, 866, 867, 868, 869, 870, 871, 872, 873, 874, 875, 876, 877, 878, 879, 880, 881, 882, 883, 884, 885, 886, 887, 888, 889, 890, 891, 892, 893, 894, 895, 896, 897, 898, 899, 900, 901, 902, 903, 904, 905, 906, 907, 908, 909, 910, 911, 912, 913, 914, 915, 916, 917, 918, 919, 920, 921, 922, 923, 924, 925, 926, 927, 928, 929, 930, 931, 932, 933, 934, 935, 936, 937, 938, 939, 940, 941, 942, 943, 944, 945, 946, 947, 948, 949, 950, 951, 952, 953, 954, 955, 956, 957, 958, 959, 960, 961, 962, 963, 964, 965, 966, 967, 968, 969, 970, 971, 972, 973, 974, 975, 976, 977, 978, 979, 980, 981, 982, 983, 984, 985, 986, 987, 988, 989, 990, 991, 992, 993, 994, 995, 996, 997, 998, 999, 1000, 1001, 1002, 1003, 1004, 1005, 1006, 1007, 1008, 1009, 1010, 1011, 1012, 1013, 1014, 1015, 1016, 1017, 1018, 1019, 1020, 1021, 1022, 1023, 1024, 1025, 1026, 1027, 1028, 1029, 1030, 1031, 1032, 1033, 1034, 1035, 1036, 1037, 1038, 1039, 1040, 1041, 1042, 1043, 1044, 1045, 1046, 1047, 1048, 1049, 1050, 1051, 1052, 1053, 1054, 1055, 1056, 1057, 1058, 1059, 1060, 1061, 1062, 1063, 1064, 1065, 1066, 1067, 1068, 1069, 1070, 1071, 1072, 1073],
      "AcquisitionTime": ["133314.170000", "133314.630000", "133315.090000", "133315.550000", "133316.010000", "133316.470000", "133316.930000", "133317.390000", "133317.850000", "133318.310000", "133318.770000", "133319.230000", "133319.690000", "133320.150000", "133320.610000", "133321.070000", "133321.530000", "133321.990000", "133322.450000", "133322.910000", "133323.370000", "133323.830000", "133324.290000", "133324.750000", "133325.210000", "133325.670000", "133326.130000", "133326.590000", "133327.050000", "133327.510000", "133327.970000", "133328.430000", "133328.890000", "133329.350000", "133329.810000", "133330.270000", "133330.730000", "133331.190000", "133331.650000", "133332.110000", "133332.570000", "133333.030000", "133333.490000", "133333.950000", "133334.410000", "133334.870000", "133335.330000", "133335.790000", "133336.250000", "133336.710000", "133337.170000", "133337.630000", "133338.090000", "133338.550000", "133339.010000", "133339.470000", "133339.930000", "133340.390000", "133340.850000", "133341.310000", "133341.770000", "133342.230000", "133342.690000", "133343.150000", "133343.610000", "133344.070000", "133344.530000", "133344.990000", "133345.450000", "133345.910000", "133346.370000", "133346.830000", "133347.290000", "133347.750000", "133348.210000", "133348.670000", "133349.130000", "133349.590000", "133350.050000", "133350.510000", "133350.970000", "133351.430000", "133351.890000", "133352.350000", "133352.810000", "133353.270000", "133353.730000", "133354.190000", "133354.650000", "133355.110000", "133355.570000", "133356.030000", "133356.490000", "133356.950000", "133357.410000", "133357.870000", "133358.330000", "133358.790000", "133359.250000", "133359.710000", "133400.170000", "133400.630000", "133401.090000", "133401.550000", "133402.010000", "133402.470000", "133402.930000", "133403.390000", "133403.850000", "133404.310000", "133404.770000", "133405.230000", "133405.690000", "133406.150000", "133406.610000", "133407.070000", "133407.530000", "133407.990000", "133408.450000", "133408.910000", "133409.370000", "133409.830000", "133410.290000", "133410.750000", "133411.210000", "133411.670000", "133412.130000", "133412.590000", "133413.050000", "133413.510000", "133413.970000", "133414.430000", "133414.890000", "133415.350000", "133415.810000", "133416.270000", "133416.730000", "133417.190000", "133417.650000", "133418.110000", "133418.570000", "133419.030000", "133419.490000", "133419.950000", "133420.410000", "133420.870000", "133421.330000", "133421.790000", "133422.250000", "133422.710000", "133423.170000", "133423.630000", "133424.090000", "133424.550000", "133425.010000", "133425.470000", "133425.930000", "133426.390000", "133426.850000", "133427.310000", "133427.770000", "133428.230000", "133428.690000", "133429.150000", "133429.610000", "133430.070000", "133430.530000", "133430.990000", "133431.450000", "133431.910000", "133432.370000", "133432.830000", "133433.290000", "133433.750000", "133434.210000", "133434.670000", "133435.130000", "133435.590000", "133436.050000", "133436.510000", "133436.970000", "133437.430000", "133437.890000", "133438.350000", "133438.810000", "133439.270000", "133439.730000", "133440.190000", "133440.650000", "133441.110000", "133441.570000", "133442.030000", "133442.490000", "133442.950000", "133443.410000", "133443.870000", "133444.330000", "133444.790000", "133445.250000", "133445.710000", "133446.170000", "133446.630000", "133447.090000", "133447.550000", "133448.010000", "133448.470000", "133448.930000", "133449.390000", "133449.850000", "133450.310000", "133450.770000", "133451.230000", "133451.690000", "133452.150000", "133452.610000", "133453.070000", "133453.530000", "133453.990000", "133454.450000", "133454.910000", "133455.370000", "133455.830000", "133456.290000", "133456.750000", "133457.210000", "133457.670000", "133458.130000", "133458.590000", "133459.050000", "133459.510000", "133459.970000", "133500.430000", "133500.890000", "133501.350000", "133501.810000", "133502.270000", "133502.730000", "133503.190000", "133503.650000", "133504.110000", "133504.570000", "133505.030000", "133505.490000", "133505.950000", "133506.410000", "133506.870000", "133507.330000", "133507.790000", "133508.250000", "133508.710000", "133509.170000", "133509.630000", "133510.090000", "133510.550000", "133511.010000", "133511.470000", "133511.930000", "133512.390000", "133512.850000", "133513.310000", "133513.770000", "133514.230000", "133514.690000", "133515.150000", "133515.610000", "133516.070000", "133516.530000", "133516.990000", "133517.450000", "133517.910000", "133518.370000", "133518.830000", "133519.290000", "133519.750000", "133520.210000", "133520.670000", "133521.130000", "133521.590000", "133522.050000", "133522.510000", "133522.970000", "133523.430000", "133523.890000", "133524.350000", "133524.810000", "133525.270000", "133525.730000", "133526.190000", "133526.650000", "133527.110000", "133527.570000", "133528.030000", "133528.490000", "133528.950000", "133529.410000", "133529.870000", "133530.330000", "133530.790000", "133531.250000", "133531.710000", "133532.170000", "133532.630000", "133533.090000", "133533.550000", "133534.010000", "133534.470000", "133534.930000", "133535.390000", "133535.850000", "133536.310000", "133536.770000", "133537.230000", "133537.690000", "133538.150000", "133538.610000", "133539.070000", "133539.530000", "133539.990000", "133540.450000", "133540.910000", "133541.370000", "133541.830000", "133542.290000", "133542.750000", "133543.210000", "133543.670000", "133544.130000", "133544.590000", "133545.050000", "133545.510000", "133545.970000", "133546.430000", "133546.890000", "133547.350000", "133547.810000", "133548.270000", "133548.730000", "133549.190000", "133549.650000", "133550.110000", "133550.570000", "133551.030000", "133551.490000", "133551.950000", "133552.410000", "133552.870000", "133553.330000", "133553.790000", "133554.250000", "133554.710000", "133555.170000", "133555.630000", "133556.090000", "133556.550000", "133557.010000", "133557.470000", "133557.930000", "133558.390000", "133558.850000", "133559.310000", "133559.770000", "133600.230000", "133600.690000", "133601.150000", "133601.610000", "133602.070000", "133602.530000", "133602.990000", "133603.450000", "133603.910000", "133604.370000", "133604.830000", "133605.290000", "133605.750000", "133606.210000", "133606.670000", "133607.130000", "133607.590000", "133608.050000", "133608.510000", "133608.970000", "133609.430000", "133609.890000", "133610.350000", "133610.810000", "133611.270000", "133611.730000", "133612.190000", "133612.650000", "133613.110000", "133613.570000", "133614.030000", "133614.490000", "133614.950000", "133615.410000", "133615.870000", "133616.330000", "133616.790000", "133617.250000", "133617.710000", "133618.170000", "133618.630000", "133619.090000", "133619.550000", "133620.010000", "133620.470000", "133620.930000", "133621.390000", "133621.850000", "133622.310000", "133622.770000", "133623.230000", "133623.690000", "133624.150000", "133624.610000", "133625.070000", "133625.530000", "133625.990000", "133626.450000", "133626.910000", "133627.370000", "133627.830000", "133628.290000", "133628.750000", "133629.210000", "133629.670000", "133630.130000", "133630.590000", "133631.050000", "133631.510000", "133631.970000", "133632.430000", "133632.890000", "133633.350000", "133633.810000", "133634.270000", "133634.730000", "133635.190000", "133635.650000", "133636.110000", "133636.570000", "133637.030000", "133637.490000", "133637.950000", "133638.410000", "133638.870000", "133639.330000", "133639.790000", "133640.250000", "133640.710000", "133641.170000", "133641.630000", "133642.090000", "133642.550000", "133643.010000", "133643.470000", "133643.930000", "133644.390000", "133644.850000", "133645.310000", "133645.770000", "133646.230000", "133646.690000", "133647.150000", "133647.610000", "133648.070000", "133648.530000", "133648.990000", "133649.450000", "133649.910000", "133650.370000", "133650.830000", "133651.290000", "133651.750000", "133652.210000", "133652.670000", "133653.130000", "133653.590000", "133654.050000", "133654.510000", "133654.970000", "133655.430000", "133655.890000", "133656.350000", "133656.810000", "133657.270000", "133657.730000", "133658.190000", "133658.650000", "133659.110000", "133659.570000", "133700.030000", "133700.490000", "133700.950000", "133701.410000", "133701.870000", "133702.330000", "133702.790000", "133703.250000", "133703.710000", "133704.170000", "133704.630000", "133705.090000", "133705.550000", "133706.010000", "133706.470000", "133706.930000", "133707.390000", "133707.850000", "133708.310000", "133708.770000", "133709.230000", "133709.690000", "133710.150000", "133710.610000", "133711.070000", "133711.530000", "133711.990000", "133712.450000", "133712.910000", "133713.370000", "133713.830000", "133714.290000", "133714.750000", "133715.210000", "133715.670000", "133716.130000", "133716.590000", "133717.050000", "133717.510000", "133717.970000", "133718.430000", "133718.890000", "133719.350000", "133719.810000", "133720.270000", "133720.730000", "133721.190000", "133721.650000", "133722.110000", "133722.570000", "133723.030000", "133723.490000", "133723.950000", "133724.410000", "133724.870000", "133725.330000", "133725.790000", "133726.250000", "133726.710000", "133727.170000", "133727.630000", "133728.090000", "133728.550000", "133729.010000", "133729.470000", "133729.930000", "133730.390000", "133730.850000", "133731.310000", "133731.770000", "133732.230000", "133732.690000", "133733.150000", "133733.610000", "133734.070000", "133734.530000", "133734.990000", "133735.450000", "133735.910000", "133736.370000", "133736.830000", "133737.290000", "133737.750000", "133738.210000", "133738.670000", "133739.130000", "133739.590000", "133740.050000", "133740.510000", "133740.970000", "133741.430000", "133741.890000", "133742.350000", "133742.810000", "133743.270000", "133743.730000", "133744.190000", "133744.650000", "133745.110000", "133745.570000", "133746.030000", "133746.490000", "133746.950000", "133747.410000", "133747.870000", "133748.330000", "133748.790000", "133749.250000", "133749.710000", "133750.170000", "133750.630000", "133751.090000", "133751.550000", "133752.010000", "133752.470000", "133752.930000", "133753.390000", "133753.850000", "133754.310000", "133754.770000", "133755.230000", "133755.690000", "133756.150000", "133756.610000", "133757.070000", "133757.530000", "133757.990000", "133758.450000", "133758.910000", "133759.370000", "133759.830000", "133800.290000", "133800.750000", "133801.210000", "133801.670000", "133802.130000", "133802.590000", "133803.050000", "133803.510000", "133803.970000", "133804.430000", "133804.890000", "133805.350000", "133805.810000", "133806.270000", "133806.730000", "133807.190000", "133807.650000", "133808.110000", "133808.570000", "133809.030000", "133809.490000", "133809.950000", "133810.410000", "133810.870000", "133811.330000", "133811.790000", "133812.250000", "133812.710000", "133813.170000", "133813.630000", "133814.090000", "133814.550000", "133815.010000", "133815.470000", "133815.930000", "133816.390000", "133816.850000", "133817.310000", "133817.770000", "133818.230000", "133818.690000", "133819.150000", "133819.610000", "133820.070000", "133820.530000", "133820.990000", "133821.450000", "133821.910000", "133822.370000", "133822.830000", "133823.290000", "133823.750000", "133824.210000", "133824.670000", "133825.130000", "133825.590000", "133826.050000", "133826.510000", "133826.970000", "133827.430000", "133827.890000", "133828.350000", "133828.810000", "133829.270000", "133829.730000", "133830.190000", "133830.650000", "133831.110000", "133831.570000", "133832.030000", "133832.490000", "133832.950000", "133833.410000", "133833.870000", "133834.330000", "133834.790000", "133835.250000", "133835.710000", "133836.170000", "133836.630000", "133837.090000", "133837.550000", "133838.010000", "133838.470000", "133838.930000", "133839.390000", "133839.850000", "133840.310000", "133840.770000", "133841.230000", "133841.690000", "133842.150000", "133842.610000", "133843.070000", "133843.530000", "133843.990000", "133844.450000", "133844.910000", "133845.370000", "133845.830000", "133846.290000", "133846.750000", "133847.210000", "133847.670000", "133848.130000", "133848.590000", "133849.050000", "133849.510000", "133849.970000", "133850.430000", "133850.890000", "133851.350000", "133851.810000", "133852.270000", "133852.730000", "133853.190000", "133853.650000", "133854.110000", "133854.570000", "133855.030000", "133855.490000", "133855.950000", "133856.410000", "133856.870000", "133857.330000", "133857.790000", "133858.250000", "133858.710000", "133859.170000", "133859.630000", "133900.090000", "133900.550000", "133901.010000", "133901.470000", "133901.930000", "133902.390000", "133902.850000", "133903.310000", "133903.770000", "133904.230000", "133904.690000", "133905.150000", "133905.610000", "133906.070000", "133906.530000", "133906.990000", "133907.450000", "133907.910000", "133908.370000", "133908.830000", "133909.290000", "133909.750000", "133910.210000", "133910.670000", "133911.130000", "133911.590000", "133912.050000", "133912.510000", "133912.970000", "133913.430000", "133913.890000", "133914.350000", "133914.810000", "133915.270000", "133915.730000", "133916.190000", "133916.650000", "133917.110000", "133917.570000", "133918.030000", "133918.490000", "133918.950000", "133919.410000", "133919.870000", "133920.330000", "133920.790000", "133921.250000", "133921.710000", "133922.170000", "133922.630000", "133923.090000", "133923.550000", "133924.010000", "133924.470000", "133924.930000", "133925.390000", "133925.850000", "133926.310000", "133926.770000", "133927.230000", "133927.690000", "133928.150000", "133928.610000", "133929.070000", "133929.530000", "133929.990000", "133930.450000", "133930.910000", "133931.370000", "133931.830000", "133932.290000", "133932.750000", "133933.210000", "133933.670000", "133934.130000", "133934.590000", "133935.050000", "133935.510000", "133935.970000", "133936.430000", "133936.890000", "133937.350000", "133937.810000", "133938.270000", "133938.730000", "133939.190000", "133939.650000", "133940.110000", "133940.570000", "133941.030000", "133941.490000", "133941.950000", "133942.410000", "133942.870000", "133943.330000", "133943.790000", "133944.250000", "133944.710000", "133945.170000", "133945.630000", "133946.090000", "133946.550000", "133947.010000", "133947.470000", "133947.930000", "133948.390000", "133948.850000", "133949.310000", "133949.770000", "133950.230000", "133950.690000", "133951.150000", "133951.610000", "133952.070000", "133952.530000", "133952.990000", "133953.450000", "133953.910000", "133954.370000", "133954.830000", "133955.290000", "133955.750000", "133956.210000", "133956.670000", "133957.130000", "133957.590000", "133958.050000", "133958.510000", "133958.970000", "133959.430000", "133959.890000", "134000.350000", "134000.810000", "134001.270000", "134001.730000", "134002.190000", "134002.650000", "134003.110000", "134003.570000", "134004.030000", "134004.490000", "134004.950000", "134005.410000", "134005.870000", "134006.330000", "134006.790000", "134007.250000", "134007.710000", "134008.170000", "134008.630000", "134009.090000", "134009.550000", "134010.010000", "134010.470000", "134010.930000", "134011.390000", "134011.850000", "134012.310000", "134012.770000", "134013.230000", "134013.690000", "134014.150000", "134014.610000", "134015.070000", "134015.530000", "134015.990000", "134016.450000", "134016.910000", "134017.370000", "134017.830000", "134018.290000", "134018.750000", "134019.210000", "134019.670000", "134020.130000", "134020.590000", "134021.050000", "134021.510000", "134021.970000", "134022.430000", "134022.890000", "134023.350000", "134023.810000", "134024.270000", "134024.730000", "134025.190000", "134025.650000", "134026.110000", "134026.570000", "134027.030000", "134027.490000", "134027.950000", "134028.410000", "134028.870000", "134029.330000", "134029.790000", "134030.250000", "134030.710000", "134031.170000", "134031.630000", "134032.090000", "134032.550000", "134033.010000", "134033.470000", "134033.930000", "134034.390000", "134034.850000", "134035.310000", "134035.770000", "134036.230000", "134036.690000", "134037.150000", "134037.610000", "134038.070000", "134038.530000", "134038.990000", "134039.450000", "134039.910000", "134040.370000", "134040.830000", "134041.290000", "134041.750000", "134042.210000", "134042.670000", "134043.130000", "134043.590000", "134044.050000", "134044.510000", "134044.970000", "134045.430000", "134045.890000", "134046.350000", "134046.810000", "134047.270000", "134047.730000", "134048.190000", "134048.650000", "134049.110000", "134049.570000", "134050.030000", "134050.490000", "134050.950000", "134051.410000", "134051.870000", "134052.330000", "134052.790000", "134053.250000", "134053.710000", "134054.170000", "134054.630000", "134055.090000", "134055.550000", "134056.010000", "134056.470000", "134056.930000", "134057.390000", "134057.850000", "134058.310000", "134058.770000", "134059.230000", "134059.690000", "134100.150000", "134100.610000", "134101.070000", "134101.530000", "134101.990000", "134102.450000", "134102.910000", "134103.370000", "134103.830000", "134104.290000", "134104.750000", "134105.210000", "134105.670000", "134106.130000", "134106.590000", "134107.050000", "134107.510000", "134107.970000", "134108.430000", "134108.890000", "134109.350000", "134109.810000", "134110.270000", "134110.730000", "134111.190000", "134111.650000", "134112.110000", "134112.570000", "134113.030000", "134113.490000", "134113.950000", "134114.410000", "134114.870000", "134115.330000", "134115.790000", "134116.250000", "134116.710000", "134117.170000", "134117.630000", "134118.090000", "134118.550000", "134119.010000", "134119.470000", "134119.930000", "134120.390000", "134120.850000", "134121.310000", "134121.770000", "134122.230000", "134122.690000", "134123.150000", "134123.610000", "134124.070000", "134124.530000", "134124.990000", "134125.450000", "134125.910000", "134126.370000", "134126.830000", "134127.290000"],
