{
  "AcquisitionMatrixPE": 140,
  "AcquisitionNumber": 1,
  "AcquisitionTime": "15:41:39.040000",
  "BandwidthPerPixelPhaseEncode": 10.352,
  "BaseResolution": 140,
  "BodyPartExamined": "BRAIN",
  "ConsistencyInfo": "N4_VE11C_LATEST_20160120",
  "ConversionSoftware": "dcm2niix",
  "ConversionSoftwareVersion": "v1.0.20201102",
  "DerivedVendorReportedEchoSpacing": 0.000689998,
  "DeviceSerialNumber": "66112",
  "DiffusionScheme": "Monopolar",
  "DwellTime": 2.1e-06,
  "EchoTime": 0.088,
  "EchoTrainLength": 105,
  "EffectiveEchoSpacing": 0.000689998,
  "FlipAngle": 90,
  "ImageComments": "Unaliased MB3/PE3",
  "ImageOrientationPatientDICOM": [0.999029, 0.0182642, 0.0400967, -0.0179614, 0.999807, -0.00789712],
  "ImageType": [
    "ORIGINAL",
    "PRIMARY",
    "DIFFUSION",
    "NONE",
    "MB",
    "ND"
],
  "ImagingFrequency": 123.252,
  "InPlanePhaseEncodingDirectionDICOM": "COL",
  "InstitutionAddress": "Maynard 3,Hanover,NH,US,03755",
  "InstitutionName": "Dartmouth College - PBS",
  "InstitutionalDepartmentName": "Department",
  "IntendedFor": [
    "ses-01/dwi/sub-0011_ses-01_acq-96dirX6b0Xmb_dwi.nii.gz",
    "ses-01/dwi/sub-0011_ses-01_acq-96dirX6b0Xmb_dwi__dup-01.nii.gz"
],
  "MRAcquisitionType": "2D",
  "MagneticFieldStrength": 3,
  "Manufacturer": "Siemens",
  "ManufacturersModelName": "Prisma",
  "Modality": "MR",
  "MultibandAccelerationFactor": 3,
  "PartialFourier": 0.75,
  "PatientPosition": "HFS",
  "PercentPhaseFOV": 100,
  "PercentSampling": 100,
  "PhaseEncodingDirection": "j-",
  "PhaseEncodingSteps": 105,
  "PhaseResolution": 1,
  "PixelBandwidth": 1700,
  "ProcedureStepDescription": "Wager_Wager^1076_spacetop",
  "ProtocolName": "dwi_acq-discorr-AP",
  "PulseSequenceDetails": "%CustomerSeq%\\cmrr_mbep2d_diff",
  "ReceiveCoilActiveElements": "HEA;HEP",
  "ReceiveCoilName": "Head_32",
  "ReconMatrixPE": 140,
  "RepetitionTime": 4.1,
  "SAR": 0.132098,
  "ScanOptions": "PFP\\FS",
  "ScanningSequence": "EP",
  "SequenceName": "ep_b0",
  "SequenceVariant": "SK\\SS",
  "SeriesDescription": "dwi_acq-discorr-AP",
  "SeriesNumber": 14,
  "ShimSetting": [4150, -7761, -7261, 602, -53, -195, 33, 74],
  "SliceThickness": 1.7,
  "SliceTiming": [0, 2.10938, 0.14062, 2.26562, 0.29688, 2.40625, 0.45312, 2.5625, 0.59375, 2.71875, 0.75, 2.85938, 0.89062, 3.01562, 1.04688, 3.17188, 1.20312, 3.3125, 1.35938, 3.46875, 1.5, 3.625, 1.65625, 3.76562, 1.8125, 3.92188, 1.95312, 0, 2.10938, 0.14062, 2.26562, 0.29688, 2.40625, 0.45312, 2.5625, 0.59375, 2.71875, 0.75, 2.85938, 0.89062, 3.01562, 1.04688, 3.17188, 1.20312, 3.3125, 1.35938, 3.46875, 1.5, 3.625, 1.65625, 3.76562, 1.8125, 3.92188, 1.95312, 0, 2.10938, 0.14062, 2.26562, 0.29688, 2.40625, 0.45312, 2.5625, 0.59375, 2.71875, 0.75, 2.85938, 0.89062, 3.01562, 1.04688, 3.17188, 1.20312, 3.3125, 1.35938, 3.46875, 1.5, 3.625, 1.65625, 3.76562, 1.8125, 3.92188, 1.95312],
  "SoftwareVersions": "syngo MR E11",
  "SpacingBetweenSlices": 1.7,
  "StationName": "AWP66112",
  "TotalReadoutTime": 0.0959097,
  "TxRefAmp": 221.102,
  "WipMemBlock": "49800fd5-ae18-4ada-ac5b-39ae101d822f||Sequence: R016 ve11c/master r/e634e98; Dec 19 2017 11:11:25 by eja",
  "dcmmeta_affine": [
    [-1.7126209735870361, -0.030791040509939194, 0.06839656829833984, 119.41777801513672],
    [-0.03130999207496643, 1.7139557600021362, -0.012187957763671875, -84.72738647460938],
    [0.06873727589845657, 0.013537927530705929, 1.698577880859375, -58.01020812988281],
    [0.0, 0.0, 0.0, 1.0]
],
  "dcmmeta_reorient_transform": [
    [0.0, -1.0, 0.0, 139.0],
    [1.0, 0.0, 0.0, 0.0],
    [0.0, 0.0, -1.0, 80.0],
    [0.0, 0.0, 0.0, 1.0]
],
  "dcmmeta_shape": [140, 140, 81],
  "dcmmeta_slice_dim": 2,
  "dcmmeta_version": 0.6,
  "global": {
    "const": {
      "AccessionNumber": "A003492",
      "AcquisitionMatrix": [140, 0, 0, 140],
      "AcquisitionNumber": 1,
      "AngioFlag": "N",
      "BitsAllocated": 16,
      "BitsStored": 16,
      "BodyPartExamined": "BRAIN",
      "Columns": 140,
      "EchoNumbers": 1,
      "EchoTime": 88.0,
      "EchoTrainLength": 105,
      "FlipAngle": 90.0,
      "HighBit": 15,
      "ImageOrientationPatient": [0.99902886425012, 0.01826416171357, 0.04009674291042, -0.0179614397502, 0.99980749252358, -0.0078971245282],
      "ImageType": [
        "ORIGINAL",
        "PRIMARY",
        "DIFFUSION",
        "NONE",
        "MB",
        "ND"
],
      "ImagedNucleus": "1H",
      "ImagingFrequency": 123.252136,
      "InPlanePhaseEncodingDirection": "COL",
      "MRAcquisitionType": "2D",
      "MagneticFieldStrength": 3.0,
      "Manufacturer": "SIEMENS",
      "ManufacturerModelName": "Prisma",
      "Modality": "MR",
      "NumberOfAverages": 1.0,
      "NumberOfPhaseEncodingSteps": 105,
      "PercentPhaseFieldOfView": 100.0,
      "PercentSampling": 100.0,
      "PerformedProcedureStepStartTime": "150309.808000",
      "PhotometricInterpretation": "MONOCHROME2",
      "PixelBandwidth": 1700.0,
      "PixelRepresentation": 0,
      "PixelSpacing": [1.7142857313156, 1.7142857313156],
      "ProtocolName": "dwi_acq-discorr-AP",
      "RepetitionTime": 4100.0,
      "Rows": 140,
      "SAR": 0.13209843935442,
      "SamplesPerPixel": 1,
      "ScanOptions": [
        "PFP",
        "FS"
],
      "ScanningSequence": "EP",
      "SequenceName": "ep_b0",
      "SequenceVariant": [
        "SK",
        "SS"
],
      "SeriesDescription": "dwi_acq-discorr-AP",
      "SeriesNumber": 14,
      "SeriesTime": "154144.092000",
      "SliceThickness": 1.7000000476837,
      "SmallestImagePixelValue": 0,
      "SoftwareVersions": "syngo MR E11",
      "SpacingBetweenSlices": 1.7,
      "SpecificCharacterSet": "ISO_IR 100",
      "StudyID": "1",
      "StudyTime": "150309.731000",
      "TransmitCoilName": "Body",
      "VariableFlipAngleFlag": "N",
      "WindowCenterWidthExplanation": "Algo1",
      "dBdt": 0.0},
    "slices": {
      "AcquisitionTime": ["154139.040000", "154141.155000", "154139.190000", "154141.305000", "154139.340000", "154141.457500", "154139.492500", "154141.607500", "154139.642500", "154141.760000", "154139.795000", "154141.910000", "154139.945000", "154142.060000", "154140.097500", "154142.212500", "154140.247500", "154142.362500", "154140.400000", "154142.515000", "154140.550000", "154142.665000", "154140.700000", "154142.817500", "154140.852500", "154142.967500", "154141.002500", "154139.040000", "154141.155000", "154139.190000", "154141.305000", "154139.340000", "154141.457500", "154139.492500", "154141.607500", "154139.642500", "154141.760000", "154139.795000", "154141.910000", "154139.945000", "154142.060000", "154140.097500", "154142.212500", "154140.247500", "154142.362500", "154140.400000", "154142.515000", "154140.550000", "154142.665000", "154140.700000", "154142.817500", "154140.852500", "154142.967500", "154141.002500", "154139.040000", "154141.155000", "154139.190000", "154141.305000", "154139.340000", "154141.457500", "154139.492500", "154141.607500", "154139.642500", "154141.760000", "154139.795000", "154141.910000", "154139.945000", "154142.060000", "154140.097500", "154142.212500", "154140.247500", "154142.362500", "154140.400000", "154142.515000", "154140.550000", "154142.665000", "154140.700000", "154142.817500", "154140.852500", "154142.967500", "154141.002500"],
      "ContentTime": ["154144.098000", "154144.204000", "154144.114000", "154144.210000", "154144.122000", "154144.218000", "154144.129000", "154144.225000", "154144.136000", "154144.238000", "154144.143000", "154144.244000", "154144.150000", "154144.251000", "154144.157000", "154144.257000", "154144.165000", "154144.264000", "154144.172000", "154144.270000", "154144.178000", "154144.277000", "154144.185000", "154144.283000", "154144.191000", "154144.289000", "154144.198000", "154144.110000", "154144.206000", "154144.117000", "154144.214000", "154144.125000", "154144.220000", "154144.132000", "154144.227000", "154144.139000", "154144.240000", "154144.146000", "154144.246000", "154144.152000", "154144.253000", "154144.161000", "154144.259000", "154144.167000", "154144.266000", "154144.174000", "154144.272000", "154144.180000", "154144.279000", "154144.187000", "154144.285000", "154144.193000", "154144.292000", "154144.200000", "154144.112000", "154144.208000", "154144.119000", "154144.216000", "154144.127000", "154144.223000", "154144.134000", "154144.229000", "154144.141000", "154144.242000", "154144.148000", "154144.248000", "154144.155000", "154144.255000", "154144.163000", "154144.262000", "154144.170000", "154144.268000", "154144.176000", "154144.274000", "154144.183000", "154144.281000", "154144.189000", "154144.287000", "154144.195000", "154144.294000", "154144.202000"],
      "CsaImage.ICE_Dims": [
        "X_1_1_1_1_1_1_1_1_1_1_1_173",
        "X_1_1_1_1_1_1_42_1_1_2_1_173",
        "X_1_1_1_1_1_1_2_1_1_3_1_173",
        "X_1_1_1_1_1_1_43_1_1_4_1_173",
        "X_1_1_1_1_1_1_3_1_1_5_1_173",
        "X_1_1_1_1_1_1_44_1_1_6_1_173",
        "X_1_1_1_1_1_1_4_1_1_7_1_173",
        "X_1_1_1_1_1_1_45_1_1_8_1_173",
        "X_1_1_1_1_1_1_5_1_1_9_1_173",
        "X_1_1_1_1_1_1_46_1_1_10_1_173",
        "X_1_1_1_1_1_1_6_1_1_11_1_173",
        "X_1_1_1_1_1_1_47_1_1_12_1_173",
        "X_1_1_1_1_1_1_7_1_1_13_1_173",
        "X_1_1_1_1_1_1_48_1_1_14_1_173",
        "X_1_1_1_1_1_1_8_1_1_15_1_173",
        "X_1_1_1_1_1_1_49_1_1_16_1_173",
        "X_1_1_1_1_1_1_9_1_1_17_1_173",
        "X_1_1_1_1_1_1_50_1_1_18_1_173",
        "X_1_1_1_1_1_1_10_1_1_19_1_173",
        "X_1_1_1_1_1_1_51_1_1_20_1_173",
        "X_1_1_1_1_1_1_11_1_1_21_1_173",
        "X_1_1_1_1_1_1_52_1_1_22_1_173",
        "X_1_1_1_1_1_1_12_1_1_23_1_173",
        "X_1_1_1_1_1_1_53_1_1_24_1_173",
        "X_1_1_1_1_1_1_13_1_1_25_1_173",
        "X_1_1_1_1_1_1_54_1_1_26_1_173",
        "X_1_1_1_1_1_1_14_1_1_27_1_173",
        "X_1_1_1_1_1_1_55_1_1_28_1_173",
        "X_1_1_1_1_1_1_15_1_1_29_1_173",
        "X_1_1_1_1_1_1_56_1_1_30_1_173",
        "X_1_1_1_1_1_1_16_1_1_31_1_173",
        "X_1_1_1_1_1_1_57_1_1_32_1_173",
        "X_1_1_1_1_1_1_17_1_1_33_1_173",
        "X_1_1_1_1_1_1_58_1_1_34_1_173",
        "X_1_1_1_1_1_1_18_1_1_35_1_173",
        "X_1_1_1_1_1_1_59_1_1_36_1_173",
        "X_1_1_1_1_1_1_19_1_1_37_1_173",
        "X_1_1_1_1_1_1_60_1_1_38_1_173",
        "X_1_1_1_1_1_1_20_1_1_39_1_173",
        "X_1_1_1_1_1_1_61_1_1_40_1_173",
        "X_1_1_1_1_1_1_21_1_1_41_1_173",
        "X_1_1_1_1_1_1_62_1_1_42_1_173",
        "X_1_1_1_1_1_1_22_1_1_43_1_173",
        "X_1_1_1_1_1_1_63_1_1_44_1_173",
        "X_1_1_1_1_1_1_23_1_1_45_1_173",
        "X_1_1_1_1_1_1_64_1_1_46_1_173",
        "X_1_1_1_1_1_1_24_1_1_47_1_173",
        "X_1_1_1_1_1_1_65_1_1_48_1_173",
        "X_1_1_1_1_1_1_25_1_1_49_1_173",
        "X_1_1_1_1_1_1_66_1_1_50_1_173",
        "X_1_1_1_1_1_1_26_1_1_51_1_173",
        "X_1_1_1_1_1_1_67_1_1_52_1_173",
        "X_1_1_1_1_1_1_27_1_1_53_1_173",
        "X_1_1_1_1_1_1_68_1_1_54_1_173",
        "X_1_1_1_1_1_1_28_1_1_55_1_173",
        "X_1_1_1_1_1_1_69_1_1_56_1_173",
        "X_1_1_1_1_1_1_29_1_1_57_1_173",
        "X_1_1_1_1_1_1_70_1_1_58_1_173",
        "X_1_1_1_1_1_1_30_1_1_59_1_173",
        "X_1_1_1_1_1_1_71_1_1_60_1_173",
        "X_1_1_1_1_1_1_31_1_1_61_1_173",
        "X_1_1_1_1_1_1_72_1_1_62_1_173",
        "X_1_1_1_1_1_1_32_1_1_63_1_173",
        "X_1_1_1_1_1_1_73_1_1_64_1_173",
        "X_1_1_1_1_1_1_33_1_1_65_1_173",
        "X_1_1_1_1_1_1_74_1_1_66_1_173",
        "X_1_1_1_1_1_1_34_1_1_67_1_173",
        "X_1_1_1_1_1_1_75_1_1_68_1_173",
        "X_1_1_1_1_1_1_35_1_1_69_1_173",
        "X_1_1_1_1_1_1_76_1_1_70_1_173",
        "X_1_1_1_1_1_1_36_1_1_71_1_173",
        "X_1_1_1_1_1_1_77_1_1_72_1_173",
        "X_1_1_1_1_1_1_37_1_1_73_1_173",
        "X_1_1_1_1_1_1_78_1_1_74_1_173",
        "X_1_1_1_1_1_1_38_1_1_75_1_173",
        "X_1_1_1_1_1_1_79_1_1_76_1_173",
        "X_1_1_1_1_1_1_39_1_1_77_1_173",
        "X_1_1_1_1_1_1_80_1_1_78_1_173",
        "X_1_1_1_1_1_1_40_1_1_79_1_173",
        "X_1_1_1_1_1_1_81_1_1_80_1_173",
        "X_1_1_1_1_1_1_41_1_1_81_1_173"
],
      "CsaImage.ProtocolSliceNumber": [0, 1, 2, 3, 4, 5, 6, 7, 8, 9, 10, 11, 12, 13, 14, 15, 16, 17, 18, 19, 20, 21, 22, 23, 24, 25, 26, 27, 28, 29, 30, 31, 32, 33, 34, 35, 36, 37, 38, 39, 40, 41, 42, 43, 44, 45, 46, 47, 48, 49, 50, 51, 52, 53, 54, 55, 56, 57, 58, 59, 60, 61, 62, 63, 64, 65, 66, 67, 68, 69, 70, 71, 72, 73, 74, 75, 76, 77, 78, 79, 80],
      "CsaImage.RFSWDDataType": [
        "predicted",
        "predicted",
        "predicted",
        "predicted",
        "predicted",
        "predicted",
        "predicted",
        "predicted",
        "predicted",
        "predicted",
        "predicted",
        "predicted",
        "predicted",
        "predicted",
        "predicted",
        "predicted",
        "predicted",
        "predicted",
        "predicted",
        "predicted",
        "predicted",
        "predicted",
        "predicted",
        "predicted",
        "predicted",
        "measured",
        "predicted",
        "predicted",
        "predicted",
        "predicted",
        "predicted",
        "predicted",
        "predicted",
        "predicted",
        "predicted",
        "predicted",
        "predicted",
        "predicted",
        "predicted",
        "predicted",
        "predicted",
        "predicted",
        "predicted",
        "predicted",
        "predicted",
        "predicted",
        "predicted",
        "predicted",
        "predicted",
        "predicted",
        "predicted",
        "predicted",
        "measured",
        "predicted",
        "predicted",
        "predicted",
        "predicted",
        "predicted",
        "predicted",
        "predicted",
        "predicted",
        "predicted",
        "predicted",
        "predicted",
        "predicted",
        "predicted",
        "predicted",
        "predicted",
        "predicted",
        "predicted",
        "predicted",
        "predicted",
        "predicted",
        "predicted",
        "predicted",
        "predicted",
        "predicted",
        "predicted",
        "predicted",
        "measured",
        "predicted"
],
      "CsaImage.SlicePosition_PCS": [
        [-115.1378285, -153.51243937, -56.12858742],
        [-115.20622507, -153.50025141, -54.43000573],
        [-115.27462164, -153.48806345, -52.73142785],
        [-115.34301821, -153.47587549, -51.03284615],
        [-115.41141478, -153.46368754, -49.33426827],
        [-115.47981135, -153.45149958, -47.63568657],
        [-115.54820791, -153.43931353, -45.93710869],
        [-115.61660448, -153.42712557, -44.238527],
        [-115.68500105, -153.41493761, -42.53994912],
        [-115.7533975, -153.40274965, -40.84136742],
        [-115.82179407, -153.3905617, -39.14278954],
        [-115.89019052, -153.37837374, -37.44420785],
        [-115.95858709, -153.36618578, -35.74562996],
        [-116.02698365, -153.35399782, -34.04705018],
        [-116.09538022, -153.34180987, -32.34847039],
        [-116.16377667, -153.32962382, -30.6498906],
        [-116.23217324, -153.31743586, -28.9513089],
        [-116.30056981, -153.3052479, -27.25272912],
        [-116.36896638, -153.29305994, -25.55414933],
        [-116.43736294, -153.28087198, -23.85556954],
        [-116.50575939, -153.26868403, -22.15698975],
        [-116.57415596, -153.25649607, -20.45840996],
        [-116.64255253, -153.24430811, -18.75983113],
        [-116.7109491, -153.23212015, -17.06125134],
        [-116.77934561, -153.2199341, -15.36267155],
        [-116.84774212, -153.20774615, -13.66409176],
        [-116.91613868, -153.19555819, -11.96551198],
        [-116.98453525, -153.18337023, -10.26693171],
        [-117.05293176, -153.17118227, -8.56835192],
        [-117.12132833, -153.15899431, -6.86977237],
        [-117.18972484, -153.14680636, -5.17119247],
        [-117.25812138, -153.1346184, -3.47261271],
        [-117.32651792, -153.12243044, -1.77403301],
        [-117.39491448, -153.11024439, -0.07545298],
        [-117.46331102, -153.09805643, 1.62312681],
        [-117.53170756, -153.08586848, 3.32170659],
        [-117.6001041, -153.07368052, 5.02028591],
        [-117.66850064, -153.06149256, 6.71886569],
        [-117.73689718, -153.0493046, 8.41744644],
        [-117.80529372, -153.03711664, 10.11602622],
        [-117.87369025, -153.02492869, 11.81460601],
        [-117.94208681, -153.01274073, 13.5131858],
        [-118.01048333, -153.00055468, 15.21176559],
        [-118.0788799, -152.98836672, 16.91034538],
        [-118.14727644, -152.97617876, 18.60892517],
        [-118.21567298, -152.9639908, 20.30750495],
        [-118.28406951, -152.95180285, 22.00608474],
        [-118.35246602, -152.93961489, 23.70466453],
        [-118.42086259, -152.92742693, 25.40324432],
        [-118.48925916, -152.91523897, 27.10182411],
        [-118.55765567, -152.90305102, 28.80040199],
        [-118.62605224, -152.89086497, 30.49898368],
        [-118.69444874, -152.87867701, 32.19756156],
        [-118.76284531, -152.86648905, 33.89614326],
        [-118.83124188, -152.85430109, 35.59472114],
        [-118.89963833, -152.84211313, 37.29330284],
        [-118.9680349, -152.82992518, 38.99188072],
        [-119.03643147, -152.81773722, 40.69046241],
        [-119.10482804, -152.80554926, 42.38904029],
        [-119.17322448, -152.7933613, 44.08762199],
        [-119.24162105, -152.78117525, 45.78620368],
        [-119.31001762, -152.7689873, 47.48478157],
        [-119.37841419, -152.75679934, 49.18336326],
        [-119.44681076, -152.74461138, 50.88194114],
        [-119.51520721, -152.73242342, 52.58052284],
        [-119.58360377, -152.72023546, 54.27910072],
        [-119.65200034, -152.70804751, 55.97768241],
        [-119.72039691, -152.69585955, 57.67626029],
        [-119.78879348, -152.68367159, 59.37484199],
        [-119.85719005, -152.67148554, 61.07342369],
        [-119.92558638, -152.65929758, 62.77200157],
        [-119.99398295, -152.64710963, 64.47057945],
        [-120.06237951, -152.63492167, 66.16915733],
        [-120.13077608, -152.62273371, 67.86774284],
        [-120.19917265, -152.61054575, 69.56632072],
        [-120.26756922, -152.59835779, 71.2648986],
        [-120.33596579, -152.58616984, 72.96347648],
        [-120.40436236, -152.57398188, 74.66206199],
        [-120.47275892, -152.56179583, 76.36063987],
        [-120.54115525, -152.54960787, 78.05921775],
        [-120.60955182, -152.53741991, 79.75779563]
],
      "CsaImage.TimeAfterStart": [16.4, 18.5175, 16.5525, 18.6675, 16.7025, 18.8175, 16.855, 18.97, 17.005, 19.12, 17.1575, 19.2725, 17.3075, 19.4225, 17.4575, 19.575, 17.61, 19.725, 17.76, 19.8775, 17.9125, 20.0275, 18.0625, 20.1775, 18.215, 20.33, 18.365, 16.4, 18.5175, 16.5525, 18.6675, 16.7025, 18.8175, 16.855, 18.97, 17.005, 19.12, 17.1575, 19.2725, 17.3075, 19.4225, 17.4575, 19.575, 17.61, 19.725, 17.76, 19.8775, 17.9125, 20.0275, 18.0625, 20.1775, 18.215, 20.33, 18.365, 16.4, 18.5175, 16.5525, 18.6675, 16.7025, 18.8175, 16.855, 18.97, 17.005, 19.12, 17.1575, 19.2725, 17.3075, 19.4225, 17.4575, 19.575, 17.61, 19.725, 17.76, 19.8775, 17.9125, 20.0275, 18.0625, 20.1775, 18.215, 20.33, 18.365],
      "ImagePositionPatient": [
        [-115.13782850439, -153.51243936748, -56.128587422962],
        [-115.20622507269, -153.50025140972, -54.430005727406],
        [-115.27462164099, -153.48806345195, -52.731427846546],
        [-115.34301820929, -153.47587549419, -51.03284615099],
        [-115.41141477759, -153.46368753643, -49.33426827013],
        [-115.47981134589, -153.45149957866, -47.635686574574],
        [-115.54820791418, -153.43931352825, -45.937108693714],
        [-115.61660448248, -153.42712557048, -44.238526998158],
        [-115.68500105078, -153.41493761272, -42.539949117298],
        [-115.75339749987, -153.40274965496, -40.841367421742],
        [-115.82179406817, -153.39056169719, -39.142789540882],
        [-115.89019051726, -153.37837373943, -37.444207845326],
        [-115.95858708556, -153.36618578166, -35.745629964466],
        [-116.02698365385, -153.3539978239, -34.047050176258],
        [-116.09538022215, -153.34180986614, -32.34847038805],
        [-116.16377667124, -153.32962381572, -30.649890599842],
        [-116.23217323954, -153.31743585796, -28.951308904286],
        [-116.30056980784, -153.30524790019, -27.252729116078],
        [-116.36896637614, -153.29305994243, -25.55414932787],
        [-116.43736294444, -153.28087198467, -23.855569539661],
        [-116.50575939352, -153.2686840269, -22.156989751453],
        [-116.57415596182, -153.25649606914, -20.458409963245],
        [-116.64255253012, -153.24430811138, -18.759831128712],
        [-116.71094909842, -153.23212015361, -17.061251340504],
        [-116.77934560711, -153.2199341032, -15.362671552296],
        [-116.84774211581, -153.20774614543, -13.664091764088],
        [-116.9161386841, -153.19555818767, -11.96551197588],
        [-116.9845352524, -153.18337022991, -10.266931710835],
        [-117.0529317611, -153.17118227214, -8.5683519226266],
        [-117.1213283294, -153.15899431438, -6.8697723728372],
        [-117.18972483809, -153.14680635662, -5.1711924654199],
        [-117.25812137658, -153.13461839885, -3.4726127070142],
        [-117.32651791508, -153.12243044109, -1.7740330082131],
        [-117.39491448338, -153.11024439067, -0.0754529815865],
        [-117.46331102188, -153.09805643291, 1.6231268066215],
        [-117.53170756037, -153.08586847515, 3.3217065948295],
        [-117.60010409887, -153.07368051738, 5.0202859062003],
        [-117.66850063736, -153.06149255962, 6.7188656944083],
        [-117.73689717679, -153.04930460185, 8.4174464362907],
        [-117.80529372181, -153.03711664409, 10.116026224499],
        [-117.87369025285, -153.02492868633, 11.814606012707],
        [-117.94208680625, -153.01274072856, 13.513185800915],
        [-118.01048332984, -153.00055467815, 15.211765589123],
        [-118.07887989814, -152.98836672039, 16.910345377331],
        [-118.14727643664, -152.97617876262, 18.608925165539],
        [-118.21567297513, -152.96399080486, 20.307504953747],
        [-118.28406951363, -152.95180284709, 22.006084741955],
        [-118.35246602232, -152.93961488933, 23.704664530163],
        [-118.42086259062, -152.92742693157, 25.403244318371],
        [-118.48925915892, -152.9152389738, 27.101824106579],
        [-118.55765566761, -152.90305101604, 28.800401987438],
        [-118.62605223591, -152.89086496562, 30.498983682995],
        [-118.69444874461, -152.87867700786, 32.197561563854],
        [-118.7628453129, -152.8664890501, 33.896143259411],
        [-118.8312418812, -152.85430109233, 35.59472114027],
        [-118.89963833029, -152.84211313457, 37.293302835827],
        [-118.96803489859, -152.82992517681, 38.991880716686],
        [-119.03643146689, -152.81773721904, 40.690462412243],
        [-119.10482803519, -152.80554926128, 42.389040293102],
        [-119.17322448428, -152.79336130352, 44.087621988659],
        [-119.24162105257, -152.7811752531, 45.786203684215],
        [-119.31001762087, -152.76898729534, 47.484781565075],
        [-119.37841418917, -152.75679933757, 49.183363260631],
        [-119.44681075747, -152.74461137981, 50.881941141491],
        [-119.51520720656, -152.73242342205, 52.580522837047],
        [-119.58360377486, -152.72023546428, 54.279100717907],
        [-119.65200034315, -152.70804750652, 55.977682413464],
        [-119.72039691145, -152.69585954875, 57.676260294323],
        [-119.78879347975, -152.68367159099, 59.37484198988],
        [-119.85719004805, -152.67148554058, 61.073423685436],
        [-119.92558637793, -152.65929758281, 62.772001566296],
        [-119.99398294623, -152.64710962505, 64.470579447155],
        [-120.06237951453, -152.63492166728, 66.169157328014],
        [-120.13077608282, -152.62273370952, 67.867742838268],
        [-120.19917265112, -152.61054575176, 69.566320719128],
        [-120.26756921942, -152.59835779399, 71.264898599987],
        [-120.33596578772, -152.58616983623, 72.963476480846],
        [-120.40436235602, -152.57398187847, 74.6620619911],
        [-120.47275892432, -152.56179582805, 76.36063987196],
        [-120.5411552542, -152.54960787029, 78.059217752819],
        [-120.60955182249, -152.53741991252, 79.757795633678]
],
      "InstanceCreationTime": ["154144.098000", "154144.204000", "154144.114000", "154144.210000", "154144.122000", "154144.218000", "154144.129000", "154144.225000", "154144.136000", "154144.238000", "154144.143000", "154144.244000", "154144.150000", "154144.251000", "154144.157000", "154144.257000", "154144.165000", "154144.264000", "154144.172000", "154144.270000", "154144.178000", "154144.277000", "154144.185000", "154144.283000", "154144.191000", "154144.289000", "154144.198000", "154144.110000", "154144.206000", "154144.117000", "154144.214000", "154144.125000", "154144.220000", "154144.132000", "154144.227000", "154144.139000", "154144.240000", "154144.146000", "154144.246000", "154144.152000", "154144.253000", "154144.161000", "154144.259000", "154144.167000", "154144.266000", "154144.174000", "154144.272000", "154144.180000", "154144.279000", "154144.187000", "154144.285000", "154144.193000", "154144.292000", "154144.200000", "154144.112000", "154144.208000", "154144.119000", "154144.216000", "154144.127000", "154144.223000", "154144.134000", "154144.229000", "154144.141000", "154144.242000", "154144.148000", "154144.248000", "154144.155000", "154144.255000", "154144.163000", "154144.262000", "154144.170000", "154144.268000", "154144.176000", "154144.274000", "154144.183000", "154144.281000", "154144.189000", "154144.287000", "154144.195000", "154144.294000", "154144.202000"],
      "InstanceNumber": [1, 2, 3, 4, 5, 6, 7, 8, 9, 10, 11, 12, 13, 14, 15, 16, 17, 18, 19, 20, 21, 22, 23, 24, 25, 26, 27, 28, 29, 30, 31, 32, 33, 34, 35, 36, 37, 38, 39, 40, 41, 42, 43, 44, 45, 46, 47, 48, 49, 50, 51, 52, 53, 54, 55, 56, 57, 58, 59, 60, 61, 62, 63, 64, 65, 66, 67, 68, 69, 70, 71, 72, 73, 74, 75, 76, 77, 78, 79, 80, 81],
      "LargestImagePixelValue": [28477, 29762, 24518, 20225, 27747, 37025, 26225, 17798, 19623, 22676, 18764, 21669, 23618, 30940, 24858, 20396, 23272, 22444, 22631, 30627, 30296, 38754, 39150, 43526, 42127, 53637, 56919, 56544, 42108, 33267, 31394, 36856, 65368, 54912, 53283, 60011, 58438, 54195, 47877, 41518, 37407, 30686, 37260, 62915, 57680, 64490, 64795, 52999, 44483, 35831, 38744, 49893, 43889, 44916, 42677, 40976, 37527, 38858, 38132, 40427, 40426, 41916, 46006, 41634, 45665, 47395, 41696, 38856, 37121, 45202, 41237, 35871, 46995, 45191, 20835, 11000, 14793, 14448, 14067, 12166, 13980],
      "SliceLocation": [-52.549897893904, -50.849896007626, -49.149897932858, -47.44989604658, -45.749897971812, -44.049896085534, -42.34989802444, -40.649896138162, -38.949898063394, -37.249896181912, -35.549898107145, -33.849896225663, -32.149898150895, -30.449898170372, -28.749898189849, -27.049898227796, -25.349896341518, -23.649896360995, -21.949896380472, -20.249896399949, -18.549896424222, -16.849896443699, -15.149897416054, -13.449897435531, -11.74989747108, -10.049897492956, -8.3498975124326, -6.6498970554708, -4.9498970773459, -3.2498973350423, -1.5498972378077, 0.15010271173882, 1.8501026017305, 3.5501028067986, 5.2501027861225, 6.9501027654465, 8.6501022683316, 10.350102247656, 12.050103179895, 13.750103159481, 15.450103138505, 17.150103118428, 18.850103083479, 20.550103064002, 22.250103043326, 23.950103022649, 25.650103001973, 27.350102980098, 29.050102960621, 30.750102941144, 32.450101013514, 34.150102886118, 35.850100958488, 37.550102844766, 39.250100919534, 40.950102801016, 42.650100875783, 44.350102762062, 46.050100836829, 47.750102718311, 49.450104590915, 51.150102665683, 52.850104551961, 54.550102626729, 56.250104508211, 57.950102582979, 59.650104469257, 61.350102544025, 63.050104430303, 64.750106302907, 66.450104368082, 68.15010244285, 69.850100517618, 71.550106215406, 73.250104290174, 74.950102364942, 76.65010043971, 78.350106137498, 80.050104198592, 81.750102263767, 83.450100338535],
      "WindowCenter": [4690.0, 4941.0, 4688.0, 4744.0, 5264.0, 5365.0, 5223.0, 4789.0, 4987.0, 5189.0, 5195.0, 5665.0, 6016.0, 6295.0, 6291.0, 6161.0, 6357.0, 6366.0, 6618.0, 7135.0, 7298.0, 7481.0, 7510.0, 7514.0, 7542.0, 7825.0, 7962.0, 7897.0, 7844.0, 7817.0, 7914.0, 8114.0, 8388.0, 8490.0, 8508.0, 8652.0, 8896.0, 9098.0, 8811.0, 8920.0, 8902.0, 8919.0, 9070.0, 9385.0, 9391.0, 9447.0, 9413.0, 9377.0, 9206.0, 9273.0, 9401.0, 9589.0, 9637.0, 9647.0, 9136.0, 9197.0, 9236.0, 9255.0, 9368.0, 9402.0, 9598.0, 9605.0, 9600.0, 9379.0, 9437.0, 9197.0, 9293.0, 9062.0, 9024.0, 9136.0, 9061.0, 8821.0, 8562.0, 6952.0, 4098.0, 1750.0, 3665.0, 3713.0, 4142.0, 2863.0, 3846.0],
      "WindowWidth": [10669.0, 10879.0, 10334.0, 10459.0, 11516.0, 11669.0, 11312.0, 10428.0, 10801.0, 11281.0, 11407.0, 12399.0, 13027.0, 13600.0, 13597.0, 13435.0, 13791.0, 13919.0, 14497.0, 15608.0, 16341.0, 16978.0, 17170.0, 17351.0, 17109.0, 17784.0, 18079.0, 17794.0, 17172.0, 16913.0, 16983.0, 17439.0, 18278.0, 18507.0, 18679.0, 19023.0, 19493.0, 19958.0, 19142.0, 19272.0, 19024.0, 19008.0, 19470.0, 20470.0, 20614.0, 20671.0, 20523.0, 20422.0, 19989.0, 20071.0, 20257.0, 20687.0, 20877.0, 20870.0, 19671.0, 19747.0, 19954.0, 20026.0, 20297.0, 20322.0, 20832.0, 20903.0, 21136.0, 20646.0, 20705.0, 20039.0, 20314.0, 19806.0, 19634.0, 19708.0, 19459.0, 18766.0, 17959.0, 15279.0, 9400.0, 5282.0, 8413.0, 8601.0, 9179.0, 7302.0, 8392.0]
    }
  }
}