{
  "AcquisitionMatrixPE": 140,
  "AcquisitionNumber": 1,
  "AcquisitionTime": "12:42:53.015000",
  "BandwidthPerPixelPhaseEncode": 10.352,
  "BaseResolution": 140,
  "BodyPartExamined": "BRAIN",
  "ConsistencyInfo": "N4_VE11E_LATEST_20181129",
  "ConversionSoftware": "dcm2niix",
  "ConversionSoftwareVersion": "v1.0.20201102",
  "DerivedVendorReportedEchoSpacing": 0.000689998,
  "DeviceSerialNumber": "66112",
  "DiffusionScheme": "Monopolar",
  "DwellTime": 2.1e-06,
  "EchoTime": 0.088,
  "EchoTrainLength": 105,
  "EffectiveEchoSpacing": 0.000689998,
  "FlipAngle": 90,
  "ImageComments": "Unaliased MB3/PE3",
  "ImageOrientationPatientDICOM": [0.996957, -0.0779206, 0.00213677, 0.0760116, 0.977877, 0.19488],
  "ImageType": [
    "ORIGINAL",
    "PRIMARY",
    "DIFFUSION",
    "NONE",
    "MB",
    "ND"
],
  "ImagingFrequency": 123.259,
  "InPlanePhaseEncodingDirectionDICOM": "COL",
  "InstitutionAddress": "Maynard 3,Hanover,NH,US,03755",
  "InstitutionName": "Dartmouth College - PBS",
  "InstitutionalDepartmentName": "Department",
  "IntendedFor": [
    "ses-01/dwi/sub-0114_ses-01_acq-96dirX6b0Xmb_dwi.nii.gz"
],
  "MRAcquisitionType": "2D",
  "MagneticFieldStrength": 3,
  "Manufacturer": "Siemens",
  "ManufacturersModelName": "Prisma",
  "Modality": "MR",
  "MultibandAccelerationFactor": 3,
  "PartialFourier": 0.75,
  "PatientPosition": "HFS",
  "PercentPhaseFOV": 100,
  "PercentSampling": 100,
  "PhaseEncodingDirection": "j-",
  "PhaseEncodingSteps": 105,
  "PhaseResolution": 1,
  "PixelBandwidth": 1700,
  "ProcedureStepDescription": "Wager_Wager^1076_spacetop",
  "ProtocolName": "dwi_acq-discorr-AP",
  "PulseSequenceDetails": "%CustomerSeq%\\cmrr_mbep2d_diff",
  "ReceiveCoilActiveElements": "HEA;HEP",
  "ReceiveCoilName": "Head_32",
  "ReconMatrixPE": 140,
  "RepetitionTime": 4.1,
  "SAR": 0.153204,
  "ScanOptions": "PFP\\FS",
  "ScanningSequence": "EP",
  "SequenceName": "ep_b0",
  "SequenceVariant": "SK\\SS",
  "SeriesDescription": "dwi_acq-discorr-AP",
  "SeriesNumber": 7,
  "ShimSetting": [4208, -7762, -7204, 310, -167, 42, 116, 100],
  "SliceThickness": 1.7,
  "SliceTiming": [0, 2.11719, 0.14844, 2.26562, 0.30469, 2.41406, 0.45312, 2.57031, 0.60156, 2.71875, 0.75781, 2.86719, 0.90625, 3.02344, 1.05469, 3.17188, 1.20312, 3.32812, 1.35938, 3.47656, 1.50781, 3.625, 1.66406, 3.77344, 1.8125, 3.92969, 1.96094, 0, 2.11719, 0.14844, 2.26562, 0.30469, 2.41406, 0.45312, 2.57031, 0.60156, 2.71875, 0.75781, 2.86719, 0.90625, 3.02344, 1.05469, 3.17188, 1.20312, 3.32812, 1.35938, 3.47656, 1.50781, 3.625, 1.66406, 3.77344, 1.8125, 3.92969, 1.96094, 0, 2.11719, 0.14844, 2.26562, 0.30469, 2.41406, 0.45312, 2.57031, 0.60156, 2.71875, 0.75781, 2.86719, 0.90625, 3.02344, 1.05469, 3.17188, 1.20312, 3.32812, 1.35938, 3.47656, 1.50781, 3.625, 1.66406, 3.77344, 1.8125, 3.92969, 1.96094],
  "SoftwareVersions": "syngo MR E11",
  "SpacingBetweenSlices": 1.7,
  "StationName": "AWP66112",
  "TotalReadoutTime": 0.0959097,
  "TxRefAmp": 239.66,
  "WipMemBlock": "febfe9d6-9156-4d3e-a6f8-dfcad444b415||Sequence: R016 ve11e/master r/434b28f1; Aug  7 2019 19:06:17 by eja",
  "dcmmeta_affine": [
    [-1.7090696096420288, 0.130305677652359, 0.029366493225097656, 113.23350524902344],
    [0.1335781365633011, 1.6763612031936646, 0.33000946044921875, -111.67543029785156],
    [0.0036630299873650074, -0.33407941460609436, 1.6674041748046875, -30.314590454101562],
    [0.0, 0.0, 0.0, 1.0]
],
  "dcmmeta_reorient_transform": [
    [0.0, -1.0, 0.0, 139.0],
    [1.0, 0.0, 0.0, 0.0],
    [0.0, 0.0, -1.0, 80.0],
    [0.0, 0.0, 0.0, 1.0]
],
  "dcmmeta_shape": [140, 140, 81],
  "dcmmeta_slice_dim": 2,
  "dcmmeta_version": 0.6,
  "global": {
    "const": {
      "AccessionNumber": "A004541",
      "AcquisitionMatrix": [140, 0, 0, 140],
      "AcquisitionNumber": 1,
      "AngioFlag": "N",
      "BitsAllocated": 16,
      "BitsStored": 16,
      "BodyPartExamined": "BRAIN",
      "Columns": 140,
      "EchoNumbers": 1,
      "EchoTime": 88.0,
      "EchoTrainLength": 105,
      "FlipAngle": 90.0,
      "HighBit": 15,
      "ImageOrientationPatient": [0.99695727959961, -0.0779205805817, 0.00213676745451, 0.07601164212134, 0.97787737046349, 0.19487965157358],
      "ImageType": [
        "ORIGINAL",
        "PRIMARY",
        "DIFFUSION",
        "NONE",
        "MB",
        "ND"
],
      "ImagedNucleus": "1H",
      "ImagingFrequency": 123.259043,
      "InPlanePhaseEncodingDirection": "COL",
      "MRAcquisitionType": "2D",
      "MagneticFieldStrength": 3.0,
      "Manufacturer": "SIEMENS",
      "ManufacturerModelName": "Prisma",
      "Modality": "MR",
      "NumberOfAverages": 1.0,
      "NumberOfPhaseEncodingSteps": 105,
      "PercentPhaseFieldOfView": 100.0,
      "PercentSampling": 100.0,
      "PerformedProcedureStepStartTime": "122755.024000",
      "PhotometricInterpretation": "MONOCHROME2",
      "PixelBandwidth": 1700.0,
      "PixelRepresentation": 0,
      "PixelSpacing": [1.7142857313156, 1.7142857313156],
      "ProtocolName": "dwi_acq-discorr-AP",
      "RepetitionTime": 4100.0,
      "Rows": 140,
      "SAR": 0.15320361133905,
      "SamplesPerPixel": 1,
      "ScanOptions": [
        "PFP",
        "FS"
],
      "ScanningSequence": "EP",
      "SequenceName": "ep_b0",
      "SequenceVariant": [
        "SK",
        "SS"
],
      "SeriesDescription": "dwi_acq-discorr-AP",
      "SeriesNumber": 7,
      "SeriesTime": "124257.306000",
      "SliceThickness": 1.7000000476837,
      "SmallestImagePixelValue": 0,
      "SoftwareVersions": "syngo MR E11",
      "SpacingBetweenSlices": 1.7,
      "SpecificCharacterSet": "ISO_IR 100",
      "StudyID": "1",
      "StudyTime": "122754.931000",
      "TransmitCoilName": "Body",
      "VariableFlipAngleFlag": "N",
      "WindowCenterWidthExplanation": "Algo1"
    },
    "slices": {
      "AcquisitionTime": ["124253.015000", "124255.130000", "124253.165000", "124255.280000", "124253.317500", "124255.432500", "124253.467500", "124255.582500", "124253.620000", "124255.735000", "124253.770000", "124255.885000", "124253.920000", "124256.037500", "124254.072500", "124256.187500", "124254.222500", "124256.340000", "124254.375000", "124256.490000", "124254.525000", "124256.640000", "124254.677500", "124256.792500", "124254.827500", "124256.942500", "124254.980000", "124253.015000", "124255.130000", "124253.165000", "124255.280000", "124253.317500", "124255.432500", "124253.467500", "124255.582500", "124253.620000", "124255.735000", "124253.770000", "124255.885000", "124253.920000", "124256.037500", "124254.072500", "124256.187500", "124254.222500", "124256.340000", "124254.375000", "124256.490000", "124254.525000", "124256.640000", "124254.677500", "124256.792500", "124254.827500", "124256.942500", "124254.980000", "124253.015000", "124255.130000", "124253.165000", "124255.280000", "124253.317500", "124255.432500", "124253.467500", "124255.582500", "124253.620000", "124255.735000", "124253.770000", "124255.885000", "124253.920000", "124256.037500", "124254.072500", "124256.187500", "124254.222500", "124256.340000", "124254.375000", "124256.490000", "124254.525000", "124256.640000", "124254.677500", "124256.792500", "124254.827500", "124256.942500", "124254.980000"],
      "ContentTime": ["124257.309000", "124257.402000", "124257.315000", "124257.408000", "124257.331000", "124257.415000", "124257.337000", "124257.422000", "124257.343000", "124257.429000", "124257.349000", "124257.436000", "124257.355000", "124257.443000", "124257.361000", "124257.449000", "124257.366000", "124257.460000", "124257.372000", "124257.466000", "124257.378000", "124257.478000", "124257.384000", "124257.484000", "124257.390000", "124257.491000", "124257.396000", "124257.312000", "124257.404000", "124257.318000", "124257.410000", "124257.333000", "124257.417000", "124257.339000", "124257.424000", "124257.345000", "124257.432000", "124257.351000", "124257.438000", "124257.357000", "124257.445000", "124257.362000", "124257.452000", "124257.368000", "124257.462000", "124257.374000", "124257.468000", "124257.380000", "124257.480000", "124257.386000", "124257.487000", "124257.392000", "124257.492000", "124257.398000", "124257.314000", "124257.406000", "124257.329000", "124257.412000", "124257.335000", "124257.419000", "124257.341000", "124257.427000", "124257.347000", "124257.434000", "124257.353000", "124257.441000", "124257.359000", "124257.447000", "124257.364000", "124257.454000", "124257.370000", "124257.464000", "124257.376000", "124257.471000", "124257.382000", "124257.482000", "124257.388000", "124257.489000", "124257.394000", "124257.495000", "124257.400000"],
      "CsaImage.GSWDDataType": [
        "predicted",
        "predicted",
        "predicted",
        "predicted",
        "predicted",
        "predicted",
        "predicted",
        "predicted",
        "predicted",
        "predicted",
        "predicted",
        "predicted",
        "predicted",
        "predicted",
        "predicted",
        "predicted",
        "predicted",
        "predicted",
        "predicted",
        "predicted",
        "predicted",
        "predicted",
        "predicted",
        "measured",
        "predicted",
        "measured",
        "predicted",
        "predicted",
        "predicted",
        "predicted",
        "predicted",
        "predicted",
        "predicted",
        "predicted",
        "predicted",
        "predicted",
        "predicted",
        "predicted",
        "predicted",
        "predicted",
        "predicted",
        "predicted",
        "predicted",
        "predicted",
        "predicted",
        "predicted",
        "predicted",
        "predicted",
        "predicted",
        "predicted",
        "measured",
        "predicted",
        "measured",
        "predicted",
        "predicted",
        "predicted",
        "predicted",
        "predicted",
        "predicted",
        "predicted",
        "predicted",
        "predicted",
        "predicted",
        "predicted",
        "predicted",
        "predicted",
        "predicted",
        "predicted",
        "predicted",
        "predicted",
        "predicted",
        "predicted",
        "predicted",
        "predicted",
        "predicted",
        "predicted",
        "predicted",
        "measured",
        "predicted",
        "measured",
        "predicted"
],
      "CsaImage.ICE_Dims": [
        "X_1_1_1_1_1_1_1_1_1_1_1_82",
        "X_1_1_1_1_1_1_42_1_1_2_1_82",
        "X_1_1_1_1_1_1_2_1_1_3_1_82",
        "X_1_1_1_1_1_1_43_1_1_4_1_82",
        "X_1_1_1_1_1_1_3_1_1_5_1_82",
        "X_1_1_1_1_1_1_44_1_1_6_1_82",
        "X_1_1_1_1_1_1_4_1_1_7_1_82",
        "X_1_1_1_1_1_1_45_1_1_8_1_82",
        "X_1_1_1_1_1_1_5_1_1_9_1_82",
        "X_1_1_1_1_1_1_46_1_1_10_1_82",
        "X_1_1_1_1_1_1_6_1_1_11_1_82",
        "X_1_1_1_1_1_1_47_1_1_12_1_82",
        "X_1_1_1_1_1_1_7_1_1_13_1_82",
        "X_1_1_1_1_1_1_48_1_1_14_1_82",
        "X_1_1_1_1_1_1_8_1_1_15_1_82",
        "X_1_1_1_1_1_1_49_1_1_16_1_82",
        "X_1_1_1_1_1_1_9_1_1_17_1_82",
        "X_1_1_1_1_1_1_50_1_1_18_1_82",
        "X_1_1_1_1_1_1_10_1_1_19_1_82",
        "X_1_1_1_1_1_1_51_1_1_20_1_82",
        "X_1_1_1_1_1_1_11_1_1_21_1_82",
        "X_1_1_1_1_1_1_52_1_1_22_1_82",
        "X_1_1_1_1_1_1_12_1_1_23_1_82",
        "X_1_1_1_1_1_1_53_1_1_24_1_82",
        "X_1_1_1_1_1_1_13_1_1_25_1_82",
        "X_1_1_1_1_1_1_54_1_1_26_1_82",
        "X_1_1_1_1_1_1_14_1_1_27_1_82",
        "X_1_1_1_1_1_1_55_1_1_28_1_82",
        "X_1_1_1_1_1_1_15_1_1_29_1_82",
        "X_1_1_1_1_1_1_56_1_1_30_1_82",
        "X_1_1_1_1_1_1_16_1_1_31_1_82",
        "X_1_1_1_1_1_1_57_1_1_32_1_82",
        "X_1_1_1_1_1_1_17_1_1_33_1_82",
        "X_1_1_1_1_1_1_58_1_1_34_1_82",
        "X_1_1_1_1_1_1_18_1_1_35_1_82",
        "X_1_1_1_1_1_1_59_1_1_36_1_82",
        "X_1_1_1_1_1_1_19_1_1_37_1_82",
        "X_1_1_1_1_1_1_60_1_1_38_1_82",
        "X_1_1_1_1_1_1_20_1_1_39_1_82",
        "X_1_1_1_1_1_1_61_1_1_40_1_82",
        "X_1_1_1_1_1_1_21_1_1_41_1_82",
        "X_1_1_1_1_1_1_62_1_1_42_1_82",
        "X_1_1_1_1_1_1_22_1_1_43_1_82",
        "X_1_1_1_1_1_1_63_1_1_44_1_82",
        "X_1_1_1_1_1_1_23_1_1_45_1_82",
        "X_1_1_1_1_1_1_64_1_1_46_1_82",
        "X_1_1_1_1_1_1_24_1_1_47_1_82",
        "X_1_1_1_1_1_1_65_1_1_48_1_82",
        "X_1_1_1_1_1_1_25_1_1_49_1_82",
        "X_1_1_1_1_1_1_66_1_1_50_1_82",
        "X_1_1_1_1_1_1_26_1_1_51_1_82",
        "X_1_1_1_1_1_1_67_1_1_52_1_82",
        "X_1_1_1_1_1_1_27_1_1_53_1_82",
        "X_1_1_1_1_1_1_68_1_1_54_1_82",
        "X_1_1_1_1_1_1_28_1_1_55_1_82",
        "X_1_1_1_1_1_1_69_1_1_56_1_82",
        "X_1_1_1_1_1_1_29_1_1_57_1_82",
        "X_1_1_1_1_1_1_70_1_1_58_1_82",
        "X_1_1_1_1_1_1_30_1_1_59_1_82",
        "X_1_1_1_1_1_1_71_1_1_60_1_82",
        "X_1_1_1_1_1_1_31_1_1_61_1_82",
        "X_1_1_1_1_1_1_72_1_1_62_1_82",
        "X_1_1_1_1_1_1_32_1_1_63_1_82",
        "X_1_1_1_1_1_1_73_1_1_64_1_82",
        "X_1_1_1_1_1_1_33_1_1_65_1_82",
        "X_1_1_1_1_1_1_74_1_1_66_1_82",
        "X_1_1_1_1_1_1_34_1_1_67_1_82",
        "X_1_1_1_1_1_1_75_1_1_68_1_82",
        "X_1_1_1_1_1_1_35_1_1_69_1_82",
        "X_1_1_1_1_1_1_76_1_1_70_1_82",
        "X_1_1_1_1_1_1_36_1_1_71_1_82",
        "X_1_1_1_1_1_1_77_1_1_72_1_82",
        "X_1_1_1_1_1_1_37_1_1_73_1_82",
        "X_1_1_1_1_1_1_78_1_1_74_1_82",
        "X_1_1_1_1_1_1_38_1_1_75_1_82",
        "X_1_1_1_1_1_1_79_1_1_76_1_82",
        "X_1_1_1_1_1_1_39_1_1_77_1_82",
        "X_1_1_1_1_1_1_80_1_1_78_1_82",
        "X_1_1_1_1_1_1_40_1_1_79_1_82",
        "X_1_1_1_1_1_1_81_1_1_80_1_82",
        "X_1_1_1_1_1_1_41_1_1_81_1_82"
],
      "CsaImage.ProtocolSliceNumber": [0, 1, 2, 3, 4, 5, 6, 7, 8, 9, 10, 11, 12, 13, 14, 15, 16, 17, 18, 19, 20, 21, 22, 23, 24, 25, 26, 27, 28, 29, 30, 31, 32, 33, 34, 35, 36, 37, 38, 39, 40, 41, 42, 43, 44, 45, 46, 47, 48, 49, 50, 51, 52, 53, 54, 55, 56, 57, 58, 59, 60, 61, 62, 63, 64, 65, 66, 67, 68, 69, 70, 71, 72, 73, 74, 75, 76, 77, 78, 79, 80],
      "CsaImage.RFSWDDataType": [
        "predicted",
        "predicted",
        "predicted",
        "predicted",
        "predicted",
        "predicted",
        "predicted",
        "predicted",
        "predicted",
        "predicted",
        "predicted",
        "predicted",
        "predicted",
        "predicted",
        "predicted",
        "predicted",
        "predicted",
        "predicted",
        "predicted",
        "predicted",
        "predicted",
        "predicted",
        "predicted",
        "measured",
        "predicted",
        "measured",
        "predicted",
        "predicted",
        "predicted",
        "predicted",
        "predicted",
        "predicted",
        "predicted",
        "predicted",
        "predicted",
        "predicted",
        "predicted",
        "predicted",
        "predicted",
        "predicted",
        "predicted",
        "predicted",
        "predicted",
        "predicted",
        "predicted",
        "predicted",
        "predicted",
        "predicted",
        "predicted",
        "predicted",
        "measured",
        "predicted",
        "measured",
        "predicted",
        "predicted",
        "predicted",
        "predicted",
        "predicted",
        "predicted",
        "predicted",
        "predicted",
        "predicted",
        "predicted",
        "predicted",
        "predicted",
        "predicted",
        "predicted",
        "predicted",
        "predicted",
        "predicted",
        "predicted",
        "predicted",
        "predicted",
        "predicted",
        "predicted",
        "predicted",
        "predicted",
        "measured",
        "predicted",
        "measured",
        "predicted"
],
      "CsaImage.SlicePosition_PCS": [
        [-131.34596257, -121.33863738, -76.7514714],
        [-131.3753293, -121.6686478, -75.08406723],
        [-131.40469627, -121.99865917, -73.41666687],
        [-131.434063, -122.32867053, -71.74926269],
        [-131.46342997, -122.6586819, -70.08186233],
        [-131.49279694, -122.98869327, -68.41445816],
        [-131.52216368, -123.31870464, -66.7470578],
        [-131.55153065, -123.64871601, -65.07965362],
        [-131.58089738, -123.97872737, -63.41225326],
        [-131.61026435, -124.30873874, -61.74484909],
        [-131.63963108, -124.63875011, -60.07744873],
        [-131.66899805, -124.96876148, -58.41004455],
        [-131.69836478, -125.29877284, -56.74264419],
        [-131.72773175, -125.6287823, -55.07524193],
        [-131.75709872, -125.95879367, -53.40783966],
        [-131.78646545, -126.28880504, -51.74043739],
        [-131.81583242, -126.61881641, -50.07303512],
        [-131.84519915, -126.94882778, -48.40563286],
        [-131.87456612, -127.27883914, -46.73823059],
        [-131.90393286, -127.60885051, -45.07082832],
        [-131.93329983, -127.93886188, -43.40342605],
        [-131.9626668, -128.26887325, -41.73602379],
        [-131.99203353, -128.59888461, -40.06862152],
        [-132.0214005, -128.92889598, -38.40121925],
        [-132.05076723, -129.25890735, -36.73381698],
        [-132.0801342, -129.58891872, -35.06641472],
        [-132.10950093, -129.91893009, -33.3990134],
        [-132.1388679, -130.24894145, -31.73161114],
        [-132.16823487, -130.57895282, -30.06420839],
        [-132.1976016, -130.90896419, -28.39680612],
        [-132.22696857, -131.23897365, -26.72940409],
        [-132.2563353, -131.56898502, -25.06200183],
        [-132.28570227, -131.89899639, -23.39459965],
        [-132.31506901, -132.22900775, -21.72719741],
        [-132.34443598, -132.55901912, -20.05979526],
        [-132.37380295, -132.88903049, -18.392393],
        [-132.40316968, -133.21904186, -16.72499073],
        [-132.43253665, -133.54905322, -15.05758846],
        [-132.46190338, -133.87906459, -13.39018619],
        [-132.49127035, -134.20907596, -11.72278393],
        [-132.52063708, -134.53908733, -10.05538166],
        [-132.55000405, -134.8690987, -8.38797939],
        [-132.57937078, -135.19911006, -6.72057808],
        [-132.60873775, -135.52912143, -5.05317581],
        [-132.63810472, -135.8591328, -3.38577354],
        [-132.66747146, -136.18914417, -1.71837128],
        [-132.69683843, -136.51915363, -0.05096901],
        [-132.72620516, -136.84916499, 1.61643326],
        [-132.75557213, -137.17917636, 3.28383553],
        [-132.78493886, -137.50918773, 4.95123779],
        [-132.81430583, -137.8391991, 6.61864006],
        [-132.8436728, -138.16921047, 8.28604233],
        [-132.87303977, -138.49922183, 9.9534465],
        [-132.90240626, -138.8292332, 11.62084686],
        [-132.93177323, -139.15924457, 13.28825104],
        [-132.9611402, -139.48925594, 14.9556514],
        [-132.99050717, -139.81926731, 16.62305176],
        [-133.01987367, -140.14927677, 18.29045593],
        [-133.04924064, -140.47929004, 19.95785629],
        [-133.07860761, -140.8092995, 21.62526047],
        [-133.10797458, -141.13931278, 23.29266083],
        [-133.13734155, -141.46932224, 24.960065],
        [-133.16670804, -141.79933551, 26.62746536],
        [-133.19607501, -142.12934497, 28.29486954],
        [-133.22544198, -142.45935825, 29.9622699],
        [-133.25480895, -142.78936771, 31.62967407],
        [-133.28417592, -143.11938098, 33.29707443],
        [-133.31354241, -143.44939044, 34.96447861],
        [-133.34290938, -143.77940372, 36.63187897],
        [-133.37227635, -144.10941318, 38.29928314],
        [-133.40164332, -144.43942645, 39.9666835],
        [-133.43100982, -144.76943591, 41.63408386],
        [-133.46037679, -145.09944538, 43.30148804],
        [-133.48974376, -145.42945865, 44.96889221],
        [-133.51911073, -145.75946811, 46.63629639],
        [-133.5484777, -146.08948139, 48.30369293],
        [-133.57784419, -146.41949085, 49.97109711],
        [-133.60721116, -146.74950412, 51.63850128],
        [-133.63657813, -147.07951358, 53.30590546],
        [-133.6659451, -147.40952686, 54.973302],
        [-133.69531159, -147.73953632, 56.64070618]
],
      "CsaImage.TimeAfterStart": [16.4, 18.515, 16.55, 18.665, 16.7, 18.8175, 16.8525, 18.9675, 17.0025, 19.12, 17.155, 19.27, 17.305, 19.42, 17.4575, 19.5725, 17.6075, 19.7225, 17.76, 19.875, 17.91, 20.025, 18.06, 20.1775, 18.2125, 20.3275, 18.3625, 16.4, 18.515, 16.55, 18.665, 16.7, 18.8175, 16.8525, 18.9675, 17.0025, 19.12, 17.155, 19.27, 17.305, 19.42, 17.4575, 19.5725, 17.6075, 19.7225, 17.76, 19.875, 17.91, 20.025, 18.06, 20.1775, 18.2125, 20.3275, 18.3625, 16.4, 18.515, 16.55, 18.665, 16.7, 18.8175, 16.8525, 18.9675, 17.0025, 19.12, 17.155, 19.27, 17.305, 19.42, 17.4575, 19.5725, 17.6075, 19.7225, 17.76, 19.875, 17.91, 20.025, 18.06, 20.1775, 18.2125, 20.3275, 18.3625],
      "ImagePositionPatient": [
        [-131.34596257086, -121.33863738422, -76.751471403242],
        [-131.37532930251, -121.66864779834, -75.084067228438],
        [-131.40469627257, -121.99865916614, -73.41666686833],
        [-131.43406300421, -122.32867053394, -71.749262693526],
        [-131.46342997428, -122.65868190174, -70.081862333418],
        [-131.49279694434, -122.98869326954, -68.414458158614],
        [-131.52216367598, -123.31870463733, -66.747057798506],
        [-131.55153064604, -123.64871600513, -65.079653623701],
        [-131.58089737769, -123.97872737293, -63.412253263594],
        [-131.61026434775, -124.30873874073, -61.744849088789],
        [-131.63963107939, -124.63875010853, -60.077448728682],
        [-131.66899804946, -124.96876147632, -58.410044553877],
        [-131.6983647811, -125.29877284412, -56.74264419377],
        [-131.72773175116, -125.62878230457, -55.075241926314],
        [-131.75709872122, -125.95879367237, -53.407839658858],
        [-131.78646545287, -126.28880504017, -51.740437391402],
        [-131.81583242293, -126.61881640796, -50.073035123946],
        [-131.84519915457, -126.94882777576, -48.40563285649],
        [-131.87456612464, -127.27883914356, -46.738230589033],
        [-131.90393285628, -127.60885051136, -45.070828321577],
        [-131.93329982634, -127.93886187916, -43.403426054121],
        [-131.9626667964, -128.26887324695, -41.736023786665],
        [-131.99203352805, -128.59888461475, -40.068621519209],
        [-132.02140049811, -128.92889598255, -38.401219251753],
        [-132.05076722975, -129.25890735035, -36.733816984297],
        [-132.08013419982, -129.58891871814, -35.066414716841],
        [-132.10950093146, -129.91893008594, -33.399013403059],
        [-132.13886790152, -130.24894145374, -31.731611135603],
        [-132.16823487158, -130.57895282154, -30.06420839131],
        [-132.19760160323, -130.90896418934, -28.396806123854],
        [-132.22696857329, -131.23897364979, -26.729404094817],
        [-132.25633530493, -131.56898501758, -25.06200182736],
        [-132.285702275, -131.89899638538, -23.394599649311],
        [-132.31506900664, -132.22900775318, -21.727197411658],
        [-132.3444359767, -132.55901912098, -20.059795263411],
        [-132.37380294676, -132.88903048877, -18.392392995955],
        [-132.40316967841, -133.21904185657, -16.724990728499],
        [-132.43253664847, -133.54905322437, -15.057588461043],
        [-132.46190338011, -133.87906459217, -13.390186193587],
        [-132.49127035018, -134.20907595997, -11.722783926131],
        [-132.52063708182, -134.53908732776, -10.055381658675],
        [-132.55000405188, -134.86909869556, -8.3879793912185],
        [-132.57937078353, -135.19911006336, -6.7205780774368],
        [-132.60873775359, -135.52912143116, -5.0531758099807],
        [-132.63810472365, -135.85913279895, -3.3857735425247],
        [-132.66747145529, -136.18914416675, -1.7183712750686],
        [-132.69683842536, -136.5191536272, -0.0509690076126],
        [-132.726205157, -136.849164995, 1.6164332598435],
        [-132.75557212706, -137.1791763628, 3.2838355272996],
        [-132.78493885871, -137.5091877306, 4.9512377947556],
        [-132.81430582877, -137.83919909839, 6.6186400622117],
        [-132.84367279883, -138.16921046619, 8.2860423296677],
        [-132.87303976889, -138.49922183399, 9.9534465044724],
        [-132.90240626212, -138.82923320179, 11.62084686458],
        [-132.93177323218, -139.15924456958, 13.288251039385],
        [-132.96114020224, -139.48925593738, 14.955651399492],
        [-132.99050717231, -139.81926730518, 16.623051759599],
        [-133.01987366553, -140.14927676563, 18.290455934404],
        [-133.04924063559, -140.47929004078, 19.957856294511],
        [-133.07860760565, -140.80929950123, 21.625260469316],
        [-133.10797457572, -141.13931277637, 23.292660829424],
        [-133.13734154578, -141.46932223682, 24.960065004228],
        [-133.166708039, -141.79933551197, 26.627465364336],
        [-133.19607500907, -142.12934497242, 28.29486953914],
        [-133.22544197913, -142.45935824756, 29.962269899248],
        [-133.25480894919, -142.78936770801, 31.629674074052],
        [-133.28417591925, -143.11938098316, 33.29707443416],
        [-133.31354241248, -143.44939044361, 34.964478608965],
        [-133.34290938254, -143.77940371875, 36.631878969072],
        [-133.3722763526, -144.1094131792, 38.299283143877],
        [-133.40164332267, -144.43942645435, 39.966683503984],
        [-133.43100981589, -144.7694359148, 41.634083864092],
        [-133.46037678595, -145.09944537525, 43.301488038896],
        [-133.48974375601, -145.4294586504, 44.968892213701],
        [-133.51911072608, -145.75946811084, 46.636296388506],
        [-133.54847769614, -146.08948138599, 48.303692933916],
        [-133.57784418936, -146.41949084644, 49.97109710872],
        [-133.60721115943, -146.74950412159, 51.638501283525],
        [-133.63657812949, -147.07951358204, 53.30590545833],
        [-133.66594509955, -147.40952685718, 54.97330200374],
        [-133.69531159278, -147.73953631763, 56.640706178545]
],
      "InstanceCreationTime": ["124257.309000", "124257.402000", "124257.315000", "124257.408000", "124257.331000", "124257.415000", "124257.337000", "124257.422000", "124257.343000", "124257.429000", "124257.349000", "124257.436000", "124257.355000", "124257.443000", "124257.361000", "124257.449000", "124257.366000", "124257.460000", "124257.372000", "124257.466000", "124257.378000", "124257.478000", "124257.384000", "124257.484000", "124257.390000", "124257.491000", "124257.396000", "124257.312000", "124257.404000", "124257.318000", "124257.410000", "124257.333000", "124257.417000", "124257.339000", "124257.424000", "124257.345000", "124257.432000", "124257.351000", "124257.438000", "124257.357000", "124257.445000", "124257.362000", "124257.452000", "124257.368000", "124257.462000", "124257.374000", "124257.468000", "124257.380000", "124257.480000", "124257.386000", "124257.487000", "124257.392000", "124257.492000", "124257.398000", "124257.314000", "124257.406000", "124257.329000", "124257.412000", "124257.335000", "124257.419000", "124257.341000", "124257.427000", "124257.347000", "124257.434000", "124257.353000", "124257.441000", "124257.359000", "124257.447000", "124257.364000", "124257.454000", "124257.370000", "124257.464000", "124257.376000", "124257.471000", "124257.382000", "124257.482000", "124257.388000", "124257.489000", "124257.394000", "124257.495000", "124257.400000"],
      "InstanceNumber": [1, 2, 3, 4, 5, 6, 7, 8, 9, 10, 11, 12, 13, 14, 15, 16, 17, 18, 19, 20, 21, 22, 23, 24, 25, 26, 27, 28, 29, 30, 31, 32, 33, 34, 35, 36, 37, 38, 39, 40, 41, 42, 43, 44, 45, 46, 47, 48, 49, 50, 51, 52, 53, 54, 55, 56, 57, 58, 59, 60, 61, 62, 63, 64, 65, 66, 67, 68, 69, 70, 71, 72, 73, 74, 75, 76, 77, 78, 79, 80, 81],
      "LargestImagePixelValue": [28703, 39384, 30360, 29563, 23860, 26503, 25433, 30953, 27860, 31342, 32721, 29005, 22127, 22690, 34398, 31787, 23594, 25013, 33379, 38931, 51971, 49638, 42998, 47011, 42010, 48476, 41966, 40207, 30423, 34484, 43681, 38256, 42759, 41272, 31551, 42454, 36999, 35752, 35106, 35273, 33000, 36450, 33860, 32886, 43321, 43491, 37744, 35910, 36317, 36857, 32996, 45673, 42028, 42613, 33831, 31177, 36125, 39850, 41942, 40834, 42568, 36677, 37785, 42147, 45439, 39178, 42513, 39979, 40260, 44817, 42786, 40058, 44749, 44685, 45018, 41724, 46619, 43223, 44590, 40891, 38939],
      "SliceLocation": [-49.456021865631, -47.75602011254, -46.056021911749, -44.356019973527, -42.656021772736, -40.956019830395, -39.256021633723, -37.556019691382, -35.856021494709, -34.156019552369, -32.456021355696, -30.756019413355, -29.056021216683, -27.35602151538, -25.656021443814, -23.956021376367, -22.256021304801, -20.556021237353, -18.856021165788, -17.15602109834, -15.456021026774, -13.756020955209, -12.056020887761, -10.356020816195, -8.6560207487481, -6.9560206771822, -5.2560215451223, -3.5560214735565, -1.8560209342968, -0.1560208668495, 1.5439786006068, 3.2439786680541, 4.9439786519274, 6.6439786901439, 8.3439786447863, 10.043978716352, 11.743978783799, 13.443978855365, 15.143978922813, 16.843978994379, 18.543979061826, 20.243979133392, 21.943978265452, 23.643978337017, 25.343978408583, 27.043978476031, 28.743978177334, 30.443978244781, 32.143978316347, 33.843978383794, 35.54397845536, 37.243978526926, 38.943980469267, 40.643978661821, 42.343980604162, 44.043978804952, 45.743977005743, 47.443978569584, 49.143977140638, 50.843978712716, 52.54397728377, 54.243978855848, 55.943977418664, 57.643978990743, 59.343977561796, 61.043979133874, 62.743977704928, 64.443979268769, 66.143977839823, 67.843979411901, 69.543977982954, 71.243975805245, 72.943977377324, 74.643979689927, 76.343981262005, 78.043976091509, 79.74397765535, 81.443979967953, 83.143981540032, 84.843976369535, 86.543977933376],
