{
  "AcquisitionMatrixPE": 82,
  "AcquisitionNumber": 1,
  "AcquisitionTime": "16:48:9.577500",
  "BandwidthPerPixelPhaseEncode": 24.888,
  "BaseResolution": 82,
  "BodyPartExamined": "BRAIN",
  "ConsistencyInfo": "N4_VE11E_LATEST_20181129",
  "ConversionSoftware": "dcm2niix",
  "ConversionSoftwareVersion": "v1.0.20201102",
  "DerivedVendorReportedEchoSpacing": 0.00049,
  "DeviceSerialNumber": "66112",
  "DwellTime": 2e-06,
  "EchoTime": 0.0272,
  "EchoTrainLength": 82,
  "EffectiveEchoSpacing": 0.00049,
  "FlipAngle": 44,
  "ImageComments": "Unaliased MB8/PE3",
  "ImageOrientationPatientDICOM": [0.999659, -0.00200857, -0.0260303, 0.00471085, 0.994548, 0.104172],
  "ImageType": [
    "ORIGINAL",
    "PRIMARY",
    "M",
    "MB",
    "ND",
    "NORM",
    "MOSAIC"
],
  "ImagingFrequency": 123.252,
  "InPlanePhaseEncodingDirectionDICOM": "COL",
  "InstitutionAddress": "Maynard 3,Hanover,NH,US,03755",
  "InstitutionName": "Dartmouth College - PBS",
  "InstitutionalDepartmentName": "Department",
  "MRAcquisitionType": "2D",
  "MagneticFieldStrength": 3,
  "Manufacturer": "Siemens",
  "ManufacturersModelName": "Prisma",
  "Modality": "MR",
  "MultibandAccelerationFactor": 8,
  "PartialFourier": 1,
  "PatientPosition": "HFS",
  "PercentPhaseFOV": 100,
  "PercentSampling": 100,
  "PhaseEncodingDirection": "j-",
  "PhaseEncodingSteps": 82,
  "PhaseResolution": 1,
  "PixelBandwidth": 3050,
  "ProcedureStepDescription": "Wager_Wager^1076_spacetop",
  "ProtocolName": "func_run-02_task-narratives_acq-ap-mb8",
  "PulseSequenceDetails": "%CustomerSeq%\\cmrr_mbep2d_bold",
  "ReceiveCoilActiveElements": "HEA;HEP",
  "ReceiveCoilName": "Head_32",
  "ReconMatrixPE": 82,
  "RepetitionTime": 0.46,
  "SAR": 0.10406,
  "ScanOptions": "FS",
  "ScanningSequence": "EP",
  "SequenceName": "epfid2d1_82",
  "SequenceVariant": "SK\\SS",
  "SeriesDescription": "func_run-02_task-narratives_acq-ap-mb8",
  "SeriesNumber": 10,
  "ShimSetting": [4135, -7765, -7255, 637, -58, -168, 112, 68],
  "SliceThickness": 2.7,
  "SliceTiming": [0, 0.2525, 0.0625, 0.315, 0.125, 0.3775, 0.19, 0, 0.2525, 0.0625, 0.315, 0.125, 0.3775, 0.19, 0, 0.2525, 0.0625, 0.315, 0.125, 0.3775, 0.19, 0, 0.2525, 0.0625, 0.315, 0.125, 0.3775, 0.19, 0, 0.2525, 0.0625, 0.315, 0.125, 0.3775, 0.19, 0, 0.2525, 0.0625, 0.315, 0.125, 0.3775, 0.19, 0, 0.2525, 0.0625, 0.315, 0.125, 0.3775, 0.19, 0, 0.2525, 0.0625, 0.315, 0.125, 0.3775, 0.19],
  "SoftwareVersions": "syngo MR E11",
  "SpacingBetweenSlices": 2.7,
  "StationName": "AWP66112",
  "TaskName": "narratives",
  "TotalReadoutTime": 0.03969,
  "TxRefAmp": 240.828,
  "WipMemBlock": "3b318339-0133-4bee-98c1-f271ed8fad09||Sequence: R016 ve11e/master r/434b28f1; Aug  7 2019 18:53:46 by eja",
  "dcmmeta_affine": [
    [-2.6820123195648193, 0.01263886597007513, -0.06933370977640152, 113.42427825927734],
    [0.005388855002820492, 2.668299913406372, 0.28149887919425964, -99.28156280517578],
    [-0.06983739137649536, -0.27948513627052307, 2.6843903064727783, -51.106658935546875],
    [0.0, 0.0, 0.0, 1.0]
],
  "dcmmeta_reorient_transform": [
    [0.0, -1.0, 0.0, 81.0],
    [1.0, 0.0, 0.0, 0.0],
    [0.0, 0.0, 1.0, 0.0],
    [0.0, 0.0, 0.0, 1.0]
],
  "dcmmeta_shape": [82, 82, 56, 1098],
  "dcmmeta_slice_dim": 2,
  "dcmmeta_version": 0.6,
  "global": {
    "const": {
      "AccessionNumber": "A004155",
      "AcquisitionMatrix": [82, 0, 0, 82],
      "AngioFlag": "N",
      "BitsAllocated": 16,
      "BitsStored": 16,
      "BodyPartExamined": "BRAIN",
      "Columns": 656,
      "EchoNumbers": 1,
      "EchoTime": 27.2,
      "EchoTrainLength": 82,
      "FlipAngle": 44.0,
      "HighBit": 15,
      "ImageOrientationPatient": [0.99965913644478, -0.0020085731877, -0.0260303007327, 0.00471085008886, 0.99454816768796, 0.10417173340197],
      "ImagePositionPatient": [-887.81293777056, -881.10624641179, -133.91386119215],
      "ImageType": [
        "ORIGINAL",
        "PRIMARY",
        "M",
        "MB",
        "ND",
        "NORM",
        "MOSAIC"
],
      "ImagedNucleus": "1H",
      "ImagingFrequency": 123.252206,
      "InPlanePhaseEncodingDirection": "COL",
      "MRAcquisitionType": "2D",
      "MagneticFieldStrength": 3.0,
      "Manufacturer": "SIEMENS",
      "ManufacturerModelName": "Prisma",
      "Modality": "MR",
      "NumberOfAverages": 1.0,
      "NumberOfPhaseEncodingSteps": 82,
      "PercentPhaseFieldOfView": 100.0,
      "PercentSampling": 100.0,
      "PerformedProcedureStepStartTime": "162904.617000",
      "PhotometricInterpretation": "MONOCHROME2",
      "PixelBandwidth": 3050.0,
      "PixelRepresentation": 0,
      "PixelSpacing": [2.6829268932343, 2.6829268932343],
      "ProtocolName": "func_run-02_task-narratives_acq-ap-mb8",
      "RepetitionTime": 460.0,
      "Rows": 656,
      "SAR": 0.10405960254186,
      "SamplesPerPixel": 1,
      "ScanOptions": "FS",
      "ScanningSequence": "EP",
      "SequenceName": "epfid2d1_82",
      "SequenceVariant": [
        "SK",
        "SS"
],
      "SeriesDescription": "func_run-02_task-narratives_acq-ap-mb8",
      "SeriesNumber": 10,
      "SeriesTime": "164824.692000",
      "SliceLocation": -64.074813790183,
      "SliceThickness": 2.7000000476837,
      "SmallestImagePixelValue": 0,
      "SoftwareVersions": "syngo MR E11",
      "SpacingBetweenSlices": 2.6999999733816,
      "SpecificCharacterSet": "ISO_IR 100",
      "StudyID": "1",
      "StudyTime": "162904.548000",
      "TransmitCoilName": "Body",
      "VariableFlipAngleFlag": "N",
      "WindowCenterWidthExplanation": "Algo1"
    },
    "slices": {}
  },
  "time": {
    "samples": {
      "AcquisitionNumber": [1, 2, 3, 4, 5, 6, 7, 8, 9, 10, 11, 12, 13, 14, 15, 16, 17, 18, 19, 20, 21, 22, 23, 24, 25, 26, 27, 28, 29, 30, 31, 32, 33, 34, 35, 36, 37, 38, 39, 40, 41, 42, 43, 44, 45, 46, 47, 48, 49, 50, 51, 52, 53, 54, 55, 56, 57, 58, 59, 60, 61, 62, 63, 64, 65, 66, 67, 68, 69, 70, 71, 72, 73, 74, 75, 76, 77, 78, 79, 80, 81, 82, 83, 84, 85, 86, 87, 88, 89, 90, 91, 92, 93, 94, 95, 96, 97, 98, 99, 100, 101, 102, 103, 104, 105, 106, 107, 108, 109, 110, 111, 112, 113, 114, 115, 116, 117, 118, 119, 120, 121, 122, 123, 124, 125, 126, 127, 128, 129, 130, 131, 132, 133, 134, 135, 136, 137, 138, 139, 140, 141, 142, 143, 144, 145, 146, 147, 148, 149, 150, 151, 152, 153, 154, 155, 156, 157, 158, 159, 160, 161, 162, 163, 164, 165, 166, 167, 168, 169, 170, 171, 172, 173, 174, 175, 176, 177, 178, 179, 180, 181, 182, 183, 184, 185, 186, 187, 188, 189, 190, 191, 192, 193, 194, 195, 196, 197, 198, 199, 200, 201, 202, 203, 204, 205, 206, 207, 208, 209, 210, 211, 212, 213, 214, 215, 216, 217, 218, 219, 220, 221, 222, 223, 224, 225, 226, 227, 228, 229, 230, 231, 232, 233, 234, 235, 236, 237, 238, 239, 240, 241, 242, 243, 244, 245, 246, 247, 248, 249, 250, 251, 252, 253, 254, 255, 256, 257, 258, 259, 260, 261, 262, 263, 264, 265, 266, 267, 268, 269, 270, 271, 272, 273, 274, 275, 276, 277, 278, 279, 280, 281, 282, 283, 284, 285, 286, 287, 288, 289, 290, 291, 292, 293, 294, 295, 296, 297, 298, 299, 300, 301, 302, 303, 304, 305, 306, 307, 308, 309, 310, 311, 312, 313, 314, 315, 316, 317, 318, 319, 320, 321, 322, 323, 324, 325, 326, 327, 328, 329, 330, 331, 332, 333, 334, 335, 336, 337, 338, 339, 340, 341, 342, 343, 344, 345, 346, 347, 348, 349, 350, 351, 352, 353, 354, 355, 356, 357, 358, 359, 360, 361, 362, 363, 364, 365, 366, 367, 368, 369, 370, 371, 372, 373, 374, 375, 376, 377, 378, 379, 380, 381, 382, 383, 384, 385, 386, 387, 388, 389, 390, 391, 392, 393, 394, 395, 396, 397, 398, 399, 400, 401, 402, 403, 404, 405, 406, 407, 408, 409, 410, 411, 412, 413, 414, 415, 416, 417, 418, 419, 420, 421, 422, 423, 424, 425, 426, 427, 428, 429, 430, 431, 432, 433, 434, 435, 436, 437, 438, 439, 440, 441, 442, 443, 444, 445, 446, 447, 448, 449, 450, 451, 452, 453, 454, 455, 456, 457, 458, 459, 460, 461, 462, 463, 464, 465, 466, 467, 468, 469, 470, 471, 472, 473, 474, 475, 476, 477, 478, 479, 480, 481, 482, 483, 484, 485, 486, 487, 488, 489, 490, 491, 492, 493, 494, 495, 496, 497, 498, 499, 500, 501, 502, 503, 504, 505, 506, 507, 508, 509, 510, 511, 512, 513, 514, 515, 516, 517, 518, 519, 520, 521, 522, 523, 524, 525, 526, 527, 528, 529, 530, 531, 532, 533, 534, 535, 536, 537, 538, 539, 540, 541, 542, 543, 544, 545, 546, 547, 548, 549, 550, 551, 552, 553, 554, 555, 556, 557, 558, 559, 560, 561, 562, 563, 564, 565, 566, 567, 568, 569, 570, 571, 572, 573, 574, 575, 576, 577, 578, 579, 580, 581, 582, 583, 584, 585, 586, 587, 588, 589, 590, 591, 592, 593, 594, 595, 596, 597, 598, 599, 600, 601, 602, 603, 604, 605, 606, 607, 608, 609, 610, 611, 612, 613, 614, 615, 616, 617, 618, 619, 620, 621, 622, 623, 624, 625, 626, 627, 628, 629, 630, 631, 632, 633, 634, 635, 636, 637, 638, 639, 640, 641, 642, 643, 644, 645, 646, 647, 648, 649, 650, 651, 652, 653, 654, 655, 656, 657, 658, 659, 660, 661, 662, 663, 664, 665, 666, 667, 668, 669, 670, 671, 672, 673, 674, 675, 676, 677, 678, 679, 680, 681, 682, 683, 684, 685, 686, 687, 688, 689, 690, 691, 692, 693, 694, 695, 696, 697, 698, 699, 700, 701, 702, 703, 704, 705, 706, 707, 708, 709, 710, 711, 712, 713, 714, 715, 716, 717, 718, 719, 720, 721, 722, 723, 724, 725, 726, 727, 728, 729, 730, 731, 732, 733, 734, 735, 736, 737, 738, 739, 740, 741, 742, 743, 744, 745, 746, 747, 748, 749, 750, 751, 752, 753, 754, 755, 756, 757, 758, 759, 760, 761, 762, 763, 764, 765, 766, 767, 768, 769, 770, 771, 772, 773, 774, 775, 776, 777, 778, 779, 780, 781, 782, 783, 784, 785, 786, 787, 788, 789, 790, 791, 792, 793, 794, 795, 796, 797, 798, 799, 800, 801, 802, 803, 804, 805, 806, 807, 808, 809, 810, 811, 812, 813, 814, 815, 816, 817, 818, 819, 820, 821, 822, 823, 824, 825, 826, 827, 828, 829, 830, 831, 832, 833, 834, 835, 836, 837, 838, 839, 840, 841, 842, 843, 844, 845, 846, 847, 848, 849, 850, 851, 852, 853, 854, 855, 856, 857, 858, 859, 860, 861, 862, 863, 864, 865, 866, 867, 868, 869, 870, 871, 872, 873, 874, 875, 876, 877, 878, 879, 880, 881, 882, 883, 884, 885, 886, 887, 888, 889, 890, 891, 892, 893, 894, 895, 896, 897, 898, 899, 900, 901, 902, 903, 904, 905, 906, 907, 908, 909, 910, 911, 912, 913, 914, 915, 916, 917, 918, 919, 920, 921, 922, 923, 924, 925, 926, 927, 928, 929, 930, 931, 932, 933, 934, 935, 936, 937, 938, 939, 940, 941, 942, 943, 944, 945, 946, 947, 948, 949, 950, 951, 952, 953, 954, 955, 956, 957, 958, 959, 960, 961, 962, 963, 964, 965, 966, 967, 968, 969, 970, 971, 972, 973, 974, 975, 976, 977, 978, 979, 980, 981, 982, 983, 984, 985, 986, 987, 988, 989, 990, 991, 992, 993, 994, 995, 996, 997, 998, 999, 1000, 1001, 1002, 1003, 1004, 1005, 1006, 1007, 1008, 1009, 1010, 1011, 1012, 1013, 1014, 1015, 1016, 1017, 1018, 1019, 1020, 1021, 1022, 1023, 1024, 1025, 1026, 1027, 1028, 1029, 1030, 1031, 1032, 1033, 1034, 1035, 1036, 1037, 1038, 1039, 1040, 1041, 1042, 1043, 1044, 1045, 1046, 1047, 1048, 1049, 1050, 1051, 1052, 1053, 1054, 1055, 1056, 1057, 1058, 1059, 1060, 1061, 1062, 1063, 1064, 1065, 1066, 1067, 1068, 1069, 1070, 1071, 1072, 1073, 1074, 1075, 1076, 1077, 1078, 1079, 1080, 1081, 1082, 1083, 1084, 1085, 1086, 1087, 1088, 1089, 1090, 1091, 1092, 1093, 1094, 1095, 1096, 1097, 1098],
      "AcquisitionTime": ["164809.577500", "164810.037500", "164810.497500", "164810.957500", "164811.417500", "164811.877500", "164812.337500", "164812.797500", "164813.257500", "164813.717500", "164814.177500", "164814.637500", "164815.097500", "164815.557500", "164816.017500", "164816.477500", "164816.937500", "164817.397500", "164817.857500", "164818.317500", "164818.777500", "164819.237500", "164819.697500", "164820.157500", "164820.617500", "164821.077500", "164821.537500", "164821.997500", "164822.457500", "164822.917500", "164823.377500", "164823.837500", "164824.297500", "164824.757500", "164825.217500", "164825.677500", "164826.137500", "164826.597500", "164827.057500", "164827.517500", "164827.977500", "164828.437500", "164828.897500", "164829.357500", "164829.817500", "164830.277500", "164830.737500", "164831.197500", "164831.657500", "164832.117500", "164832.577500", "164833.037500", "164833.497500", "164833.957500", "164834.417500", "164834.877500", "164835.337500", "164835.797500", "164836.257500", "164836.717500", "164837.177500", "164837.637500", "164838.097500", "164838.557500", "164839.017500", "164839.477500", "164839.937500", "164840.397500", "164840.857500", "164841.317500", "164841.777500", "164842.237500", "164842.697500", "164843.157500", "164843.617500", "164844.077500", "164844.537500", "164844.997500", "164845.457500", "164845.917500", "164846.377500", "164846.837500", "164847.297500", "164847.757500", "164848.217500", "164848.677500", "164849.137500", "164849.597500", "164850.057500", "164850.517500", "164850.977500", "164851.437500", "164851.897500", "164852.357500", "164852.817500", "164853.277500", "164853.737500", "164854.197500", "164854.657500", "164855.117500", "164855.577500", "164856.037500", "164856.497500", "164856.957500", "164857.417500", "164857.877500", "164858.337500", "164858.797500", "164859.257500", "164859.717500", "164900.177500", "164900.637500", "164901.097500", "164901.557500", "164902.017500", "164902.477500", "164902.937500", "164903.397500", "164903.857500", "164904.317500", "164904.777500", "164905.237500", "164905.697500", "164906.157500", "164906.617500", "164907.077500", "164907.537500", "164907.997500", "164908.457500", "164908.917500", "164909.377500", "164909.837500", "164910.297500", "164910.757500", "164911.217500", "164911.677500", "164912.137500", "164912.597500", "164913.057500", "164913.517500", "164913.977500", "164914.437500", "164914.897500", "164915.357500", "164915.817500", "164916.277500", "164916.737500", "164917.197500", "164917.657500", "164918.117500", "164918.577500", "164919.037500", "164919.497500", "164919.957500", "164920.417500", "164920.877500", "164921.337500", "164921.797500", "164922.257500", "164922.717500", "164923.177500", "164923.637500", "164924.097500", "164924.557500", "164925.017500", "164925.477500", "164925.937500", "164926.397500", "164926.857500", "164927.317500", "164927.777500", "164928.237500", "164928.697500", "164929.157500", "164929.617500", "164930.077500", "164930.537500", "164930.997500", "164931.457500", "164931.917500", "164932.377500", "164932.837500", "164933.297500", "164933.757500", "164934.217500", "164934.677500", "164935.137500", "164935.597500", "164936.057500", "164936.517500", "164936.977500", "164937.437500", "164937.897500", "164938.357500", "164938.817500", "164939.277500", "164939.737500", "164940.197500", "164940.657500", "164941.117500", "164941.577500", "164942.037500", "164942.497500", "164942.957500", "164943.417500", "164943.877500", "164944.337500", "164944.797500", "164945.257500", "164945.717500", "164946.177500", "164946.637500", "164947.097500", "164947.557500", "164948.017500", "164948.477500", "164948.937500", "164949.397500", "164949.857500", "164950.317500", "164950.777500", "164951.237500", "164951.697500", "164952.157500", "164952.617500", "164953.077500", "164953.537500", "164953.997500", "164954.457500", "164954.917500", "164955.377500", "164955.837500", "164956.297500", "164956.757500", "164957.217500", "164957.677500", "164958.137500", "164958.597500", "164959.057500", "164959.517500", "164959.977500", "165000.437500", "165000.897500", "165001.357500", "165001.817500", "165002.277500", "165002.737500", "165003.197500", "165003.657500", "165004.117500", "165004.577500", "165005.037500", "165005.497500", "165005.957500", "165006.417500", "165006.877500", "165007.337500", "165007.797500", "165008.257500", "165008.717500", "165009.177500", "165009.637500", "165010.097500", "165010.557500", "165011.017500", "165011.477500", "165011.937500", "165012.397500", "165012.857500", "165013.317500", "165013.777500", "165014.237500", "165014.697500", "165015.157500", "165015.617500", "165016.077500", "165016.537500", "165016.997500", "165017.457500", "165017.917500", "165018.377500", "165018.837500", "165019.297500", "165019.757500", "165020.217500", "165020.677500", "165021.137500", "165021.597500", "165022.057500", "165022.517500", "165022.977500", "165023.437500", "165023.897500", "165024.357500", "165024.817500", "165025.277500", "165025.737500", "165026.197500", "165026.657500", "165027.117500", "165027.577500", "165028.037500", "165028.497500", "165028.957500", "165029.417500", "165029.877500", "165030.337500", "165030.797500", "165031.257500", "165031.717500", "165032.177500", "165032.637500", "165033.097500", "165033.557500", "165034.017500", "165034.477500", "165034.937500", "165035.397500", "165035.857500", "165036.317500", "165036.777500", "165037.237500", "165037.697500", "165038.157500", "165038.617500", "165039.077500", "165039.537500", "165039.997500", "165040.457500", "165040.917500", "165041.377500", "165041.837500", "165042.297500", "165042.757500", "165043.217500", "165043.677500", "165044.137500", "165044.597500", "165045.057500", "165045.517500", "165045.977500", "165046.437500", "165046.897500", "165047.357500", "165047.817500", "165048.277500", "165048.737500", "165049.197500", "165049.657500", "165050.117500", "165050.577500", "165051.037500", "165051.497500", "165051.957500", "165052.417500", "165052.877500", "165053.337500", "165053.797500", "165054.257500", "165054.717500", "165055.177500", "165055.637500", "165056.097500", "165056.557500", "165057.017500", "165057.477500", "165057.937500", "165058.397500", "165058.857500", "165059.317500", "165059.777500", "165100.237500", "165100.697500", "165101.157500", "165101.617500", "165102.077500", "165102.537500", "165102.997500", "165103.457500", "165103.917500", "165104.377500", "165104.837500", "165105.297500", "165105.757500", "165106.217500", "165106.677500", "165107.137500", "165107.597500", "165108.057500", "165108.517500", "165108.977500", "165109.437500", "165109.897500", "165110.357500", "165110.817500", "165111.277500", "165111.737500", "165112.197500", "165112.657500", "165113.117500", "165113.577500", "165114.037500", "165114.497500", "165114.957500", "165115.417500", "165115.877500", "165116.337500", "165116.797500", "165117.257500", "165117.717500", "165118.177500", "165118.637500", "165119.097500", "165119.557500", "165120.017500", "165120.477500", "165120.937500", "165121.397500", "165121.857500", "165122.317500", "165122.777500", "165123.237500", "165123.697500", "165124.157500", "165124.617500", "165125.077500", "165125.537500", "165125.997500", "165126.457500", "165126.917500", "165127.377500", "165127.837500", "165128.297500", "165128.757500", "165129.217500", "165129.677500", "165130.137500", "165130.597500", "165131.057500", "165131.517500", "165131.977500", "165132.437500", "165132.897500", "165133.357500", "165133.817500", "165134.277500", "165134.737500", "165135.197500", "165135.657500", "165136.117500", "165136.577500", "165137.037500", "165137.497500", "165137.957500", "165138.417500", "165138.877500", "165139.337500", "165139.797500", "165140.257500", "165140.717500", "165141.177500", "165141.637500", "165142.097500", "165142.557500", "165143.017500", "165143.477500", "165143.937500", "165144.397500", "165144.857500", "165145.317500", "165145.777500", "165146.237500", "165146.697500", "165147.157500", "165147.617500", "165148.077500", "165148.537500", "165148.997500", "165149.457500", "165149.917500", "165150.377500", "165150.837500", "165151.297500", "165151.757500", "165152.217500", "165152.677500", "165153.137500", "165153.597500", "165154.057500", "165154.517500", "165154.977500", "165155.437500", "165155.897500", "165156.357500", "165156.817500", "165157.277500", "165157.737500", "165158.197500", "165158.657500", "165159.117500", "165159.577500", "165200.037500", "165200.497500", "165200.957500", "165201.417500", "165201.877500", "165202.337500", "165202.797500", "165203.257500", "165203.717500", "165204.177500", "165204.637500", "165205.097500", "165205.557500", "165206.017500", "165206.477500", "165206.937500", "165207.397500", "165207.857500", "165208.317500", "165208.777500", "165209.237500", "165209.697500", "165210.157500", "165210.617500", "165211.077500", "165211.537500", "165211.997500", "165212.457500", "165212.917500", "165213.377500", "165213.837500", "165214.297500", "165214.757500", "165215.217500", "165215.677500", "165216.137500", "165216.597500", "165217.057500", "165217.517500", "165217.977500", "165218.437500", "165218.897500", "165219.357500", "165219.817500", "165220.277500", "165220.737500", "165221.197500", "165221.657500", "165222.117500", "165222.577500", "165223.037500", "165223.497500", "165223.957500", "165224.417500", "165224.877500", "165225.337500", "165225.797500", "165226.257500", "165226.717500", "165227.177500", "165227.637500", "165228.097500", "165228.557500", "165229.017500", "165229.477500", "165229.937500", "165230.397500", "165230.857500", "165231.317500", "165231.777500", "165232.237500", "165232.697500", "165233.157500", "165233.617500", "165234.077500", "165234.537500", "165234.997500", "165235.457500", "165235.917500", "165236.377500", "165236.837500", "165237.297500", "165237.757500", "165238.217500", "165238.677500", "165239.137500", "165239.597500", "165240.057500", "165240.517500", "165240.977500", "165241.437500", "165241.897500", "165242.357500", "165242.817500", "165243.277500", "165243.737500", "165244.197500", "165244.657500", "165245.117500", "165245.577500", "165246.037500", "165246.497500", "165246.957500", "165247.417500", "165247.877500", "165248.337500", "165248.797500", "165249.257500", "165249.717500", "165250.177500", "165250.637500", "165251.097500", "165251.557500", "165252.017500", "165252.477500", "165252.937500", "165253.397500", "165253.857500", "165254.317500", "165254.777500", "165255.237500", "165255.697500", "165256.157500", "165256.617500", "165257.077500", "165257.537500", "165257.997500", "165258.457500", "165258.917500", "165259.377500", "165259.837500", "165300.297500", "165300.757500", "165301.217500", "165301.677500", "165302.137500", "165302.597500", "165303.057500", "165303.517500", "165303.977500", "165304.437500", "165304.897500", "165305.357500", "165305.817500", "165306.277500", "165306.737500", "165307.197500", "165307.657500", "165308.117500", "165308.577500", "165309.037500", "165309.497500", "165309.957500", "165310.417500", "165310.877500", "165311.337500", "165311.797500", "165312.257500", "165312.717500", "165313.177500", "165313.637500", "165314.097500", "165314.557500", "165315.017500", "165315.477500", "165315.937500", "165316.397500", "165316.857500", "165317.317500", "165317.777500", "165318.237500", "165318.697500", "165319.157500", "165319.617500", "165320.077500", "165320.537500", "165320.997500", "165321.457500", "165321.917500", "165322.377500", "165322.837500", "165323.297500", "165323.757500", "165324.217500", "165324.677500", "165325.137500", "165325.597500", "165326.057500", "165326.517500", "165326.977500", "165327.437500", "165327.897500", "165328.357500", "165328.817500", "165329.277500", "165329.737500", "165330.197500", "165330.657500", "165331.117500", "165331.577500", "165332.037500", "165332.497500", "165332.957500", "165333.417500", "165333.877500", "165334.337500", "165334.797500", "165335.257500", "165335.717500", "165336.177500", "165336.637500", "165337.097500", "165337.557500", "165338.017500", "165338.477500", "165338.937500", "165339.397500", "165339.857500", "165340.317500", "165340.777500", "165341.237500", "165341.697500", "165342.157500", "165342.617500", "165343.077500", "165343.537500", "165343.997500", "165344.457500", "165344.917500", "165345.377500", "165345.837500", "165346.297500", "165346.757500", "165347.217500", "165347.677500", "165348.137500", "165348.597500", "165349.057500", "165349.517500", "165349.977500", "165350.437500", "165350.897500", "165351.357500", "165351.817500", "165352.277500", "165352.737500", "165353.197500", "165353.657500", "165354.117500", "165354.577500", "165355.037500", "165355.497500", "165355.957500", "165356.417500", "165356.877500", "165357.337500", "165357.797500", "165358.257500", "165358.717500", "165359.177500", "165359.637500", "165400.097500", "165400.557500", "165401.017500", "165401.477500", "165401.937500", "165402.397500", "165402.857500", "165403.317500", "165403.777500", "165404.237500", "165404.697500", "165405.157500", "165405.617500", "165406.077500", "165406.537500", "165406.997500", "165407.457500", "165407.917500", "165408.377500", "165408.837500", "165409.297500", "165409.757500", "165410.217500", "165410.677500", "165411.137500", "165411.597500", "165412.057500", "165412.517500", "165412.977500", "165413.437500", "165413.897500", "165414.357500", "165414.817500", "165415.277500", "165415.737500", "165416.197500", "165416.657500", "165417.117500", "165417.577500", "165418.037500", "165418.497500", "165418.957500", "165419.417500", "165419.877500", "165420.337500", "165420.797500", "165421.257500", "165421.717500", "165422.177500", "165422.637500", "165423.097500", "165423.557500", "165424.017500", "165424.477500", "165424.937500", "165425.397500", "165425.857500", "165426.317500", "165426.777500", "165427.237500", "165427.697500", "165428.157500", "165428.617500", "165429.077500", "165429.537500", "165429.997500", "165430.457500", "165430.917500", "165431.377500", "165431.837500", "165432.297500", "165432.757500", "165433.217500", "165433.677500", "165434.137500", "165434.597500", "165435.057500", "165435.517500", "165435.977500", "165436.437500", "165436.897500", "165437.357500", "165437.817500", "165438.277500", "165438.737500", "165439.197500", "165439.657500", "165440.117500", "165440.577500", "165441.037500", "165441.497500", "165441.957500", "165442.417500", "165442.877500", "165443.337500", "165443.797500", "165444.257500", "165444.717500", "165445.177500", "165445.637500", "165446.097500", "165446.557500", "165447.017500", "165447.477500", "165447.937500", "165448.397500", "165448.857500", "165449.317500", "165449.777500", "165450.237500", "165450.697500", "165451.157500", "165451.617500", "165452.077500", "165452.537500", "165452.997500", "165453.457500", "165453.917500", "165454.377500", "165454.837500", "165455.297500", "165455.757500", "165456.217500", "165456.677500", "165457.137500", "165457.597500", "165458.057500", "165458.517500", "165458.977500", "165459.437500", "165459.897500", "165500.357500", "165500.817500", "165501.277500", "165501.737500", "165502.197500", "165502.657500", "165503.117500", "165503.577500", "165504.037500", "165504.497500", "165504.957500", "165505.417500", "165505.877500", "165506.337500", "165506.797500", "165507.257500", "165507.717500", "165508.177500", "165508.637500", "165509.097500", "165509.557500", "165510.017500", "165510.477500", "165510.937500", "165511.397500", "165511.857500", "165512.317500", "165512.777500", "165513.237500", "165513.697500", "165514.157500", "165514.617500", "165515.077500", "165515.537500", "165515.997500", "165516.457500", "165516.917500", "165517.377500", "165517.837500", "165518.297500", "165518.757500", "165519.217500", "165519.677500", "165520.137500", "165520.597500", "165521.057500", "165521.517500", "165521.977500", "165522.437500", "165522.897500", "165523.357500", "165523.817500", "165524.277500", "165524.737500", "165525.197500", "165525.657500", "165526.117500", "165526.577500", "165527.037500", "165527.497500", "165527.957500", "165528.417500", "165528.877500", "165529.337500", "165529.797500", "165530.257500", "165530.717500", "165531.177500", "165531.637500", "165532.097500", "165532.557500", "165533.017500", "165533.477500", "165533.937500", "165534.397500", "165534.857500", "165535.317500", "165535.777500", "165536.237500", "165536.697500", "165537.157500", "165537.617500", "165538.077500", "165538.537500", "165538.997500", "165539.457500", "165539.917500", "165540.377500", "165540.837500", "165541.297500", "165541.757500", "165542.217500", "165542.677500", "165543.137500", "165543.597500", "165544.057500", "165544.517500", "165544.977500", "165545.437500", "165545.897500", "165546.357500", "165546.817500", "165547.277500", "165547.737500", "165548.197500", "165548.657500", "165549.117500", "165549.577500", "165550.037500", "165550.497500", "165550.957500", "165551.417500", "165551.877500", "165552.337500", "165552.797500", "165553.257500", "165553.717500", "165554.177500", "165554.637500", "165555.097500", "165555.557500", "165556.017500", "165556.477500", "165556.937500", "165557.397500", "165557.857500", "165558.317500", "165558.777500", "165559.237500", "165559.697500", "165600.157500", "165600.617500", "165601.077500", "165601.537500", "165601.997500", "165602.457500", "165602.917500", "165603.377500", "165603.837500", "165604.297500", "165604.757500", "165605.217500", "165605.677500", "165606.137500", "165606.597500", "165607.057500", "165607.517500", "165607.977500", "165608.437500", "165608.897500", "165609.357500", "165609.817500", "165610.277500", "165610.737500", "165611.197500", "165611.657500", "165612.117500", "165612.577500", "165613.037500", "165613.497500", "165613.957500", "165614.417500", "165614.877500", "165615.337500", "165615.797500", "165616.257500", "165616.717500", "165617.177500", "165617.637500", "165618.097500", "165618.557500", "165619.017500", "165619.477500", "165619.937500", "165620.397500", "165620.857500", "165621.317500", "165621.777500", "165622.237500", "165622.697500", "165623.157500", "165623.617500", "165624.077500", "165624.537500", "165624.997500", "165625.457500", "165625.917500", "165626.377500", "165626.837500", "165627.297500", "165627.757500", "165628.217500", "165628.677500", "165629.137500", "165629.597500", "165630.057500", "165630.517500", "165630.977500", "165631.437500", "165631.897500", "165632.357500", "165632.817500", "165633.277500", "165633.737500", "165634.197500"],
