{
  "AcquisitionMatrixPE": 82,
  "AcquisitionNumber": 1,
  "AcquisitionTime": "17:24:24.565000",
  "BandwidthPerPixelPhaseEncode": 24.888,
  "BaseResolution": 82,
  "BodyPartExamined": "BRAIN",
  "ConsistencyInfo": "N4_VE11E_LATEST_20181129",
  "ConversionSoftware": "dcm2niix",
  "ConversionSoftwareVersion": "v1.0.20201102",
  "DerivedVendorReportedEchoSpacing": 0.00049,
  "DeviceSerialNumber": "66112",
  "DwellTime": 2e-06,
  "EchoTime": 0.0272,
  "EchoTrainLength": 82,
  "EffectiveEchoSpacing": 0.00049,
  "FlipAngle": 44,
  "ImageComments": "Unaliased MB8/PE3",
  "ImageOrientationPatientDICOM": [0.999659, -0.00200857, -0.0260303, 0.00471085, 0.994548, 0.104172],
  "ImageType": [
    "ORIGINAL",
    "PRIMARY",
    "M",
    "MB",
    "ND",
    "NORM",
    "MOSAIC"
],
  "ImagingFrequency": 123.252,
  "InPlanePhaseEncodingDirectionDICOM": "COL",
  "InstitutionAddress": "Maynard 3,Hanover,NH,US,03755",
  "InstitutionName": "Dartmouth College - PBS",
  "InstitutionalDepartmentName": "Department",
  "MRAcquisitionType": "2D",
  "MagneticFieldStrength": 3,
  "Manufacturer": "Siemens",
  "ManufacturersModelName": "Prisma",
  "Modality": "MR",
  "MultibandAccelerationFactor": 8,
  "PartialFourier": 1,
  "PatientPosition": "HFS",
  "PercentPhaseFOV": 100,
  "PercentSampling": 100,
  "PhaseEncodingDirection": "j-",
  "PhaseEncodingSteps": 82,
  "PhaseResolution": 1,
  "PixelBandwidth": 3050,
  "ProcedureStepDescription": "Wager_Wager^1076_spacetop",
  "ProtocolName": "func_run-02_task-faces_acq-ap-mb8",
  "PulseSequenceDetails": "%CustomerSeq%\\cmrr_mbep2d_bold",
  "ReceiveCoilActiveElements": "HEA;HEP",
  "ReceiveCoilName": "Head_32",
  "ReconMatrixPE": 82,
  "RepetitionTime": 0.46,
  "SAR": 0.103956,
  "ScanOptions": "FS",
  "ScanningSequence": "EP",
  "SequenceName": "epfid2d1_82",
  "SequenceVariant": "SK\\SS",
  "SeriesDescription": "func_run-02_task-faces_acq-ap-mb8",
  "SeriesNumber": 18,
  "ShimSetting": [4135, -7765, -7255, 637, -58, -168, 112, 68],
  "SliceThickness": 2.7,
  "SliceTiming": [0, 0.2525, 0.0625, 0.315, 0.125, 0.3775, 0.19, 0, 0.2525, 0.0625, 0.315, 0.125, 0.3775, 0.19, 0, 0.2525, 0.0625, 0.315, 0.125, 0.3775, 0.19, 0, 0.2525, 0.0625, 0.315, 0.125, 0.3775, 0.19, 0, 0.2525, 0.0625, 0.315, 0.125, 0.3775, 0.19, 0, 0.2525, 0.0625, 0.315, 0.125, 0.3775, 0.19, 0, 0.2525, 0.0625, 0.315, 0.125, 0.3775, 0.19, 0, 0.2525, 0.0625, 0.315, 0.125, 0.3775, 0.19],
  "SoftwareVersions": "syngo MR E11",
  "SpacingBetweenSlices": 2.7,
  "StationName": "AWP66112",
  "TaskName": "faces",
  "TotalReadoutTime": 0.03969,
  "TxRefAmp": 240.828,
  "WipMemBlock": "010e8f13-ede6-44b9-a338-bc25c07a0d1c||Sequence: R016 ve11e/master r/434b28f1; Aug  7 2019 18:53:46 by eja",
  "dcmmeta_affine": [
    [-2.6820123195648193, 0.01263886597007513, -0.06933370977640152, 113.42427825927734],
    [0.005388855002820492, 2.668299913406372, 0.28149887919425964, -99.28156280517578],
    [-0.06983739137649536, -0.27948513627052307, 2.6843903064727783, -51.106658935546875],
    [0.0, 0.0, 0.0, 1.0]
],
  "dcmmeta_reorient_transform": [
    [0.0, -1.0, 0.0, 81.0],
    [1.0, 0.0, 0.0, 0.0],
    [0.0, 0.0, 1.0, 0.0],
    [0.0, 0.0, 0.0, 1.0]
],
  "dcmmeta_shape": [82, 82, 56, 914],
  "dcmmeta_slice_dim": 2,
  "dcmmeta_version": 0.6,
  "global": {
    "const": {
      "AccessionNumber": "A004155",
      "AcquisitionMatrix": [82, 0, 0, 82],
      "AngioFlag": "N",
      "BitsAllocated": 16,
      "BitsStored": 16,
      "BodyPartExamined": "BRAIN",
      "Columns": 656,
      "EchoNumbers": 1,
      "EchoTime": 27.2,
      "EchoTrainLength": 82,
      "FlipAngle": 44.0,
      "HighBit": 15,
      "ImageOrientationPatient": [0.99965913644478, -0.0020085731877, -0.0260303007327, 0.00471085008886, 0.99454816768796, 0.10417173340197],
      "ImagePositionPatient": [-887.81293777056, -881.10624641179, -133.91386119215],
      "ImageType": [
        "ORIGINAL",
        "PRIMARY",
        "M",
        "MB",
        "ND",
        "NORM",
        "MOSAIC"
],
      "ImagedNucleus": "1H",
      "ImagingFrequency": 123.252215,
      "InPlanePhaseEncodingDirection": "COL",
      "MRAcquisitionType": "2D",
      "MagneticFieldStrength": 3.0,
      "Manufacturer": "SIEMENS",
      "ManufacturerModelName": "Prisma",
      "Modality": "MR",
      "NumberOfAverages": 1.0,
      "NumberOfPhaseEncodingSteps": 82,
      "PercentPhaseFieldOfView": 100.0,
      "PercentSampling": 100.0,
      "PerformedProcedureStepStartTime": "162904.617000",
      "PhotometricInterpretation": "MONOCHROME2",
      "PixelBandwidth": 3050.0,
      "PixelRepresentation": 0,
      "PixelSpacing": [2.6829268932343, 2.6829268932343],
      "ProtocolName": "func_run-02_task-faces_acq-ap-mb8",
      "RepetitionTime": 460.0,
      "Rows": 656,
      "SAR": 0.10395605364632,
      "SamplesPerPixel": 1,
      "ScanOptions": "FS",
      "ScanningSequence": "EP",
      "SequenceName": "epfid2d1_82",
      "SequenceVariant": [
        "SK",
        "SS"
],
      "SeriesDescription": "func_run-02_task-faces_acq-ap-mb8",
      "SeriesNumber": 18,
      "SeriesTime": "172444.783000",
      "SliceLocation": -64.074813790183,
      "SliceThickness": 2.7000000476837,
      "SmallestImagePixelValue": 0,
      "SoftwareVersions": "syngo MR E11",
      "SpacingBetweenSlices": 2.6999999733816,
      "SpecificCharacterSet": "ISO_IR 100",
      "StudyID": "1",
      "StudyTime": "162904.548000",
      "TransmitCoilName": "Body",
      "VariableFlipAngleFlag": "N",
      "WindowCenterWidthExplanation": "Algo1"
    },
    "slices": {}
  },
  "time": {
    "samples": {
      "AcquisitionNumber": [1, 2, 3, 4, 5, 6, 7, 8, 9, 10, 11, 12, 13, 14, 15, 16, 17, 18, 19, 20, 21, 22, 23, 24, 25, 26, 27, 28, 29, 30, 31, 32, 33, 34, 35, 36, 37, 38, 39, 40, 41, 42, 43, 44, 45, 46, 47, 48, 49, 50, 51, 52, 53, 54, 55, 56, 57, 58, 59, 60, 61, 62, 63, 64, 65, 66, 67, 68, 69, 70, 71, 72, 73, 74, 75, 76, 77, 78, 79, 80, 81, 82, 83, 84, 85, 86, 87, 88, 89, 90, 91, 92, 93, 94, 95, 96, 97, 98, 99, 100, 101, 102, 103, 104, 105, 106, 107, 108, 109, 110, 111, 112, 113, 114, 115, 116, 117, 118, 119, 120, 121, 122, 123, 124, 125, 126, 127, 128, 129, 130, 131, 132, 133, 134, 135, 136, 137, 138, 139, 140, 141, 142, 143, 144, 145, 146, 147, 148, 149, 150, 151, 152, 153, 154, 155, 156, 157, 158, 159, 160, 161, 162, 163, 164, 165, 166, 167, 168, 169, 170, 171, 172, 173, 174, 175, 176, 177, 178, 179, 180, 181, 182, 183, 184, 185, 186, 187, 188, 189, 190, 191, 192, 193, 194, 195, 196, 197, 198, 199, 200, 201, 202, 203, 204, 205, 206, 207, 208, 209, 210, 211, 212, 213, 214, 215, 216, 217, 218, 219, 220, 221, 222, 223, 224, 225, 226, 227, 228, 229, 230, 231, 232, 233, 234, 235, 236, 237, 238, 239, 240, 241, 242, 243, 244, 245, 246, 247, 248, 249, 250, 251, 252, 253, 254, 255, 256, 257, 258, 259, 260, 261, 262, 263, 264, 265, 266, 267, 268, 269, 270, 271, 272, 273, 274, 275, 276, 277, 278, 279, 280, 281, 282, 283, 284, 285, 286, 287, 288, 289, 290, 291, 292, 293, 294, 295, 296, 297, 298, 299, 300, 301, 302, 303, 304, 305, 306, 307, 308, 309, 310, 311, 312, 313, 314, 315, 316, 317, 318, 319, 320, 321, 322, 323, 324, 325, 326, 327, 328, 329, 330, 331, 332, 333, 334, 335, 336, 337, 338, 339, 340, 341, 342, 343, 344, 345, 346, 347, 348, 349, 350, 351, 352, 353, 354, 355, 356, 357, 358, 359, 360, 361, 362, 363, 364, 365, 366, 367, 368, 369, 370, 371, 372, 373, 374, 375, 376, 377, 378, 379, 380, 381, 382, 383, 384, 385, 386, 387, 388, 389, 390, 391, 392, 393, 394, 395, 396, 397, 398, 399, 400, 401, 402, 403, 404, 405, 406, 407, 408, 409, 410, 411, 412, 413, 414, 415, 416, 417, 418, 419, 420, 421, 422, 423, 424, 425, 426, 427, 428, 429, 430, 431, 432, 433, 434, 435, 436, 437, 438, 439, 440, 441, 442, 443, 444, 445, 446, 447, 448, 449, 450, 451, 452, 453, 454, 455, 456, 457, 458, 459, 460, 461, 462, 463, 464, 465, 466, 467, 468, 469, 470, 471, 472, 473, 474, 475, 476, 477, 478, 479, 480, 481, 482, 483, 484, 485, 486, 487, 488, 489, 490, 491, 492, 493, 494, 495, 496, 497, 498, 499, 500, 501, 502, 503, 504, 505, 506, 507, 508, 509, 510, 511, 512, 513, 514, 515, 516, 517, 518, 519, 520, 521, 522, 523, 524, 525, 526, 527, 528, 529, 530, 531, 532, 533, 534, 535, 536, 537, 538, 539, 540, 541, 542, 543, 544, 545, 546, 547, 548, 549, 550, 551, 552, 553, 554, 555, 556, 557, 558, 559, 560, 561, 562, 563, 564, 565, 566, 567, 568, 569, 570, 571, 572, 573, 574, 575, 576, 577, 578, 579, 580, 581, 582, 583, 584, 585, 586, 587, 588, 589, 590, 591, 592, 593, 594, 595, 596, 597, 598, 599, 600, 601, 602, 603, 604, 605, 606, 607, 608, 609, 610, 611, 612, 613, 614, 615, 616, 617, 618, 619, 620, 621, 622, 623, 624, 625, 626, 627, 628, 629, 630, 631, 632, 633, 634, 635, 636, 637, 638, 639, 640, 641, 642, 643, 644, 645, 646, 647, 648, 649, 650, 651, 652, 653, 654, 655, 656, 657, 658, 659, 660, 661, 662, 663, 664, 665, 666, 667, 668, 669, 670, 671, 672, 673, 674, 675, 676, 677, 678, 679, 680, 681, 682, 683, 684, 685, 686, 687, 688, 689, 690, 691, 692, 693, 694, 695, 696, 697, 698, 699, 700, 701, 702, 703, 704, 705, 706, 707, 708, 709, 710, 711, 712, 713, 714, 715, 716, 717, 718, 719, 720, 721, 722, 723, 724, 725, 726, 727, 728, 729, 730, 731, 732, 733, 734, 735, 736, 737, 738, 739, 740, 741, 742, 743, 744, 745, 746, 747, 748, 749, 750, 751, 752, 753, 754, 755, 756, 757, 758, 759, 760, 761, 762, 763, 764, 765, 766, 767, 768, 769, 770, 771, 772, 773, 774, 775, 776, 777, 778, 779, 780, 781, 782, 783, 784, 785, 786, 787, 788, 789, 790, 791, 792, 793, 794, 795, 796, 797, 798, 799, 800, 801, 802, 803, 804, 805, 806, 807, 808, 809, 810, 811, 812, 813, 814, 815, 816, 817, 818, 819, 820, 821, 822, 823, 824, 825, 826, 827, 828, 829, 830, 831, 832, 833, 834, 835, 836, 837, 838, 839, 840, 841, 842, 843, 844, 845, 846, 847, 848, 849, 850, 851, 852, 853, 854, 855, 856, 857, 858, 859, 860, 861, 862, 863, 864, 865, 866, 867, 868, 869, 870, 871, 872, 873, 874, 875, 876, 877, 878, 879, 880, 881, 882, 883, 884, 885, 886, 887, 888, 889, 890, 891, 892, 893, 894, 895, 896, 897, 898, 899, 900, 901, 902, 903, 904, 905, 906, 907, 908, 909, 910, 911, 912, 913, 914],
      "AcquisitionTime": ["172424.565000", "172425.025000", "172425.485000", "172425.945000", "172426.405000", "172426.865000", "172427.325000", "172427.785000", "172428.245000", "172428.705000", "172429.165000", "172429.625000", "172430.085000", "172430.545000", "172431.005000", "172431.465000", "172431.925000", "172432.385000", "172432.845000", "172433.305000", "172433.765000", "172434.225000", "172434.685000", "172435.145000", "172435.605000", "172436.065000", "172436.525000", "172436.985000", "172437.445000", "172437.905000", "172438.365000", "172438.825000", "172439.285000", "172439.745000", "172440.205000", "172440.665000", "172441.125000", "172441.585000", "172442.045000", "172442.505000", "172442.965000", "172443.425000", "172443.885000", "172444.345000", "172444.805000", "172445.265000", "172445.725000", "172446.185000", "172446.645000", "172447.105000", "172447.565000", "172448.025000", "172448.485000", "172448.945000", "172449.405000", "172449.865000", "172450.325000", "172450.785000", "172451.245000", "172451.705000", "172452.165000", "172452.625000", "172453.085000", "172453.545000", "172454.005000", "172454.465000", "172454.925000", "172455.385000", "172455.845000", "172456.305000", "172456.765000", "172457.225000", "172457.685000", "172458.145000", "172458.605000", "172459.065000", "172459.525000", "172459.985000", "172500.445000", "172500.905000", "172501.365000", "172501.825000", "172502.285000", "172502.745000", "172503.205000", "172503.665000", "172504.125000", "172504.585000", "172505.045000", "172505.505000", "172505.965000", "172506.425000", "172506.885000", "172507.345000", "172507.805000", "172508.265000", "172508.725000", "172509.185000", "172509.645000", "172510.105000", "172510.565000", "172511.025000", "172511.485000", "172511.945000", "172512.405000", "172512.865000", "172513.325000", "172513.785000", "172514.245000", "172514.705000", "172515.165000", "172515.625000", "172516.085000", "172516.545000", "172517.005000", "172517.465000", "172517.925000", "172518.385000", "172518.845000", "172519.305000", "172519.765000", "172520.225000", "172520.685000", "172521.145000", "172521.605000", "172522.065000", "172522.525000", "172522.985000", "172523.445000", "172523.905000", "172524.365000", "172524.825000", "172525.285000", "172525.745000", "172526.205000", "172526.665000", "172527.125000", "172527.585000", "172528.045000", "172528.505000", "172528.965000", "172529.425000", "172529.885000", "172530.345000", "172530.805000", "172531.265000", "172531.725000", "172532.185000", "172532.645000", "172533.105000", "172533.565000", "172534.025000", "172534.485000", "172534.945000", "172535.405000", "172535.865000", "172536.325000", "172536.785000", "172537.245000", "172537.705000", "172538.165000", "172538.625000", "172539.085000", "172539.545000", "172540.005000", "172540.465000", "172540.925000", "172541.385000", "172541.845000", "172542.305000", "172542.765000", "172543.225000", "172543.685000", "172544.145000", "172544.605000", "172545.065000", "172545.525000", "172545.985000", "172546.445000", "172546.905000", "172547.365000", "172547.825000", "172548.285000", "172548.745000", "172549.205000", "172549.665000", "172550.125000", "172550.585000", "172551.045000", "172551.505000", "172551.965000", "172552.425000", "172552.885000", "172553.345000", "172553.805000", "172554.265000", "172554.725000", "172555.185000", "172555.645000", "172556.105000", "172556.565000", "172557.025000", "172557.485000", "172557.945000", "172558.405000", "172558.865000", "172559.325000", "172559.785000", "172600.245000", "172600.705000", "172601.165000", "172601.625000", "172602.085000", "172602.545000", "172603.005000", "172603.465000", "172603.925000", "172604.385000", "172604.845000", "172605.305000", "172605.765000", "172606.225000", "172606.685000", "172607.145000", "172607.605000", "172608.065000", "172608.525000", "172608.985000", "172609.445000", "172609.905000", "172610.365000", "172610.825000", "172611.285000", "172611.745000", "172612.205000", "172612.665000", "172613.125000", "172613.585000", "172614.045000", "172614.505000", "172614.965000", "172615.425000", "172615.885000", "172616.345000", "172616.805000", "172617.265000", "172617.725000", "172618.185000", "172618.645000", "172619.105000", "172619.565000", "172620.025000", "172620.485000", "172620.945000", "172621.405000", "172621.865000", "172622.325000", "172622.785000", "172623.245000", "172623.705000", "172624.165000", "172624.625000", "172625.085000", "172625.545000", "172626.005000", "172626.465000", "172626.925000", "172627.385000", "172627.845000", "172628.305000", "172628.765000", "172629.225000", "172629.685000", "172630.145000", "172630.605000", "172631.065000", "172631.525000", "172631.985000", "172632.445000", "172632.905000", "172633.365000", "172633.825000", "172634.285000", "172634.745000", "172635.205000", "172635.665000", "172636.125000", "172636.585000", "172637.045000", "172637.505000", "172637.965000", "172638.425000", "172638.885000", "172639.345000", "172639.805000", "172640.265000", "172640.725000", "172641.185000", "172641.645000", "172642.105000", "172642.565000", "172643.025000", "172643.485000", "172643.945000", "172644.405000", "172644.865000", "172645.325000", "172645.785000", "172646.245000", "172646.705000", "172647.165000", "172647.625000", "172648.085000", "172648.545000", "172649.005000", "172649.465000", "172649.925000", "172650.385000", "172650.845000", "172651.305000", "172651.765000", "172652.225000", "172652.685000", "172653.145000", "172653.605000", "172654.065000", "172654.525000", "172654.985000", "172655.445000", "172655.905000", "172656.365000", "172656.825000", "172657.285000", "172657.745000", "172658.205000", "172658.665000", "172659.125000", "172659.585000", "172700.045000", "172700.505000", "172700.965000", "172701.425000", "172701.885000", "172702.345000", "172702.805000", "172703.265000", "172703.725000", "172704.185000", "172704.645000", "172705.105000", "172705.565000", "172706.025000", "172706.485000", "172706.945000", "172707.405000", "172707.865000", "172708.325000", "172708.785000", "172709.245000", "172709.705000", "172710.165000", "172710.625000", "172711.085000", "172711.545000", "172712.005000", "172712.465000", "172712.925000", "172713.385000", "172713.845000", "172714.305000", "172714.765000", "172715.225000", "172715.685000", "172716.145000", "172716.605000", "172717.065000", "172717.525000", "172717.985000", "172718.445000", "172718.905000", "172719.365000", "172719.825000", "172720.285000", "172720.745000", "172721.205000", "172721.665000", "172722.125000", "172722.585000", "172723.045000", "172723.505000", "172723.965000", "172724.425000", "172724.885000", "172725.345000", "172725.805000", "172726.265000", "172726.725000", "172727.185000", "172727.645000", "172728.105000", "172728.565000", "172729.025000", "172729.485000", "172729.945000", "172730.405000", "172730.865000", "172731.325000", "172731.785000", "172732.245000", "172732.705000", "172733.165000", "172733.625000", "172734.085000", "172734.545000", "172735.005000", "172735.465000", "172735.925000", "172736.385000", "172736.845000", "172737.305000", "172737.765000", "172738.225000", "172738.685000", "172739.145000", "172739.605000", "172740.065000", "172740.525000", "172740.985000", "172741.445000", "172741.905000", "172742.365000", "172742.825000", "172743.285000", "172743.745000", "172744.205000", "172744.665000", "172745.125000", "172745.585000", "172746.045000", "172746.505000", "172746.965000", "172747.425000", "172747.885000", "172748.345000", "172748.805000", "172749.265000", "172749.725000", "172750.185000", "172750.645000", "172751.105000", "172751.565000", "172752.025000", "172752.485000", "172752.945000", "172753.405000", "172753.865000", "172754.325000", "172754.785000", "172755.245000", "172755.705000", "172756.165000", "172756.625000", "172757.085000", "172757.545000", "172758.005000", "172758.465000", "172758.925000", "172759.385000", "172759.845000", "172800.305000", "172800.765000", "172801.225000", "172801.685000", "172802.145000", "172802.605000", "172803.065000", "172803.525000", "172803.985000", "172804.445000", "172804.905000", "172805.365000", "172805.825000", "172806.285000", "172806.745000", "172807.205000", "172807.665000", "172808.125000", "172808.585000", "172809.045000", "172809.505000", "172809.965000", "172810.425000", "172810.885000", "172811.345000", "172811.805000", "172812.265000", "172812.725000", "172813.185000", "172813.645000", "172814.105000", "172814.565000", "172815.025000", "172815.485000", "172815.945000", "172816.405000", "172816.865000", "172817.325000", "172817.785000", "172818.245000", "172818.705000", "172819.165000", "172819.625000", "172820.085000", "172820.545000", "172821.005000", "172821.465000", "172821.925000", "172822.385000", "172822.845000", "172823.305000", "172823.765000", "172824.225000", "172824.685000", "172825.145000", "172825.605000", "172826.065000", "172826.525000", "172826.985000", "172827.445000", "172827.905000", "172828.365000", "172828.825000", "172829.285000", "172829.745000", "172830.205000", "172830.665000", "172831.125000", "172831.585000", "172832.045000", "172832.505000", "172832.965000", "172833.425000", "172833.885000", "172834.345000", "172834.805000", "172835.265000", "172835.725000", "172836.185000", "172836.645000", "172837.105000", "172837.565000", "172838.025000", "172838.485000", "172838.945000", "172839.405000", "172839.865000", "172840.325000", "172840.785000", "172841.245000", "172841.705000", "172842.165000", "172842.625000", "172843.085000", "172843.545000", "172844.005000", "172844.465000", "172844.925000", "172845.385000", "172845.845000", "172846.305000", "172846.765000", "172847.225000", "172847.685000", "172848.145000", "172848.605000", "172849.065000", "172849.525000", "172849.985000", "172850.445000", "172850.905000", "172851.365000", "172851.825000", "172852.285000", "172852.745000", "172853.205000", "172853.665000", "172854.125000", "172854.585000", "172855.045000", "172855.505000", "172855.965000", "172856.425000", "172856.885000", "172857.345000", "172857.805000", "172858.265000", "172858.725000", "172859.185000", "172859.645000", "172900.105000", "172900.565000", "172901.025000", "172901.485000", "172901.945000", "172902.405000", "172902.865000", "172903.325000", "172903.785000", "172904.245000", "172904.705000", "172905.165000", "172905.625000", "172906.085000", "172906.545000", "172907.005000", "172907.465000", "172907.925000", "172908.385000", "172908.845000", "172909.305000", "172909.765000", "172910.225000", "172910.685000", "172911.145000", "172911.605000", "172912.065000", "172912.525000", "172912.985000", "172913.445000", "172913.905000", "172914.365000", "172914.825000", "172915.285000", "172915.745000", "172916.205000", "172916.665000", "172917.125000", "172917.585000", "172918.045000", "172918.505000", "172918.965000", "172919.425000", "172919.885000", "172920.345000", "172920.805000", "172921.265000", "172921.725000", "172922.185000", "172922.645000", "172923.105000", "172923.565000", "172924.025000", "172924.485000", "172924.945000", "172925.405000", "172925.865000", "172926.325000", "172926.785000", "172927.245000", "172927.705000", "172928.165000", "172928.625000", "172929.085000", "172929.545000", "172930.005000", "172930.465000", "172930.925000", "172931.385000", "172931.845000", "172932.305000", "172932.765000", "172933.225000", "172933.685000", "172934.145000", "172934.605000", "172935.065000", "172935.525000", "172935.985000", "172936.445000", "172936.905000", "172937.365000", "172937.825000", "172938.285000", "172938.745000", "172939.205000", "172939.665000", "172940.125000", "172940.585000", "172941.045000", "172941.505000", "172941.965000", "172942.425000", "172942.885000", "172943.345000", "172943.805000", "172944.265000", "172944.725000", "172945.185000", "172945.645000", "172946.105000", "172946.565000", "172947.025000", "172947.485000", "172947.945000", "172948.405000", "172948.865000", "172949.325000", "172949.785000", "172950.245000", "172950.705000", "172951.165000", "172951.625000", "172952.085000", "172952.545000", "172953.005000", "172953.465000", "172953.925000", "172954.385000", "172954.845000", "172955.305000", "172955.765000", "172956.225000", "172956.685000", "172957.145000", "172957.605000", "172958.065000", "172958.525000", "172958.985000", "172959.445000", "172959.905000", "173000.365000", "173000.825000", "173001.285000", "173001.745000", "173002.205000", "173002.665000", "173003.125000", "173003.585000", "173004.045000", "173004.505000", "173004.965000", "173005.425000", "173005.885000", "173006.345000", "173006.805000", "173007.265000", "173007.725000", "173008.185000", "173008.645000", "173009.105000", "173009.565000", "173010.025000", "173010.485000", "173010.945000", "173011.405000", "173011.865000", "173012.325000", "173012.785000", "173013.245000", "173013.705000", "173014.165000", "173014.625000", "173015.085000", "173015.545000", "173016.005000", "173016.465000", "173016.925000", "173017.385000", "173017.845000", "173018.305000", "173018.765000", "173019.225000", "173019.685000", "173020.145000", "173020.605000", "173021.065000", "173021.525000", "173021.985000", "173022.445000", "173022.905000", "173023.365000", "173023.825000", "173024.285000", "173024.745000", "173025.205000", "173025.665000", "173026.125000", "173026.585000", "173027.045000", "173027.505000", "173027.965000", "173028.425000", "173028.885000", "173029.345000", "173029.805000", "173030.265000", "173030.725000", "173031.185000", "173031.645000", "173032.105000", "173032.565000", "173033.025000", "173033.485000", "173033.945000", "173034.405000", "173034.865000", "173035.325000", "173035.785000", "173036.245000", "173036.705000", "173037.165000", "173037.625000", "173038.085000", "173038.545000", "173039.005000", "173039.465000", "173039.925000", "173040.385000", "173040.845000", "173041.305000", "173041.765000", "173042.225000", "173042.685000", "173043.145000", "173043.605000", "173044.065000", "173044.525000", "173044.985000", "173045.445000", "173045.905000", "173046.365000", "173046.825000", "173047.285000", "173047.745000", "173048.205000", "173048.665000", "173049.125000", "173049.585000", "173050.045000", "173050.505000", "173050.965000", "173051.425000", "173051.885000", "173052.345000", "173052.805000", "173053.265000", "173053.725000", "173054.185000", "173054.645000", "173055.105000", "173055.565000", "173056.025000", "173056.485000", "173056.945000", "173057.405000", "173057.865000", "173058.325000", "173058.785000", "173059.245000", "173059.705000", "173100.165000", "173100.625000", "173101.085000", "173101.545000", "173102.005000", "173102.465000", "173102.925000", "173103.385000", "173103.845000", "173104.305000", "173104.765000", "173105.225000", "173105.685000", "173106.145000", "173106.605000", "173107.065000", "173107.525000", "173107.985000", "173108.445000", "173108.905000", "173109.365000", "173109.825000", "173110.285000", "173110.745000", "173111.205000", "173111.665000", "173112.125000", "173112.585000", "173113.045000", "173113.505000", "173113.965000", "173114.425000", "173114.885000", "173115.345000", "173115.805000", "173116.265000", "173116.725000", "173117.185000", "173117.645000", "173118.105000", "173118.565000", "173119.025000", "173119.485000", "173119.945000", "173120.405000", "173120.865000", "173121.325000", "173121.785000", "173122.245000", "173122.705000", "173123.165000", "173123.625000", "173124.085000", "173124.545000"],
