{
  "AcquisitionMatrixPE": 140,
  "AcquisitionNumber": 1,
  "AcquisitionTime": "19:14:50.075000",
  "BandwidthPerPixelPhaseEncode": 10.352,
  "BaseResolution": 140,
  "BodyPartExamined": "BRAIN",
  "ConsistencyInfo": "N4_VE11E_LATEST_20181129",
  "ConversionSoftware": "dcm2niix",
  "ConversionSoftwareVersion": "v1.0.20201102",
  "DerivedVendorReportedEchoSpacing": 0.000689998,
  "DeviceSerialNumber": "66112",
  "DiffusionScheme": "Monopolar",
  "DwellTime": 2.1e-06,
  "EchoTime": 0.0884,
  "EchoTrainLength": 105,
  "EffectiveEchoSpacing": 0.000689998,
  "FlipAngle": 90,
  "ImageComments": "Unaliased MB3/PE3 SENSE1",
  "ImageOrientationPatientDICOM": [0.998443, 0.0429091, -0.0356318, -0.0320751, 0.964381, 0.262564],
  "ImageType": [
    "ORIGINAL",
    "PRIMARY",
    "DIFFUSION",
    "NONE",
    "MB",
    "ND",
    "MOSAIC"
],
  "ImagingFrequency": 123.259,
  "InPlanePhaseEncodingDirectionDICOM": "COL",
  "InstitutionAddress": "Maynard 3,Hanover,NH,US,03755",
  "InstitutionName": "Dartmouth College - PBS",
  "InstitutionalDepartmentName": "Department",
  "MRAcquisitionType": "2D",
  "MagneticFieldStrength": 3,
  "Manufacturer": "Siemens",
  "ManufacturersModelName": "Prisma",
  "Modality": "MR",
  "MultibandAccelerationFactor": 3,
  "PartialFourier": 0.75,
  "PatientPosition": "HFS",
  "PercentPhaseFOV": 100,
  "PercentSampling": 100,
  "PhaseEncodingDirection": "j-",
  "PhaseEncodingSteps": 105,
  "PhaseResolution": 1,
  "PixelBandwidth": 1700,
  "ProcedureStepDescription": "Wager_Wager^1076_spacetop",
  "ProtocolName": "dwi_acq-96dir-6b0-mb",
  "PulseSequenceDetails": "%CustomerSeq%\\cmrr_mbep2d_diff",
  "ReceiveCoilActiveElements": "HEA;HEP",
  "ReceiveCoilName": "Head_32",
  "ReconMatrixPE": 140,
  "RepetitionTime": 4.11,
  "SAR": 0.272962,
  "ScanOptions": "PFP\\FS",
  "ScanningSequence": "EP",
  "SequenceName": "ep_b5#1",
  "SequenceVariant": "SK\\SS",
  "SeriesDescription": "dwi_acq-96dir-6b0-mb",
  "SeriesNumber": 8,
  "ShimSetting": [4216, -7789, -7239, 126, -113, -96, 31, 81],
  "SliceThickness": 1.7,
  "SliceTiming": [0, 2.12, 0.15, 2.27, 0.3025, 2.4225, 0.4525, 2.575, 0.605, 2.725, 0.755, 2.8775, 0.9075, 3.0275, 1.06, 3.18, 1.21, 3.3325, 1.3625, 3.4825, 1.5125, 3.635, 1.665, 3.785, 1.8175, 3.9375, 1.9675, 0, 2.12, 0.15, 2.27, 0.3025, 2.4225, 0.4525, 2.575, 0.605, 2.725, 0.755, 2.8775, 0.9075, 3.0275, 1.06, 3.18, 1.21, 3.3325, 1.3625, 3.4825, 1.5125, 3.635, 1.665, 3.785, 1.8175, 3.9375, 1.9675, 0, 2.12, 0.15, 2.27, 0.3025, 2.4225, 0.4525, 2.575, 0.605, 2.725, 0.755, 2.8775, 0.9075, 3.0275, 1.06, 3.18, 1.21, 3.3325, 1.3625, 3.4825, 1.5125, 3.635, 1.665, 3.785, 1.8175, 3.9375, 1.9675],
  "SoftwareVersions": "syngo MR E11",
  "SpacingBetweenSlices": 1.7,
  "StationName": "AWP66112",
  "TotalReadoutTime": 0.0959097,
  "TxRefAmp": 277.601,
  "WipMemBlock": "e728200d-eb34-4683-a0a1-37cd79b0e175||Sequence: R016 ve11e/master r/434b28f1; Aug  7 2019 19:06:17 by eja",
  "dcmmeta_affine": [
    [-1.7116172313690186, -0.05498587340116501, -0.0775693878531456, 128.34803771972656],
    [-0.07355853915214539, 1.653225302696228, 0.443720281124115, -93.91299438476562],
    [-0.06108313798904419, -0.45010894536972046, 1.6392362117767334, -25.879859924316406],
    [0.0, 0.0, 0.0, 1.0]
],
  "dcmmeta_reorient_transform": [
    [0.0, -1.0, 0.0, 139.0],
    [1.0, 0.0, 0.0, 0.0],
    [0.0, 0.0, 1.0, 0.0],
    [0.0, 0.0, 0.0, 1.0]
],
  "dcmmeta_shape": [140, 140, 81, 103],
  "dcmmeta_slice_dim": 2,
  "dcmmeta_version": 0.6,
  "global": {
    "const": {
      "AccessionNumber": "A004921",
      "AcquisitionMatrix": [140, 0, 0, 140],
      "AngioFlag": "N",
      "BitsAllocated": 16,
      "BitsStored": 16,
      "BodyPartExamined": "BRAIN",
      "Columns": 1260,
      "EchoNumbers": 1,
      "EchoTime": 88.4,
      "EchoTrainLength": 105,
      "FlipAngle": 90.0,
      "HighBit": 15,
      "ImageOrientationPatient": [0.99844337738043, 0.04290914587382, -0.0356318307912, -0.0320750932607, 0.96438144655885, 0.26256354264325],
      "ImagePositionPatient": [-1048.4185590285, -1102.8843067195, -306.2994470357],
      "ImageType": [
        "ORIGINAL",
        "PRIMARY",
        "DIFFUSION",
        "NONE",
        "MB",
        "ND",
        "MOSAIC"
],
      "ImagedNucleus": "1H",
      "ImagingFrequency": 123.258972,
      "InPlanePhaseEncodingDirection": "COL",
      "MRAcquisitionType": "2D",
      "MagneticFieldStrength": 3.0,
      "Manufacturer": "SIEMENS",
      "ManufacturerModelName": "Prisma",
      "Modality": "MR",
      "NumberOfAverages": 1.0,
      "NumberOfPhaseEncodingSteps": 105,
      "PercentPhaseFieldOfView": 100.0,
      "PercentSampling": 100.0,
      "PerformedProcedureStepStartTime": "181835.929000",
      "PhotometricInterpretation": "MONOCHROME2",
      "PixelBandwidth": 1700.0,
      "PixelRepresentation": 0,
      "PixelSpacing": [1.7142857313156, 1.7142857313156],
      "ProtocolName": "dwi_acq-96dir-6b0-mb",
      "RepetitionTime": 4110.0,
      "Rows": 1260,
      "SAR": 0.27296195723076,
      "SamplesPerPixel": 1,
      "ScanOptions": [
        "PFP",
        "FS"
],
      "ScanningSequence": "EP",
      "SequenceVariant": [
        "SK",
        "SS"
],
      "SeriesDescription": "dwi_acq-96dir-6b0-mb",
      "SeriesNumber": 8,
      "SeriesTime": "191559.596000",
      "SliceLocation": -55.323637142599,
      "SliceThickness": 1.7000000476837,
      "SmallestImagePixelValue": 0,
      "SoftwareVersions": "syngo MR E11",
      "SpacingBetweenSlices": 1.6999999732078,
      "SpecificCharacterSet": "ISO_IR 100",
      "StudyID": "1",
      "StudyTime": "181835.850000",
      "TransmitCoilName": "Body",
      "VariableFlipAngleFlag": "N",
      "WindowCenterWidthExplanation": "Algo1"
    },
    "slices": {}
  },
  "time": {
    "samples": {
      "AcquisitionNumber": [1, 2, 3, 4, 5, 6, 7, 8, 9, 10, 11, 12, 13, 14, 15, 16, 17, 18, 19, 20, 21, 22, 23, 24, 25, 26, 27, 28, 29, 30, 31, 32, 33, 34, 35, 36, 37, 38, 39, 40, 41, 42, 43, 44, 45, 46, 47, 48, 49, 50, 51, 52, 53, 54, 55, 56, 57, 58, 59, 60, 61, 62, 63, 64, 65, 66, 67, 68, 69, 70, 71, 72, 73, 74, 75, 76, 77, 78, 79, 80, 81, 82, 83, 84, 85, 86, 87, 88, 89, 90, 91, 92, 93, 94, 95, 96, 97, 98, 99, 100, 101, 102, 103],
      "AcquisitionTime": ["191450.075000", "191454.185000", "191458.295000", "191502.405000", "191506.515000", "191510.625000", "191514.735000", "191518.845000", "191522.955000", "191527.065000", "191531.175000", "191535.285000", "191539.395000", "191543.505000", "191547.615000", "191551.725000", "191555.835000", "191559.945000", "191604.055000", "191608.165000", "191612.275000", "191616.385000", "191620.495000", "191624.605000", "191628.715000", "191632.825000", "191636.935000", "191641.045000", "191645.155000", "191649.265000", "191653.375000", "191657.485000", "191701.595000", "191705.705000", "191709.815000", "191713.925000", "191718.035000", "191722.145000", "191726.255000", "191730.365000", "191734.475000", "191738.585000", "191742.695000", "191746.805000", "191750.915000", "191755.025000", "191759.135000", "191803.245000", "191807.355000", "191811.465000", "191815.575000", "191819.685000", "191823.795000", "191827.905000", "191832.015000", "191836.125000", "191840.235000", "191844.345000", "191848.455000", "191852.565000", "191856.675000", "191900.785000", "191904.895000", "191909.005000", "191913.115000", "191917.225000", "191921.335000", "191925.445000", "191929.555000", "191933.665000", "191937.775000", "191941.885000", "191945.995000", "191950.105000", "191954.215000", "191958.325000", "192002.435000", "192006.545000", "192010.655000", "192014.765000", "192018.875000", "192022.985000", "192027.095000", "192031.205000", "192035.315000", "192039.425000", "192043.535000", "192047.645000", "192051.755000", "192055.865000", "192059.975000", "192104.085000", "192108.195000", "192112.305000", "192116.415000", "192120.525000", "192124.635000", "192128.745000", "192132.855000", "192136.965000", "192141.075000", "192145.185000", "192149.295000"],
      "ContentTime": ["191559.600000", "191559.604000", "191559.607000", "191559.610000", "191559.613000", "191559.624000", "191559.627000", "191559.630000", "191559.633000", "191559.639000", "191559.642000", "191559.645000", "191559.648000", "191559.651000", "191559.654000", "191559.657000", "191719.594000", "191719.598000", "191719.601000", "191719.604000", "191719.607000", "191719.610000", "191719.612000", "191719.615000", "191719.618000", "191719.621000", "191719.624000", "191719.627000", "191719.630000", "191719.633000", "191719.636000", "191719.646000", "191719.649000", "191719.652000", "191719.655000", "191719.658000", "191859.595000", "191859.598000", "191859.601000", "191859.604000", "191859.607000", "191859.610000", "191859.613000", "191859.616000", "191859.619000", "191859.622000", "191859.625000", "191859.628000", "191859.631000", "191859.634000", "191859.637000", "191859.640000", "191859.666000", "191859.669000", "191859.681000", "191859.684000", "191859.687000", "191859.690000", "191859.693000", "191859.696000", "192019.594000", "192019.597000", "192019.600000", "192019.603000", "192019.606000", "192019.609000", "192019.612000", "192019.615000", "192019.618000", "192019.621000", "192019.624000", "192019.627000", "192019.630000", "192019.633000", "192019.636000", "192019.639000", "192019.642000", "192019.645000", "192019.648000", "192019.651000", "192154.029000", "192154.032000", "192154.035000", "192154.038000", "192154.041000", "192154.044000", "192154.057000", "192154.060000", "192154.063000", "192154.066000", "192154.069000", "192154.072000", "192154.075000", "192154.078000", "192154.081000", "192154.084000", "192154.087000", "192154.090000", "192154.093000", "192154.096000", "192154.099000", "192154.102000", "192154.105000"],
      "InstanceCreationTime": ["191559.600000", "191559.604000", "191559.607000", "191559.610000", "191559.613000", "191559.624000", "191559.627000", "191559.630000", "191559.633000", "191559.639000", "191559.642000", "191559.645000", "191559.648000", "191559.651000", "191559.654000", "191559.657000", "191719.594000", "191719.598000", "191719.601000", "191719.604000", "191719.607000", "191719.610000", "191719.612000", "191719.615000", "191719.618000", "191719.621000", "191719.624000", "191719.627000", "191719.630000", "191719.633000", "191719.636000", "191719.646000", "191719.649000", "191719.652000", "191719.655000", "191719.658000", "191859.595000", "191859.598000", "191859.601000", "191859.604000", "191859.607000", "191859.610000", "191859.613000", "191859.616000", "191859.619000", "191859.622000", "191859.625000", "191859.628000", "191859.631000", "191859.634000", "191859.637000", "191859.640000", "191859.666000", "191859.669000", "191859.681000", "191859.684000", "191859.687000", "191859.690000", "191859.693000", "191859.696000", "192019.594000", "192019.597000", "192019.600000", "192019.603000", "192019.606000", "192019.609000", "192019.612000", "192019.615000", "192019.618000", "192019.621000", "192019.624000", "192019.627000", "192019.630000", "192019.633000", "192019.636000", "192019.639000", "192019.642000", "192019.645000", "192019.648000", "192019.651000", "192154.029000", "192154.032000", "192154.035000", "192154.038000", "192154.041000", "192154.044000", "192154.057000", "192154.060000", "192154.063000", "192154.066000", "192154.069000", "192154.072000", "192154.075000", "192154.078000", "192154.081000", "192154.084000", "192154.087000", "192154.090000", "192154.093000", "192154.096000", "192154.099000", "192154.102000", "192154.105000"],
      "InstanceNumber": [1, 2, 3, 4, 5, 6, 7, 8, 9, 10, 11, 12, 13, 14, 15, 16, 17, 18, 19, 20, 21, 22, 23, 24, 25, 26, 27, 28, 29, 30, 31, 32, 33, 34, 35, 36, 37, 38, 39, 40, 41, 42, 43, 44, 45, 46, 47, 48, 49, 50, 51, 52, 53, 54, 55, 56, 57, 58, 59, 60, 61, 62, 63, 64, 65, 66, 67, 68, 69, 70, 71, 72, 73, 74, 75, 76, 77, 78, 79, 80, 81, 82, 83, 84, 85, 86, 87, 88, 89, 90, 91, 92, 93, 94, 95, 96, 97, 98, 99, 100, 101, 102, 103],
      "LargestImagePixelValue": [65535, 65535, 58875, 59446, 59588, 60190, 59347, 59797, 65535, 40941, 42165, 40794, 40805, 42038, 37976, 38541, 41964, 42507, 42596, 41590, 40403, 39913, 45604, 40444, 65535, 22043, 22826, 20144, 20127, 20404, 23228, 21988, 23714, 20222, 22756, 24296, 20816, 20398, 20347, 20708, 65535, 12243, 13127, 15225, 13526, 11232, 10799, 11307, 11489, 12043, 11575, 12815, 12629, 12691, 14052, 12035, 12952, 11087, 13568, 13267, 11794, 13647, 11088, 11705, 11005, 13307, 12714, 10750, 11978, 11521, 12185, 11773, 12346, 65535, 13169, 11579, 11697, 11813, 11631, 13185, 11375, 13356, 11158, 11296, 13080, 12099, 13100, 12394, 11970, 12189, 13218, 11848, 12834, 11730, 14544, 15196, 11172, 11623, 12194, 10728, 13764, 13017, 65535],
      "SequenceName": [
 "ep_b5#1",
 "ep_b5#1",
 "ep_b500#2",
 "ep_b500#3",
 "ep_b500#4",
 "ep_b505#5",
 "ep_b495#6",
 "ep_b500#7",
 "ep_b5#8",
 "ep_b1000#9",
 "ep_b1005#10",
 "ep_b995#11",
 "ep_b1005#12",
 "ep_b995#13",
 "ep_b995#14",
 "ep_b1005#15",
 "ep_b1000#16",
 "ep_b1000#17",
 "ep_b995#18",
 "ep_b1000#19",
 "ep_b995#20",
 "ep_b1000#21",
 "ep_b1005#22",
 "ep_b1005#23",
 "ep_b5#24",
 "ep_b2000#25",
 "ep_b1995#26",
 "ep_b1995#27",
 "ep_b1995#28",
 "ep_b2005#29",
 "ep_b2010#30",
 "ep_b2005#31",
 "ep_b2005#32",
 "ep_b1995#33",
 "ep_b1990#34",
 "ep_b1995#35",
 "ep_b2000#36",
 "ep_b2000#37",
 "ep_b2010#38",
 "ep_b2000#39",
 "ep_b5#40",
 "ep_b3000#41",
 "ep_b3005#42",
 "ep_b3010#43",
 "ep_b3010#44",
 "ep_b2995#45",
 "ep_b2995#46",
 "ep_b2990#47",
 "ep_b3000#48",
 "ep_b3000#49",
 "ep_b2990#50",
 "ep_b2990#51",
 "ep_b2995#52",
 "ep_b2995#53",
 "ep_b3010#54",
 "ep_b3000#55",
 "ep_b2995#56",
 "ep_b3000#57",
 "ep_b2990#58",
 "ep_b2990#59",
 "ep_b3000#60",
 "ep_b2990#61",
 "ep_b2990#62",
 "ep_b2995#63",
 "ep_b3005#64",
 "ep_b3010#65",
 "ep_b3000#66",
 "ep_b3005#67",
 "ep_b3010#68",
 "ep_b3005#69",
 "ep_b3005#70",
 "ep_b3010#71",
 "ep_b2990#72",
 "ep_b5#73",
 "ep_b3010#74",
 "ep_b3000#75",
 "ep_b3005#76",
 "ep_b3005#77",
 "ep_b2995#78",
 "ep_b3005#79",
 "ep_b3000#80",
 "ep_b3010#81",
 "ep_b3010#82",
 "ep_b3005#83",
 "ep_b3000#84",
 "ep_b3005#85",
 "ep_b3005#86",
 "ep_b3005#87",
 "ep_b2990#88",
 "ep_b3010#89",
 "ep_b2995#90",
 "ep_b2995#91",
 "ep_b2995#92",
 "ep_b2995#93",
 "ep_b3005#94",
 "ep_b3005#95",
 "ep_b2995#96",
 "ep_b3000#97",
 "ep_b2990#98",
 "ep_b3000#99",
 "ep_b2995#100",
 "ep_b2990#101",
 "ep_b5#102"
],
      "WindowCenter": [11711.0, 11839.0, 8408.0, 8414.0, 8384.0, 8358.0, 8459.0, 8431.0, 11822.0, 6335.0, 6283.0, 6291.0, 6293.0, 6300.0, 6290.0, 6235.0, 6361.0, 6324.0, 6364.0, 6280.0, 6350.0, 6260.0, 6341.0, 6268.0, 11809.0, 4009.0, 3967.0, 3915.0, 4011.0, 3951.0, 3978.0, 3986.0, 3987.0, 3984.0, 4038.0, 4026.0, 3943.0, 3903.0, 3956.0, 3927.0, 11792.0, 2754.0, 2711.0, 2815.0, 2767.0, 2697.0, 2690.0, 2731.0, 2663.0, 2720.0, 2669.0, 2743.0, 2742.0, 2771.0, 2781.0, 2726.0, 2762.0, 2640.0, 2795.0, 2755.0, 2688.0, 2766.0, 2745.0, 2750.0, 2676.0, 2782.0, 2714.0, 2666.0, 2720.0, 2714.0, 2739.0, 2737.0, 2774.0, 11749.0, 2754.0, 2707.0, 2679.0, 2697.0, 2665.0, 2715.0, 2674.0, 2738.0, 2704.0, 2684.0, 2783.0, 2735.0, 2712.0, 2693.0, 2727.0, 2706.0, 2799.0, 2663.0, 2715.0, 2761.0, 2782.0, 2836.0, 2759.0, 2659.0, 2754.0, 2644.0, 2794.0, 2801.0, 11750.0],
      "WindowWidth": [27117.0, 27550.0, 17863.0, 17875.0, 17797.0, 17773.0, 17981.0, 17906.0, 27489.0, 13496.0, 13417.0, 13431.0, 13440.0, 13462.0, 13448.0, 13334.0, 13540.0, 13495.0, 13539.0, 13379.0, 13532.0, 13356.0, 13501.0, 13357.0, 27447.0, 8968.0, 8887.0, 8811.0, 8967.0, 8871.0, 8894.0, 8905.0, 8927.0, 8938.0, 8997.0, 8972.0, 8851.0, 8766.0, 8861.0, 8808.0, 27397.0, 6596.0, 6444.0, 6624.0, 6536.0, 6487.0, 6455.0, 6512.0, 6370.0, 6517.0, 6371.0, 6489.0, 6548.0, 6598.0, 6580.0, 6511.0, 6597.0, 6325.0, 6591.0, 6513.0, 6408.0, 6534.0, 6549.0, 6550.0, 6423.0, 6578.0, 6488.0, 6411.0, 6508.0, 6524.0, 6569.0, 6521.0, 6565.0, 27256.0, 6512.0, 6460.0, 6399.0, 6445.0, 6363.0, 6468.0, 6411.0, 6486.0, 6473.0, 6456.0, 6629.0, 6547.0, 6444.0, 6422.0, 6503.0, 6442.0, 6658.0, 6356.0, 6448.0, 6594.0, 6589.0, 6689.0, 6588.0, 6378.0, 6548.0, 6346.0, 6639.0, 6636.0, 27246.0]
    },
    "slices": {}
  }
}