{
  "AcquisitionMatrixPE": 82,
  "AcquisitionNumber": 1,
  "AcquisitionTime": "11:15:34.447500",
  "BandwidthPerPixelPhaseEncode": 24.888,
  "BaseResolution": 82,
  "BodyPartExamined": "BRAIN",
  "ConsistencyInfo": "N4_VE11E_LATEST_20181129",
  "ConversionSoftware": "dcm2niix",
  "ConversionSoftwareVersion": "v1.0.20201102",
  "DerivedVendorReportedEchoSpacing": 0.00049,
  "DeviceSerialNumber": "66112",
  "DwellTime": 2e-06,
  "EchoTime": 0.0272,
  "EchoTrainLength": 82,
  "EffectiveEchoSpacing": 0.00049,
  "FlipAngle": 44,
  "ImageComments": "Unaliased MB8/PE3",
  "ImageOrientationPatientDICOM": [0.999729, -0.0132208, 0.0191457, 0.0129127, 0.999786, 0.0161323],
  "ImageType": [
    "ORIGINAL",
    "PRIMARY",
    "M",
    "MB",
    "ND",
    "NORM",
    "MOSAIC"
],
  "ImagingFrequency": 123.252,
  "InPlanePhaseEncodingDirectionDICOM": "COL",
  "InstitutionAddress": "Maynard 3,Hanover,NH,US,03755",
  "InstitutionName": "Dartmouth College - PBS",
  "InstitutionalDepartmentName": "Department",
  "MRAcquisitionType": "2D",
  "MagneticFieldStrength": 3,
  "Manufacturer": "Siemens",
  "ManufacturersModelName": "Prisma",
  "Modality": "MR",
  "MultibandAccelerationFactor": 8,
  "PartialFourier": 1,
  "PatientPosition": "HFS",
  "PercentPhaseFOV": 100,
  "PercentSampling": 100,
  "PhaseEncodingDirection": "j-",
  "PhaseEncodingSteps": 82,
  "PhaseResolution": 1,
  "PixelBandwidth": 3050,
  "ProcedureStepDescription": "Wager_Wager^1076_spacetop",
  "ProtocolName": "func_run-03_task-social_acq-ap-mb8",
  "PulseSequenceDetails": "%CustomerSeq%\\cmrr_mbep2d_bold",
  "ReceiveCoilActiveElements": "HEA;HEP",
  "ReceiveCoilName": "Head_32",
  "ReconMatrixPE": 82,
  "RepetitionTime": 0.46,
  "SAR": 0.0969841,
  "ScanOptions": "FS",
  "ScanningSequence": "EP",
  "SequenceName": "epfid2d1_82",
  "SequenceVariant": "SK\\SS",
  "SeriesDescription": "func_run-03_task-social_acq-ap-mb8",
  "SeriesNumber": 12,
  "ShimSetting": [4166, -7803, -7239, 643, -1, -548, 399, 76],
  "SliceThickness": 2.7,
  "SliceTiming": [0, 0.2525, 0.0625, 0.315, 0.125, 0.3775, 0.19, 0, 0.2525, 0.0625, 0.315, 0.125, 0.3775, 0.19, 0, 0.2525, 0.0625, 0.315, 0.125, 0.3775, 0.19, 0, 0.2525, 0.0625, 0.315, 0.125, 0.3775, 0.19, 0, 0.2525, 0.0625, 0.315, 0.125, 0.3775, 0.19, 0, 0.2525, 0.0625, 0.315, 0.125, 0.3775, 0.19, 0, 0.2525, 0.0625, 0.315, 0.125, 0.3775, 0.19, 0, 0.2525, 0.0625, 0.315, 0.125, 0.3775, 0.19],
  "SoftwareVersions": "syngo MR E11",
  "SpacingBetweenSlices": 2.7,
  "StationName": "AWP66112",
  "TaskName": "social",
  "TotalReadoutTime": 0.03969,
  "TxRefAmp": 246.355,
  "WipMemBlock": "efd056b0-65ac-4b16-8921-de7bbce6f20e||Sequence: R016 ve11e/master r/434b28f1; Aug  7 2019 18:53:46 by eja",
  "dcmmeta_affine": [
    [-2.6822006702423096, 0.03464370593428612, 0.052258171141147614, 108.09440612792969],
    [0.03547056019306183, 2.682353973388672, 0.042878009378910065, -90.33792877197266],
    [0.051366470754146576, -0.04328187182545662, 2.6991536617279053, -57.19270706176758],
    [0.0, 0.0, 0.0, 1.0]
],
  "dcmmeta_reorient_transform": [
    [0.0, -1.0, 0.0, 81.0],
    [1.0, 0.0, 0.0, 0.0],
    [0.0, 0.0, 1.0, 0.0],
    [0.0, 0.0, 0.0, 1.0]
],
  "dcmmeta_shape": [82, 82, 56, 872],
  "dcmmeta_slice_dim": 2,
  "dcmmeta_version": 0.6,
  "global": {
    "const": {
      "AccessionNumber": "A003994",
      "AcquisitionMatrix": [82, 0, 0, 82],
      "AngioFlag": "N",
      "BitsAllocated": 16,
      "BitsStored": 16,
      "BodyPartExamined": "BRAIN",
      "Columns": 656,
      "EchoNumbers": 1,
      "EchoTime": 27.2,
      "EchoTrainLength": 82,
      "FlipAngle": 44.0,
      "HighBit": 15,
      "ImageOrientationPatient": [0.99972928938709, -0.0132208449629, 0.01914568358814, 0.01291265312846, 0.99978648281084, 0.01613233330663],
      "ImagePositionPatient": [-890.63486398242, -886.5883082808, -87.862610624651],
      "ImageType": [
        "ORIGINAL",
        "PRIMARY",
        "M",
        "MB",
        "ND",
        "NORM",
        "MOSAIC"
],
      "ImagedNucleus": "1H",
      "ImagingFrequency": 123.252184,
      "InPlanePhaseEncodingDirection": "COL",
      "MRAcquisitionType": "2D",
      "MagneticFieldStrength": 3.0,
      "Manufacturer": "SIEMENS",
      "ManufacturerModelName": "Prisma",
      "Modality": "MR",
      "NumberOfAverages": 1.0,
      "NumberOfPhaseEncodingSteps": 82,
      "PercentPhaseFieldOfView": 100.0,
      "PercentSampling": 100.0,
      "PerformedProcedureStepStartTime": "104647.311000",
      "PhotometricInterpretation": "MONOCHROME2",
      "PixelBandwidth": 3050.0,
      "PixelRepresentation": 0,
      "PixelSpacing": [2.6829268932343, 2.6829268932343],
      "ProtocolName": "func_run-03_task-social_acq-ap-mb8",
      "RepetitionTime": 460.0,
      "Rows": 656,
      "SAR": 0.09698414369763,
      "SamplesPerPixel": 1,
      "ScanOptions": "FS",
      "ScanningSequence": "EP",
      "SequenceName": "epfid2d1_82",
      "SequenceVariant": [
        "SK",
        "SS"
],
      "SeriesDescription": "func_run-03_task-social_acq-ap-mb8",
      "SeriesNumber": 12,
      "SeriesTime": "111549.474000",
      "SliceLocation": -56.517257528742,
      "SliceThickness": 2.7000000476837,
      "SmallestImagePixelValue": 0,
      "SoftwareVersions": "syngo MR E11",
      "SpacingBetweenSlices": 2.7000000171414,
      "SpecificCharacterSet": "ISO_IR 100",
      "StudyID": "3",
      "StudyTime": "104647.259000",
      "TransmitCoilName": "Body",
      "VariableFlipAngleFlag": "N",
      "WindowCenterWidthExplanation": "Algo1"
    },
    "slices": {}
  },
  "time": {
    "samples": {
      "AcquisitionNumber": [1, 2, 3, 4, 5, 6, 7, 8, 9, 10, 11, 12, 13, 14, 15, 16, 17, 18, 19, 20, 21, 22, 23, 24, 25, 26, 27, 28, 29, 30, 31, 32, 33, 34, 35, 36, 37, 38, 39, 40, 41, 42, 43, 44, 45, 46, 47, 48, 49, 50, 51, 52, 53, 54, 55, 56, 57, 58, 59, 60, 61, 62, 63, 64, 65, 66, 67, 68, 69, 70, 71, 72, 73, 74, 75, 76, 77, 78, 79, 80, 81, 82, 83, 84, 85, 86, 87, 88, 89, 90, 91, 92, 93, 94, 95, 96, 97, 98, 99, 100, 101, 102, 103, 104, 105, 106, 107, 108, 109, 110, 111, 112, 113, 114, 115, 116, 117, 118, 119, 120, 121, 122, 123, 124, 125, 126, 127, 128, 129, 130, 131, 132, 133, 134, 135, 136, 137, 138, 139, 140, 141, 142, 143, 144, 145, 146, 147, 148, 149, 150, 151, 152, 153, 154, 155, 156, 157, 158, 159, 160, 161, 162, 163, 164, 165, 166, 167, 168, 169, 170, 171, 172, 173, 174, 175, 176, 177, 178, 179, 180, 181, 182, 183, 184, 185, 186, 187, 188, 189, 190, 191, 192, 193, 194, 195, 196, 197, 198, 199, 200, 201, 202, 203, 204, 205, 206, 207, 208, 209, 210, 211, 212, 213, 214, 215, 216, 217, 218, 219, 220, 221, 222, 223, 224, 225, 226, 227, 228, 229, 230, 231, 232, 233, 234, 235, 236, 237, 238, 239, 240, 241, 242, 243, 244, 245, 246, 247, 248, 249, 250, 251, 252, 253, 254, 255, 256, 257, 258, 259, 260, 261, 262, 263, 264, 265, 266, 267, 268, 269, 270, 271, 272, 273, 274, 275, 276, 277, 278, 279, 280, 281, 282, 283, 284, 285, 286, 287, 288, 289, 290, 291, 292, 293, 294, 295, 296, 297, 298, 299, 300, 301, 302, 303, 304, 305, 306, 307, 308, 309, 310, 311, 312, 313, 314, 315, 316, 317, 318, 319, 320, 321, 322, 323, 324, 325, 326, 327, 328, 329, 330, 331, 332, 333, 334, 335, 336, 337, 338, 339, 340, 341, 342, 343, 344, 345, 346, 347, 348, 349, 350, 351, 352, 353, 354, 355, 356, 357, 358, 359, 360, 361, 362, 363, 364, 365, 366, 367, 368, 369, 370, 371, 372, 373, 374, 375, 376, 377, 378, 379, 380, 381, 382, 383, 384, 385, 386, 387, 388, 389, 390, 391, 392, 393, 394, 395, 396, 397, 398, 399, 400, 401, 402, 403, 404, 405, 406, 407, 408, 409, 410, 411, 412, 413, 414, 415, 416, 417, 418, 419, 420, 421, 422, 423, 424, 425, 426, 427, 428, 429, 430, 431, 432, 433, 434, 435, 436, 437, 438, 439, 440, 441, 442, 443, 444, 445, 446, 447, 448, 449, 450, 451, 452, 453, 454, 455, 456, 457, 458, 459, 460, 461, 462, 463, 464, 465, 466, 467, 468, 469, 470, 471, 472, 473, 474, 475, 476, 477, 478, 479, 480, 481, 482, 483, 484, 485, 486, 487, 488, 489, 490, 491, 492, 493, 494, 495, 496, 497, 498, 499, 500, 501, 502, 503, 504, 505, 506, 507, 508, 509, 510, 511, 512, 513, 514, 515, 516, 517, 518, 519, 520, 521, 522, 523, 524, 525, 526, 527, 528, 529, 530, 531, 532, 533, 534, 535, 536, 537, 538, 539, 540, 541, 542, 543, 544, 545, 546, 547, 548, 549, 550, 551, 552, 553, 554, 555, 556, 557, 558, 559, 560, 561, 562, 563, 564, 565, 566, 567, 568, 569, 570, 571, 572, 573, 574, 575, 576, 577, 578, 579, 580, 581, 582, 583, 584, 585, 586, 587, 588, 589, 590, 591, 592, 593, 594, 595, 596, 597, 598, 599, 600, 601, 602, 603, 604, 605, 606, 607, 608, 609, 610, 611, 612, 613, 614, 615, 616, 617, 618, 619, 620, 621, 622, 623, 624, 625, 626, 627, 628, 629, 630, 631, 632, 633, 634, 635, 636, 637, 638, 639, 640, 641, 642, 643, 644, 645, 646, 647, 648, 649, 650, 651, 652, 653, 654, 655, 656, 657, 658, 659, 660, 661, 662, 663, 664, 665, 666, 667, 668, 669, 670, 671, 672, 673, 674, 675, 676, 677, 678, 679, 680, 681, 682, 683, 684, 685, 686, 687, 688, 689, 690, 691, 692, 693, 694, 695, 696, 697, 698, 699, 700, 701, 702, 703, 704, 705, 706, 707, 708, 709, 710, 711, 712, 713, 714, 715, 716, 717, 718, 719, 720, 721, 722, 723, 724, 725, 726, 727, 728, 729, 730, 731, 732, 733, 734, 735, 736, 737, 738, 739, 740, 741, 742, 743, 744, 745, 746, 747, 748, 749, 750, 751, 752, 753, 754, 755, 756, 757, 758, 759, 760, 761, 762, 763, 764, 765, 766, 767, 768, 769, 770, 771, 772, 773, 774, 775, 776, 777, 778, 779, 780, 781, 782, 783, 784, 785, 786, 787, 788, 789, 790, 791, 792, 793, 794, 795, 796, 797, 798, 799, 800, 801, 802, 803, 804, 805, 806, 807, 808, 809, 810, 811, 812, 813, 814, 815, 816, 817, 818, 819, 820, 821, 822, 823, 824, 825, 826, 827, 828, 829, 830, 831, 832, 833, 834, 835, 836, 837, 838, 839, 840, 841, 842, 843, 844, 845, 846, 847, 848, 849, 850, 851, 852, 853, 854, 855, 856, 857, 858, 859, 860, 861, 862, 863, 864, 865, 866, 867, 868, 869, 870, 871, 872],
      "AcquisitionTime": ["111534.447500", "111534.907500", "111535.367500", "111535.827500", "111536.287500", "111536.747500", "111537.207500", "111537.667500", "111538.127500", "111538.587500", "111539.047500", "111539.507500", "111539.967500", "111540.427500", "111540.887500", "111541.347500", "111541.807500", "111542.267500", "111542.727500", "111543.187500", "111543.647500", "111544.107500", "111544.567500", "111545.027500", "111545.487500", "111545.947500", "111546.407500", "111546.867500", "111547.327500", "111547.787500", "111548.247500", "111548.707500", "111549.167500", "111549.627500", "111550.087500", "111550.547500", "111551.007500", "111551.467500", "111551.927500", "111552.387500", "111552.847500", "111553.307500", "111553.767500", "111554.227500", "111554.687500", "111555.147500", "111555.607500", "111556.067500", "111556.527500", "111556.987500", "111557.447500", "111557.907500", "111558.367500", "111558.827500", "111559.287500", "111559.747500", "111600.207500", "111600.667500", "111601.127500", "111601.587500", "111602.047500", "111602.507500", "111602.967500", "111603.427500", "111603.887500", "111604.347500", "111604.807500", "111605.267500", "111605.727500", "111606.187500", "111606.647500", "111607.107500", "111607.567500", "111608.027500", "111608.487500", "111608.947500", "111609.407500", "111609.867500", "111610.327500", "111610.787500", "111611.247500", "111611.707500", "111612.167500", "111612.627500", "111613.087500", "111613.547500", "111614.007500", "111614.467500", "111614.927500", "111615.387500", "111615.847500", "111616.307500", "111616.767500", "111617.227500", "111617.687500", "111618.147500", "111618.607500", "111619.067500", "111619.527500", "111619.987500", "111620.447500", "111620.907500", "111621.367500", "111621.827500", "111622.287500", "111622.747500", "111623.207500", "111623.667500", "111624.127500", "111624.587500", "111625.047500", "111625.507500", "111625.967500", "111626.427500", "111626.887500", "111627.347500", "111627.807500", "111628.267500", "111628.727500", "111629.187500", "111629.647500", "111630.107500", "111630.567500", "111631.027500", "111631.487500", "111631.947500", "111632.407500", "111632.867500", "111633.327500", "111633.787500", "111634.247500", "111634.707500", "111635.167500", "111635.627500", "111636.087500", "111636.547500", "111637.007500", "111637.467500", "111637.927500", "111638.387500", "111638.847500", "111639.307500", "111639.767500", "111640.227500", "111640.687500", "111641.147500", "111641.607500", "111642.067500", "111642.527500", "111642.987500", "111643.447500", "111643.907500", "111644.367500", "111644.827500", "111645.287500", "111645.747500", "111646.207500", "111646.667500", "111647.127500", "111647.587500", "111648.047500", "111648.507500", "111648.967500", "111649.427500", "111649.887500", "111650.347500", "111650.807500", "111651.267500", "111651.727500", "111652.187500", "111652.647500", "111653.107500", "111653.567500", "111654.027500", "111654.487500", "111654.947500", "111655.407500", "111655.867500", "111656.327500", "111656.787500", "111657.247500", "111657.707500", "111658.167500", "111658.627500", "111659.087500", "111659.547500", "111700.007500", "111700.467500", "111700.927500", "111701.387500", "111701.847500", "111702.307500", "111702.767500", "111703.227500", "111703.687500", "111704.147500", "111704.607500", "111705.067500", "111705.527500", "111705.987500", "111706.447500", "111706.907500", "111707.367500", "111707.827500", "111708.287500", "111708.747500", "111709.207500", "111709.667500", "111710.127500", "111710.587500", "111711.047500", "111711.507500", "111711.967500", "111712.427500", "111712.887500", "111713.347500", "111713.807500", "111714.267500", "111714.727500", "111715.187500", "111715.647500", "111716.107500", "111716.567500", "111717.027500", "111717.487500", "111717.947500", "111718.407500", "111718.867500", "111719.327500", "111719.787500", "111720.247500", "111720.707500", "111721.167500", "111721.627500", "111722.087500", "111722.547500", "111723.007500", "111723.467500", "111723.927500", "111724.387500", "111724.847500", "111725.307500", "111725.767500", "111726.227500", "111726.687500", "111727.147500", "111727.607500", "111728.067500", "111728.527500", "111728.987500", "111729.447500", "111729.907500", "111730.367500", "111730.827500", "111731.287500", "111731.747500", "111732.207500", "111732.667500", "111733.127500", "111733.587500", "111734.047500", "111734.507500", "111734.967500", "111735.427500", "111735.887500", "111736.347500", "111736.807500", "111737.267500", "111737.727500", "111738.187500", "111738.647500", "111739.107500", "111739.567500", "111740.027500", "111740.487500", "111740.947500", "111741.407500", "111741.867500", "111742.327500", "111742.787500", "111743.247500", "111743.707500", "111744.167500", "111744.627500", "111745.087500", "111745.547500", "111746.007500", "111746.467500", "111746.927500", "111747.387500", "111747.847500", "111748.307500", "111748.767500", "111749.227500", "111749.687500", "111750.147500", "111750.607500", "111751.067500", "111751.527500", "111751.987500", "111752.447500", "111752.907500", "111753.367500", "111753.827500", "111754.287500", "111754.747500", "111755.207500", "111755.667500", "111756.127500", "111756.587500", "111757.047500", "111757.507500", "111757.967500", "111758.427500", "111758.887500", "111759.347500", "111759.807500", "111800.267500", "111800.727500", "111801.187500", "111801.647500", "111802.107500", "111802.567500", "111803.027500", "111803.487500", "111803.947500", "111804.407500", "111804.867500", "111805.327500", "111805.787500", "111806.247500", "111806.707500", "111807.167500", "111807.627500", "111808.087500", "111808.547500", "111809.007500", "111809.467500", "111809.927500", "111810.387500", "111810.847500", "111811.307500", "111811.767500", "111812.227500", "111812.687500", "111813.147500", "111813.607500", "111814.067500", "111814.527500", "111814.987500", "111815.447500", "111815.907500", "111816.367500", "111816.827500", "111817.287500", "111817.747500", "111818.207500", "111818.667500", "111819.127500", "111819.587500", "111820.047500", "111820.507500", "111820.967500", "111821.427500", "111821.887500", "111822.347500", "111822.807500", "111823.267500", "111823.727500", "111824.187500", "111824.647500", "111825.107500", "111825.567500", "111826.027500", "111826.487500", "111826.947500", "111827.407500", "111827.867500", "111828.327500", "111828.787500", "111829.247500", "111829.707500", "111830.167500", "111830.627500", "111831.087500", "111831.547500", "111832.007500", "111832.467500", "111832.927500", "111833.387500", "111833.847500", "111834.307500", "111834.767500", "111835.227500", "111835.687500", "111836.147500", "111836.607500", "111837.067500", "111837.527500", "111837.987500", "111838.447500", "111838.907500", "111839.367500", "111839.827500", "111840.287500", "111840.747500", "111841.207500", "111841.667500", "111842.127500", "111842.587500", "111843.047500", "111843.507500", "111843.967500", "111844.427500", "111844.887500", "111845.347500", "111845.807500", "111846.267500", "111846.727500", "111847.187500", "111847.647500", "111848.107500", "111848.567500", "111849.027500", "111849.487500", "111849.947500", "111850.407500", "111850.867500", "111851.327500", "111851.787500", "111852.247500", "111852.707500", "111853.167500", "111853.627500", "111854.087500", "111854.547500", "111855.007500", "111855.467500", "111855.927500", "111856.387500", "111856.847500", "111857.307500", "111857.767500", "111858.227500", "111858.687500", "111859.147500", "111859.607500", "111900.067500", "111900.527500", "111900.987500", "111901.447500", "111901.907500", "111902.367500", "111902.827500", "111903.287500", "111903.747500", "111904.207500", "111904.667500", "111905.127500", "111905.587500", "111906.047500", "111906.507500", "111906.967500", "111907.427500", "111907.887500", "111908.347500", "111908.807500", "111909.267500", "111909.727500", "111910.187500", "111910.647500", "111911.107500", "111911.567500", "111912.027500", "111912.487500", "111912.947500", "111913.407500", "111913.867500", "111914.327500", "111914.787500", "111915.247500", "111915.707500", "111916.167500", "111916.627500", "111917.087500", "111917.547500", "111918.007500", "111918.467500", "111918.927500", "111919.387500", "111919.847500", "111920.307500", "111920.767500", "111921.227500", "111921.687500", "111922.147500", "111922.607500", "111923.067500", "111923.527500", "111923.987500", "111924.447500", "111924.907500", "111925.367500", "111925.827500", "111926.287500", "111926.747500", "111927.207500", "111927.667500", "111928.127500", "111928.587500", "111929.047500", "111929.507500", "111929.967500", "111930.427500", "111930.887500", "111931.347500", "111931.807500", "111932.267500", "111932.727500", "111933.187500", "111933.647500", "111934.107500", "111934.567500", "111935.027500", "111935.487500", "111935.947500", "111936.407500", "111936.867500", "111937.327500", "111937.787500", "111938.247500", "111938.707500", "111939.167500", "111939.627500", "111940.087500", "111940.547500", "111941.007500", "111941.467500", "111941.927500", "111942.387500", "111942.847500", "111943.307500", "111943.767500", "111944.227500", "111944.687500", "111945.147500", "111945.607500", "111946.067500", "111946.527500", "111946.987500", "111947.447500", "111947.907500", "111948.367500", "111948.827500", "111949.287500", "111949.747500", "111950.207500", "111950.667500", "111951.127500", "111951.587500", "111952.047500", "111952.507500", "111952.967500", "111953.427500", "111953.887500", "111954.347500", "111954.807500", "111955.267500", "111955.727500", "111956.187500", "111956.647500", "111957.107500", "111957.567500", "111958.027500", "111958.487500", "111958.947500", "111959.407500", "111959.867500", "112000.327500", "112000.787500", "112001.247500", "112001.707500", "112002.167500", "112002.627500", "112003.087500", "112003.547500", "112004.007500", "112004.467500", "112004.927500", "112005.387500", "112005.847500", "112006.307500", "112006.767500", "112007.227500", "112007.687500", "112008.147500", "112008.607500", "112009.067500", "112009.527500", "112009.987500", "112010.447500", "112010.907500", "112011.367500", "112011.827500", "112012.287500", "112012.747500", "112013.207500", "112013.667500", "112014.127500", "112014.587500", "112015.047500", "112015.507500", "112015.967500", "112016.427500", "112016.887500", "112017.347500", "112017.807500", "112018.267500", "112018.727500", "112019.187500", "112019.647500", "112020.107500", "112020.567500", "112021.027500", "112021.487500", "112021.947500", "112022.407500", "112022.867500", "112023.327500", "112023.787500", "112024.247500", "112024.707500", "112025.167500", "112025.627500", "112026.087500", "112026.547500", "112027.007500", "112027.467500", "112027.927500", "112028.387500", "112028.847500", "112029.307500", "112029.767500", "112030.227500", "112030.687500", "112031.147500", "112031.607500", "112032.067500", "112032.527500", "112032.987500", "112033.447500", "112033.907500", "112034.367500", "112034.827500", "112035.287500", "112035.747500", "112036.207500", "112036.667500", "112037.127500", "112037.587500", "112038.047500", "112038.507500", "112038.967500", "112039.427500", "112039.887500", "112040.347500", "112040.807500", "112041.267500", "112041.727500", "112042.187500", "112042.647500", "112043.107500", "112043.567500", "112044.027500", "112044.487500", "112044.947500", "112045.407500", "112045.867500", "112046.327500", "112046.787500", "112047.247500", "112047.707500", "112048.167500", "112048.627500", "112049.087500", "112049.547500", "112050.007500", "112050.467500", "112050.927500", "112051.387500", "112051.847500", "112052.307500", "112052.767500", "112053.227500", "112053.687500", "112054.147500", "112054.607500", "112055.067500", "112055.527500", "112055.987500", "112056.447500", "112056.907500", "112057.367500", "112057.827500", "112058.287500", "112058.747500", "112059.207500", "112059.667500", "112100.127500", "112100.587500", "112101.047500", "112101.507500", "112101.967500", "112102.427500", "112102.887500", "112103.347500", "112103.807500", "112104.267500", "112104.727500", "112105.187500", "112105.647500", "112106.107500", "112106.567500", "112107.027500", "112107.487500", "112107.947500", "112108.407500", "112108.867500", "112109.327500", "112109.787500", "112110.247500", "112110.707500", "112111.167500", "112111.627500", "112112.087500", "112112.547500", "112113.007500", "112113.467500", "112113.927500", "112114.387500", "112114.847500", "112115.307500", "112115.767500", "112116.227500", "112116.687500", "112117.147500", "112117.607500", "112118.067500", "112118.527500", "112118.987500", "112119.447500", "112119.907500", "112120.367500", "112120.827500", "112121.287500", "112121.747500", "112122.207500", "112122.667500", "112123.127500", "112123.587500", "112124.047500", "112124.507500", "112124.967500", "112125.427500", "112125.887500", "112126.347500", "112126.807500", "112127.267500", "112127.727500", "112128.187500", "112128.647500", "112129.107500", "112129.567500", "112130.027500", "112130.487500", "112130.947500", "112131.407500", "112131.867500", "112132.327500", "112132.787500", "112133.247500", "112133.707500", "112134.167500", "112134.627500", "112135.087500", "112135.547500", "112136.007500", "112136.467500", "112136.927500", "112137.387500", "112137.847500", "112138.307500", "112138.767500", "112139.227500", "112139.687500", "112140.147500", "112140.607500", "112141.067500", "112141.527500", "112141.987500", "112142.447500", "112142.907500", "112143.367500", "112143.827500", "112144.287500", "112144.747500", "112145.207500", "112145.667500", "112146.127500", "112146.587500", "112147.047500", "112147.507500", "112147.967500", "112148.427500", "112148.887500", "112149.347500", "112149.807500", "112150.267500", "112150.727500", "112151.187500", "112151.647500", "112152.107500", "112152.567500", "112153.027500", "112153.487500", "112153.947500", "112154.407500", "112154.867500", "112155.327500", "112155.787500", "112156.247500", "112156.707500", "112157.167500", "112157.627500", "112158.087500", "112158.547500", "112159.007500", "112159.467500", "112159.927500", "112200.387500", "112200.847500", "112201.307500", "112201.767500", "112202.227500", "112202.687500", "112203.147500", "112203.607500", "112204.067500", "112204.527500", "112204.987500", "112205.447500", "112205.907500", "112206.367500", "112206.827500", "112207.287500", "112207.747500", "112208.207500", "112208.667500", "112209.127500", "112209.587500", "112210.047500", "112210.507500", "112210.967500", "112211.427500", "112211.887500", "112212.347500", "112212.807500", "112213.267500", "112213.727500", "112214.187500", "112214.647500", "112215.107500"],
