{
  "AcquisitionMatrixPE": 82,
  "AcquisitionNumber": 1,
  "AcquisitionTime": "11:01:11.215000",
  "BandwidthPerPixelPhaseEncode": 24.888,
  "BaseResolution": 82,
  "BodyPartExamined": "BRAIN",
  "ConsistencyInfo": "N4_VE11E_LATEST_20181129",
  "ConversionSoftware": "dcm2niix",
  "ConversionSoftwareVersion": "v1.0.20201102",
  "DerivedVendorReportedEchoSpacing": 0.00049,
  "DeviceSerialNumber": "66112",
  "DwellTime": 2e-06,
  "EchoTime": 0.0272,
  "EchoTrainLength": 82,
  "EffectiveEchoSpacing": 0.00049,
  "FlipAngle": 44,
  "ImageComments": "Unaliased MB8/PE3",
  "ImageOrientationPatientDICOM": [0.999729, -0.0132208, 0.0191457, 0.0129127, 0.999786, 0.0161323],
  "ImageType": [
    "ORIGINAL",
    "PRIMARY",
    "M",
    "MB",
    "ND",
    "NORM",
    "MOSAIC"
],
  "ImagingFrequency": 123.252,
  "InPlanePhaseEncodingDirectionDICOM": "COL",
  "InstitutionAddress": "Maynard 3,Hanover,NH,US,03755",
  "InstitutionName": "Dartmouth College - PBS",
  "InstitutionalDepartmentName": "Department",
  "MRAcquisitionType": "2D",
  "MagneticFieldStrength": 3,
  "Manufacturer": "Siemens",
  "ManufacturersModelName": "Prisma",
  "Modality": "MR",
  "MultibandAccelerationFactor": 8,
  "PartialFourier": 1,
  "PatientPosition": "HFS",
  "PercentPhaseFOV": 100,
  "PercentSampling": 100,
  "PhaseEncodingDirection": "j-",
  "PhaseEncodingSteps": 82,
  "PhaseResolution": 1,
  "PixelBandwidth": 3050,
  "ProcedureStepDescription": "Wager_Wager^1076_spacetop",
  "ProtocolName": "func_run-01_task-social_acq-ap-mb8",
  "PulseSequenceDetails": "%CustomerSeq%\\cmrr_mbep2d_bold",
  "ReceiveCoilActiveElements": "HEA;HEP",
  "ReceiveCoilName": "Head_32",
  "ReconMatrixPE": 82,
  "RepetitionTime": 0.46,
  "SAR": 0.0969841,
  "ScanOptions": "FS",
  "ScanningSequence": "EP",
  "SequenceName": "epfid2d1_82",
  "SequenceVariant": "SK\\SS",
  "SeriesDescription": "func_run-01_task-social_acq-ap-mb8",
  "SeriesNumber": 8,
  "ShimSetting": [4166, -7803, -7239, 643, -1, -548, 399, 76],
  "SliceThickness": 2.7,
  "SliceTiming": [0, 0.25, 0.0625, 0.3125, 0.125, 0.375, 0.1875, 0, 0.25, 0.0625, 0.3125, 0.125, 0.375, 0.1875, 0, 0.25, 0.0625, 0.3125, 0.125, 0.375, 0.1875, 0, 0.25, 0.0625, 0.3125, 0.125, 0.375, 0.1875, 0, 0.25, 0.0625, 0.3125, 0.125, 0.375, 0.1875, 0, 0.25, 0.0625, 0.3125, 0.125, 0.375, 0.1875, 0, 0.25, 0.0625, 0.3125, 0.125, 0.375, 0.1875, 0, 0.25, 0.0625, 0.3125, 0.125, 0.375, 0.1875],
  "SoftwareVersions": "syngo MR E11",
  "SpacingBetweenSlices": 2.7,
  "StationName": "AWP66112",
  "TaskName": "social",
  "TotalReadoutTime": 0.03969,
  "TxRefAmp": 246.355,
  "WipMemBlock": "c7926258-5a7d-4550-ac02-9449a357dedb||Sequence: R016 ve11e/master r/434b28f1; Aug  7 2019 18:53:46 by eja",
  "dcmmeta_affine": [
    [-2.6822006702423096, 0.03464370593428612, 0.052258171141147614, 108.09440612792969],
    [0.03547056019306183, 2.682353973388672, 0.042878009378910065, -90.33792877197266],
    [0.051366470754146576, -0.04328187182545662, 2.6991536617279053, -57.19270706176758],
    [0.0, 0.0, 0.0, 1.0]
],
  "dcmmeta_reorient_transform": [
    [0.0, -1.0, 0.0, 81.0],
    [1.0, 0.0, 0.0, 0.0],
    [0.0, 0.0, 1.0, 0.0],
    [0.0, 0.0, 0.0, 1.0]
],
  "dcmmeta_shape": [82, 82, 56, 872],
  "dcmmeta_slice_dim": 2,
  "dcmmeta_version": 0.6,
  "global": {
    "const": {
      "AccessionNumber": "A003994",
      "AcquisitionMatrix": [82, 0, 0, 82],
      "AngioFlag": "N",
      "BitsAllocated": 16,
      "BitsStored": 16,
      "BodyPartExamined": "BRAIN",
      "Columns": 656,
      "EchoNumbers": 1,
      "EchoTime": 27.2,
      "EchoTrainLength": 82,
      "FlipAngle": 44.0,
      "HighBit": 15,
      "ImageOrientationPatient": [0.99972928938709, -0.0132208449629, 0.01914568358814, 0.01291265312846, 0.99978648281084, 0.01613233330663],
      "ImagePositionPatient": [-890.63486398242, -886.5883082808, -87.862610624651],
      "ImageType": [
        "ORIGINAL",
        "PRIMARY",
        "M",
        "MB",
        "ND",
        "NORM",
        "MOSAIC"
],
      "ImagedNucleus": "1H",
      "ImagingFrequency": 123.252177,
      "InPlanePhaseEncodingDirection": "COL",
      "MRAcquisitionType": "2D",
      "MagneticFieldStrength": 3.0,
      "Manufacturer": "SIEMENS",
      "ManufacturerModelName": "Prisma",
      "Modality": "MR",
      "NumberOfAverages": 1.0,
      "NumberOfPhaseEncodingSteps": 82,
      "PercentPhaseFieldOfView": 100.0,
      "PercentSampling": 100.0,
      "PerformedProcedureStepStartTime": "104647.311000",
      "PhotometricInterpretation": "MONOCHROME2",
      "PixelBandwidth": 3050.0,
      "PixelRepresentation": 0,
      "PixelSpacing": [2.6829268932343, 2.6829268932343],
      "ProtocolName": "func_run-01_task-social_acq-ap-mb8",
      "RepetitionTime": 460.0,
      "Rows": 656,
      "SAR": 0.09698414369763,
      "SamplesPerPixel": 1,
      "ScanOptions": "FS",
      "ScanningSequence": "EP",
      "SequenceName": "epfid2d1_82",
      "SequenceVariant": [
        "SK",
        "SS"
],
      "SeriesDescription": "func_run-01_task-social_acq-ap-mb8",
      "SeriesNumber": 8,
      "SeriesTime": "110129.548000",
      "SliceLocation": -56.517257528742,
      "SliceThickness": 2.7000000476837,
      "SmallestImagePixelValue": 0,
      "SoftwareVersions": "syngo MR E11",
      "SpacingBetweenSlices": 2.7000000171414,
      "SpecificCharacterSet": "ISO_IR 100",
      "StudyID": "3",
      "StudyTime": "104647.259000",
      "TransmitCoilName": "Body",
      "VariableFlipAngleFlag": "N",
      "WindowCenterWidthExplanation": "Algo1"
    },
    "slices": {}
  },
  "time": {
    "samples": {
      "AcquisitionNumber": [1, 2, 3, 4, 5, 6, 7, 8, 9, 10, 11, 12, 13, 14, 15, 16, 17, 18, 19, 20, 21, 22, 23, 24, 25, 26, 27, 28, 29, 30, 31, 32, 33, 34, 35, 36, 37, 38, 39, 40, 41, 42, 43, 44, 45, 46, 47, 48, 49, 50, 51, 52, 53, 54, 55, 56, 57, 58, 59, 60, 61, 62, 63, 64, 65, 66, 67, 68, 69, 70, 71, 72, 73, 74, 75, 76, 77, 78, 79, 80, 81, 82, 83, 84, 85, 86, 87, 88, 89, 90, 91, 92, 93, 94, 95, 96, 97, 98, 99, 100, 101, 102, 103, 104, 105, 106, 107, 108, 109, 110, 111, 112, 113, 114, 115, 116, 117, 118, 119, 120, 121, 122, 123, 124, 125, 126, 127, 128, 129, 130, 131, 132, 133, 134, 135, 136, 137, 138, 139, 140, 141, 142, 143, 144, 145, 146, 147, 148, 149, 150, 151, 152, 153, 154, 155, 156, 157, 158, 159, 160, 161, 162, 163, 164, 165, 166, 167, 168, 169, 170, 171, 172, 173, 174, 175, 176, 177, 178, 179, 180, 181, 182, 183, 184, 185, 186, 187, 188, 189, 190, 191, 192, 193, 194, 195, 196, 197, 198, 199, 200, 201, 202, 203, 204, 205, 206, 207, 208, 209, 210, 211, 212, 213, 214, 215, 216, 217, 218, 219, 220, 221, 222, 223, 224, 225, 226, 227, 228, 229, 230, 231, 232, 233, 234, 235, 236, 237, 238, 239, 240, 241, 242, 243, 244, 245, 246, 247, 248, 249, 250, 251, 252, 253, 254, 255, 256, 257, 258, 259, 260, 261, 262, 263, 264, 265, 266, 267, 268, 269, 270, 271, 272, 273, 274, 275, 276, 277, 278, 279, 280, 281, 282, 283, 284, 285, 286, 287, 288, 289, 290, 291, 292, 293, 294, 295, 296, 297, 298, 299, 300, 301, 302, 303, 304, 305, 306, 307, 308, 309, 310, 311, 312, 313, 314, 315, 316, 317, 318, 319, 320, 321, 322, 323, 324, 325, 326, 327, 328, 329, 330, 331, 332, 333, 334, 335, 336, 337, 338, 339, 340, 341, 342, 343, 344, 345, 346, 347, 348, 349, 350, 351, 352, 353, 354, 355, 356, 357, 358, 359, 360, 361, 362, 363, 364, 365, 366, 367, 368, 369, 370, 371, 372, 373, 374, 375, 376, 377, 378, 379, 380, 381, 382, 383, 384, 385, 386, 387, 388, 389, 390, 391, 392, 393, 394, 395, 396, 397, 398, 399, 400, 401, 402, 403, 404, 405, 406, 407, 408, 409, 410, 411, 412, 413, 414, 415, 416, 417, 418, 419, 420, 421, 422, 423, 424, 425, 426, 427, 428, 429, 430, 431, 432, 433, 434, 435, 436, 437, 438, 439, 440, 441, 442, 443, 444, 445, 446, 447, 448, 449, 450, 451, 452, 453, 454, 455, 456, 457, 458, 459, 460, 461, 462, 463, 464, 465, 466, 467, 468, 469, 470, 471, 472, 473, 474, 475, 476, 477, 478, 479, 480, 481, 482, 483, 484, 485, 486, 487, 488, 489, 490, 491, 492, 493, 494, 495, 496, 497, 498, 499, 500, 501, 502, 503, 504, 505, 506, 507, 508, 509, 510, 511, 512, 513, 514, 515, 516, 517, 518, 519, 520, 521, 522, 523, 524, 525, 526, 527, 528, 529, 530, 531, 532, 533, 534, 535, 536, 537, 538, 539, 540, 541, 542, 543, 544, 545, 546, 547, 548, 549, 550, 551, 552, 553, 554, 555, 556, 557, 558, 559, 560, 561, 562, 563, 564, 565, 566, 567, 568, 569, 570, 571, 572, 573, 574, 575, 576, 577, 578, 579, 580, 581, 582, 583, 584, 585, 586, 587, 588, 589, 590, 591, 592, 593, 594, 595, 596, 597, 598, 599, 600, 601, 602, 603, 604, 605, 606, 607, 608, 609, 610, 611, 612, 613, 614, 615, 616, 617, 618, 619, 620, 621, 622, 623, 624, 625, 626, 627, 628, 629, 630, 631, 632, 633, 634, 635, 636, 637, 638, 639, 640, 641, 642, 643, 644, 645, 646, 647, 648, 649, 650, 651, 652, 653, 654, 655, 656, 657, 658, 659, 660, 661, 662, 663, 664, 665, 666, 667, 668, 669, 670, 671, 672, 673, 674, 675, 676, 677, 678, 679, 680, 681, 682, 683, 684, 685, 686, 687, 688, 689, 690, 691, 692, 693, 694, 695, 696, 697, 698, 699, 700, 701, 702, 703, 704, 705, 706, 707, 708, 709, 710, 711, 712, 713, 714, 715, 716, 717, 718, 719, 720, 721, 722, 723, 724, 725, 726, 727, 728, 729, 730, 731, 732, 733, 734, 735, 736, 737, 738, 739, 740, 741, 742, 743, 744, 745, 746, 747, 748, 749, 750, 751, 752, 753, 754, 755, 756, 757, 758, 759, 760, 761, 762, 763, 764, 765, 766, 767, 768, 769, 770, 771, 772, 773, 774, 775, 776, 777, 778, 779, 780, 781, 782, 783, 784, 785, 786, 787, 788, 789, 790, 791, 792, 793, 794, 795, 796, 797, 798, 799, 800, 801, 802, 803, 804, 805, 806, 807, 808, 809, 810, 811, 812, 813, 814, 815, 816, 817, 818, 819, 820, 821, 822, 823, 824, 825, 826, 827, 828, 829, 830, 831, 832, 833, 834, 835, 836, 837, 838, 839, 840, 841, 842, 843, 844, 845, 846, 847, 848, 849, 850, 851, 852, 853, 854, 855, 856, 857, 858, 859, 860, 861, 862, 863, 864, 865, 866, 867, 868, 869, 870, 871, 872],
      "AcquisitionTime": ["110111.215000", "110111.675000", "110112.135000", "110112.595000", "110113.055000", "110113.515000", "110113.975000", "110114.435000", "110114.895000", "110115.355000", "110115.815000", "110116.275000", "110116.735000", "110117.195000", "110117.655000", "110118.115000", "110118.575000", "110119.035000", "110119.495000", "110119.955000", "110120.415000", "110120.875000", "110121.335000", "110121.795000", "110122.255000", "110122.715000", "110123.175000", "110123.635000", "110124.095000", "110124.555000", "110125.015000", "110125.475000", "110125.935000", "110126.395000", "110126.855000", "110127.315000", "110127.775000", "110128.235000", "110128.695000", "110129.155000", "110129.615000", "110130.075000", "110130.535000", "110130.995000", "110131.455000", "110131.915000", "110132.375000", "110132.835000", "110133.295000", "110133.755000", "110134.215000", "110134.675000", "110135.135000", "110135.595000", "110136.055000", "110136.515000", "110136.975000", "110137.435000", "110137.895000", "110138.355000", "110138.815000", "110139.275000", "110139.735000", "110140.195000", "110140.655000", "110141.115000", "110141.575000", "110142.035000", "110142.495000", "110142.955000", "110143.415000", "110143.875000", "110144.335000", "110144.795000", "110145.255000", "110145.715000", "110146.175000", "110146.635000", "110147.095000", "110147.555000", "110148.015000", "110148.475000", "110148.935000", "110149.395000", "110149.855000", "110150.315000", "110150.775000", "110151.235000", "110151.695000", "110152.155000", "110152.615000", "110153.075000", "110153.535000", "110153.995000", "110154.455000", "110154.915000", "110155.375000", "110155.835000", "110156.295000", "110156.755000", "110157.215000", "110157.675000", "110158.135000", "110158.595000", "110159.055000", "110159.515000", "110159.975000", "110200.435000", "110200.895000", "110201.355000", "110201.815000", "110202.275000", "110202.735000", "110203.195000", "110203.655000", "110204.115000", "110204.575000", "110205.035000", "110205.495000", "110205.955000", "110206.415000", "110206.875000", "110207.335000", "110207.795000", "110208.255000", "110208.715000", "110209.175000", "110209.635000", "110210.095000", "110210.555000", "110211.015000", "110211.475000", "110211.935000", "110212.395000", "110212.855000", "110213.315000", "110213.775000", "110214.235000", "110214.695000", "110215.155000", "110215.615000", "110216.075000", "110216.535000", "110216.995000", "110217.455000", "110217.915000", "110218.375000", "110218.835000", "110219.295000", "110219.755000", "110220.215000", "110220.675000", "110221.135000", "110221.595000", "110222.055000", "110222.515000", "110222.975000", "110223.435000", "110223.895000", "110224.355000", "110224.815000", "110225.275000", "110225.735000", "110226.195000", "110226.655000", "110227.115000", "110227.575000", "110228.035000", "110228.495000", "110228.955000", "110229.415000", "110229.875000", "110230.335000", "110230.795000", "110231.255000", "110231.715000", "110232.175000", "110232.635000", "110233.095000", "110233.555000", "110234.015000", "110234.475000", "110234.935000", "110235.395000", "110235.855000", "110236.315000", "110236.775000", "110237.235000", "110237.695000", "110238.155000", "110238.615000", "110239.075000", "110239.535000", "110239.995000", "110240.455000", "110240.915000", "110241.375000", "110241.835000", "110242.295000", "110242.755000", "110243.215000", "110243.675000", "110244.135000", "110244.595000", "110245.055000", "110245.515000", "110245.975000", "110246.435000", "110246.895000", "110247.355000", "110247.815000", "110248.275000", "110248.735000", "110249.195000", "110249.655000", "110250.115000", "110250.575000", "110251.035000", "110251.495000", "110251.955000", "110252.415000", "110252.875000", "110253.335000", "110253.795000", "110254.255000", "110254.715000", "110255.175000", "110255.635000", "110256.095000", "110256.555000", "110257.015000", "110257.475000", "110257.935000", "110258.395000", "110258.855000", "110259.315000", "110259.775000", "110300.235000", "110300.695000", "110301.155000", "110301.615000", "110302.075000", "110302.535000", "110302.995000", "110303.455000", "110303.915000", "110304.375000", "110304.835000", "110305.295000", "110305.755000", "110306.215000", "110306.675000", "110307.135000", "110307.595000", "110308.055000", "110308.515000", "110308.975000", "110309.435000", "110309.895000", "110310.355000", "110310.815000", "110311.275000", "110311.735000", "110312.195000", "110312.655000", "110313.115000", "110313.575000", "110314.035000", "110314.495000", "110314.955000", "110315.415000", "110315.875000", "110316.335000", "110316.795000", "110317.255000", "110317.715000", "110318.175000", "110318.635000", "110319.095000", "110319.555000", "110320.015000", "110320.475000", "110320.935000", "110321.395000", "110321.855000", "110322.315000", "110322.775000", "110323.235000", "110323.695000", "110324.155000", "110324.615000", "110325.075000", "110325.535000", "110325.995000", "110326.455000", "110326.915000", "110327.375000", "110327.835000", "110328.295000", "110328.755000", "110329.215000", "110329.675000", "110330.135000", "110330.595000", "110331.055000", "110331.515000", "110331.975000", "110332.435000", "110332.895000", "110333.355000", "110333.815000", "110334.275000", "110334.735000", "110335.195000", "110335.655000", "110336.115000", "110336.575000", "110337.035000", "110337.495000", "110337.955000", "110338.415000", "110338.875000", "110339.335000", "110339.795000", "110340.255000", "110340.715000", "110341.175000", "110341.635000", "110342.095000", "110342.555000", "110343.015000", "110343.475000", "110343.935000", "110344.395000", "110344.855000", "110345.315000", "110345.775000", "110346.235000", "110346.695000", "110347.155000", "110347.615000", "110348.075000", "110348.535000", "110348.995000", "110349.455000", "110349.915000", "110350.375000", "110350.835000", "110351.295000", "110351.755000", "110352.215000", "110352.675000", "110353.135000", "110353.595000", "110354.055000", "110354.515000", "110354.975000", "110355.435000", "110355.895000", "110356.355000", "110356.815000", "110357.275000", "110357.735000", "110358.195000", "110358.655000", "110359.115000", "110359.575000", "110400.035000", "110400.495000", "110400.955000", "110401.415000", "110401.875000", "110402.335000", "110402.795000", "110403.255000", "110403.715000", "110404.175000", "110404.635000", "110405.095000", "110405.555000", "110406.015000", "110406.475000", "110406.935000", "110407.395000", "110407.855000", "110408.315000", "110408.775000", "110409.235000", "110409.695000", "110410.155000", "110410.615000", "110411.075000", "110411.535000", "110411.995000", "110412.455000", "110412.915000", "110413.375000", "110413.835000", "110414.295000", "110414.755000", "110415.215000", "110415.675000", "110416.135000", "110416.595000", "110417.055000", "110417.515000", "110417.975000", "110418.435000", "110418.895000", "110419.355000", "110419.815000", "110420.275000", "110420.735000", "110421.195000", "110421.655000", "110422.115000", "110422.575000", "110423.035000", "110423.495000", "110423.955000", "110424.415000", "110424.875000", "110425.335000", "110425.795000", "110426.255000", "110426.715000", "110427.175000", "110427.635000", "110428.095000", "110428.555000", "110429.015000", "110429.475000", "110429.935000", "110430.395000", "110430.855000", "110431.315000", "110431.775000", "110432.235000", "110432.695000", "110433.155000", "110433.615000", "110434.075000", "110434.535000", "110434.995000", "110435.455000", "110435.915000", "110436.375000", "110436.835000", "110437.295000", "110437.755000", "110438.215000", "110438.675000", "110439.135000", "110439.595000", "110440.055000", "110440.515000", "110440.975000", "110441.435000", "110441.895000", "110442.355000", "110442.815000", "110443.275000", "110443.735000", "110444.195000", "110444.655000", "110445.115000", "110445.575000", "110446.035000", "110446.495000", "110446.955000", "110447.415000", "110447.875000", "110448.335000", "110448.795000", "110449.255000", "110449.715000", "110450.175000", "110450.635000", "110451.095000", "110451.555000", "110452.015000", "110452.475000", "110452.935000", "110453.395000", "110453.855000", "110454.315000", "110454.775000", "110455.235000", "110455.695000", "110456.155000", "110456.615000", "110457.075000", "110457.535000", "110457.995000", "110458.455000", "110458.915000", "110459.375000", "110459.835000", "110500.295000", "110500.755000", "110501.215000", "110501.675000", "110502.135000", "110502.595000", "110503.055000", "110503.515000", "110503.975000", "110504.435000", "110504.895000", "110505.355000", "110505.815000", "110506.275000", "110506.735000", "110507.195000", "110507.655000", "110508.115000", "110508.575000", "110509.035000", "110509.495000", "110509.955000", "110510.415000", "110510.875000", "110511.335000", "110511.795000", "110512.255000", "110512.715000", "110513.175000", "110513.635000", "110514.095000", "110514.555000", "110515.015000", "110515.475000", "110515.935000", "110516.395000", "110516.855000", "110517.315000", "110517.775000", "110518.235000", "110518.695000", "110519.155000", "110519.615000", "110520.075000", "110520.535000", "110520.995000", "110521.455000", "110521.915000", "110522.375000", "110522.835000", "110523.295000", "110523.755000", "110524.215000", "110524.675000", "110525.135000", "110525.595000", "110526.055000", "110526.515000", "110526.975000", "110527.435000", "110527.895000", "110528.355000", "110528.815000", "110529.275000", "110529.735000", "110530.195000", "110530.655000", "110531.115000", "110531.575000", "110532.035000", "110532.495000", "110532.955000", "110533.415000", "110533.875000", "110534.335000", "110534.795000", "110535.255000", "110535.715000", "110536.175000", "110536.635000", "110537.095000", "110537.555000", "110538.015000", "110538.475000", "110538.935000", "110539.395000", "110539.855000", "110540.315000", "110540.775000", "110541.235000", "110541.695000", "110542.155000", "110542.615000", "110543.075000", "110543.535000", "110543.995000", "110544.455000", "110544.915000", "110545.375000", "110545.835000", "110546.295000", "110546.755000", "110547.215000", "110547.675000", "110548.135000", "110548.595000", "110549.055000", "110549.515000", "110549.975000", "110550.435000", "110550.895000", "110551.355000", "110551.815000", "110552.275000", "110552.735000", "110553.195000", "110553.655000", "110554.115000", "110554.575000", "110555.035000", "110555.495000", "110555.955000", "110556.415000", "110556.875000", "110557.335000", "110557.795000", "110558.255000", "110558.715000", "110559.175000", "110559.635000", "110600.095000", "110600.555000", "110601.015000", "110601.475000", "110601.935000", "110602.395000", "110602.855000", "110603.315000", "110603.775000", "110604.235000", "110604.695000", "110605.155000", "110605.615000", "110606.075000", "110606.535000", "110606.995000", "110607.455000", "110607.915000", "110608.375000", "110608.835000", "110609.295000", "110609.755000", "110610.215000", "110610.675000", "110611.135000", "110611.595000", "110612.055000", "110612.515000", "110612.975000", "110613.435000", "110613.895000", "110614.355000", "110614.815000", "110615.275000", "110615.735000", "110616.195000", "110616.655000", "110617.115000", "110617.575000", "110618.035000", "110618.495000", "110618.955000", "110619.415000", "110619.875000", "110620.335000", "110620.795000", "110621.255000", "110621.715000", "110622.175000", "110622.635000", "110623.095000", "110623.555000", "110624.015000", "110624.475000", "110624.935000", "110625.395000", "110625.855000", "110626.315000", "110626.775000", "110627.235000", "110627.695000", "110628.155000", "110628.615000", "110629.075000", "110629.535000", "110629.995000", "110630.455000", "110630.915000", "110631.375000", "110631.835000", "110632.295000", "110632.755000", "110633.215000", "110633.675000", "110634.135000", "110634.595000", "110635.055000", "110635.515000", "110635.975000", "110636.435000", "110636.895000", "110637.355000", "110637.815000", "110638.275000", "110638.735000", "110639.195000", "110639.655000", "110640.115000", "110640.575000", "110641.035000", "110641.495000", "110641.955000", "110642.415000", "110642.875000", "110643.335000", "110643.795000", "110644.255000", "110644.715000", "110645.175000", "110645.635000", "110646.095000", "110646.555000", "110647.015000", "110647.475000", "110647.935000", "110648.395000", "110648.855000", "110649.315000", "110649.775000", "110650.235000", "110650.695000", "110651.155000", "110651.615000", "110652.075000", "110652.535000", "110652.995000", "110653.455000", "110653.915000", "110654.375000", "110654.835000", "110655.295000", "110655.755000", "110656.215000", "110656.675000", "110657.135000", "110657.595000", "110658.055000", "110658.515000", "110658.975000", "110659.435000", "110659.895000", "110700.355000", "110700.815000", "110701.275000", "110701.735000", "110702.195000", "110702.655000", "110703.115000", "110703.575000", "110704.035000", "110704.495000", "110704.955000", "110705.415000", "110705.875000", "110706.335000", "110706.795000", "110707.255000", "110707.715000", "110708.175000", "110708.635000", "110709.095000", "110709.555000", "110710.015000", "110710.475000", "110710.935000", "110711.395000", "110711.855000", "110712.315000", "110712.775000", "110713.235000", "110713.695000", "110714.155000", "110714.615000", "110715.075000", "110715.535000", "110715.995000", "110716.455000", "110716.915000", "110717.375000", "110717.835000", "110718.295000", "110718.755000", "110719.215000", "110719.675000", "110720.135000", "110720.595000", "110721.055000", "110721.515000", "110721.975000", "110722.435000", "110722.895000", "110723.355000", "110723.815000", "110724.275000", "110724.735000", "110725.195000", "110725.655000", "110726.115000", "110726.575000", "110727.035000", "110727.495000", "110727.955000", "110728.415000", "110728.875000", "110729.335000", "110729.795000", "110730.255000", "110730.715000", "110731.175000", "110731.635000", "110732.095000", "110732.555000", "110733.015000", "110733.475000", "110733.935000", "110734.395000", "110734.855000", "110735.315000", "110735.775000", "110736.235000", "110736.695000", "110737.155000", "110737.615000", "110738.075000", "110738.535000", "110738.995000", "110739.455000", "110739.915000", "110740.375000", "110740.835000", "110741.295000", "110741.755000", "110742.215000", "110742.675000", "110743.135000", "110743.595000", "110744.055000", "110744.515000", "110744.975000", "110745.435000", "110745.895000", "110746.355000", "110746.815000", "110747.275000", "110747.735000", "110748.195000", "110748.655000", "110749.115000", "110749.575000", "110750.035000", "110750.495000", "110750.955000", "110751.415000", "110751.875000"],
