{
  "AcquisitionMatrixPE": 82,
  "AcquisitionNumber": 1,
  "AcquisitionTime": "11:08:7.327500",
  "BandwidthPerPixelPhaseEncode": 24.888,
  "BaseResolution": 82,
  "BodyPartExamined": "BRAIN",
  "ConsistencyInfo": "N4_VE11E_LATEST_20181129",
  "ConversionSoftware": "dcm2niix",
  "ConversionSoftwareVersion": "v1.0.20201102",
  "DerivedVendorReportedEchoSpacing": 0.00049,
  "DeviceSerialNumber": "66112",
  "DwellTime": 2e-06,
  "EchoTime": 0.0272,
  "EchoTrainLength": 82,
  "EffectiveEchoSpacing": 0.00049,
  "FlipAngle": 44,
  "ImageComments": "Unaliased MB8/PE3",
  "ImageOrientationPatientDICOM": [0.999729, -0.0132208, 0.0191457, 0.0129127, 0.999786, 0.0161323],
  "ImageType": [
    "ORIGINAL",
    "PRIMARY",
    "M",
    "MB",
    "ND",
    "NORM",
    "MOSAIC"
],
  "ImagingFrequency": 123.252,
  "InPlanePhaseEncodingDirectionDICOM": "COL",
  "InstitutionAddress": "Maynard 3,Hanover,NH,US,03755",
  "InstitutionName": "Dartmouth College - PBS",
  "InstitutionalDepartmentName": "Department",
  "MRAcquisitionType": "2D",
  "MagneticFieldStrength": 3,
  "Manufacturer": "Siemens",
  "ManufacturersModelName": "Prisma",
  "Modality": "MR",
  "MultibandAccelerationFactor": 8,
  "PartialFourier": 1,
  "PatientPosition": "HFS",
  "PercentPhaseFOV": 100,
  "PercentSampling": 100,
  "PhaseEncodingDirection": "j-",
  "PhaseEncodingSteps": 82,
  "PhaseResolution": 1,
  "PixelBandwidth": 3050,
  "ProcedureStepDescription": "Wager_Wager^1076_spacetop",
  "ProtocolName": "func_run-02_task-social_acq-ap-mb8",
  "PulseSequenceDetails": "%CustomerSeq%\\cmrr_mbep2d_bold",
  "ReceiveCoilActiveElements": "HEA;HEP",
  "ReceiveCoilName": "Head_32",
  "ReconMatrixPE": 82,
  "RepetitionTime": 0.46,
  "SAR": 0.0969841,
  "ScanOptions": "FS",
  "ScanningSequence": "EP",
  "SequenceName": "epfid2d1_82",
  "SequenceVariant": "SK\\SS",
  "SeriesDescription": "func_run-02_task-social_acq-ap-mb8",
  "SeriesNumber": 10,
  "ShimSetting": [4166, -7803, -7239, 643, -1, -548, 399, 76],
  "SliceThickness": 2.7,
  "SliceTiming": [0, 0.2525, 0.0625, 0.315, 0.125, 0.3775, 0.19, 0, 0.2525, 0.0625, 0.315, 0.125, 0.3775, 0.19, 0, 0.2525, 0.0625, 0.315, 0.125, 0.3775, 0.19, 0, 0.2525, 0.0625, 0.315, 0.125, 0.3775, 0.19, 0, 0.2525, 0.0625, 0.315, 0.125, 0.3775, 0.19, 0, 0.2525, 0.0625, 0.315, 0.125, 0.3775, 0.19, 0, 0.2525, 0.0625, 0.315, 0.125, 0.3775, 0.19, 0, 0.2525, 0.0625, 0.315, 0.125, 0.3775, 0.19],
  "SoftwareVersions": "syngo MR E11",
  "SpacingBetweenSlices": 2.7,
  "StationName": "AWP66112",
  "TaskName": "social",
  "TotalReadoutTime": 0.03969,
  "TxRefAmp": 246.355,
  "WipMemBlock": "e29d6869-6970-4167-be68-29e95c88a540||Sequence: R016 ve11e/master r/434b28f1; Aug  7 2019 18:53:46 by eja",
  "dcmmeta_affine": [
    [-2.6822006702423096, 0.03464370593428612, 0.052258171141147614, 108.09440612792969],
    [0.03547056019306183, 2.682353973388672, 0.042878009378910065, -90.33792877197266],
    [0.051366470754146576, -0.04328187182545662, 2.6991536617279053, -57.19270706176758],
    [0.0, 0.0, 0.0, 1.0]
],
  "dcmmeta_reorient_transform": [
    [0.0, -1.0, 0.0, 81.0],
    [1.0, 0.0, 0.0, 0.0],
    [0.0, 0.0, 1.0, 0.0],
    [0.0, 0.0, 0.0, 1.0]
],
  "dcmmeta_shape": [82, 82, 56, 872],
  "dcmmeta_slice_dim": 2,
  "dcmmeta_version": 0.6,
  "global": {
    "const": {
      "AccessionNumber": "A003994",
      "AcquisitionMatrix": [82, 0, 0, 82],
      "AngioFlag": "N",
      "BitsAllocated": 16,
      "BitsStored": 16,
      "BodyPartExamined": "BRAIN",
      "Columns": 656,
      "EchoNumbers": 1,
      "EchoTime": 27.2,
      "EchoTrainLength": 82,
      "FlipAngle": 44.0,
      "HighBit": 15,
      "ImageOrientationPatient": [0.99972928938709, -0.0132208449629, 0.01914568358814, 0.01291265312846, 0.99978648281084, 0.01613233330663],
      "ImagePositionPatient": [-890.63486398242, -886.5883082808, -87.862610624651],
      "ImageType": [
        "ORIGINAL",
        "PRIMARY",
        "M",
        "MB",
        "ND",
        "NORM",
        "MOSAIC"
],
      "ImagedNucleus": "1H",
      "ImagingFrequency": 123.252182,
      "InPlanePhaseEncodingDirection": "COL",
      "MRAcquisitionType": "2D",
      "MagneticFieldStrength": 3.0,
      "Manufacturer": "SIEMENS",
      "ManufacturerModelName": "Prisma",
      "Modality": "MR",
      "NumberOfAverages": 1.0,
      "NumberOfPhaseEncodingSteps": 82,
      "PercentPhaseFieldOfView": 100.0,
      "PercentSampling": 100.0,
      "PerformedProcedureStepStartTime": "104647.311000",
      "PhotometricInterpretation": "MONOCHROME2",
      "PixelBandwidth": 3050.0,
      "PixelRepresentation": 0,
      "PixelSpacing": [2.6829268932343, 2.6829268932343],
      "ProtocolName": "func_run-02_task-social_acq-ap-mb8",
      "RepetitionTime": 460.0,
      "Rows": 656,
      "SAR": 0.09698414369763,
      "SamplesPerPixel": 1,
      "ScanOptions": "FS",
      "ScanningSequence": "EP",
      "SequenceName": "epfid2d1_82",
      "SequenceVariant": [
        "SK",
        "SS"
],
      "SeriesDescription": "func_run-02_task-social_acq-ap-mb8",
      "SeriesNumber": 10,
      "SeriesTime": "110829.634000",
      "SliceLocation": -56.517257528742,
      "SliceThickness": 2.7000000476837,
      "SmallestImagePixelValue": 0,
      "SoftwareVersions": "syngo MR E11",
      "SpacingBetweenSlices": 2.7000000171414,
      "SpecificCharacterSet": "ISO_IR 100",
      "StudyID": "3",
      "StudyTime": "104647.259000",
      "TransmitCoilName": "Body",
      "VariableFlipAngleFlag": "N",
      "WindowCenterWidthExplanation": "Algo1"
    },
    "slices": {}
  },
  "time": {
    "samples": {
      "AcquisitionNumber": [1, 2, 3, 4, 5, 6, 7, 8, 9, 10, 11, 12, 13, 14, 15, 16, 17, 18, 19, 20, 21, 22, 23, 24, 25, 26, 27, 28, 29, 30, 31, 32, 33, 34, 35, 36, 37, 38, 39, 40, 41, 42, 43, 44, 45, 46, 47, 48, 49, 50, 51, 52, 53, 54, 55, 56, 57, 58, 59, 60, 61, 62, 63, 64, 65, 66, 67, 68, 69, 70, 71, 72, 73, 74, 75, 76, 77, 78, 79, 80, 81, 82, 83, 84, 85, 86, 87, 88, 89, 90, 91, 92, 93, 94, 95, 96, 97, 98, 99, 100, 101, 102, 103, 104, 105, 106, 107, 108, 109, 110, 111, 112, 113, 114, 115, 116, 117, 118, 119, 120, 121, 122, 123, 124, 125, 126, 127, 128, 129, 130, 131, 132, 133, 134, 135, 136, 137, 138, 139, 140, 141, 142, 143, 144, 145, 146, 147, 148, 149, 150, 151, 152, 153, 154, 155, 156, 157, 158, 159, 160, 161, 162, 163, 164, 165, 166, 167, 168, 169, 170, 171, 172, 173, 174, 175, 176, 177, 178, 179, 180, 181, 182, 183, 184, 185, 186, 187, 188, 189, 190, 191, 192, 193, 194, 195, 196, 197, 198, 199, 200, 201, 202, 203, 204, 205, 206, 207, 208, 209, 210, 211, 212, 213, 214, 215, 216, 217, 218, 219, 220, 221, 222, 223, 224, 225, 226, 227, 228, 229, 230, 231, 232, 233, 234, 235, 236, 237, 238, 239, 240, 241, 242, 243, 244, 245, 246, 247, 248, 249, 250, 251, 252, 253, 254, 255, 256, 257, 258, 259, 260, 261, 262, 263, 264, 265, 266, 267, 268, 269, 270, 271, 272, 273, 274, 275, 276, 277, 278, 279, 280, 281, 282, 283, 284, 285, 286, 287, 288, 289, 290, 291, 292, 293, 294, 295, 296, 297, 298, 299, 300, 301, 302, 303, 304, 305, 306, 307, 308, 309, 310, 311, 312, 313, 314, 315, 316, 317, 318, 319, 320, 321, 322, 323, 324, 325, 326, 327, 328, 329, 330, 331, 332, 333, 334, 335, 336, 337, 338, 339, 340, 341, 342, 343, 344, 345, 346, 347, 348, 349, 350, 351, 352, 353, 354, 355, 356, 357, 358, 359, 360, 361, 362, 363, 364, 365, 366, 367, 368, 369, 370, 371, 372, 373, 374, 375, 376, 377, 378, 379, 380, 381, 382, 383, 384, 385, 386, 387, 388, 389, 390, 391, 392, 393, 394, 395, 396, 397, 398, 399, 400, 401, 402, 403, 404, 405, 406, 407, 408, 409, 410, 411, 412, 413, 414, 415, 416, 417, 418, 419, 420, 421, 422, 423, 424, 425, 426, 427, 428, 429, 430, 431, 432, 433, 434, 435, 436, 437, 438, 439, 440, 441, 442, 443, 444, 445, 446, 447, 448, 449, 450, 451, 452, 453, 454, 455, 456, 457, 458, 459, 460, 461, 462, 463, 464, 465, 466, 467, 468, 469, 470, 471, 472, 473, 474, 475, 476, 477, 478, 479, 480, 481, 482, 483, 484, 485, 486, 487, 488, 489, 490, 491, 492, 493, 494, 495, 496, 497, 498, 499, 500, 501, 502, 503, 504, 505, 506, 507, 508, 509, 510, 511, 512, 513, 514, 515, 516, 517, 518, 519, 520, 521, 522, 523, 524, 525, 526, 527, 528, 529, 530, 531, 532, 533, 534, 535, 536, 537, 538, 539, 540, 541, 542, 543, 544, 545, 546, 547, 548, 549, 550, 551, 552, 553, 554, 555, 556, 557, 558, 559, 560, 561, 562, 563, 564, 565, 566, 567, 568, 569, 570, 571, 572, 573, 574, 575, 576, 577, 578, 579, 580, 581, 582, 583, 584, 585, 586, 587, 588, 589, 590, 591, 592, 593, 594, 595, 596, 597, 598, 599, 600, 601, 602, 603, 604, 605, 606, 607, 608, 609, 610, 611, 612, 613, 614, 615, 616, 617, 618, 619, 620, 621, 622, 623, 624, 625, 626, 627, 628, 629, 630, 631, 632, 633, 634, 635, 636, 637, 638, 639, 640, 641, 642, 643, 644, 645, 646, 647, 648, 649, 650, 651, 652, 653, 654, 655, 656, 657, 658, 659, 660, 661, 662, 663, 664, 665, 666, 667, 668, 669, 670, 671, 672, 673, 674, 675, 676, 677, 678, 679, 680, 681, 682, 683, 684, 685, 686, 687, 688, 689, 690, 691, 692, 693, 694, 695, 696, 697, 698, 699, 700, 701, 702, 703, 704, 705, 706, 707, 708, 709, 710, 711, 712, 713, 714, 715, 716, 717, 718, 719, 720, 721, 722, 723, 724, 725, 726, 727, 728, 729, 730, 731, 732, 733, 734, 735, 736, 737, 738, 739, 740, 741, 742, 743, 744, 745, 746, 747, 748, 749, 750, 751, 752, 753, 754, 755, 756, 757, 758, 759, 760, 761, 762, 763, 764, 765, 766, 767, 768, 769, 770, 771, 772, 773, 774, 775, 776, 777, 778, 779, 780, 781, 782, 783, 784, 785, 786, 787, 788, 789, 790, 791, 792, 793, 794, 795, 796, 797, 798, 799, 800, 801, 802, 803, 804, 805, 806, 807, 808, 809, 810, 811, 812, 813, 814, 815, 816, 817, 818, 819, 820, 821, 822, 823, 824, 825, 826, 827, 828, 829, 830, 831, 832, 833, 834, 835, 836, 837, 838, 839, 840, 841, 842, 843, 844, 845, 846, 847, 848, 849, 850, 851, 852, 853, 854, 855, 856, 857, 858, 859, 860, 861, 862, 863, 864, 865, 866, 867, 868, 869, 870, 871, 872],
      "AcquisitionTime": ["110807.327500", "110807.787500", "110808.247500", "110808.707500", "110809.167500", "110809.627500", "110810.087500", "110810.547500", "110811.007500", "110811.467500", "110811.927500", "110812.387500", "110812.847500", "110813.307500", "110813.767500", "110814.227500", "110814.687500", "110815.147500", "110815.607500", "110816.067500", "110816.527500", "110816.987500", "110817.447500", "110817.907500", "110818.367500", "110818.827500", "110819.287500", "110819.747500", "110820.207500", "110820.667500", "110821.127500", "110821.587500", "110822.047500", "110822.507500", "110822.967500", "110823.427500", "110823.887500", "110824.347500", "110824.807500", "110825.267500", "110825.727500", "110826.187500", "110826.647500", "110827.107500", "110827.567500", "110828.027500", "110828.487500", "110828.947500", "110829.407500", "110829.867500", "110830.327500", "110830.787500", "110831.247500", "110831.707500", "110832.167500", "110832.627500", "110833.087500", "110833.547500", "110834.007500", "110834.467500", "110834.927500", "110835.387500", "110835.847500", "110836.307500", "110836.767500", "110837.227500", "110837.687500", "110838.147500", "110838.607500", "110839.067500", "110839.527500", "110839.987500", "110840.447500", "110840.907500", "110841.367500", "110841.827500", "110842.287500", "110842.747500", "110843.207500", "110843.667500", "110844.127500", "110844.587500", "110845.047500", "110845.507500", "110845.967500", "110846.427500", "110846.887500", "110847.347500", "110847.807500", "110848.267500", "110848.727500", "110849.187500", "110849.647500", "110850.107500", "110850.567500", "110851.027500", "110851.487500", "110851.947500", "110852.407500", "110852.867500", "110853.327500", "110853.787500", "110854.247500", "110854.707500", "110855.167500", "110855.627500", "110856.087500", "110856.547500", "110857.007500", "110857.467500", "110857.927500", "110858.387500", "110858.847500", "110859.307500", "110859.767500", "110900.227500", "110900.687500", "110901.147500", "110901.607500", "110902.067500", "110902.527500", "110902.987500", "110903.447500", "110903.907500", "110904.367500", "110904.827500", "110905.287500", "110905.747500", "110906.207500", "110906.667500", "110907.127500", "110907.587500", "110908.047500", "110908.507500", "110908.967500", "110909.427500", "110909.887500", "110910.347500", "110910.807500", "110911.267500", "110911.727500", "110912.187500", "110912.647500", "110913.107500", "110913.567500", "110914.027500", "110914.487500", "110914.947500", "110915.407500", "110915.867500", "110916.327500", "110916.787500", "110917.247500", "110917.707500", "110918.167500", "110918.627500", "110919.087500", "110919.547500", "110920.007500", "110920.467500", "110920.927500", "110921.387500", "110921.847500", "110922.307500", "110922.767500", "110923.227500", "110923.687500", "110924.147500", "110924.607500", "110925.067500", "110925.527500", "110925.987500", "110926.447500", "110926.907500", "110927.367500", "110927.827500", "110928.287500", "110928.747500", "110929.207500", "110929.667500", "110930.127500", "110930.587500", "110931.047500", "110931.507500", "110931.967500", "110932.427500", "110932.887500", "110933.347500", "110933.807500", "110934.267500", "110934.727500", "110935.187500", "110935.647500", "110936.107500", "110936.567500", "110937.027500", "110937.487500", "110937.947500", "110938.407500", "110938.867500", "110939.327500", "110939.787500", "110940.247500", "110940.707500", "110941.167500", "110941.627500", "110942.087500", "110942.547500", "110943.007500", "110943.467500", "110943.927500", "110944.387500", "110944.847500", "110945.307500", "110945.767500", "110946.227500", "110946.687500", "110947.147500", "110947.607500", "110948.067500", "110948.527500", "110948.987500", "110949.447500", "110949.907500", "110950.367500", "110950.827500", "110951.287500", "110951.747500", "110952.207500", "110952.667500", "110953.127500", "110953.587500", "110954.047500", "110954.507500", "110954.967500", "110955.427500", "110955.887500", "110956.347500", "110956.807500", "110957.267500", "110957.727500", "110958.187500", "110958.647500", "110959.107500", "110959.567500", "111000.027500", "111000.487500", "111000.947500", "111001.407500", "111001.867500", "111002.327500", "111002.787500", "111003.247500", "111003.707500", "111004.167500", "111004.627500", "111005.087500", "111005.547500", "111006.007500", "111006.467500", "111006.927500", "111007.387500", "111007.847500", "111008.307500", "111008.767500", "111009.227500", "111009.687500", "111010.147500", "111010.607500", "111011.067500", "111011.527500", "111011.987500", "111012.447500", "111012.907500", "111013.367500", "111013.827500", "111014.287500", "111014.747500", "111015.207500", "111015.667500", "111016.127500", "111016.587500", "111017.047500", "111017.507500", "111017.967500", "111018.427500", "111018.887500", "111019.347500", "111019.807500", "111020.267500", "111020.727500", "111021.187500", "111021.647500", "111022.107500", "111022.567500", "111023.027500", "111023.487500", "111023.947500", "111024.407500", "111024.867500", "111025.327500", "111025.787500", "111026.247500", "111026.707500", "111027.167500", "111027.627500", "111028.087500", "111028.547500", "111029.007500", "111029.467500", "111029.927500", "111030.387500", "111030.847500", "111031.307500", "111031.767500", "111032.227500", "111032.687500", "111033.147500", "111033.607500", "111034.067500", "111034.527500", "111034.987500", "111035.447500", "111035.907500", "111036.367500", "111036.827500", "111037.287500", "111037.747500", "111038.207500", "111038.667500", "111039.127500", "111039.587500", "111040.047500", "111040.507500", "111040.967500", "111041.427500", "111041.887500", "111042.347500", "111042.807500", "111043.267500", "111043.727500", "111044.187500", "111044.647500", "111045.107500", "111045.567500", "111046.027500", "111046.487500", "111046.947500", "111047.407500", "111047.867500", "111048.327500", "111048.787500", "111049.247500", "111049.707500", "111050.167500", "111050.627500", "111051.087500", "111051.547500", "111052.007500", "111052.467500", "111052.927500", "111053.387500", "111053.847500", "111054.307500", "111054.767500", "111055.227500", "111055.687500", "111056.147500", "111056.607500", "111057.067500", "111057.527500", "111057.987500", "111058.447500", "111058.907500", "111059.367500", "111059.827500", "111100.287500", "111100.747500", "111101.207500", "111101.667500", "111102.127500", "111102.587500", "111103.047500", "111103.507500", "111103.967500", "111104.427500", "111104.887500", "111105.347500", "111105.807500", "111106.267500", "111106.727500", "111107.187500", "111107.647500", "111108.107500", "111108.567500", "111109.027500", "111109.487500", "111109.947500", "111110.407500", "111110.867500", "111111.327500", "111111.787500", "111112.247500", "111112.707500", "111113.167500", "111113.627500", "111114.087500", "111114.547500", "111115.007500", "111115.467500", "111115.927500", "111116.387500", "111116.847500", "111117.307500", "111117.767500", "111118.227500", "111118.687500", "111119.147500", "111119.607500", "111120.067500", "111120.527500", "111120.987500", "111121.447500", "111121.907500", "111122.367500", "111122.827500", "111123.287500", "111123.747500", "111124.207500", "111124.667500", "111125.127500", "111125.587500", "111126.047500", "111126.507500", "111126.967500", "111127.427500", "111127.887500", "111128.347500", "111128.807500", "111129.267500", "111129.727500", "111130.187500", "111130.647500", "111131.107500", "111131.567500", "111132.027500", "111132.487500", "111132.947500", "111133.407500", "111133.867500", "111134.327500", "111134.787500", "111135.247500", "111135.707500", "111136.167500", "111136.627500", "111137.087500", "111137.547500", "111138.007500", "111138.467500", "111138.927500", "111139.387500", "111139.847500", "111140.307500", "111140.767500", "111141.227500", "111141.687500", "111142.147500", "111142.607500", "111143.067500", "111143.527500", "111143.987500", "111144.447500", "111144.907500", "111145.367500", "111145.827500", "111146.287500", "111146.747500", "111147.207500", "111147.667500", "111148.127500", "111148.587500", "111149.047500", "111149.507500", "111149.967500", "111150.427500", "111150.887500", "111151.347500", "111151.807500", "111152.267500", "111152.727500", "111153.187500", "111153.647500", "111154.107500", "111154.567500", "111155.027500", "111155.487500", "111155.947500", "111156.407500", "111156.867500", "111157.327500", "111157.787500", "111158.247500", "111158.707500", "111159.167500", "111159.627500", "111200.087500", "111200.547500", "111201.007500", "111201.467500", "111201.927500", "111202.387500", "111202.847500", "111203.307500", "111203.767500", "111204.227500", "111204.687500", "111205.147500", "111205.607500", "111206.067500", "111206.527500", "111206.987500", "111207.447500", "111207.907500", "111208.367500", "111208.827500", "111209.287500", "111209.747500", "111210.207500", "111210.667500", "111211.127500", "111211.587500", "111212.047500", "111212.507500", "111212.967500", "111213.427500", "111213.887500", "111214.347500", "111214.807500", "111215.267500", "111215.727500", "111216.187500", "111216.647500", "111217.107500", "111217.567500", "111218.027500", "111218.487500", "111218.947500", "111219.407500", "111219.867500", "111220.327500", "111220.787500", "111221.247500", "111221.707500", "111222.167500", "111222.627500", "111223.087500", "111223.547500", "111224.007500", "111224.467500", "111224.927500", "111225.387500", "111225.847500", "111226.307500", "111226.767500", "111227.227500", "111227.687500", "111228.147500", "111228.607500", "111229.067500", "111229.527500", "111229.987500", "111230.447500", "111230.907500", "111231.367500", "111231.827500", "111232.287500", "111232.747500", "111233.207500", "111233.667500", "111234.127500", "111234.587500", "111235.047500", "111235.507500", "111235.967500", "111236.427500", "111236.887500", "111237.347500", "111237.807500", "111238.267500", "111238.727500", "111239.187500", "111239.647500", "111240.107500", "111240.567500", "111241.027500", "111241.487500", "111241.947500", "111242.407500", "111242.867500", "111243.327500", "111243.787500", "111244.247500", "111244.707500", "111245.167500", "111245.627500", "111246.087500", "111246.547500", "111247.007500", "111247.467500", "111247.927500", "111248.387500", "111248.847500", "111249.307500", "111249.767500", "111250.227500", "111250.687500", "111251.147500", "111251.607500", "111252.067500", "111252.527500", "111252.987500", "111253.447500", "111253.907500", "111254.367500", "111254.827500", "111255.287500", "111255.747500", "111256.207500", "111256.667500", "111257.127500", "111257.587500", "111258.047500", "111258.507500", "111258.967500", "111259.427500", "111259.887500", "111300.347500", "111300.807500", "111301.267500", "111301.727500", "111302.187500", "111302.647500", "111303.107500", "111303.567500", "111304.027500", "111304.487500", "111304.947500", "111305.407500", "111305.867500", "111306.327500", "111306.787500", "111307.247500", "111307.707500", "111308.167500", "111308.627500", "111309.087500", "111309.547500", "111310.007500", "111310.467500", "111310.927500", "111311.387500", "111311.847500", "111312.307500", "111312.767500", "111313.227500", "111313.687500", "111314.147500", "111314.607500", "111315.067500", "111315.527500", "111315.987500", "111316.447500", "111316.907500", "111317.367500", "111317.827500", "111318.287500", "111318.747500", "111319.207500", "111319.667500", "111320.127500", "111320.587500", "111321.047500", "111321.507500", "111321.967500", "111322.427500", "111322.887500", "111323.347500", "111323.807500", "111324.267500", "111324.727500", "111325.187500", "111325.647500", "111326.107500", "111326.567500", "111327.027500", "111327.487500", "111327.947500", "111328.407500", "111328.867500", "111329.327500", "111329.787500", "111330.247500", "111330.707500", "111331.167500", "111331.627500", "111332.087500", "111332.547500", "111333.007500", "111333.467500", "111333.927500", "111334.387500", "111334.847500", "111335.307500", "111335.767500", "111336.227500", "111336.687500", "111337.147500", "111337.607500", "111338.067500", "111338.527500", "111338.987500", "111339.447500", "111339.907500", "111340.367500", "111340.827500", "111341.287500", "111341.747500", "111342.207500", "111342.667500", "111343.127500", "111343.587500", "111344.047500", "111344.507500", "111344.967500", "111345.427500", "111345.887500", "111346.347500", "111346.807500", "111347.267500", "111347.727500", "111348.187500", "111348.647500", "111349.107500", "111349.567500", "111350.027500", "111350.487500", "111350.947500", "111351.407500", "111351.867500", "111352.327500", "111352.787500", "111353.247500", "111353.707500", "111354.167500", "111354.627500", "111355.087500", "111355.547500", "111356.007500", "111356.467500", "111356.927500", "111357.387500", "111357.847500", "111358.307500", "111358.767500", "111359.227500", "111359.687500", "111400.147500", "111400.607500", "111401.067500", "111401.527500", "111401.987500", "111402.447500", "111402.907500", "111403.367500", "111403.827500", "111404.287500", "111404.747500", "111405.207500", "111405.667500", "111406.127500", "111406.587500", "111407.047500", "111407.507500", "111407.967500", "111408.427500", "111408.887500", "111409.347500", "111409.807500", "111410.267500", "111410.727500", "111411.187500", "111411.647500", "111412.107500", "111412.567500", "111413.027500", "111413.487500", "111413.947500", "111414.407500", "111414.867500", "111415.327500", "111415.787500", "111416.247500", "111416.707500", "111417.167500", "111417.627500", "111418.087500", "111418.547500", "111419.007500", "111419.467500", "111419.927500", "111420.387500", "111420.847500", "111421.307500", "111421.767500", "111422.227500", "111422.687500", "111423.147500", "111423.607500", "111424.067500", "111424.527500", "111424.987500", "111425.447500", "111425.907500", "111426.367500", "111426.827500", "111427.287500", "111427.747500", "111428.207500", "111428.667500", "111429.127500", "111429.587500", "111430.047500", "111430.507500", "111430.967500", "111431.427500", "111431.887500", "111432.347500", "111432.807500", "111433.267500", "111433.727500", "111434.187500", "111434.647500", "111435.107500", "111435.567500", "111436.027500", "111436.487500", "111436.947500", "111437.407500", "111437.867500", "111438.327500", "111438.787500", "111439.247500", "111439.707500", "111440.167500", "111440.627500", "111441.087500", "111441.547500", "111442.007500", "111442.467500", "111442.927500", "111443.387500", "111443.847500", "111444.307500", "111444.767500", "111445.227500", "111445.687500", "111446.147500", "111446.607500", "111447.067500", "111447.527500", "111447.987500"],
