{
  "AcquisitionMatrixPE": 82,
  "AcquisitionNumber": 1,
  "AcquisitionTime": "13:43:9.117500",
  "BandwidthPerPixelPhaseEncode": 24.888,
  "BaseResolution": 82,
  "BodyPartExamined": "BRAIN",
  "ConsistencyInfo": "N4_VE11E_LATEST_20181129",
  "ConversionSoftware": "dcm2niix",
  "ConversionSoftwareVersion": "v1.0.20201102",
  "DerivedVendorReportedEchoSpacing": 0.00049,
  "DeviceSerialNumber": "66112",
  "DwellTime": 2e-06,
  "EchoTime": 0.0272,
  "EchoTrainLength": 82,
  "EffectiveEchoSpacing": 0.00049,
  "FlipAngle": 44,
  "ImageComments": "Unaliased MB8/PE3",
  "ImageOrientationPatientDICOM": [0.996934, -0.0737797, 0.0260453, 0.0690131, 0.986034, 0.151573],
  "ImageType": [
    "ORIGINAL",
    "PRIMARY",
    "M",
    "MB",
    "ND",
    "NORM",
    "MOSAIC"
],
  "ImagingFrequency": 123.259,
  "InPlanePhaseEncodingDirectionDICOM": "COL",
  "InstitutionAddress": "Maynard 3,Hanover,NH,US,03755",
  "InstitutionName": "Dartmouth College - PBS",
  "InstitutionalDepartmentName": "Department",
  "MRAcquisitionType": "2D",
  "MagneticFieldStrength": 3,
  "Manufacturer": "Siemens",
  "ManufacturersModelName": "Prisma",
  "Modality": "MR",
  "MultibandAccelerationFactor": 8,
  "PartialFourier": 1,
  "PatientPosition": "HFS",
  "PercentPhaseFOV": 100,
  "PercentSampling": 100,
  "PhaseEncodingDirection": "j-",
  "PhaseEncodingSteps": 82,
  "PhaseResolution": 1,
  "PixelBandwidth": 3050,
  "ProcedureStepDescription": "Wager_Wager^1076_spacetop",
  "ProtocolName": "func_run-01_task-alignvideo_acq-ap-mb8",
  "PulseSequenceDetails": "%CustomerSeq%\\cmrr_mbep2d_bold",
  "ReceiveCoilActiveElements": "HEA;HEP",
  "ReceiveCoilName": "Head_32",
  "ReconMatrixPE": 82,
  "RepetitionTime": 0.46,
  "SAR": 0.0942753,
  "ScanOptions": "FS",
  "ScanningSequence": "EP",
  "SequenceName": "epfid2d1_82",
  "SequenceVariant": "SK\\SS",
  "SeriesDescription": "func_run-01_task-alignvideo_acq-ap-mb8",
  "SeriesNumber": 30,
  "ShimSetting": [4209, -7769, -7207, 321, -168, 7, 104, 101],
  "SliceThickness": 2.7,
  "SliceTiming": [0, 0.25, 0.0625, 0.3125, 0.125, 0.375, 0.1875, 0, 0.25, 0.0625, 0.3125, 0.125, 0.375, 0.1875, 0, 0.25, 0.0625, 0.3125, 0.125, 0.375, 0.1875, 0, 0.25, 0.0625, 0.3125, 0.125, 0.375, 0.1875, 0, 0.25, 0.0625, 0.3125, 0.125, 0.375, 0.1875, 0, 0.25, 0.0625, 0.3125, 0.125, 0.375, 0.1875, 0, 0.25, 0.0625, 0.3125, 0.125, 0.375, 0.1875, 0, 0.25, 0.0625, 0.3125, 0.125, 0.375, 0.1875],
  "SoftwareVersions": "syngo MR E11",
  "SpacingBetweenSlices": 2.7,
  "StationName": "AWP66112",
  "TaskName": "alignvideo",
  "TotalReadoutTime": 0.03969,
  "TxRefAmp": 239.66,
  "WipMemBlock": "f3de7811-86b7-429c-9552-70efbb583918||Sequence: R016 ve11e/master r/434b28f1; Aug  7 2019 18:53:46 by eja",
  "dcmmeta_affine": [
    [-2.6747021675109863, 0.18515704572200775, 0.09953425079584122, 101.74801635742188],
    [0.1979454904794693, 2.6454570293426514, 0.40313848853111267, -117.55574798583984],
    [0.06987764686346054, -0.406658411026001, 2.6678779125213623, -44.699974060058594],
    [0.0, 0.0, 0.0, 1.0]
],
  "dcmmeta_reorient_transform": [
    [0.0, -1.0, 0.0, 81.0],
    [1.0, 0.0, 0.0, 0.0],
    [0.0, 0.0, 1.0, 0.0],
    [0.0, 0.0, 0.0, 1.0]
],
  "dcmmeta_shape": [82, 82, 56, 1073],
  "dcmmeta_slice_dim": 2,
  "dcmmeta_version": 0.6,
  "global": {
    "const": {
      "AccessionNumber": "A004541",
      "AcquisitionMatrix": [82, 0, 0, 82],
      "AngioFlag": "N",
      "BitsAllocated": 16,
      "BitsStored": 16,
      "BodyPartExamined": "BRAIN",
      "Columns": 656,
      "EchoNumbers": 1,
      "EchoTime": 27.2,
      "EchoTrainLength": 82,
      "FlipAngle": 44.0,
      "HighBit": 15,
      "ImageOrientationPatient": [0.99693440142273, -0.0737796812488, 0.02604530465794, 0.06901307932172, 0.98603393431945, 0.15157267317377],
      "ImagePositionPatient": [-937.5253155724, -799.16205702523, -214.40515020725],
      "ImageType": [
        "ORIGINAL",
        "PRIMARY",
        "M",
        "MB",
        "ND",
        "NORM",
        "MOSAIC"
],
      "ImagedNucleus": "1H",
      "ImagingFrequency": 123.259055,
      "InPlanePhaseEncodingDirection": "COL",
      "MRAcquisitionType": "2D",
      "MagneticFieldStrength": 3.0,
      "Manufacturer": "SIEMENS",
      "ManufacturerModelName": "Prisma",
      "Modality": "MR",
      "NumberOfAverages": 1.0,
      "NumberOfPhaseEncodingSteps": 82,
      "PercentPhaseFieldOfView": 100.0,
      "PercentSampling": 100.0,
      "PerformedProcedureStepStartTime": "122755.024000",
      "PhotometricInterpretation": "MONOCHROME2",
      "PixelBandwidth": 3050.0,
      "PixelRepresentation": 0,
      "PixelSpacing": [2.6829268932343, 2.6829268932343],
      "ProtocolName": "func_run-01_task-alignvideo_acq-ap-mb8",
      "RepetitionTime": 460.0,
      "Rows": 656,
      "SAR": 0.09427527203828,
      "SamplesPerPixel": 1,
      "ScanOptions": "FS",
      "ScanningSequence": "EP",
      "SequenceName": "epfid2d1_82",
      "SequenceVariant": [
        "SK",
        "SS"
],
      "SeriesDescription": "func_run-01_task-alignvideo_acq-ap-mb8",
      "SeriesNumber": 30,
      "SeriesTime": "134331.835000",
      "SliceLocation": -57.96959342885,
      "SliceThickness": 2.7000000476837,
      "SmallestImagePixelValue": 0,
      "SoftwareVersions": "syngo MR E11",
      "SpacingBetweenSlices": 2.7000000243692,
      "SpecificCharacterSet": "ISO_IR 100",
      "StudyID": "1",
      "StudyTime": "122754.931000",
      "TransmitCoilName": "Body",
      "VariableFlipAngleFlag": "N",
      "WindowCenterWidthExplanation": "Algo1"
    },
    "slices": {}
  },
  "time": {
    "samples": {
      "AcquisitionNumber": [1, 2, 3, 4, 5, 6, 7, 8, 9, 10, 11, 12, 13, 14, 15, 16, 17, 18, 19, 20, 21, 22, 23, 24, 25, 26, 27, 28, 29, 30, 31, 32, 33, 34, 35, 36, 37, 38, 39, 40, 41, 42, 43, 44, 45, 46, 47, 48, 49, 50, 51, 52, 53, 54, 55, 56, 57, 58, 59, 60, 61, 62, 63, 64, 65, 66, 67, 68, 69, 70, 71, 72, 73, 74, 75, 76, 77, 78, 79, 80, 81, 82, 83, 84, 85, 86, 87, 88, 89, 90, 91, 92, 93, 94, 95, 96, 97, 98, 99, 100, 101, 102, 103, 104, 105, 106, 107, 108, 109, 110, 111, 112, 113, 114, 115, 116, 117, 118, 119, 120, 121, 122, 123, 124, 125, 126, 127, 128, 129, 130, 131, 132, 133, 134, 135, 136, 137, 138, 139, 140, 141, 142, 143, 144, 145, 146, 147, 148, 149, 150, 151, 152, 153, 154, 155, 156, 157, 158, 159, 160, 161, 162, 163, 164, 165, 166, 167, 168, 169, 170, 171, 172, 173, 174, 175, 176, 177, 178, 179, 180, 181, 182, 183, 184, 185, 186, 187, 188, 189, 190, 191, 192, 193, 194, 195, 196, 197, 198, 199, 200, 201, 202, 203, 204, 205, 206, 207, 208, 209, 210, 211, 212, 213, 214, 215, 216, 217, 218, 219, 220, 221, 222, 223, 224, 225, 226, 227, 228, 229, 230, 231, 232, 233, 234, 235, 236, 237, 238, 239, 240, 241, 242, 243, 244, 245, 246, 247, 248, 249, 250, 251, 252, 253, 254, 255, 256, 257, 258, 259, 260, 261, 262, 263, 264, 265, 266, 267, 268, 269, 270, 271, 272, 273, 274, 275, 276, 277, 278, 279, 280, 281, 282, 283, 284, 285, 286, 287, 288, 289, 290, 291, 292, 293, 294, 295, 296, 297, 298, 299, 300, 301, 302, 303, 304, 305, 306, 307, 308, 309, 310, 311, 312, 313, 314, 315, 316, 317, 318, 319, 320, 321, 322, 323, 324, 325, 326, 327, 328, 329, 330, 331, 332, 333, 334, 335, 336, 337, 338, 339, 340, 341, 342, 343, 344, 345, 346, 347, 348, 349, 350, 351, 352, 353, 354, 355, 356, 357, 358, 359, 360, 361, 362, 363, 364, 365, 366, 367, 368, 369, 370, 371, 372, 373, 374, 375, 376, 377, 378, 379, 380, 381, 382, 383, 384, 385, 386, 387, 388, 389, 390, 391, 392, 393, 394, 395, 396, 397, 398, 399, 400, 401, 402, 403, 404, 405, 406, 407, 408, 409, 410, 411, 412, 413, 414, 415, 416, 417, 418, 419, 420, 421, 422, 423, 424, 425, 426, 427, 428, 429, 430, 431, 432, 433, 434, 435, 436, 437, 438, 439, 440, 441, 442, 443, 444, 445, 446, 447, 448, 449, 450, 451, 452, 453, 454, 455, 456, 457, 458, 459, 460, 461, 462, 463, 464, 465, 466, 467, 468, 469, 470, 471, 472, 473, 474, 475, 476, 477, 478, 479, 480, 481, 482, 483, 484, 485, 486, 487, 488, 489, 490, 491, 492, 493, 494, 495, 496, 497, 498, 499, 500, 501, 502, 503, 504, 505, 506, 507, 508, 509, 510, 511, 512, 513, 514, 515, 516, 517, 518, 519, 520, 521, 522, 523, 524, 525, 526, 527, 528, 529, 530, 531, 532, 533, 534, 535, 536, 537, 538, 539, 540, 541, 542, 543, 544, 545, 546, 547, 548, 549, 550, 551, 552, 553, 554, 555, 556, 557, 558, 559, 560, 561, 562, 563, 564, 565, 566, 567, 568, 569, 570, 571, 572, 573, 574, 575, 576, 577, 578, 579, 580, 581, 582, 583, 584, 585, 586, 587, 588, 589, 590, 591, 592, 593, 594, 595, 596, 597, 598, 599, 600, 601, 602, 603, 604, 605, 606, 607, 608, 609, 610, 611, 612, 613, 614, 615, 616, 617, 618, 619, 620, 621, 622, 623, 624, 625, 626, 627, 628, 629, 630, 631, 632, 633, 634, 635, 636, 637, 638, 639, 640, 641, 642, 643, 644, 645, 646, 647, 648, 649, 650, 651, 652, 653, 654, 655, 656, 657, 658, 659, 660, 661, 662, 663, 664, 665, 666, 667, 668, 669, 670, 671, 672, 673, 674, 675, 676, 677, 678, 679, 680, 681, 682, 683, 684, 685, 686, 687, 688, 689, 690, 691, 692, 693, 694, 695, 696, 697, 698, 699, 700, 701, 702, 703, 704, 705, 706, 707, 708, 709, 710, 711, 712, 713, 714, 715, 716, 717, 718, 719, 720, 721, 722, 723, 724, 725, 726, 727, 728, 729, 730, 731, 732, 733, 734, 735, 736, 737, 738, 739, 740, 741, 742, 743, 744, 745, 746, 747, 748, 749, 750, 751, 752, 753, 754, 755, 756, 757, 758, 759, 760, 761, 762, 763, 764, 765, 766, 767, 768, 769, 770, 771, 772, 773, 774, 775, 776, 777, 778, 779, 780, 781, 782, 783, 784, 785, 786, 787, 788, 789, 790, 791, 792, 793, 794, 795, 796, 797, 798, 799, 800, 801, 802, 803, 804, 805, 806, 807, 808, 809, 810, 811, 812, 813, 814, 815, 816, 817, 818, 819, 820, 821, 822, 823, 824, 825, 826, 827, 828, 829, 830, 831, 832, 833, 834, 835, 836, 837, 838, 839, 840, 841, 842, 843, 844, 845, 846, 847, 848, 849, 850, 851, 852, 853, 854, 855, 856, 857, 858, 859, 860, 861, 862, 863, 864, 865, 866, 867, 868, 869, 870, 871, 872, 873, 874, 875, 876, 877, 878, 879, 880, 881, 882, 883, 884, 885, 886, 887, 888, 889, 890, 891, 892, 893, 894, 895, 896, 897, 898, 899, 900, 901, 902, 903, 904, 905, 906, 907, 908, 909, 910, 911, 912, 913, 914, 915, 916, 917, 918, 919, 920, 921, 922, 923, 924, 925, 926, 927, 928, 929, 930, 931, 932, 933, 934, 935, 936, 937, 938, 939, 940, 941, 942, 943, 944, 945, 946, 947, 948, 949, 950, 951, 952, 953, 954, 955, 956, 957, 958, 959, 960, 961, 962, 963, 964, 965, 966, 967, 968, 969, 970, 971, 972, 973, 974, 975, 976, 977, 978, 979, 980, 981, 982, 983, 984, 985, 986, 987, 988, 989, 990, 991, 992, 993, 994, 995, 996, 997, 998, 999, 1000, 1001, 1002, 1003, 1004, 1005, 1006, 1007, 1008, 1009, 1010, 1011, 1012, 1013, 1014, 1015, 1016, 1017, 1018, 1019, 1020, 1021, 1022, 1023, 1024, 1025, 1026, 1027, 1028, 1029, 1030, 1031, 1032, 1033, 1034, 1035, 1036, 1037, 1038, 1039, 1040, 1041, 1042, 1043, 1044, 1045, 1046, 1047, 1048, 1049, 1050, 1051, 1052, 1053, 1054, 1055, 1056, 1057, 1058, 1059, 1060, 1061, 1062, 1063, 1064, 1065, 1066, 1067, 1068, 1069, 1070, 1071, 1072, 1073],
      "AcquisitionTime": ["134309.117500", "134309.577500", "134310.037500", "134310.497500", "134310.957500", "134311.417500", "134311.877500", "134312.337500", "134312.797500", "134313.257500", "134313.717500", "134314.177500", "134314.637500", "134315.097500", "134315.557500", "134316.017500", "134316.477500", "134316.937500", "134317.397500", "134317.857500", "134318.317500", "134318.777500", "134319.237500", "134319.697500", "134320.157500", "134320.617500", "134321.077500", "134321.537500", "134321.997500", "134322.457500", "134322.917500", "134323.377500", "134323.837500", "134324.297500", "134324.757500", "134325.217500", "134325.677500", "134326.137500", "134326.597500", "134327.057500", "134327.517500", "134327.977500", "134328.437500", "134328.897500", "134329.357500", "134329.817500", "134330.277500", "134330.737500", "134331.197500", "134331.657500", "134332.117500", "134332.577500", "134333.037500", "134333.497500", "134333.957500", "134334.417500", "134334.877500", "134335.337500", "134335.797500", "134336.257500", "134336.717500", "134337.177500", "134337.637500", "134338.097500", "134338.557500", "134339.017500", "134339.477500", "134339.937500", "134340.397500", "134340.857500", "134341.317500", "134341.777500", "134342.237500", "134342.697500", "134343.157500", "134343.617500", "134344.077500", "134344.537500", "134344.997500", "134345.457500", "134345.917500", "134346.377500", "134346.837500", "134347.297500", "134347.757500", "134348.217500", "134348.677500", "134349.137500", "134349.597500", "134350.057500", "134350.517500", "134350.977500", "134351.437500", "134351.897500", "134352.357500", "134352.817500", "134353.277500", "134353.737500", "134354.197500", "134354.657500", "134355.117500", "134355.577500", "134356.037500", "134356.497500", "134356.957500", "134357.417500", "134357.877500", "134358.337500", "134358.797500", "134359.257500", "134359.717500", "134400.177500", "134400.637500", "134401.097500", "134401.557500", "134402.017500", "134402.477500", "134402.937500", "134403.397500", "134403.857500", "134404.317500", "134404.777500", "134405.237500", "134405.697500", "134406.157500", "134406.617500", "134407.077500", "134407.537500", "134407.997500", "134408.457500", "134408.917500", "134409.377500", "134409.837500", "134410.297500", "134410.757500", "134411.217500", "134411.677500", "134412.137500", "134412.597500", "134413.057500", "134413.517500", "134413.977500", "134414.437500", "134414.897500", "134415.357500", "134415.817500", "134416.277500", "134416.737500", "134417.197500", "134417.657500", "134418.117500", "134418.577500", "134419.037500", "134419.497500", "134419.957500", "134420.417500", "134420.877500", "134421.337500", "134421.797500", "134422.257500", "134422.717500", "134423.177500", "134423.637500", "134424.097500", "134424.557500", "134425.017500", "134425.477500", "134425.937500", "134426.397500", "134426.857500", "134427.317500", "134427.777500", "134428.237500", "134428.697500", "134429.157500", "134429.617500", "134430.077500", "134430.537500", "134430.997500", "134431.457500", "134431.917500", "134432.377500", "134432.837500", "134433.297500", "134433.757500", "134434.217500", "134434.677500", "134435.137500", "134435.597500", "134436.057500", "134436.517500", "134436.977500", "134437.437500", "134437.897500", "134438.357500", "134438.817500", "134439.277500", "134439.737500", "134440.197500", "134440.657500", "134441.117500", "134441.577500", "134442.037500", "134442.497500", "134442.957500", "134443.417500", "134443.877500", "134444.337500", "134444.797500", "134445.257500", "134445.717500", "134446.177500", "134446.637500", "134447.097500", "134447.557500", "134448.017500", "134448.477500", "134448.937500", "134449.397500", "134449.857500", "134450.317500", "134450.777500", "134451.237500", "134451.697500", "134452.157500", "134452.617500", "134453.077500", "134453.537500", "134453.997500", "134454.457500", "134454.917500", "134455.377500", "134455.837500", "134456.297500", "134456.757500", "134457.217500", "134457.677500", "134458.137500", "134458.597500", "134459.057500", "134459.517500", "134459.977500", "134500.437500", "134500.897500", "134501.357500", "134501.817500", "134502.277500", "134502.737500", "134503.197500", "134503.657500", "134504.117500", "134504.577500", "134505.037500", "134505.497500", "134505.957500", "134506.417500", "134506.877500", "134507.337500", "134507.797500", "134508.257500", "134508.717500", "134509.177500", "134509.637500", "134510.097500", "134510.557500", "134511.017500", "134511.477500", "134511.937500", "134512.397500", "134512.857500", "134513.317500", "134513.777500", "134514.237500", "134514.697500", "134515.157500", "134515.617500", "134516.077500", "134516.537500", "134516.997500", "134517.457500", "134517.917500", "134518.377500", "134518.837500", "134519.297500", "134519.757500", "134520.217500", "134520.677500", "134521.137500", "134521.597500", "134522.057500", "134522.517500", "134522.977500", "134523.437500", "134523.897500", "134524.357500", "134524.817500", "134525.277500", "134525.737500", "134526.197500", "134526.657500", "134527.117500", "134527.577500", "134528.037500", "134528.497500", "134528.957500", "134529.417500", "134529.877500", "134530.337500", "134530.797500", "134531.257500", "134531.717500", "134532.177500", "134532.637500", "134533.097500", "134533.557500", "134534.017500", "134534.477500", "134534.937500", "134535.397500", "134535.857500", "134536.317500", "134536.777500", "134537.237500", "134537.697500", "134538.157500", "134538.617500", "134539.077500", "134539.537500", "134539.997500", "134540.457500", "134540.917500", "134541.377500", "134541.837500", "134542.297500", "134542.757500", "134543.217500", "134543.677500", "134544.137500", "134544.597500", "134545.057500", "134545.517500", "134545.977500", "134546.437500", "134546.897500", "134547.357500", "134547.817500", "134548.277500", "134548.737500", "134549.197500", "134549.657500", "134550.117500", "134550.577500", "134551.037500", "134551.497500", "134551.957500", "134552.417500", "134552.877500", "134553.337500", "134553.797500", "134554.257500", "134554.717500", "134555.177500", "134555.637500", "134556.097500", "134556.557500", "134557.017500", "134557.477500", "134557.937500", "134558.397500", "134558.857500", "134559.317500", "134559.777500", "134600.237500", "134600.697500", "134601.157500", "134601.617500", "134602.077500", "134602.537500", "134602.997500", "134603.457500", "134603.917500", "134604.377500", "134604.837500", "134605.297500", "134605.757500", "134606.217500", "134606.677500", "134607.137500", "134607.597500", "134608.057500", "134608.517500", "134608.977500", "134609.437500", "134609.897500", "134610.357500", "134610.817500", "134611.277500", "134611.737500", "134612.197500", "134612.657500", "134613.117500", "134613.577500", "134614.037500", "134614.497500", "134614.957500", "134615.417500", "134615.877500", "134616.337500", "134616.797500", "134617.257500", "134617.717500", "134618.177500", "134618.637500", "134619.097500", "134619.557500", "134620.017500", "134620.477500", "134620.937500", "134621.397500", "134621.857500", "134622.317500", "134622.777500", "134623.237500", "134623.697500", "134624.157500", "134624.617500", "134625.077500", "134625.537500", "134625.997500", "134626.457500", "134626.917500", "134627.377500", "134627.837500", "134628.297500", "134628.757500", "134629.217500", "134629.677500", "134630.137500", "134630.597500", "134631.057500", "134631.517500", "134631.977500", "134632.437500", "134632.897500", "134633.357500", "134633.817500", "134634.277500", "134634.737500", "134635.197500", "134635.657500", "134636.117500", "134636.577500", "134637.037500", "134637.497500", "134637.957500", "134638.417500", "134638.877500", "134639.337500", "134639.797500", "134640.257500", "134640.717500", "134641.177500", "134641.637500", "134642.097500", "134642.557500", "134643.017500", "134643.477500", "134643.937500", "134644.397500", "134644.857500", "134645.317500", "134645.777500", "134646.237500", "134646.697500", "134647.157500", "134647.617500", "134648.077500", "134648.537500", "134648.997500", "134649.457500", "134649.917500", "134650.377500", "134650.837500", "134651.297500", "134651.757500", "134652.217500", "134652.677500", "134653.137500", "134653.597500", "134654.057500", "134654.517500", "134654.977500", "134655.437500", "134655.897500", "134656.357500", "134656.817500", "134657.277500", "134657.737500", "134658.197500", "134658.657500", "134659.117500", "134659.577500", "134700.037500", "134700.497500", "134700.957500", "134701.417500", "134701.877500", "134702.337500", "134702.797500", "134703.257500", "134703.717500", "134704.177500", "134704.637500", "134705.097500", "134705.557500", "134706.017500", "134706.477500", "134706.937500", "134707.397500", "134707.857500", "134708.317500", "134708.777500", "134709.237500", "134709.697500", "134710.157500", "134710.617500", "134711.077500", "134711.537500", "134711.997500", "134712.457500", "134712.917500", "134713.377500", "134713.837500", "134714.297500", "134714.757500", "134715.217500", "134715.677500", "134716.137500", "134716.597500", "134717.057500", "134717.517500", "134717.977500", "134718.437500", "134718.897500", "134719.357500", "134719.817500", "134720.277500", "134720.737500", "134721.197500", "134721.657500", "134722.117500", "134722.577500", "134723.037500", "134723.497500", "134723.957500", "134724.417500", "134724.877500", "134725.337500", "134725.797500", "134726.257500", "134726.717500", "134727.177500", "134727.637500", "134728.097500", "134728.557500", "134729.017500", "134729.477500", "134729.937500", "134730.397500", "134730.857500", "134731.317500", "134731.777500", "134732.237500", "134732.697500", "134733.157500", "134733.617500", "134734.077500", "134734.537500", "134734.997500", "134735.457500", "134735.917500", "134736.377500", "134736.837500", "134737.297500", "134737.757500", "134738.217500", "134738.677500", "134739.137500", "134739.597500", "134740.057500", "134740.517500", "134740.977500", "134741.437500", "134741.897500", "134742.357500", "134742.817500", "134743.277500", "134743.737500", "134744.197500", "134744.657500", "134745.117500", "134745.577500", "134746.037500", "134746.497500", "134746.957500", "134747.417500", "134747.877500", "134748.337500", "134748.797500", "134749.257500", "134749.717500", "134750.177500", "134750.637500", "134751.097500", "134751.557500", "134752.017500", "134752.477500", "134752.937500", "134753.397500", "134753.857500", "134754.317500", "134754.777500", "134755.237500", "134755.697500", "134756.157500", "134756.617500", "134757.077500", "134757.537500", "134757.997500", "134758.457500", "134758.917500", "134759.377500", "134759.837500", "134800.297500", "134800.757500", "134801.217500", "134801.677500", "134802.137500", "134802.597500", "134803.057500", "134803.517500", "134803.977500", "134804.437500", "134804.897500", "134805.357500", "134805.817500", "134806.277500", "134806.737500", "134807.197500", "134807.657500", "134808.117500", "134808.577500", "134809.037500", "134809.497500", "134809.957500", "134810.417500", "134810.877500", "134811.337500", "134811.797500", "134812.257500", "134812.717500", "134813.177500", "134813.637500", "134814.097500", "134814.557500", "134815.017500", "134815.477500", "134815.937500", "134816.397500", "134816.857500", "134817.317500", "134817.777500", "134818.237500", "134818.697500", "134819.157500", "134819.617500", "134820.077500", "134820.537500", "134820.997500", "134821.457500", "134821.917500", "134822.377500", "134822.837500", "134823.297500", "134823.757500", "134824.217500", "134824.677500", "134825.137500", "134825.597500", "134826.057500", "134826.517500", "134826.977500", "134827.437500", "134827.897500", "134828.357500", "134828.817500", "134829.277500", "134829.737500", "134830.197500", "134830.657500", "134831.117500", "134831.577500", "134832.037500", "134832.497500", "134832.957500", "134833.417500", "134833.877500", "134834.337500", "134834.797500", "134835.257500", "134835.717500", "134836.177500", "134836.637500", "134837.097500", "134837.557500", "134838.017500", "134838.477500", "134838.937500", "134839.397500", "134839.857500", "134840.317500", "134840.777500", "134841.237500", "134841.697500", "134842.157500", "134842.617500", "134843.077500", "134843.537500", "134843.997500", "134844.457500", "134844.917500", "134845.377500", "134845.837500", "134846.297500", "134846.757500", "134847.217500", "134847.677500", "134848.137500", "134848.597500", "134849.057500", "134849.517500", "134849.977500", "134850.437500", "134850.897500", "134851.357500", "134851.817500", "134852.277500", "134852.737500", "134853.197500", "134853.657500", "134854.117500", "134854.577500", "134855.037500", "134855.497500", "134855.957500", "134856.417500", "134856.877500", "134857.337500", "134857.797500", "134858.257500", "134858.717500", "134859.177500", "134859.637500", "134900.097500", "134900.557500", "134901.017500", "134901.477500", "134901.937500", "134902.397500", "134902.857500", "134903.317500", "134903.777500", "134904.237500", "134904.697500", "134905.157500", "134905.617500", "134906.077500", "134906.537500", "134906.997500", "134907.457500", "134907.917500", "134908.377500", "134908.837500", "134909.297500", "134909.757500", "134910.217500", "134910.677500", "134911.137500", "134911.597500", "134912.057500", "134912.517500", "134912.977500", "134913.437500", "134913.897500", "134914.357500", "134914.817500", "134915.277500", "134915.737500", "134916.197500", "134916.657500", "134917.117500", "134917.577500", "134918.037500", "134918.497500", "134918.957500", "134919.417500", "134919.877500", "134920.337500", "134920.797500", "134921.257500", "134921.717500", "134922.177500", "134922.637500", "134923.097500", "134923.557500", "134924.017500", "134924.477500", "134924.937500", "134925.397500", "134925.857500", "134926.317500", "134926.777500", "134927.237500", "134927.697500", "134928.157500", "134928.617500", "134929.077500", "134929.537500", "134929.997500", "134930.457500", "134930.917500", "134931.377500", "134931.837500", "134932.297500", "134932.757500", "134933.217500", "134933.677500", "134934.137500", "134934.597500", "134935.057500", "134935.517500", "134935.977500", "134936.437500", "134936.897500", "134937.357500", "134937.817500", "134938.277500", "134938.737500", "134939.197500", "134939.657500", "134940.117500", "134940.577500", "134941.037500", "134941.497500", "134941.957500", "134942.417500", "134942.877500", "134943.337500", "134943.797500", "134944.257500", "134944.717500", "134945.177500", "134945.637500", "134946.097500", "134946.557500", "134947.017500", "134947.477500", "134947.937500", "134948.397500", "134948.857500", "134949.317500", "134949.777500", "134950.237500", "134950.697500", "134951.157500", "134951.617500", "134952.077500", "134952.537500", "134952.997500", "134953.457500", "134953.917500", "134954.377500", "134954.837500", "134955.297500", "134955.757500", "134956.217500", "134956.677500", "134957.137500", "134957.597500", "134958.057500", "134958.517500", "134958.977500", "134959.437500", "134959.897500", "135000.357500", "135000.817500", "135001.277500", "135001.737500", "135002.197500", "135002.657500", "135003.117500", "135003.577500", "135004.037500", "135004.497500", "135004.957500", "135005.417500", "135005.877500", "135006.337500", "135006.797500", "135007.257500", "135007.717500", "135008.177500", "135008.637500", "135009.097500", "135009.557500", "135010.017500", "135010.477500", "135010.937500", "135011.397500", "135011.857500", "135012.317500", "135012.777500", "135013.237500", "135013.697500", "135014.157500", "135014.617500", "135015.077500", "135015.537500", "135015.997500", "135016.457500", "135016.917500", "135017.377500", "135017.837500", "135018.297500", "135018.757500", "135019.217500", "135019.677500", "135020.137500", "135020.597500", "135021.057500", "135021.517500", "135021.977500", "135022.437500", "135022.897500", "135023.357500", "135023.817500", "135024.277500", "135024.737500", "135025.197500", "135025.657500", "135026.117500", "135026.577500", "135027.037500", "135027.497500", "135027.957500", "135028.417500", "135028.877500", "135029.337500", "135029.797500", "135030.257500", "135030.717500", "135031.177500", "135031.637500", "135032.097500", "135032.557500", "135033.017500", "135033.477500", "135033.937500", "135034.397500", "135034.857500", "135035.317500", "135035.777500", "135036.237500", "135036.697500", "135037.157500", "135037.617500", "135038.077500", "135038.537500", "135038.997500", "135039.457500", "135039.917500", "135040.377500", "135040.837500", "135041.297500", "135041.757500", "135042.217500", "135042.677500", "135043.137500", "135043.597500", "135044.057500", "135044.517500", "135044.977500", "135045.437500", "135045.897500", "135046.357500", "135046.817500", "135047.277500", "135047.737500", "135048.197500", "135048.657500", "135049.117500", "135049.577500", "135050.037500", "135050.497500", "135050.957500", "135051.417500", "135051.877500", "135052.337500", "135052.797500", "135053.257500", "135053.717500", "135054.177500", "135054.637500", "135055.097500", "135055.557500", "135056.017500", "135056.477500", "135056.937500", "135057.397500", "135057.857500", "135058.317500", "135058.777500", "135059.237500", "135059.697500", "135100.157500", "135100.617500", "135101.077500", "135101.537500", "135101.997500", "135102.457500", "135102.917500", "135103.377500", "135103.837500", "135104.297500", "135104.757500", "135105.217500", "135105.677500", "135106.137500", "135106.597500", "135107.057500", "135107.517500", "135107.977500", "135108.437500", "135108.897500", "135109.357500", "135109.817500", "135110.277500", "135110.737500", "135111.197500", "135111.657500", "135112.117500", "135112.577500", "135113.037500", "135113.497500", "135113.957500", "135114.417500", "135114.877500", "135115.337500", "135115.797500", "135116.257500", "135116.717500", "135117.177500", "135117.637500", "135118.097500", "135118.557500", "135119.017500", "135119.477500", "135119.937500", "135120.397500", "135120.857500", "135121.317500", "135121.777500", "135122.237500"],
