{
  "AcquisitionMatrixPE": 82,
  "AcquisitionNumber": 1,
  "AcquisitionTime": "13:17:51.645000",
  "BandwidthPerPixelPhaseEncode": 24.888,
  "BaseResolution": 82,
  "BodyPartExamined": "BRAIN",
  "ConsistencyInfo": "N4_VE11E_LATEST_20181129",
  "ConversionSoftware": "dcm2niix",
  "ConversionSoftwareVersion": "v1.0.20201102",
  "DerivedVendorReportedEchoSpacing": 0.00049,
  "DeviceSerialNumber": "66112",
  "DwellTime": 2e-06,
  "EchoTime": 0.0272,
  "EchoTrainLength": 82,
  "EffectiveEchoSpacing": 0.00049,
  "FlipAngle": 44,
  "ImageComments": "Unaliased MB8/PE3",
  "ImageOrientationPatientDICOM": [0.996957, -0.0779288, 0.00213803, 0.0765366, 0.983623, 0.163178],
  "ImageType": [
    "ORIGINAL",
    "PRIMARY",
    "M",
    "MB",
    "ND",
    "NORM",
    "MOSAIC"
],
  "ImagingFrequency": 123.259,
  "InPlanePhaseEncodingDirectionDICOM": "COL",
  "InstitutionAddress": "Maynard 3,Hanover,NH,US,03755",
  "InstitutionName": "Dartmouth College - PBS",
  "InstitutionalDepartmentName": "Department",
  "MRAcquisitionType": "2D",
  "MagneticFieldStrength": 3,
  "Manufacturer": "Siemens",
  "ManufacturersModelName": "Prisma",
  "Modality": "MR",
  "MultibandAccelerationFactor": 8,
  "PartialFourier": 1,
  "PatientPosition": "HFS",
  "PercentPhaseFOV": 100,
  "PercentSampling": 100,
  "PhaseEncodingDirection": "j-",
  "PhaseEncodingSteps": 82,
  "PhaseResolution": 1,
  "PixelBandwidth": 3050,
  "ProcedureStepDescription": "Wager_Wager^1076_spacetop",
  "ProtocolName": "func_run-04_task-social_acq-ap-mb8",
  "PulseSequenceDetails": "%CustomerSeq%\\cmrr_mbep2d_bold",
  "ReceiveCoilActiveElements": "HEA;HEP",
  "ReceiveCoilName": "Head_32",
  "ReconMatrixPE": 82,
  "RepetitionTime": 0.46,
  "SAR": 0.0941655,
  "ScanOptions": "FS",
  "ScanningSequence": "EP",
  "SequenceName": "epfid2d1_82",
  "SequenceVariant": "SK\\SS",
  "SeriesDescription": "func_run-04_task-social_acq-ap-mb8",
  "SeriesNumber": 18,
  "ShimSetting": [4208, -7769, -7207, 324, -169, 7, 104, 99],
  "SliceThickness": 2.7,
  "SliceTiming": [0, 0.25, 0.0625, 0.315, 0.125, 0.3775, 0.1875, 0, 0.25, 0.0625, 0.315, 0.125, 0.3775, 0.1875, 0, 0.25, 0.0625, 0.315, 0.125, 0.3775, 0.1875, 0, 0.25, 0.0625, 0.315, 0.125, 0.3775, 0.1875, 0, 0.25, 0.0625, 0.315, 0.125, 0.3775, 0.1875, 0, 0.25, 0.0625, 0.315, 0.125, 0.3775, 0.1875, 0, 0.25, 0.0625, 0.315, 0.125, 0.3775, 0.1875, 0, 0.25, 0.0625, 0.315, 0.125, 0.3775, 0.1875],
  "SoftwareVersions": "syngo MR E11",
  "SpacingBetweenSlices": 2.7,
  "StationName": "AWP66112",
  "TaskName": "social",
  "TotalReadoutTime": 0.03969,
  "TxRefAmp": 239.66,
  "WipMemBlock": "4fe2df9c-73af-4bc5-856a-949bc67fba0f||Sequence: R016 ve11e/master r/434b28f1; Aug  7 2019 18:53:46 by eja",
  "dcmmeta_affine": [
    [-2.6747617721557617, 0.2053421139717102, 0.040012016892433167, 102.51851654052734],
    [0.2090771645307541, 2.6389899253845215, 0.43879762291908264, -118.26708221435547],
    [0.005736176390200853, -0.4377943277359009, 2.663804769515991, -40.40339660644531],
    [0.0, 0.0, 0.0, 1.0]
],
  "dcmmeta_reorient_transform": [
    [0.0, -1.0, 0.0, 81.0],
    [1.0, 0.0, 0.0, 0.0],
    [0.0, 0.0, 1.0, 0.0],
    [0.0, 0.0, 0.0, 1.0]
],
  "dcmmeta_shape": [82, 82, 56, 872],
  "dcmmeta_slice_dim": 2,
  "dcmmeta_version": 0.6,
  "global": {
    "const": {
      "AccessionNumber": "A004541",
      "AcquisitionMatrix": [82, 0, 0, 82],
      "AngioFlag": "N",
      "BitsAllocated": 16,
      "BitsStored": 16,
      "BodyPartExamined": "BRAIN",
      "Columns": 656,
      "EchoNumbers": 1,
      "EchoTime": 27.2,
      "EchoTrainLength": 82,
      "FlipAngle": 44.0,
      "HighBit": 15,
      "ImageOrientationPatient": [0.99695663762249, -0.0779287593329, 0.00213802930057, 0.07653660606819, 0.98362346823579, 0.16317788044757],
      "ImagePositionPatient": [-945.74104219294, -792.87603835859, -203.15798909322],
      "ImageType": [
        "ORIGINAL",
        "PRIMARY",
        "M",
        "MB",
        "ND",
        "NORM",
        "MOSAIC"
],
      "ImagedNucleus": "1H",
      "ImagingFrequency": 123.259057,
      "InPlanePhaseEncodingDirection": "COL",
      "MRAcquisitionType": "2D",
      "MagneticFieldStrength": 3.0,
      "Manufacturer": "SIEMENS",
      "ManufacturerModelName": "Prisma",
      "Modality": "MR",
      "NumberOfAverages": 1.0,
      "NumberOfPhaseEncodingSteps": 82,
      "PercentPhaseFieldOfView": 100.0,
      "PercentSampling": 100.0,
      "PerformedProcedureStepStartTime": "122755.024000",
      "PhotometricInterpretation": "MONOCHROME2",
      "PixelBandwidth": 3050.0,
      "PixelRepresentation": 0,
      "PixelSpacing": [2.6829268932343, 2.6829268932343],
      "ProtocolName": "func_run-04_task-social_acq-ap-mb8",
      "RepetitionTime": 460.0,
      "Rows": 656,
      "SAR": 0.09416545608062,
      "SamplesPerPixel": 1,
      "ScanOptions": "FS",
      "ScanningSequence": "EP",
      "SequenceName": "epfid2d1_82",
      "SequenceVariant": [
        "SK",
        "SS"
],
      "SeriesDescription": "func_run-04_task-social_acq-ap-mb8",
      "SeriesNumber": 18,
      "SeriesTime": "131811.847000",
      "SliceLocation": -57.562998765757,
      "SliceThickness": 2.7000000476837,
      "SmallestImagePixelValue": 0,
      "SoftwareVersions": "syngo MR E11",
      "SpacingBetweenSlices": 2.7000000259453,
      "SpecificCharacterSet": "ISO_IR 100",
      "StudyID": "1",
      "StudyTime": "122754.931000",
      "TransmitCoilName": "Body",
      "VariableFlipAngleFlag": "N",
      "WindowCenterWidthExplanation": "Algo1"
    },
    "slices": {}
  },
  "time": {
    "samples": {
      "AcquisitionNumber": [1, 2, 3, 4, 5, 6, 7, 8, 9, 10, 11, 12, 13, 14, 15, 16, 17, 18, 19, 20, 21, 22, 23, 24, 25, 26, 27, 28, 29, 30, 31, 32, 33, 34, 35, 36, 37, 38, 39, 40, 41, 42, 43, 44, 45, 46, 47, 48, 49, 50, 51, 52, 53, 54, 55, 56, 57, 58, 59, 60, 61, 62, 63, 64, 65, 66, 67, 68, 69, 70, 71, 72, 73, 74, 75, 76, 77, 78, 79, 80, 81, 82, 83, 84, 85, 86, 87, 88, 89, 90, 91, 92, 93, 94, 95, 96, 97, 98, 99, 100, 101, 102, 103, 104, 105, 106, 107, 108, 109, 110, 111, 112, 113, 114, 115, 116, 117, 118, 119, 120, 121, 122, 123, 124, 125, 126, 127, 128, 129, 130, 131, 132, 133, 134, 135, 136, 137, 138, 139, 140, 141, 142, 143, 144, 145, 146, 147, 148, 149, 150, 151, 152, 153, 154, 155, 156, 157, 158, 159, 160, 161, 162, 163, 164, 165, 166, 167, 168, 169, 170, 171, 172, 173, 174, 175, 176, 177, 178, 179, 180, 181, 182, 183, 184, 185, 186, 187, 188, 189, 190, 191, 192, 193, 194, 195, 196, 197, 198, 199, 200, 201, 202, 203, 204, 205, 206, 207, 208, 209, 210, 211, 212, 213, 214, 215, 216, 217, 218, 219, 220, 221, 222, 223, 224, 225, 226, 227, 228, 229, 230, 231, 232, 233, 234, 235, 236, 237, 238, 239, 240, 241, 242, 243, 244, 245, 246, 247, 248, 249, 250, 251, 252, 253, 254, 255, 256, 257, 258, 259, 260, 261, 262, 263, 264, 265, 266, 267, 268, 269, 270, 271, 272, 273, 274, 275, 276, 277, 278, 279, 280, 281, 282, 283, 284, 285, 286, 287, 288, 289, 290, 291, 292, 293, 294, 295, 296, 297, 298, 299, 300, 301, 302, 303, 304, 305, 306, 307, 308, 309, 310, 311, 312, 313, 314, 315, 316, 317, 318, 319, 320, 321, 322, 323, 324, 325, 326, 327, 328, 329, 330, 331, 332, 333, 334, 335, 336, 337, 338, 339, 340, 341, 342, 343, 344, 345, 346, 347, 348, 349, 350, 351, 352, 353, 354, 355, 356, 357, 358, 359, 360, 361, 362, 363, 364, 365, 366, 367, 368, 369, 370, 371, 372, 373, 374, 375, 376, 377, 378, 379, 380, 381, 382, 383, 384, 385, 386, 387, 388, 389, 390, 391, 392, 393, 394, 395, 396, 397, 398, 399, 400, 401, 402, 403, 404, 405, 406, 407, 408, 409, 410, 411, 412, 413, 414, 415, 416, 417, 418, 419, 420, 421, 422, 423, 424, 425, 426, 427, 428, 429, 430, 431, 432, 433, 434, 435, 436, 437, 438, 439, 440, 441, 442, 443, 444, 445, 446, 447, 448, 449, 450, 451, 452, 453, 454, 455, 456, 457, 458, 459, 460, 461, 462, 463, 464, 465, 466, 467, 468, 469, 470, 471, 472, 473, 474, 475, 476, 477, 478, 479, 480, 481, 482, 483, 484, 485, 486, 487, 488, 489, 490, 491, 492, 493, 494, 495, 496, 497, 498, 499, 500, 501, 502, 503, 504, 505, 506, 507, 508, 509, 510, 511, 512, 513, 514, 515, 516, 517, 518, 519, 520, 521, 522, 523, 524, 525, 526, 527, 528, 529, 530, 531, 532, 533, 534, 535, 536, 537, 538, 539, 540, 541, 542, 543, 544, 545, 546, 547, 548, 549, 550, 551, 552, 553, 554, 555, 556, 557, 558, 559, 560, 561, 562, 563, 564, 565, 566, 567, 568, 569, 570, 571, 572, 573, 574, 575, 576, 577, 578, 579, 580, 581, 582, 583, 584, 585, 586, 587, 588, 589, 590, 591, 592, 593, 594, 595, 596, 597, 598, 599, 600, 601, 602, 603, 604, 605, 606, 607, 608, 609, 610, 611, 612, 613, 614, 615, 616, 617, 618, 619, 620, 621, 622, 623, 624, 625, 626, 627, 628, 629, 630, 631, 632, 633, 634, 635, 636, 637, 638, 639, 640, 641, 642, 643, 644, 645, 646, 647, 648, 649, 650, 651, 652, 653, 654, 655, 656, 657, 658, 659, 660, 661, 662, 663, 664, 665, 666, 667, 668, 669, 670, 671, 672, 673, 674, 675, 676, 677, 678, 679, 680, 681, 682, 683, 684, 685, 686, 687, 688, 689, 690, 691, 692, 693, 694, 695, 696, 697, 698, 699, 700, 701, 702, 703, 704, 705, 706, 707, 708, 709, 710, 711, 712, 713, 714, 715, 716, 717, 718, 719, 720, 721, 722, 723, 724, 725, 726, 727, 728, 729, 730, 731, 732, 733, 734, 735, 736, 737, 738, 739, 740, 741, 742, 743, 744, 745, 746, 747, 748, 749, 750, 751, 752, 753, 754, 755, 756, 757, 758, 759, 760, 761, 762, 763, 764, 765, 766, 767, 768, 769, 770, 771, 772, 773, 774, 775, 776, 777, 778, 779, 780, 781, 782, 783, 784, 785, 786, 787, 788, 789, 790, 791, 792, 793, 794, 795, 796, 797, 798, 799, 800, 801, 802, 803, 804, 805, 806, 807, 808, 809, 810, 811, 812, 813, 814, 815, 816, 817, 818, 819, 820, 821, 822, 823, 824, 825, 826, 827, 828, 829, 830, 831, 832, 833, 834, 835, 836, 837, 838, 839, 840, 841, 842, 843, 844, 845, 846, 847, 848, 849, 850, 851, 852, 853, 854, 855, 856, 857, 858, 859, 860, 861, 862, 863, 864, 865, 866, 867, 868, 869, 870, 871, 872],
      "AcquisitionTime": ["131751.645000", "131752.105000", "131752.565000", "131753.025000", "131753.485000", "131753.945000", "131754.405000", "131754.865000", "131755.325000", "131755.785000", "131756.245000", "131756.705000", "131757.165000", "131757.625000", "131758.085000", "131758.545000", "131759.005000", "131759.465000", "131759.925000", "131800.385000", "131800.845000", "131801.305000", "131801.765000", "131802.225000", "131802.685000", "131803.145000", "131803.605000", "131804.065000", "131804.525000", "131804.985000", "131805.445000", "131805.905000", "131806.365000", "131806.825000", "131807.285000", "131807.745000", "131808.205000", "131808.665000", "131809.125000", "131809.585000", "131810.045000", "131810.505000", "131810.965000", "131811.425000", "131811.885000", "131812.345000", "131812.805000", "131813.265000", "131813.725000", "131814.185000", "131814.645000", "131815.105000", "131815.565000", "131816.025000", "131816.485000", "131816.945000", "131817.405000", "131817.865000", "131818.325000", "131818.785000", "131819.245000", "131819.705000", "131820.165000", "131820.625000", "131821.085000", "131821.545000", "131822.005000", "131822.465000", "131822.925000", "131823.385000", "131823.845000", "131824.305000", "131824.765000", "131825.225000", "131825.685000", "131826.145000", "131826.605000", "131827.065000", "131827.525000", "131827.985000", "131828.445000", "131828.905000", "131829.365000", "131829.825000", "131830.285000", "131830.745000", "131831.205000", "131831.665000", "131832.125000", "131832.585000", "131833.045000", "131833.505000", "131833.965000", "131834.425000", "131834.885000", "131835.345000", "131835.805000", "131836.265000", "131836.725000", "131837.185000", "131837.645000", "131838.105000", "131838.565000", "131839.025000", "131839.485000", "131839.945000", "131840.405000", "131840.865000", "131841.325000", "131841.785000", "131842.245000", "131842.705000", "131843.165000", "131843.625000", "131844.085000", "131844.545000", "131845.005000", "131845.465000", "131845.925000", "131846.385000", "131846.845000", "131847.305000", "131847.765000", "131848.225000", "131848.685000", "131849.145000", "131849.605000", "131850.065000", "131850.525000", "131850.985000", "131851.445000", "131851.905000", "131852.365000", "131852.825000", "131853.285000", "131853.745000", "131854.205000", "131854.665000", "131855.125000", "131855.585000", "131856.045000", "131856.505000", "131856.965000", "131857.425000", "131857.885000", "131858.345000", "131858.805000", "131859.265000", "131859.725000", "131900.185000", "131900.645000", "131901.105000", "131901.565000", "131902.025000", "131902.485000", "131902.945000", "131903.405000", "131903.865000", "131904.325000", "131904.785000", "131905.245000", "131905.705000", "131906.165000", "131906.625000", "131907.085000", "131907.545000", "131908.005000", "131908.465000", "131908.925000", "131909.385000", "131909.845000", "131910.305000", "131910.765000", "131911.225000", "131911.685000", "131912.145000", "131912.605000", "131913.065000", "131913.525000", "131913.985000", "131914.445000", "131914.905000", "131915.365000", "131915.825000", "131916.285000", "131916.745000", "131917.205000", "131917.665000", "131918.125000", "131918.585000", "131919.045000", "131919.505000", "131919.965000", "131920.425000", "131920.885000", "131921.345000", "131921.805000", "131922.265000", "131922.725000", "131923.185000", "131923.645000", "131924.105000", "131924.565000", "131925.025000", "131925.485000", "131925.945000", "131926.405000", "131926.865000", "131927.325000", "131927.785000", "131928.245000", "131928.705000", "131929.165000", "131929.625000", "131930.085000", "131930.545000", "131931.005000", "131931.465000", "131931.925000", "131932.385000", "131932.845000", "131933.305000", "131933.765000", "131934.225000", "131934.685000", "131935.145000", "131935.605000", "131936.065000", "131936.525000", "131936.985000", "131937.445000", "131937.905000", "131938.365000", "131938.825000", "131939.285000", "131939.745000", "131940.205000", "131940.665000", "131941.125000", "131941.585000", "131942.045000", "131942.505000", "131942.965000", "131943.425000", "131943.885000", "131944.345000", "131944.805000", "131945.265000", "131945.725000", "131946.185000", "131946.645000", "131947.105000", "131947.565000", "131948.025000", "131948.485000", "131948.945000", "131949.405000", "131949.865000", "131950.325000", "131950.785000", "131951.245000", "131951.705000", "131952.165000", "131952.625000", "131953.085000", "131953.545000", "131954.005000", "131954.465000", "131954.925000", "131955.385000", "131955.845000", "131956.305000", "131956.765000", "131957.225000", "131957.685000", "131958.145000", "131958.605000", "131959.065000", "131959.525000", "131959.985000", "132000.445000", "132000.905000", "132001.365000", "132001.825000", "132002.285000", "132002.745000", "132003.205000", "132003.665000", "132004.125000", "132004.585000", "132005.045000", "132005.505000", "132005.965000", "132006.425000", "132006.885000", "132007.345000", "132007.805000", "132008.265000", "132008.725000", "132009.185000", "132009.645000", "132010.105000", "132010.565000", "132011.025000", "132011.485000", "132011.945000", "132012.405000", "132012.865000", "132013.325000", "132013.785000", "132014.245000", "132014.705000", "132015.165000", "132015.625000", "132016.085000", "132016.545000", "132017.005000", "132017.465000", "132017.925000", "132018.385000", "132018.845000", "132019.305000", "132019.765000", "132020.225000", "132020.685000", "132021.145000", "132021.605000", "132022.065000", "132022.525000", "132022.985000", "132023.445000", "132023.905000", "132024.365000", "132024.825000", "132025.285000", "132025.745000", "132026.205000", "132026.665000", "132027.125000", "132027.585000", "132028.045000", "132028.505000", "132028.965000", "132029.425000", "132029.885000", "132030.345000", "132030.805000", "132031.265000", "132031.725000", "132032.185000", "132032.645000", "132033.105000", "132033.565000", "132034.025000", "132034.485000", "132034.945000", "132035.405000", "132035.865000", "132036.325000", "132036.785000", "132037.245000", "132037.705000", "132038.165000", "132038.625000", "132039.085000", "132039.545000", "132040.005000", "132040.465000", "132040.925000", "132041.385000", "132041.845000", "132042.305000", "132042.765000", "132043.225000", "132043.685000", "132044.145000", "132044.605000", "132045.065000", "132045.525000", "132045.985000", "132046.445000", "132046.905000", "132047.365000", "132047.825000", "132048.285000", "132048.745000", "132049.205000", "132049.665000", "132050.125000", "132050.585000", "132051.045000", "132051.505000", "132051.965000", "132052.425000", "132052.885000", "132053.345000", "132053.805000", "132054.265000", "132054.725000", "132055.185000", "132055.645000", "132056.105000", "132056.565000", "132057.025000", "132057.485000", "132057.945000", "132058.405000", "132058.865000", "132059.325000", "132059.785000", "132100.245000", "132100.705000", "132101.165000", "132101.625000", "132102.085000", "132102.545000", "132103.005000", "132103.465000", "132103.925000", "132104.385000", "132104.845000", "132105.305000", "132105.765000", "132106.225000", "132106.685000", "132107.145000", "132107.605000", "132108.065000", "132108.525000", "132108.985000", "132109.445000", "132109.905000", "132110.365000", "132110.825000", "132111.285000", "132111.745000", "132112.205000", "132112.665000", "132113.125000", "132113.585000", "132114.045000", "132114.505000", "132114.965000", "132115.425000", "132115.885000", "132116.345000", "132116.805000", "132117.265000", "132117.725000", "132118.185000", "132118.645000", "132119.105000", "132119.565000", "132120.025000", "132120.485000", "132120.945000", "132121.405000", "132121.865000", "132122.325000", "132122.785000", "132123.245000", "132123.705000", "132124.165000", "132124.625000", "132125.085000", "132125.545000", "132126.005000", "132126.465000", "132126.925000", "132127.385000", "132127.845000", "132128.305000", "132128.765000", "132129.225000", "132129.685000", "132130.145000", "132130.605000", "132131.065000", "132131.525000", "132131.985000", "132132.445000", "132132.905000", "132133.365000", "132133.825000", "132134.285000", "132134.745000", "132135.205000", "132135.665000", "132136.125000", "132136.585000", "132137.045000", "132137.505000", "132137.965000", "132138.425000", "132138.885000", "132139.345000", "132139.805000", "132140.265000", "132140.725000", "132141.185000", "132141.645000", "132142.105000", "132142.565000", "132143.025000", "132143.485000", "132143.945000", "132144.405000", "132144.865000", "132145.325000", "132145.785000", "132146.245000", "132146.705000", "132147.165000", "132147.625000", "132148.085000", "132148.545000", "132149.005000", "132149.465000", "132149.925000", "132150.385000", "132150.845000", "132151.305000", "132151.765000", "132152.225000", "132152.685000", "132153.145000", "132153.605000", "132154.065000", "132154.525000", "132154.985000", "132155.445000", "132155.905000", "132156.365000", "132156.825000", "132157.285000", "132157.745000", "132158.205000", "132158.665000", "132159.125000", "132159.585000", "132200.045000", "132200.505000", "132200.965000", "132201.425000", "132201.885000", "132202.345000", "132202.805000", "132203.265000", "132203.725000", "132204.185000", "132204.645000", "132205.105000", "132205.565000", "132206.025000", "132206.485000", "132206.945000", "132207.405000", "132207.865000", "132208.325000", "132208.785000", "132209.245000", "132209.705000", "132210.165000", "132210.625000", "132211.085000", "132211.545000", "132212.005000", "132212.465000", "132212.925000", "132213.385000", "132213.845000", "132214.305000", "132214.765000", "132215.225000", "132215.685000", "132216.145000", "132216.605000", "132217.065000", "132217.525000", "132217.985000", "132218.445000", "132218.905000", "132219.365000", "132219.825000", "132220.285000", "132220.745000", "132221.205000", "132221.665000", "132222.125000", "132222.585000", "132223.045000", "132223.505000", "132223.965000", "132224.425000", "132224.885000", "132225.345000", "132225.805000", "132226.265000", "132226.725000", "132227.185000", "132227.645000", "132228.105000", "132228.565000", "132229.025000", "132229.485000", "132229.945000", "132230.405000", "132230.865000", "132231.325000", "132231.785000", "132232.245000", "132232.705000", "132233.165000", "132233.625000", "132234.085000", "132234.545000", "132235.005000", "132235.465000", "132235.925000", "132236.385000", "132236.845000", "132237.305000", "132237.765000", "132238.225000", "132238.685000", "132239.145000", "132239.605000", "132240.065000", "132240.525000", "132240.985000", "132241.445000", "132241.905000", "132242.365000", "132242.825000", "132243.285000", "132243.745000", "132244.205000", "132244.665000", "132245.125000", "132245.585000", "132246.045000", "132246.505000", "132246.965000", "132247.425000", "132247.885000", "132248.345000", "132248.805000", "132249.265000", "132249.725000", "132250.185000", "132250.645000", "132251.105000", "132251.565000", "132252.025000", "132252.485000", "132252.945000", "132253.405000", "132253.865000", "132254.325000", "132254.785000", "132255.245000", "132255.705000", "132256.165000", "132256.625000", "132257.085000", "132257.545000", "132258.005000", "132258.465000", "132258.925000", "132259.385000", "132259.845000", "132300.305000", "132300.765000", "132301.225000", "132301.685000", "132302.145000", "132302.605000", "132303.065000", "132303.525000", "132303.985000", "132304.445000", "132304.905000", "132305.365000", "132305.825000", "132306.285000", "132306.745000", "132307.205000", "132307.665000", "132308.125000", "132308.585000", "132309.045000", "132309.505000", "132309.965000", "132310.425000", "132310.885000", "132311.345000", "132311.805000", "132312.265000", "132312.725000", "132313.185000", "132313.645000", "132314.105000", "132314.565000", "132315.025000", "132315.485000", "132315.945000", "132316.405000", "132316.865000", "132317.325000", "132317.785000", "132318.245000", "132318.705000", "132319.165000", "132319.625000", "132320.085000", "132320.545000", "132321.005000", "132321.465000", "132321.925000", "132322.385000", "132322.845000", "132323.305000", "132323.765000", "132324.225000", "132324.685000", "132325.145000", "132325.605000", "132326.065000", "132326.525000", "132326.985000", "132327.445000", "132327.905000", "132328.365000", "132328.825000", "132329.285000", "132329.745000", "132330.205000", "132330.665000", "132331.125000", "132331.585000", "132332.045000", "132332.505000", "132332.965000", "132333.425000", "132333.885000", "132334.345000", "132334.805000", "132335.265000", "132335.725000", "132336.185000", "132336.645000", "132337.105000", "132337.565000", "132338.025000", "132338.485000", "132338.945000", "132339.405000", "132339.865000", "132340.325000", "132340.785000", "132341.245000", "132341.705000", "132342.165000", "132342.625000", "132343.085000", "132343.545000", "132344.005000", "132344.465000", "132344.925000", "132345.385000", "132345.845000", "132346.305000", "132346.765000", "132347.225000", "132347.685000", "132348.145000", "132348.605000", "132349.065000", "132349.525000", "132349.985000", "132350.445000", "132350.905000", "132351.365000", "132351.825000", "132352.285000", "132352.745000", "132353.205000", "132353.665000", "132354.125000", "132354.585000", "132355.045000", "132355.505000", "132355.965000", "132356.425000", "132356.885000", "132357.345000", "132357.805000", "132358.265000", "132358.725000", "132359.185000", "132359.645000", "132400.105000", "132400.565000", "132401.025000", "132401.485000", "132401.945000", "132402.405000", "132402.865000", "132403.325000", "132403.785000", "132404.245000", "132404.705000", "132405.165000", "132405.625000", "132406.085000", "132406.545000", "132407.005000", "132407.465000", "132407.925000", "132408.385000", "132408.845000", "132409.305000", "132409.765000", "132410.225000", "132410.685000", "132411.145000", "132411.605000", "132412.065000", "132412.525000", "132412.985000", "132413.445000", "132413.905000", "132414.365000", "132414.825000", "132415.285000", "132415.745000", "132416.205000", "132416.665000", "132417.125000", "132417.585000", "132418.045000", "132418.505000", "132418.965000", "132419.425000", "132419.885000", "132420.345000", "132420.805000", "132421.265000", "132421.725000", "132422.185000", "132422.645000", "132423.105000", "132423.565000", "132424.025000", "132424.485000", "132424.945000", "132425.405000", "132425.865000", "132426.325000", "132426.785000", "132427.245000", "132427.705000", "132428.165000", "132428.625000", "132429.085000", "132429.545000", "132430.005000", "132430.465000", "132430.925000", "132431.385000", "132431.845000", "132432.305000"],
