{
  "AcquisitionMatrixPE": 82,
  "AcquisitionNumber": 1,
  "AcquisitionTime": "13:00:35.415000",
  "BandwidthPerPixelPhaseEncode": 24.888,
  "BaseResolution": 82,
  "BodyPartExamined": "BRAIN",
  "ConsistencyInfo": "N4_VE11E_LATEST_20181129",
  "ConversionSoftware": "dcm2niix",
  "ConversionSoftwareVersion": "v1.0.20201102",
  "DerivedVendorReportedEchoSpacing": 0.00049,
  "DeviceSerialNumber": "66112",
  "DwellTime": 2e-06,
  "EchoTime": 0.0272,
  "EchoTrainLength": 82,
  "EffectiveEchoSpacing": 0.00049,
  "FlipAngle": 44,
  "ImageComments": "Unaliased MB8/PE3",
  "ImageOrientationPatientDICOM": [0.996957, -0.0779288, 0.00213803, 0.0765366, 0.983623, 0.163178],
  "ImageType": [
    "ORIGINAL",
    "PRIMARY",
    "M",
    "MB",
    "ND",
    "NORM",
    "MOSAIC"
],
  "ImagingFrequency": 123.259,
  "InPlanePhaseEncodingDirectionDICOM": "COL",
  "InstitutionAddress": "Maynard 3,Hanover,NH,US,03755",
  "InstitutionName": "Dartmouth College - PBS",
  "InstitutionalDepartmentName": "Department",
  "MRAcquisitionType": "2D",
  "MagneticFieldStrength": 3,
  "Manufacturer": "Siemens",
  "ManufacturersModelName": "Prisma",
  "Modality": "MR",
  "MultibandAccelerationFactor": 8,
  "PartialFourier": 1,
  "PatientPosition": "HFS",
  "PercentPhaseFOV": 100,
  "PercentSampling": 100,
  "PhaseEncodingDirection": "j-",
  "PhaseEncodingSteps": 82,
  "PhaseResolution": 1,
  "PixelBandwidth": 3050,
  "ProcedureStepDescription": "Wager_Wager^1076_spacetop",
  "ProtocolName": "func_run-02_task-social_acq-ap-mb8",
  "PulseSequenceDetails": "%CustomerSeq%\\cmrr_mbep2d_bold",
  "ReceiveCoilActiveElements": "HEA;HEP",
  "ReceiveCoilName": "Head_32",
  "ReconMatrixPE": 82,
  "RepetitionTime": 0.46,
  "SAR": 0.0941655,
  "ScanOptions": "FS",
  "ScanningSequence": "EP",
  "SequenceName": "epfid2d1_82",
  "SequenceVariant": "SK\\SS",
  "SeriesDescription": "func_run-02_task-social_acq-ap-mb8",
  "SeriesNumber": 14,
  "ShimSetting": [4208, -7769, -7207, 324, -169, 7, 104, 99],
  "SliceThickness": 2.7,
  "SliceTiming": [0, 0.25, 0.0625, 0.3125, 0.125, 0.3775, 0.1875, 0, 0.25, 0.0625, 0.3125, 0.125, 0.3775, 0.1875, 0, 0.25, 0.0625, 0.3125, 0.125, 0.3775, 0.1875, 0, 0.25, 0.0625, 0.3125, 0.125, 0.3775, 0.1875, 0, 0.25, 0.0625, 0.3125, 0.125, 0.3775, 0.1875, 0, 0.25, 0.0625, 0.3125, 0.125, 0.3775, 0.1875, 0, 0.25, 0.0625, 0.3125, 0.125, 0.3775, 0.1875, 0, 0.25, 0.0625, 0.3125, 0.125, 0.3775, 0.1875],
  "SoftwareVersions": "syngo MR E11",
  "SpacingBetweenSlices": 2.7,
  "StationName": "AWP66112",
  "TaskName": "social",
  "TotalReadoutTime": 0.03969,
  "TxRefAmp": 239.66,
  "WipMemBlock": "530a0ca1-716a-407f-b108-a1da0999b88a||Sequence: R016 ve11e/master r/434b28f1; Aug  7 2019 18:53:46 by eja",
  "dcmmeta_affine": [
    [-2.6747617721557617, 0.2053421139717102, 0.040012016892433167, 102.51851654052734],
    [0.2090771645307541, 2.6389899253845215, 0.43879762291908264, -118.26708221435547],
    [0.005736176390200853, -0.4377943277359009, 2.663804769515991, -40.40339660644531],
    [0.0, 0.0, 0.0, 1.0]
],
  "dcmmeta_reorient_transform": [
    [0.0, -1.0, 0.0, 81.0],
    [1.0, 0.0, 0.0, 0.0],
    [0.0, 0.0, 1.0, 0.0],
    [0.0, 0.0, 0.0, 1.0]
],
  "dcmmeta_shape": [82, 82, 56, 872],
  "dcmmeta_slice_dim": 2,
  "dcmmeta_version": 0.6,
  "global": {
    "const": {
      "AccessionNumber": "A004541",
      "AcquisitionMatrix": [82, 0, 0, 82],
      "AngioFlag": "N",
      "BitsAllocated": 16,
      "BitsStored": 16,
      "BodyPartExamined": "BRAIN",
      "Columns": 656,
      "EchoNumbers": 1,
      "EchoTime": 27.2,
      "EchoTrainLength": 82,
      "FlipAngle": 44.0,
      "HighBit": 15,
      "ImageOrientationPatient": [0.99695663762249, -0.0779287593329, 0.00213802930057, 0.07653660606819, 0.98362346823579, 0.16317788044757],
      "ImagePositionPatient": [-945.74104219294, -792.87603835859, -203.15798909322],
      "ImageType": [
        "ORIGINAL",
        "PRIMARY",
        "M",
        "MB",
        "ND",
        "NORM",
        "MOSAIC"
],
      "ImagedNucleus": "1H",
      "ImagingFrequency": 123.259053,
      "InPlanePhaseEncodingDirection": "COL",
      "MRAcquisitionType": "2D",
      "MagneticFieldStrength": 3.0,
      "Manufacturer": "SIEMENS",
      "ManufacturerModelName": "Prisma",
      "Modality": "MR",
      "NumberOfAverages": 1.0,
      "NumberOfPhaseEncodingSteps": 82,
      "PercentPhaseFieldOfView": 100.0,
      "PercentSampling": 100.0,
      "PerformedProcedureStepStartTime": "122755.024000",
      "PhotometricInterpretation": "MONOCHROME2",
      "PixelBandwidth": 3050.0,
      "PixelRepresentation": 0,
      "PixelSpacing": [2.6829268932343, 2.6829268932343],
      "ProtocolName": "func_run-02_task-social_acq-ap-mb8",
      "RepetitionTime": 460.0,
      "Rows": 656,
      "SAR": 0.09416545608062,
      "SamplesPerPixel": 1,
      "ScanOptions": "FS",
      "ScanningSequence": "EP",
      "SequenceName": "epfid2d1_82",
      "SequenceVariant": [
        "SK",
        "SS"
],
      "SeriesDescription": "func_run-02_task-social_acq-ap-mb8",
      "SeriesNumber": 14,
      "SeriesTime": "130051.652000",
      "SliceLocation": -57.562998765757,
      "SliceThickness": 2.7000000476837,
      "SmallestImagePixelValue": 0,
      "SoftwareVersions": "syngo MR E11",
      "SpacingBetweenSlices": 2.7000000259453,
      "SpecificCharacterSet": "ISO_IR 100",
      "StudyID": "1",
      "StudyTime": "122754.931000",
      "TransmitCoilName": "Body",
      "VariableFlipAngleFlag": "N",
      "WindowCenterWidthExplanation": "Algo1"
    },
    "slices": {}
  },
  "time": {
    "samples": {
      "AcquisitionNumber": [1, 2, 3, 4, 5, 6, 7, 8, 9, 10, 11, 12, 13, 14, 15, 16, 17, 18, 19, 20, 21, 22, 23, 24, 25, 26, 27, 28, 29, 30, 31, 32, 33, 34, 35, 36, 37, 38, 39, 40, 41, 42, 43, 44, 45, 46, 47, 48, 49, 50, 51, 52, 53, 54, 55, 56, 57, 58, 59, 60, 61, 62, 63, 64, 65, 66, 67, 68, 69, 70, 71, 72, 73, 74, 75, 76, 77, 78, 79, 80, 81, 82, 83, 84, 85, 86, 87, 88, 89, 90, 91, 92, 93, 94, 95, 96, 97, 98, 99, 100, 101, 102, 103, 104, 105, 106, 107, 108, 109, 110, 111, 112, 113, 114, 115, 116, 117, 118, 119, 120, 121, 122, 123, 124, 125, 126, 127, 128, 129, 130, 131, 132, 133, 134, 135, 136, 137, 138, 139, 140, 141, 142, 143, 144, 145, 146, 147, 148, 149, 150, 151, 152, 153, 154, 155, 156, 157, 158, 159, 160, 161, 162, 163, 164, 165, 166, 167, 168, 169, 170, 171, 172, 173, 174, 175, 176, 177, 178, 179, 180, 181, 182, 183, 184, 185, 186, 187, 188, 189, 190, 191, 192, 193, 194, 195, 196, 197, 198, 199, 200, 201, 202, 203, 204, 205, 206, 207, 208, 209, 210, 211, 212, 213, 214, 215, 216, 217, 218, 219, 220, 221, 222, 223, 224, 225, 226, 227, 228, 229, 230, 231, 232, 233, 234, 235, 236, 237, 238, 239, 240, 241, 242, 243, 244, 245, 246, 247, 248, 249, 250, 251, 252, 253, 254, 255, 256, 257, 258, 259, 260, 261, 262, 263, 264, 265, 266, 267, 268, 269, 270, 271, 272, 273, 274, 275, 276, 277, 278, 279, 280, 281, 282, 283, 284, 285, 286, 287, 288, 289, 290, 291, 292, 293, 294, 295, 296, 297, 298, 299, 300, 301, 302, 303, 304, 305, 306, 307, 308, 309, 310, 311, 312, 313, 314, 315, 316, 317, 318, 319, 320, 321, 322, 323, 324, 325, 326, 327, 328, 329, 330, 331, 332, 333, 334, 335, 336, 337, 338, 339, 340, 341, 342, 343, 344, 345, 346, 347, 348, 349, 350, 351, 352, 353, 354, 355, 356, 357, 358, 359, 360, 361, 362, 363, 364, 365, 366, 367, 368, 369, 370, 371, 372, 373, 374, 375, 376, 377, 378, 379, 380, 381, 382, 383, 384, 385, 386, 387, 388, 389, 390, 391, 392, 393, 394, 395, 396, 397, 398, 399, 400, 401, 402, 403, 404, 405, 406, 407, 408, 409, 410, 411, 412, 413, 414, 415, 416, 417, 418, 419, 420, 421, 422, 423, 424, 425, 426, 427, 428, 429, 430, 431, 432, 433, 434, 435, 436, 437, 438, 439, 440, 441, 442, 443, 444, 445, 446, 447, 448, 449, 450, 451, 452, 453, 454, 455, 456, 457, 458, 459, 460, 461, 462, 463, 464, 465, 466, 467, 468, 469, 470, 471, 472, 473, 474, 475, 476, 477, 478, 479, 480, 481, 482, 483, 484, 485, 486, 487, 488, 489, 490, 491, 492, 493, 494, 495, 496, 497, 498, 499, 500, 501, 502, 503, 504, 505, 506, 507, 508, 509, 510, 511, 512, 513, 514, 515, 516, 517, 518, 519, 520, 521, 522, 523, 524, 525, 526, 527, 528, 529, 530, 531, 532, 533, 534, 535, 536, 537, 538, 539, 540, 541, 542, 543, 544, 545, 546, 547, 548, 549, 550, 551, 552, 553, 554, 555, 556, 557, 558, 559, 560, 561, 562, 563, 564, 565, 566, 567, 568, 569, 570, 571, 572, 573, 574, 575, 576, 577, 578, 579, 580, 581, 582, 583, 584, 585, 586, 587, 588, 589, 590, 591, 592, 593, 594, 595, 596, 597, 598, 599, 600, 601, 602, 603, 604, 605, 606, 607, 608, 609, 610, 611, 612, 613, 614, 615, 616, 617, 618, 619, 620, 621, 622, 623, 624, 625, 626, 627, 628, 629, 630, 631, 632, 633, 634, 635, 636, 637, 638, 639, 640, 641, 642, 643, 644, 645, 646, 647, 648, 649, 650, 651, 652, 653, 654, 655, 656, 657, 658, 659, 660, 661, 662, 663, 664, 665, 666, 667, 668, 669, 670, 671, 672, 673, 674, 675, 676, 677, 678, 679, 680, 681, 682, 683, 684, 685, 686, 687, 688, 689, 690, 691, 692, 693, 694, 695, 696, 697, 698, 699, 700, 701, 702, 703, 704, 705, 706, 707, 708, 709, 710, 711, 712, 713, 714, 715, 716, 717, 718, 719, 720, 721, 722, 723, 724, 725, 726, 727, 728, 729, 730, 731, 732, 733, 734, 735, 736, 737, 738, 739, 740, 741, 742, 743, 744, 745, 746, 747, 748, 749, 750, 751, 752, 753, 754, 755, 756, 757, 758, 759, 760, 761, 762, 763, 764, 765, 766, 767, 768, 769, 770, 771, 772, 773, 774, 775, 776, 777, 778, 779, 780, 781, 782, 783, 784, 785, 786, 787, 788, 789, 790, 791, 792, 793, 794, 795, 796, 797, 798, 799, 800, 801, 802, 803, 804, 805, 806, 807, 808, 809, 810, 811, 812, 813, 814, 815, 816, 817, 818, 819, 820, 821, 822, 823, 824, 825, 826, 827, 828, 829, 830, 831, 832, 833, 834, 835, 836, 837, 838, 839, 840, 841, 842, 843, 844, 845, 846, 847, 848, 849, 850, 851, 852, 853, 854, 855, 856, 857, 858, 859, 860, 861, 862, 863, 864, 865, 866, 867, 868, 869, 870, 871, 872],
      "AcquisitionTime": ["130035.415000", "130035.875000", "130036.335000", "130036.795000", "130037.255000", "130037.715000", "130038.175000", "130038.635000", "130039.095000", "130039.555000", "130040.015000", "130040.475000", "130040.935000", "130041.395000", "130041.855000", "130042.315000", "130042.775000", "130043.235000", "130043.695000", "130044.155000", "130044.615000", "130045.075000", "130045.535000", "130045.995000", "130046.455000", "130046.915000", "130047.375000", "130047.835000", "130048.295000", "130048.755000", "130049.215000", "130049.675000", "130050.135000", "130050.595000", "130051.055000", "130051.515000", "130051.975000", "130052.435000", "130052.895000", "130053.355000", "130053.815000", "130054.275000", "130054.735000", "130055.195000", "130055.655000", "130056.115000", "130056.575000", "130057.035000", "130057.495000", "130057.955000", "130058.415000", "130058.875000", "130059.335000", "130059.795000", "130100.255000", "130100.715000", "130101.175000", "130101.635000", "130102.095000", "130102.555000", "130103.015000", "130103.475000", "130103.935000", "130104.395000", "130104.855000", "130105.315000", "130105.775000", "130106.235000", "130106.695000", "130107.155000", "130107.615000", "130108.075000", "130108.535000", "130108.995000", "130109.455000", "130109.915000", "130110.375000", "130110.835000", "130111.295000", "130111.755000", "130112.215000", "130112.675000", "130113.135000", "130113.595000", "130114.055000", "130114.515000", "130114.975000", "130115.435000", "130115.895000", "130116.355000", "130116.815000", "130117.275000", "130117.735000", "130118.195000", "130118.655000", "130119.115000", "130119.575000", "130120.035000", "130120.495000", "130120.955000", "130121.415000", "130121.875000", "130122.335000", "130122.795000", "130123.255000", "130123.715000", "130124.175000", "130124.635000", "130125.095000", "130125.555000", "130126.015000", "130126.475000", "130126.935000", "130127.395000", "130127.855000", "130128.315000", "130128.775000", "130129.235000", "130129.695000", "130130.155000", "130130.615000", "130131.075000", "130131.535000", "130131.995000", "130132.455000", "130132.915000", "130133.375000", "130133.835000", "130134.295000", "130134.755000", "130135.215000", "130135.675000", "130136.135000", "130136.595000", "130137.055000", "130137.515000", "130137.975000", "130138.435000", "130138.895000", "130139.355000", "130139.815000", "130140.275000", "130140.735000", "130141.195000", "130141.655000", "130142.115000", "130142.575000", "130143.035000", "130143.495000", "130143.955000", "130144.415000", "130144.875000", "130145.335000", "130145.795000", "130146.255000", "130146.715000", "130147.175000", "130147.635000", "130148.095000", "130148.555000", "130149.015000", "130149.475000", "130149.935000", "130150.395000", "130150.855000", "130151.315000", "130151.775000", "130152.235000", "130152.695000", "130153.155000", "130153.615000", "130154.075000", "130154.535000", "130154.995000", "130155.455000", "130155.915000", "130156.375000", "130156.835000", "130157.295000", "130157.755000", "130158.215000", "130158.675000", "130159.135000", "130159.595000", "130200.055000", "130200.515000", "130200.975000", "130201.435000", "130201.895000", "130202.355000", "130202.815000", "130203.275000", "130203.735000", "130204.195000", "130204.655000", "130205.115000", "130205.575000", "130206.035000", "130206.495000", "130206.955000", "130207.415000", "130207.875000", "130208.335000", "130208.795000", "130209.255000", "130209.715000", "130210.175000", "130210.635000", "130211.095000", "130211.555000", "130212.015000", "130212.475000", "130212.935000", "130213.395000", "130213.855000", "130214.315000", "130214.775000", "130215.235000", "130215.695000", "130216.155000", "130216.615000", "130217.075000", "130217.535000", "130217.995000", "130218.455000", "130218.915000", "130219.375000", "130219.835000", "130220.295000", "130220.755000", "130221.215000", "130221.675000", "130222.135000", "130222.595000", "130223.055000", "130223.515000", "130223.975000", "130224.435000", "130224.895000", "130225.355000", "130225.815000", "130226.275000", "130226.735000", "130227.195000", "130227.655000", "130228.115000", "130228.575000", "130229.035000", "130229.495000", "130229.955000", "130230.415000", "130230.875000", "130231.335000", "130231.795000", "130232.255000", "130232.715000", "130233.175000", "130233.635000", "130234.095000", "130234.555000", "130235.015000", "130235.475000", "130235.935000", "130236.395000", "130236.855000", "130237.315000", "130237.775000", "130238.235000", "130238.695000", "130239.155000", "130239.615000", "130240.075000", "130240.535000", "130240.995000", "130241.455000", "130241.915000", "130242.375000", "130242.835000", "130243.295000", "130243.755000", "130244.215000", "130244.675000", "130245.135000", "130245.595000", "130246.055000", "130246.515000", "130246.975000", "130247.435000", "130247.895000", "130248.355000", "130248.815000", "130249.275000", "130249.735000", "130250.195000", "130250.655000", "130251.115000", "130251.575000", "130252.035000", "130252.495000", "130252.955000", "130253.415000", "130253.875000", "130254.335000", "130254.795000", "130255.255000", "130255.715000", "130256.175000", "130256.635000", "130257.095000", "130257.555000", "130258.015000", "130258.475000", "130258.935000", "130259.395000", "130259.855000", "130300.315000", "130300.775000", "130301.235000", "130301.695000", "130302.155000", "130302.615000", "130303.075000", "130303.535000", "130303.995000", "130304.455000", "130304.915000", "130305.375000", "130305.835000", "130306.295000", "130306.755000", "130307.215000", "130307.675000", "130308.135000", "130308.595000", "130309.055000", "130309.515000", "130309.975000", "130310.435000", "130310.895000", "130311.355000", "130311.815000", "130312.275000", "130312.735000", "130313.195000", "130313.655000", "130314.115000", "130314.575000", "130315.035000", "130315.495000", "130315.955000", "130316.415000", "130316.875000", "130317.335000", "130317.795000", "130318.255000", "130318.715000", "130319.175000", "130319.635000", "130320.095000", "130320.555000", "130321.015000", "130321.475000", "130321.935000", "130322.395000", "130322.855000", "130323.315000", "130323.775000", "130324.235000", "130324.695000", "130325.155000", "130325.615000", "130326.075000", "130326.535000", "130326.995000", "130327.455000", "130327.915000", "130328.375000", "130328.835000", "130329.295000", "130329.755000", "130330.215000", "130330.675000", "130331.135000", "130331.595000", "130332.055000", "130332.515000", "130332.975000", "130333.435000", "130333.895000", "130334.355000", "130334.815000", "130335.275000", "130335.735000", "130336.195000", "130336.655000", "130337.115000", "130337.575000", "130338.035000", "130338.495000", "130338.955000", "130339.415000", "130339.875000", "130340.335000", "130340.795000", "130341.255000", "130341.715000", "130342.175000", "130342.635000", "130343.095000", "130343.555000", "130344.015000", "130344.475000", "130344.935000", "130345.395000", "130345.855000", "130346.315000", "130346.775000", "130347.235000", "130347.695000", "130348.155000", "130348.615000", "130349.075000", "130349.535000", "130349.995000", "130350.455000", "130350.915000", "130351.375000", "130351.835000", "130352.295000", "130352.755000", "130353.215000", "130353.675000", "130354.135000", "130354.595000", "130355.055000", "130355.515000", "130355.975000", "130356.435000", "130356.895000", "130357.355000", "130357.815000", "130358.275000", "130358.735000", "130359.195000", "130359.655000", "130400.115000", "130400.575000", "130401.035000", "130401.495000", "130401.955000", "130402.415000", "130402.875000", "130403.335000", "130403.795000", "130404.255000", "130404.715000", "130405.175000", "130405.635000", "130406.095000", "130406.555000", "130407.015000", "130407.475000", "130407.935000", "130408.395000", "130408.855000", "130409.315000", "130409.775000", "130410.235000", "130410.695000", "130411.155000", "130411.615000", "130412.075000", "130412.535000", "130412.995000", "130413.455000", "130413.915000", "130414.375000", "130414.835000", "130415.295000", "130415.755000", "130416.215000", "130416.675000", "130417.135000", "130417.595000", "130418.055000", "130418.515000", "130418.975000", "130419.435000", "130419.895000", "130420.355000", "130420.815000", "130421.275000", "130421.735000", "130422.195000", "130422.655000", "130423.115000", "130423.575000", "130424.035000", "130424.495000", "130424.955000", "130425.415000", "130425.875000", "130426.335000", "130426.795000", "130427.255000", "130427.715000", "130428.175000", "130428.635000", "130429.095000", "130429.555000", "130430.015000", "130430.475000", "130430.935000", "130431.395000", "130431.855000", "130432.315000", "130432.775000", "130433.235000", "130433.695000", "130434.155000", "130434.615000", "130435.075000", "130435.535000", "130435.995000", "130436.455000", "130436.915000", "130437.375000", "130437.835000", "130438.295000", "130438.755000", "130439.215000", "130439.675000", "130440.135000", "130440.595000", "130441.055000", "130441.515000", "130441.975000", "130442.435000", "130442.895000", "130443.355000", "130443.815000", "130444.275000", "130444.735000", "130445.195000", "130445.655000", "130446.115000", "130446.575000", "130447.035000", "130447.495000", "130447.955000", "130448.415000", "130448.875000", "130449.335000", "130449.795000", "130450.255000", "130450.715000", "130451.175000", "130451.635000", "130452.095000", "130452.555000", "130453.015000", "130453.475000", "130453.935000", "130454.395000", "130454.855000", "130455.315000", "130455.775000", "130456.235000", "130456.695000", "130457.155000", "130457.615000", "130458.075000", "130458.535000", "130458.995000", "130459.455000", "130459.915000", "130500.375000", "130500.835000", "130501.295000", "130501.755000", "130502.215000", "130502.675000", "130503.135000", "130503.595000", "130504.055000", "130504.515000", "130504.975000", "130505.435000", "130505.895000", "130506.355000", "130506.815000", "130507.275000", "130507.735000", "130508.195000", "130508.655000", "130509.115000", "130509.575000", "130510.035000", "130510.495000", "130510.955000", "130511.415000", "130511.875000", "130512.335000", "130512.795000", "130513.255000", "130513.715000", "130514.175000", "130514.635000", "130515.095000", "130515.555000", "130516.015000", "130516.475000", "130516.935000", "130517.395000", "130517.855000", "130518.315000", "130518.775000", "130519.235000", "130519.695000", "130520.155000", "130520.615000", "130521.075000", "130521.535000", "130521.995000", "130522.455000", "130522.915000", "130523.375000", "130523.835000", "130524.295000", "130524.755000", "130525.215000", "130525.675000", "130526.135000", "130526.595000", "130527.055000", "130527.515000", "130527.975000", "130528.435000", "130528.895000", "130529.355000", "130529.815000", "130530.275000", "130530.735000", "130531.195000", "130531.655000", "130532.115000", "130532.575000", "130533.035000", "130533.495000", "130533.955000", "130534.415000", "130534.875000", "130535.335000", "130535.795000", "130536.255000", "130536.715000", "130537.175000", "130537.635000", "130538.095000", "130538.555000", "130539.015000", "130539.475000", "130539.935000", "130540.395000", "130540.855000", "130541.315000", "130541.775000", "130542.235000", "130542.695000", "130543.155000", "130543.615000", "130544.075000", "130544.535000", "130544.995000", "130545.455000", "130545.915000", "130546.375000", "130546.835000", "130547.295000", "130547.755000", "130548.215000", "130548.675000", "130549.135000", "130549.595000", "130550.055000", "130550.515000", "130550.975000", "130551.435000", "130551.895000", "130552.355000", "130552.815000", "130553.275000", "130553.735000", "130554.195000", "130554.655000", "130555.115000", "130555.575000", "130556.035000", "130556.495000", "130556.955000", "130557.415000", "130557.875000", "130558.335000", "130558.795000", "130559.255000", "130559.715000", "130600.175000", "130600.635000", "130601.095000", "130601.555000", "130602.015000", "130602.475000", "130602.935000", "130603.395000", "130603.855000", "130604.315000", "130604.775000", "130605.235000", "130605.695000", "130606.155000", "130606.615000", "130607.075000", "130607.535000", "130607.995000", "130608.455000", "130608.915000", "130609.375000", "130609.835000", "130610.295000", "130610.755000", "130611.215000", "130611.675000", "130612.135000", "130612.595000", "130613.055000", "130613.515000", "130613.975000", "130614.435000", "130614.895000", "130615.355000", "130615.815000", "130616.275000", "130616.735000", "130617.195000", "130617.655000", "130618.115000", "130618.575000", "130619.035000", "130619.495000", "130619.955000", "130620.415000", "130620.875000", "130621.335000", "130621.795000", "130622.255000", "130622.715000", "130623.175000", "130623.635000", "130624.095000", "130624.555000", "130625.015000", "130625.475000", "130625.935000", "130626.395000", "130626.855000", "130627.315000", "130627.775000", "130628.235000", "130628.695000", "130629.155000", "130629.615000", "130630.075000", "130630.535000", "130630.995000", "130631.455000", "130631.915000", "130632.375000", "130632.835000", "130633.295000", "130633.755000", "130634.215000", "130634.675000", "130635.135000", "130635.595000", "130636.055000", "130636.515000", "130636.975000", "130637.435000", "130637.895000", "130638.355000", "130638.815000", "130639.275000", "130639.735000", "130640.195000", "130640.655000", "130641.115000", "130641.575000", "130642.035000", "130642.495000", "130642.955000", "130643.415000", "130643.875000", "130644.335000", "130644.795000", "130645.255000", "130645.715000", "130646.175000", "130646.635000", "130647.095000", "130647.555000", "130648.015000", "130648.475000", "130648.935000", "130649.395000", "130649.855000", "130650.315000", "130650.775000", "130651.235000", "130651.695000", "130652.155000", "130652.615000", "130653.075000", "130653.535000", "130653.995000", "130654.455000", "130654.915000", "130655.375000", "130655.835000", "130656.295000", "130656.755000", "130657.215000", "130657.675000", "130658.135000", "130658.595000", "130659.055000", "130659.515000", "130659.975000", "130700.435000", "130700.895000", "130701.355000", "130701.815000", "130702.275000", "130702.735000", "130703.195000", "130703.655000", "130704.115000", "130704.575000", "130705.035000", "130705.495000", "130705.955000", "130706.415000", "130706.875000", "130707.335000", "130707.795000", "130708.255000", "130708.715000", "130709.175000", "130709.635000", "130710.095000", "130710.555000", "130711.015000", "130711.475000", "130711.935000", "130712.395000", "130712.855000", "130713.315000", "130713.775000", "130714.235000", "130714.695000", "130715.155000", "130715.615000", "130716.075000"],
