{
  "AcquisitionMatrixPE": 82,
  "AcquisitionNumber": 1,
  "AcquisitionTime": "13:42:40.607500",
  "BandwidthPerPixelPhaseEncode": 24.888,
  "BaseResolution": 82,
  "BodyPartExamined": "BRAIN",
  "ConsistencyInfo": "N4_VE11E_LATEST_20181129",
  "ConversionSoftware": "dcm2niix",
  "ConversionSoftwareVersion": "v1.0.20201102",
  "DerivedVendorReportedEchoSpacing": 0.00049,
  "DeviceSerialNumber": "66112",
  "DwellTime": 2e-06,
  "EchoTime": 0.0272,
  "EchoTrainLength": 82,
  "EffectiveEchoSpacing": 0.00049,
  "FlipAngle": 44,
  "ImageComments": "Unaliased MB8/PE3",
  "ImageOrientationPatientDICOM": [0.997768, 0.0221218, 0.0629994, -0.0214229, 0.999701, -0.0117476],
  "ImageType": [
    "ORIGINAL",
    "PRIMARY",
    "M",
    "MB",
    "ND",
    "NORM",
    "MOSAIC"
],
  "ImagingFrequency": 123.252,
  "InPlanePhaseEncodingDirectionDICOM": "COL",
  "InstitutionAddress": "Maynard 3,Hanover,NH,US,03755",
  "InstitutionName": "Dartmouth College - PBS",
  "InstitutionalDepartmentName": "Department",
  "MRAcquisitionType": "2D",
  "MagneticFieldStrength": 3,
  "Manufacturer": "Siemens",
  "ManufacturersModelName": "Prisma",
  "Modality": "MR",
  "MultibandAccelerationFactor": 8,
  "PartialFourier": 1,
  "PatientPosition": "HFS",
  "PercentPhaseFOV": 100,
  "PercentSampling": 100,
  "PhaseEncodingDirection": "j-",
  "PhaseEncodingSteps": 82,
  "PhaseResolution": 1,
  "PixelBandwidth": 3050,
  "ProcedureStepDescription": "Wager_Wager^1076_spacetop",
  "ProtocolName": "func_run-02_task-alignvideo_acq-ap-mb8",
  "PulseSequenceDetails": "%CustomerSeq%\\cmrr_mbep2d_bold",
  "ReceiveCoilActiveElements": "HEA;HEP",
  "ReceiveCoilName": "Head_32",
  "ReconMatrixPE": 82,
  "RepetitionTime": 0.46,
  "SAR": 0.0875243,
  "ScanOptions": "FS",
  "ScanningSequence": "EP",
  "SequenceName": "epfid2d1_82",
  "SequenceVariant": "SK\\SS",
  "SeriesDescription": "func_run-02_task-alignvideo_acq-ap-mb8",
  "SeriesNumber": 32,
  "ShimSetting": [4168, -7694, -7244, 524, -7, -11, 26, 27],
  "SliceThickness": 2.7,
  "SliceTiming": [0, 0.2525, 0.065, 0.315, 0.1275, 0.3775, 0.19, 0, 0.2525, 0.065, 0.315, 0.1275, 0.3775, 0.19, 0, 0.2525, 0.065, 0.315, 0.1275, 0.3775, 0.19, 0, 0.2525, 0.065, 0.315, 0.1275, 0.3775, 0.19, 0, 0.2525, 0.065, 0.315, 0.1275, 0.3775, 0.19, 0, 0.2525, 0.065, 0.315, 0.1275, 0.3775, 0.19, 0, 0.2525, 0.065, 0.315, 0.1275, 0.3775, 0.19, 0, 0.2525, 0.065, 0.315, 0.1275, 0.3775, 0.19],
  "SoftwareVersions": "syngo MR E11",
  "SpacingBetweenSlices": 2.7,
  "StationName": "AWP66112",
  "TaskName": "alignvideo",
  "TotalReadoutTime": 0.03969,
  "TxRefAmp": 229.189,
  "WipMemBlock": "506baf28-18a5-4113-ba02-99873889232c||Sequence: R016 ve11e/master r/434b28f1; Aug  7 2019 18:53:46 by eja",
  "dcmmeta_affine": [
    [-2.6769394874572754, -0.05747615545988083, 0.17074938118457794, 109.48538208007812],
    [-0.05935120955109596, 2.682126045227051, -0.028003616258502007, -85.93998718261719],
    [0.16902288794517517, 0.031517840921878815, 2.6944499015808105, -85.49298095703125],
    [0.0, 0.0, 0.0, 1.0]
],
  "dcmmeta_reorient_transform": [
    [0.0, -1.0, 0.0, 81.0],
    [1.0, 0.0, 0.0, 0.0],
    [0.0, 0.0, 1.0, 0.0],
    [0.0, 0.0, 0.0, 1.0]
],
  "dcmmeta_shape": [82, 82, 56, 926],
  "dcmmeta_slice_dim": 2,
  "dcmmeta_version": 0.6,
  "global": {
    "const": {
      "AccessionNumber": "A004053",
      "AcquisitionMatrix": [82, 0, 0, 82],
      "AngioFlag": "N",
      "BitsAllocated": 16,
      "BitsStored": 16,
      "BodyPartExamined": "BRAIN",
      "Columns": 656,
      "EchoNumbers": 1,
      "EchoTime": 27.2,
      "EchoTrainLength": 82,
      "FlipAngle": 44.0,
      "HighBit": 15,
      "ImageOrientationPatient": [0.99776835796097, 0.0221218145499, 0.0629994378775, -0.0214229295172, 0.99970148192369, -0.0117475584905],
      "ImagePositionPatient": [-856.61581385459, -918.11617776149, -122.40398495295],
      "ImageType": [
        "ORIGINAL",
        "PRIMARY",
        "M",
        "MB",
        "ND",
        "NORM",
        "MOSAIC"
],
      "ImagedNucleus": "1H",
      "ImagingFrequency": 123.252235,
      "InPlanePhaseEncodingDirection": "COL",
      "MRAcquisitionType": "2D",
      "MagneticFieldStrength": 3.0,
      "Manufacturer": "SIEMENS",
      "ManufacturerModelName": "Prisma",
      "Modality": "MR",
      "NumberOfAverages": 1.0,
      "NumberOfPhaseEncodingSteps": 82,
      "PercentPhaseFieldOfView": 100.0,
      "PercentSampling": 100.0,
      "PerformedProcedureStepStartTime": "121237.882000",
      "PhotometricInterpretation": "MONOCHROME2",
      "PixelBandwidth": 3050.0,
      "PixelRepresentation": 0,
      "PixelSpacing": [2.6829268932343, 2.6829268932343],
      "ProtocolName": "func_run-02_task-alignvideo_acq-ap-mb8",
      "RepetitionTime": 460.0,
      "Rows": 656,
      "SAR": 0.08752432636289,
      "SamplesPerPixel": 1,
      "ScanOptions": "FS",
      "ScanningSequence": "EP",
      "SequenceName": "epfid2d1_82",
      "SequenceVariant": [
        "SK",
        "SS"
],
      "SeriesDescription": "func_run-02_task-alignvideo_acq-ap-mb8",
      "SeriesNumber": 32,
      "SeriesTime": "134257.600000",
      "SliceLocation": -77.501988344518,
      "SliceThickness": 2.7000000476837,
      "SmallestImagePixelValue": 0,
      "SoftwareVersions": "syngo MR E11",
      "SpacingBetweenSlices": 2.7000000273712,
      "SpecificCharacterSet": "ISO_IR 100",
      "StudyID": "1",
      "StudyTime": "121237.823000",
      "TransmitCoilName": "Body",
      "VariableFlipAngleFlag": "N",
      "WindowCenterWidthExplanation": "Algo1"
    },
    "slices": {}
  },
  "time": {
    "samples": {
      "AcquisitionNumber": [1, 2, 3, 4, 5, 6, 7, 8, 9, 10, 11, 12, 13, 14, 15, 16, 17, 18, 19, 20, 21, 22, 23, 24, 25, 26, 27, 28, 29, 30, 31, 32, 33, 34, 35, 36, 37, 38, 39, 40, 41, 42, 43, 44, 45, 46, 47, 48, 49, 50, 51, 52, 53, 54, 55, 56, 57, 58, 59, 60, 61, 62, 63, 64, 65, 66, 67, 68, 69, 70, 71, 72, 73, 74, 75, 76, 77, 78, 79, 80, 81, 82, 83, 84, 85, 86, 87, 88, 89, 90, 91, 92, 93, 94, 95, 96, 97, 98, 99, 100, 101, 102, 103, 104, 105, 106, 107, 108, 109, 110, 111, 112, 113, 114, 115, 116, 117, 118, 119, 120, 121, 122, 123, 124, 125, 126, 127, 128, 129, 130, 131, 132, 133, 134, 135, 136, 137, 138, 139, 140, 141, 142, 143, 144, 145, 146, 147, 148, 149, 150, 151, 152, 153, 154, 155, 156, 157, 158, 159, 160, 161, 162, 163, 164, 165, 166, 167, 168, 169, 170, 171, 172, 173, 174, 175, 176, 177, 178, 179, 180, 181, 182, 183, 184, 185, 186, 187, 188, 189, 190, 191, 192, 193, 194, 195, 196, 197, 198, 199, 200, 201, 202, 203, 204, 205, 206, 207, 208, 209, 210, 211, 212, 213, 214, 215, 216, 217, 218, 219, 220, 221, 222, 223, 224, 225, 226, 227, 228, 229, 230, 231, 232, 233, 234, 235, 236, 237, 238, 239, 240, 241, 242, 243, 244, 245, 246, 247, 248, 249, 250, 251, 252, 253, 254, 255, 256, 257, 258, 259, 260, 261, 262, 263, 264, 265, 266, 267, 268, 269, 270, 271, 272, 273, 274, 275, 276, 277, 278, 279, 280, 281, 282, 283, 284, 285, 286, 287, 288, 289, 290, 291, 292, 293, 294, 295, 296, 297, 298, 299, 300, 301, 302, 303, 304, 305, 306, 307, 308, 309, 310, 311, 312, 313, 314, 315, 316, 317, 318, 319, 320, 321, 322, 323, 324, 325, 326, 327, 328, 329, 330, 331, 332, 333, 334, 335, 336, 337, 338, 339, 340, 341, 342, 343, 344, 345, 346, 347, 348, 349, 350, 351, 352, 353, 354, 355, 356, 357, 358, 359, 360, 361, 362, 363, 364, 365, 366, 367, 368, 369, 370, 371, 372, 373, 374, 375, 376, 377, 378, 379, 380, 381, 382, 383, 384, 385, 386, 387, 388, 389, 390, 391, 392, 393, 394, 395, 396, 397, 398, 399, 400, 401, 402, 403, 404, 405, 406, 407, 408, 409, 410, 411, 412, 413, 414, 415, 416, 417, 418, 419, 420, 421, 422, 423, 424, 425, 426, 427, 428, 429, 430, 431, 432, 433, 434, 435, 436, 437, 438, 439, 440, 441, 442, 443, 444, 445, 446, 447, 448, 449, 450, 451, 452, 453, 454, 455, 456, 457, 458, 459, 460, 461, 462, 463, 464, 465, 466, 467, 468, 469, 470, 471, 472, 473, 474, 475, 476, 477, 478, 479, 480, 481, 482, 483, 484, 485, 486, 487, 488, 489, 490, 491, 492, 493, 494, 495, 496, 497, 498, 499, 500, 501, 502, 503, 504, 505, 506, 507, 508, 509, 510, 511, 512, 513, 514, 515, 516, 517, 518, 519, 520, 521, 522, 523, 524, 525, 526, 527, 528, 529, 530, 531, 532, 533, 534, 535, 536, 537, 538, 539, 540, 541, 542, 543, 544, 545, 546, 547, 548, 549, 550, 551, 552, 553, 554, 555, 556, 557, 558, 559, 560, 561, 562, 563, 564, 565, 566, 567, 568, 569, 570, 571, 572, 573, 574, 575, 576, 577, 578, 579, 580, 581, 582, 583, 584, 585, 586, 587, 588, 589, 590, 591, 592, 593, 594, 595, 596, 597, 598, 599, 600, 601, 602, 603, 604, 605, 606, 607, 608, 609, 610, 611, 612, 613, 614, 615, 616, 617, 618, 619, 620, 621, 622, 623, 624, 625, 626, 627, 628, 629, 630, 631, 632, 633, 634, 635, 636, 637, 638, 639, 640, 641, 642, 643, 644, 645, 646, 647, 648, 649, 650, 651, 652, 653, 654, 655, 656, 657, 658, 659, 660, 661, 662, 663, 664, 665, 666, 667, 668, 669, 670, 671, 672, 673, 674, 675, 676, 677, 678, 679, 680, 681, 682, 683, 684, 685, 686, 687, 688, 689, 690, 691, 692, 693, 694, 695, 696, 697, 698, 699, 700, 701, 702, 703, 704, 705, 706, 707, 708, 709, 710, 711, 712, 713, 714, 715, 716, 717, 718, 719, 720, 721, 722, 723, 724, 725, 726, 727, 728, 729, 730, 731, 732, 733, 734, 735, 736, 737, 738, 739, 740, 741, 742, 743, 744, 745, 746, 747, 748, 749, 750, 751, 752, 753, 754, 755, 756, 757, 758, 759, 760, 761, 762, 763, 764, 765, 766, 767, 768, 769, 770, 771, 772, 773, 774, 775, 776, 777, 778, 779, 780, 781, 782, 783, 784, 785, 786, 787, 788, 789, 790, 791, 792, 793, 794, 795, 796, 797, 798, 799, 800, 801, 802, 803, 804, 805, 806, 807, 808, 809, 810, 811, 812, 813, 814, 815, 816, 817, 818, 819, 820, 821, 822, 823, 824, 825, 826, 827, 828, 829, 830, 831, 832, 833, 834, 835, 836, 837, 838, 839, 840, 841, 842, 843, 844, 845, 846, 847, 848, 849, 850, 851, 852, 853, 854, 855, 856, 857, 858, 859, 860, 861, 862, 863, 864, 865, 866, 867, 868, 869, 870, 871, 872, 873, 874, 875, 876, 877, 878, 879, 880, 881, 882, 883, 884, 885, 886, 887, 888, 889, 890, 891, 892, 893, 894, 895, 896, 897, 898, 899, 900, 901, 902, 903, 904, 905, 906, 907, 908, 909, 910, 911, 912, 913, 914, 915, 916, 917, 918, 919, 920, 921, 922, 923, 924, 925, 926],
      "AcquisitionTime": ["134240.607500", "134241.067500", "134241.527500", "134241.987500", "134242.447500", "134242.907500", "134243.367500", "134243.827500", "134244.287500", "134244.747500", "134245.207500", "134245.667500", "134246.127500", "134246.587500", "134247.047500", "134247.507500", "134247.967500", "134248.427500", "134248.887500", "134249.347500", "134249.807500", "134250.267500", "134250.727500", "134251.187500", "134251.647500", "134252.107500", "134252.567500", "134253.027500", "134253.487500", "134253.947500", "134254.407500", "134254.867500", "134255.327500", "134255.787500", "134256.247500", "134256.707500", "134257.167500", "134257.627500", "134258.087500", "134258.547500", "134259.007500", "134259.467500", "134259.927500", "134300.387500", "134300.847500", "134301.307500", "134301.767500", "134302.227500", "134302.687500", "134303.147500", "134303.607500", "134304.067500", "134304.527500", "134304.987500", "134305.447500", "134305.907500", "134306.367500", "134306.827500", "134307.287500", "134307.747500", "134308.207500", "134308.667500", "134309.127500", "134309.587500", "134310.047500", "134310.507500", "134310.967500", "134311.427500", "134311.887500", "134312.347500", "134312.807500", "134313.267500", "134313.727500", "134314.187500", "134314.647500", "134315.107500", "134315.567500", "134316.027500", "134316.487500", "134316.947500", "134317.407500", "134317.867500", "134318.327500", "134318.787500", "134319.247500", "134319.707500", "134320.167500", "134320.627500", "134321.087500", "134321.547500", "134322.007500", "134322.467500", "134322.927500", "134323.387500", "134323.847500", "134324.307500", "134324.767500", "134325.227500", "134325.687500", "134326.147500", "134326.607500", "134327.067500", "134327.527500", "134327.987500", "134328.447500", "134328.907500", "134329.367500", "134329.827500", "134330.287500", "134330.747500", "134331.207500", "134331.667500", "134332.127500", "134332.587500", "134333.047500", "134333.507500", "134333.967500", "134334.427500", "134334.887500", "134335.347500", "134335.807500", "134336.267500", "134336.727500", "134337.187500", "134337.647500", "134338.107500", "134338.567500", "134339.027500", "134339.487500", "134339.947500", "134340.407500", "134340.867500", "134341.327500", "134341.787500", "134342.247500", "134342.707500", "134343.167500", "134343.627500", "134344.087500", "134344.547500", "134345.007500", "134345.467500", "134345.927500", "134346.387500", "134346.847500", "134347.307500", "134347.767500", "134348.227500", "134348.687500", "134349.147500", "134349.607500", "134350.067500", "134350.527500", "134350.987500", "134351.447500", "134351.907500", "134352.367500", "134352.827500", "134353.287500", "134353.747500", "134354.207500", "134354.667500", "134355.127500", "134355.587500", "134356.047500", "134356.507500", "134356.967500", "134357.427500", "134357.887500", "134358.347500", "134358.807500", "134359.267500", "134359.727500", "134400.187500", "134400.647500", "134401.107500", "134401.567500", "134402.027500", "134402.487500", "134402.947500", "134403.407500", "134403.867500", "134404.327500", "134404.787500", "134405.247500", "134405.707500", "134406.167500", "134406.627500", "134407.087500", "134407.547500", "134408.007500", "134408.467500", "134408.927500", "134409.387500", "134409.847500", "134410.307500", "134410.767500", "134411.227500", "134411.687500", "134412.147500", "134412.607500", "134413.067500", "134413.527500", "134413.987500", "134414.447500", "134414.907500", "134415.367500", "134415.827500", "134416.287500", "134416.747500", "134417.207500", "134417.667500", "134418.127500", "134418.587500", "134419.047500", "134419.507500", "134419.967500", "134420.427500", "134420.887500", "134421.347500", "134421.807500", "134422.267500", "134422.727500", "134423.187500", "134423.647500", "134424.107500", "134424.567500", "134425.027500", "134425.487500", "134425.947500", "134426.407500", "134426.867500", "134427.327500", "134427.787500", "134428.247500", "134428.707500", "134429.167500", "134429.627500", "134430.087500", "134430.547500", "134431.007500", "134431.467500", "134431.927500", "134432.387500", "134432.847500", "134433.307500", "134433.767500", "134434.227500", "134434.687500", "134435.147500", "134435.607500", "134436.067500", "134436.527500", "134436.987500", "134437.447500", "134437.907500", "134438.367500", "134438.827500", "134439.287500", "134439.747500", "134440.207500", "134440.667500", "134441.127500", "134441.587500", "134442.047500", "134442.507500", "134442.967500", "134443.427500", "134443.887500", "134444.347500", "134444.807500", "134445.267500", "134445.727500", "134446.187500", "134446.647500", "134447.107500", "134447.567500", "134448.027500", "134448.487500", "134448.947500", "134449.407500", "134449.867500", "134450.327500", "134450.787500", "134451.247500", "134451.707500", "134452.167500", "134452.627500", "134453.087500", "134453.547500", "134454.007500", "134454.467500", "134454.927500", "134455.387500", "134455.847500", "134456.307500", "134456.767500", "134457.227500", "134457.687500", "134458.147500", "134458.607500", "134459.067500", "134459.527500", "134459.987500", "134500.447500", "134500.907500", "134501.367500", "134501.827500", "134502.287500", "134502.747500", "134503.207500", "134503.667500", "134504.127500", "134504.587500", "134505.047500", "134505.507500", "134505.967500", "134506.427500", "134506.887500", "134507.347500", "134507.807500", "134508.267500", "134508.727500", "134509.187500", "134509.647500", "134510.107500", "134510.567500", "134511.027500", "134511.487500", "134511.947500", "134512.407500", "134512.867500", "134513.327500", "134513.787500", "134514.247500", "134514.707500", "134515.167500", "134515.627500", "134516.087500", "134516.547500", "134517.007500", "134517.467500", "134517.927500", "134518.387500", "134518.847500", "134519.307500", "134519.767500", "134520.227500", "134520.687500", "134521.147500", "134521.607500", "134522.067500", "134522.527500", "134522.987500", "134523.447500", "134523.907500", "134524.367500", "134524.827500", "134525.287500", "134525.747500", "134526.207500", "134526.667500", "134527.127500", "134527.587500", "134528.047500", "134528.507500", "134528.967500", "134529.427500", "134529.887500", "134530.347500", "134530.807500", "134531.267500", "134531.727500", "134532.187500", "134532.647500", "134533.107500", "134533.567500", "134534.027500", "134534.487500", "134534.947500", "134535.407500", "134535.867500", "134536.327500", "134536.787500", "134537.247500", "134537.707500", "134538.167500", "134538.627500", "134539.087500", "134539.547500", "134540.007500", "134540.467500", "134540.927500", "134541.387500", "134541.847500", "134542.307500", "134542.767500", "134543.227500", "134543.687500", "134544.147500", "134544.607500", "134545.067500", "134545.527500", "134545.987500", "134546.447500", "134546.907500", "134547.367500", "134547.827500", "134548.287500", "134548.747500", "134549.207500", "134549.667500", "134550.127500", "134550.587500", "134551.047500", "134551.507500", "134551.967500", "134552.427500", "134552.887500", "134553.347500", "134553.807500", "134554.267500", "134554.727500", "134555.187500", "134555.647500", "134556.107500", "134556.567500", "134557.027500", "134557.487500", "134557.947500", "134558.407500", "134558.867500", "134559.327500", "134559.787500", "134600.247500", "134600.707500", "134601.167500", "134601.627500", "134602.087500", "134602.547500", "134603.007500", "134603.467500", "134603.927500", "134604.387500", "134604.847500", "134605.307500", "134605.767500", "134606.227500", "134606.687500", "134607.147500", "134607.607500", "134608.067500", "134608.527500", "134608.987500", "134609.447500", "134609.907500", "134610.367500", "134610.827500", "134611.287500", "134611.747500", "134612.207500", "134612.667500", "134613.127500", "134613.587500", "134614.047500", "134614.507500", "134614.967500", "134615.427500", "134615.887500", "134616.347500", "134616.807500", "134617.267500", "134617.727500", "134618.187500", "134618.647500", "134619.107500", "134619.567500", "134620.027500", "134620.487500", "134620.947500", "134621.407500", "134621.867500", "134622.327500", "134622.787500", "134623.247500", "134623.707500", "134624.167500", "134624.627500", "134625.087500", "134625.547500", "134626.007500", "134626.467500", "134626.927500", "134627.387500", "134627.847500", "134628.307500", "134628.767500", "134629.227500", "134629.687500", "134630.147500", "134630.607500", "134631.067500", "134631.527500", "134631.987500", "134632.447500", "134632.907500", "134633.367500", "134633.827500", "134634.287500", "134634.747500", "134635.207500", "134635.667500", "134636.127500", "134636.587500", "134637.047500", "134637.507500", "134637.967500", "134638.427500", "134638.887500", "134639.347500", "134639.807500", "134640.267500", "134640.727500", "134641.187500", "134641.647500", "134642.107500", "134642.567500", "134643.027500", "134643.487500", "134643.947500", "134644.407500", "134644.867500", "134645.327500", "134645.787500", "134646.247500", "134646.707500", "134647.167500", "134647.627500", "134648.087500", "134648.547500", "134649.007500", "134649.467500", "134649.927500", "134650.387500", "134650.847500", "134651.307500", "134651.767500", "134652.227500", "134652.687500", "134653.147500", "134653.607500", "134654.067500", "134654.527500", "134654.987500", "134655.447500", "134655.907500", "134656.367500", "134656.827500", "134657.287500", "134657.747500", "134658.207500", "134658.667500", "134659.127500", "134659.587500", "134700.047500", "134700.507500", "134700.967500", "134701.427500", "134701.887500", "134702.347500", "134702.807500", "134703.267500", "134703.727500", "134704.187500", "134704.647500", "134705.107500", "134705.567500", "134706.027500", "134706.487500", "134706.947500", "134707.407500", "134707.867500", "134708.327500", "134708.787500", "134709.247500", "134709.707500", "134710.167500", "134710.627500", "134711.087500", "134711.547500", "134712.007500", "134712.467500", "134712.927500", "134713.387500", "134713.847500", "134714.307500", "134714.767500", "134715.227500", "134715.687500", "134716.147500", "134716.607500", "134717.067500", "134717.527500", "134717.987500", "134718.447500", "134718.907500", "134719.367500", "134719.827500", "134720.287500", "134720.747500", "134721.207500", "134721.667500", "134722.127500", "134722.587500", "134723.047500", "134723.507500", "134723.967500", "134724.427500", "134724.887500", "134725.347500", "134725.807500", "134726.267500", "134726.727500", "134727.187500", "134727.647500", "134728.107500", "134728.567500", "134729.027500", "134729.487500", "134729.947500", "134730.407500", "134730.867500", "134731.327500", "134731.787500", "134732.247500", "134732.707500", "134733.167500", "134733.627500", "134734.087500", "134734.547500", "134735.007500", "134735.467500", "134735.927500", "134736.387500", "134736.847500", "134737.307500", "134737.767500", "134738.227500", "134738.687500", "134739.147500", "134739.607500", "134740.067500", "134740.527500", "134740.987500", "134741.447500", "134741.907500", "134742.367500", "134742.827500", "134743.287500", "134743.747500", "134744.207500", "134744.667500", "134745.127500", "134745.587500", "134746.047500", "134746.507500", "134746.967500", "134747.427500", "134747.887500", "134748.347500", "134748.807500", "134749.267500", "134749.727500", "134750.187500", "134750.647500", "134751.107500", "134751.567500", "134752.027500", "134752.487500", "134752.947500", "134753.407500", "134753.867500", "134754.327500", "134754.787500", "134755.247500", "134755.707500", "134756.167500", "134756.627500", "134757.087500", "134757.547500", "134758.007500", "134758.467500", "134758.927500", "134759.387500", "134759.847500", "134800.307500", "134800.767500", "134801.227500", "134801.687500", "134802.147500", "134802.607500", "134803.067500", "134803.527500", "134803.987500", "134804.447500", "134804.907500", "134805.367500", "134805.827500", "134806.287500", "134806.747500", "134807.207500", "134807.667500", "134808.127500", "134808.587500", "134809.047500", "134809.507500", "134809.967500", "134810.427500", "134810.887500", "134811.347500", "134811.807500", "134812.267500", "134812.727500", "134813.187500", "134813.647500", "134814.107500", "134814.567500", "134815.027500", "134815.487500", "134815.947500", "134816.407500", "134816.867500", "134817.327500", "134817.787500", "134818.247500", "134818.707500", "134819.167500", "134819.627500", "134820.087500", "134820.547500", "134821.007500", "134821.467500", "134821.927500", "134822.387500", "134822.847500", "134823.307500", "134823.767500", "134824.227500", "134824.687500", "134825.147500", "134825.607500", "134826.067500", "134826.527500", "134826.987500", "134827.447500", "134827.907500", "134828.367500", "134828.827500", "134829.287500", "134829.747500", "134830.207500", "134830.667500", "134831.127500", "134831.587500", "134832.047500", "134832.507500", "134832.967500", "134833.427500", "134833.887500", "134834.347500", "134834.807500", "134835.267500", "134835.727500", "134836.187500", "134836.647500", "134837.107500", "134837.567500", "134838.027500", "134838.487500", "134838.947500", "134839.407500", "134839.867500", "134840.327500", "134840.787500", "134841.247500", "134841.707500", "134842.167500", "134842.627500", "134843.087500", "134843.547500", "134844.007500", "134844.467500", "134844.927500", "134845.387500", "134845.847500", "134846.307500", "134846.767500", "134847.227500", "134847.687500", "134848.147500", "134848.607500", "134849.067500", "134849.527500", "134849.987500", "134850.447500", "134850.907500", "134851.367500", "134851.827500", "134852.287500", "134852.747500", "134853.207500", "134853.667500", "134854.127500", "134854.587500", "134855.047500", "134855.507500", "134855.967500", "134856.427500", "134856.887500", "134857.347500", "134857.807500", "134858.267500", "134858.727500", "134859.187500", "134859.647500", "134900.107500", "134900.567500", "134901.027500", "134901.487500", "134901.947500", "134902.407500", "134902.867500", "134903.327500", "134903.787500", "134904.247500", "134904.707500", "134905.167500", "134905.627500", "134906.087500", "134906.547500", "134907.007500", "134907.467500", "134907.927500", "134908.387500", "134908.847500", "134909.307500", "134909.767500", "134910.227500", "134910.687500", "134911.147500", "134911.607500", "134912.067500", "134912.527500", "134912.987500", "134913.447500", "134913.907500", "134914.367500", "134914.827500", "134915.287500", "134915.747500", "134916.207500", "134916.667500", "134917.127500", "134917.587500", "134918.047500", "134918.507500", "134918.967500", "134919.427500", "134919.887500", "134920.347500", "134920.807500", "134921.267500", "134921.727500", "134922.187500", "134922.647500", "134923.107500", "134923.567500", "134924.027500", "134924.487500", "134924.947500", "134925.407500", "134925.867500", "134926.327500", "134926.787500", "134927.247500", "134927.707500", "134928.167500", "134928.627500", "134929.087500", "134929.547500", "134930.007500", "134930.467500", "134930.927500", "134931.387500", "134931.847500", "134932.307500", "134932.767500", "134933.227500", "134933.687500", "134934.147500", "134934.607500", "134935.067500", "134935.527500", "134935.987500", "134936.447500", "134936.907500", "134937.367500", "134937.827500", "134938.287500", "134938.747500", "134939.207500", "134939.667500", "134940.127500", "134940.587500", "134941.047500", "134941.507500", "134941.967500", "134942.427500", "134942.887500", "134943.347500", "134943.807500", "134944.267500", "134944.727500", "134945.187500", "134945.647500", "134946.107500"],
