{
  "AcquisitionMatrixPE": 82,
  "AcquisitionNumber": 1,
  "AcquisitionTime": "13:23:23.822500",
  "BandwidthPerPixelPhaseEncode": 24.888,
  "BaseResolution": 82,
  "BodyPartExamined": "BRAIN",
  "ConsistencyInfo": "N4_VE11E_LATEST_20181129",
  "ConversionSoftware": "dcm2niix",
  "ConversionSoftwareVersion": "v1.0.20201102",
  "DerivedVendorReportedEchoSpacing": 0.00049,
  "DeviceSerialNumber": "66112",
  "DwellTime": 2e-06,
  "EchoTime": 0.0272,
  "EchoTrainLength": 82,
  "EffectiveEchoSpacing": 0.00049,
  "FlipAngle": 44,
  "ImageComments": "Unaliased MB8/PE3",
  "ImageOrientationPatientDICOM": [0.997668, 0.0248219, 0.0635729, -0.0221176, 0.998835, -0.0428955],
  "ImageType": [
    "ORIGINAL",
    "PRIMARY",
    "M",
    "MB",
    "ND",
    "NORM",
    "MOSAIC"
],
  "ImagingFrequency": 123.252,
  "InPlanePhaseEncodingDirectionDICOM": "COL",
  "InstitutionAddress": "Maynard 3,Hanover,NH,US,03755",
  "InstitutionName": "Dartmouth College - PBS",
  "InstitutionalDepartmentName": "Department",
  "MRAcquisitionType": "2D",
  "MagneticFieldStrength": 3,
  "Manufacturer": "Siemens",
  "ManufacturersModelName": "Prisma",
  "Modality": "MR",
  "MultibandAccelerationFactor": 8,
  "PartialFourier": 1,
  "PatientPosition": "HFS",
  "PercentPhaseFOV": 100,
  "PercentSampling": 100,
  "PhaseEncodingDirection": "j-",
  "PhaseEncodingSteps": 82,
  "PhaseResolution": 1,
  "PixelBandwidth": 3050,
  "ProcedureStepDescription": "Wager_Wager^1076_spacetop",
  "ProtocolName": "func_run-06_task-social_acq-ap-mb8",
  "PulseSequenceDetails": "%CustomerSeq%\\cmrr_mbep2d_bold",
  "ReceiveCoilActiveElements": "HEA;HEP",
  "ReceiveCoilName": "Head_32",
  "ReconMatrixPE": 82,
  "RepetitionTime": 0.46,
  "SAR": 0.0874926,
  "ScanOptions": "FS",
  "ScanningSequence": "EP",
  "SequenceName": "epfid2d1_82",
  "SequenceVariant": "SK\\SS",
  "SeriesDescription": "func_run-06_task-social_acq-ap-mb8",
  "SeriesNumber": 22,
  "ShimSetting": [4168, -7691, -7245, 519, 0, 6, 26, 26],
  "SliceThickness": 2.7,
  "SliceTiming": [0, 0.25, 0.0625, 0.315, 0.125, 0.3775, 0.1875, 0, 0.25, 0.0625, 0.315, 0.125, 0.3775, 0.1875, 0, 0.25, 0.0625, 0.315, 0.125, 0.3775, 0.1875, 0, 0.25, 0.0625, 0.315, 0.125, 0.3775, 0.1875, 0, 0.25, 0.0625, 0.315, 0.125, 0.3775, 0.1875, 0, 0.25, 0.0625, 0.315, 0.125, 0.3775, 0.1875, 0, 0.25, 0.0625, 0.315, 0.125, 0.3775, 0.1875, 0, 0.25, 0.0625, 0.315, 0.125, 0.3775, 0.1875],
  "SoftwareVersions": "syngo MR E11",
  "SpacingBetweenSlices": 2.7,
  "StationName": "AWP66112",
  "TaskName": "social",
  "TotalReadoutTime": 0.03969,
  "TxRefAmp": 229.189,
  "WipMemBlock": "3a5792aa-e538-46ec-bf2a-c57e7c2d9c48||Sequence: R016 ve11e/master r/434b28f1; Aug  7 2019 18:53:46 by eja",
  "dcmmeta_affine": [
    [-2.6766715049743652, -0.05933988839387894, 0.17432165145874023, 109.3919448852539],
    [-0.06659546494483948, 2.679800510406494, -0.11175147444009781, -82.46585845947266],
    [0.17056146264076233, 0.11508557200431824, 2.6920480728149414, -85.70490264892578],
    [0.0, 0.0, 0.0, 1.0]
],
  "dcmmeta_reorient_transform": [
    [0.0, -1.0, 0.0, 81.0],
    [1.0, 0.0, 0.0, 0.0],
    [0.0, 0.0, 1.0, 0.0],
    [0.0, 0.0, 0.0, 1.0]
],
  "dcmmeta_shape": [82, 82, 56, 872],
  "dcmmeta_slice_dim": 2,
  "dcmmeta_version": 0.6,
  "global": {
    "const": {
      "AccessionNumber": "A004053",
      "AcquisitionMatrix": [82, 0, 0, 82],
      "AngioFlag": "N",
      "BitsAllocated": 16,
      "BitsStored": 16,
      "BodyPartExamined": "BRAIN",
      "Columns": 656,
      "EchoNumbers": 1,
      "EchoTime": 27.2,
      "EchoTrainLength": 82,
      "FlipAngle": 44.0,
      "HighBit": 15,
      "ImageOrientationPatient": [0.99766846018238, 0.02482194501437, 0.06357290777548, -0.0221175948829, 0.99883471384384, -0.0428955291038],
      "ImagePositionPatient": [-855.75960130548, -922.81362979229, -92.304553137582],
      "ImageType": [
        "ORIGINAL",
        "PRIMARY",
        "M",
        "MB",
        "ND",
        "NORM",
        "MOSAIC"
],
      "ImagedNucleus": "1H",
      "ImagingFrequency": 123.252235,
      "InPlanePhaseEncodingDirection": "COL",
      "MRAcquisitionType": "2D",
      "MagneticFieldStrength": 3.0,
      "Manufacturer": "SIEMENS",
      "ManufacturerModelName": "Prisma",
      "Modality": "MR",
      "NumberOfAverages": 1.0,
      "NumberOfPhaseEncodingSteps": 82,
      "PercentPhaseFieldOfView": 100.0,
      "PercentSampling": 100.0,
      "PerformedProcedureStepStartTime": "121237.882000",
      "PhotometricInterpretation": "MONOCHROME2",
      "PixelBandwidth": 3050.0,
      "PixelRepresentation": 0,
      "PixelSpacing": [2.6829268932343, 2.6829268932343],
      "ProtocolName": "func_run-06_task-social_acq-ap-mb8",
      "RepetitionTime": 460.0,
      "Rows": 656,
      "SAR": 0.0874926361782,
      "SamplesPerPixel": 1,
      "ScanOptions": "FS",
      "ScanningSequence": "EP",
      "SequenceName": "epfid2d1_82",
      "SequenceVariant": [
        "SK",
        "SS"
],
      "SeriesDescription": "func_run-06_task-social_acq-ap-mb8",
      "SeriesNumber": 22,
      "SeriesTime": "132337.688000",
      "SliceLocation": -74.976541155583,
      "SliceThickness": 2.7000000476837,
      "SmallestImagePixelValue": 0,
      "SoftwareVersions": "syngo MR E11",
      "SpacingBetweenSlices": 2.6999998794169,
      "SpecificCharacterSet": "ISO_IR 100",
      "StudyID": "1",
      "StudyTime": "121237.823000",
      "TransmitCoilName": "Body",
      "VariableFlipAngleFlag": "N",
      "WindowCenterWidthExplanation": "Algo1"
    },
    "slices": {}
  },
  "time": {
    "samples": {
      "AcquisitionNumber": [1, 2, 3, 4, 5, 6, 7, 8, 9, 10, 11, 12, 13, 14, 15, 16, 17, 18, 19, 20, 21, 22, 23, 24, 25, 26, 27, 28, 29, 30, 31, 32, 33, 34, 35, 36, 37, 38, 39, 40, 41, 42, 43, 44, 45, 46, 47, 48, 49, 50, 51, 52, 53, 54, 55, 56, 57, 58, 59, 60, 61, 62, 63, 64, 65, 66, 67, 68, 69, 70, 71, 72, 73, 74, 75, 76, 77, 78, 79, 80, 81, 82, 83, 84, 85, 86, 87, 88, 89, 90, 91, 92, 93, 94, 95, 96, 97, 98, 99, 100, 101, 102, 103, 104, 105, 106, 107, 108, 109, 110, 111, 112, 113, 114, 115, 116, 117, 118, 119, 120, 121, 122, 123, 124, 125, 126, 127, 128, 129, 130, 131, 132, 133, 134, 135, 136, 137, 138, 139, 140, 141, 142, 143, 144, 145, 146, 147, 148, 149, 150, 151, 152, 153, 154, 155, 156, 157, 158, 159, 160, 161, 162, 163, 164, 165, 166, 167, 168, 169, 170, 171, 172, 173, 174, 175, 176, 177, 178, 179, 180, 181, 182, 183, 184, 185, 186, 187, 188, 189, 190, 191, 192, 193, 194, 195, 196, 197, 198, 199, 200, 201, 202, 203, 204, 205, 206, 207, 208, 209, 210, 211, 212, 213, 214, 215, 216, 217, 218, 219, 220, 221, 222, 223, 224, 225, 226, 227, 228, 229, 230, 231, 232, 233, 234, 235, 236, 237, 238, 239, 240, 241, 242, 243, 244, 245, 246, 247, 248, 249, 250, 251, 252, 253, 254, 255, 256, 257, 258, 259, 260, 261, 262, 263, 264, 265, 266, 267, 268, 269, 270, 271, 272, 273, 274, 275, 276, 277, 278, 279, 280, 281, 282, 283, 284, 285, 286, 287, 288, 289, 290, 291, 292, 293, 294, 295, 296, 297, 298, 299, 300, 301, 302, 303, 304, 305, 306, 307, 308, 309, 310, 311, 312, 313, 314, 315, 316, 317, 318, 319, 320, 321, 322, 323, 324, 325, 326, 327, 328, 329, 330, 331, 332, 333, 334, 335, 336, 337, 338, 339, 340, 341, 342, 343, 344, 345, 346, 347, 348, 349, 350, 351, 352, 353, 354, 355, 356, 357, 358, 359, 360, 361, 362, 363, 364, 365, 366, 367, 368, 369, 370, 371, 372, 373, 374, 375, 376, 377, 378, 379, 380, 381, 382, 383, 384, 385, 386, 387, 388, 389, 390, 391, 392, 393, 394, 395, 396, 397, 398, 399, 400, 401, 402, 403, 404, 405, 406, 407, 408, 409, 410, 411, 412, 413, 414, 415, 416, 417, 418, 419, 420, 421, 422, 423, 424, 425, 426, 427, 428, 429, 430, 431, 432, 433, 434, 435, 436, 437, 438, 439, 440, 441, 442, 443, 444, 445, 446, 447, 448, 449, 450, 451, 452, 453, 454, 455, 456, 457, 458, 459, 460, 461, 462, 463, 464, 465, 466, 467, 468, 469, 470, 471, 472, 473, 474, 475, 476, 477, 478, 479, 480, 481, 482, 483, 484, 485, 486, 487, 488, 489, 490, 491, 492, 493, 494, 495, 496, 497, 498, 499, 500, 501, 502, 503, 504, 505, 506, 507, 508, 509, 510, 511, 512, 513, 514, 515, 516, 517, 518, 519, 520, 521, 522, 523, 524, 525, 526, 527, 528, 529, 530, 531, 532, 533, 534, 535, 536, 537, 538, 539, 540, 541, 542, 543, 544, 545, 546, 547, 548, 549, 550, 551, 552, 553, 554, 555, 556, 557, 558, 559, 560, 561, 562, 563, 564, 565, 566, 567, 568, 569, 570, 571, 572, 573, 574, 575, 576, 577, 578, 579, 580, 581, 582, 583, 584, 585, 586, 587, 588, 589, 590, 591, 592, 593, 594, 595, 596, 597, 598, 599, 600, 601, 602, 603, 604, 605, 606, 607, 608, 609, 610, 611, 612, 613, 614, 615, 616, 617, 618, 619, 620, 621, 622, 623, 624, 625, 626, 627, 628, 629, 630, 631, 632, 633, 634, 635, 636, 637, 638, 639, 640, 641, 642, 643, 644, 645, 646, 647, 648, 649, 650, 651, 652, 653, 654, 655, 656, 657, 658, 659, 660, 661, 662, 663, 664, 665, 666, 667, 668, 669, 670, 671, 672, 673, 674, 675, 676, 677, 678, 679, 680, 681, 682, 683, 684, 685, 686, 687, 688, 689, 690, 691, 692, 693, 694, 695, 696, 697, 698, 699, 700, 701, 702, 703, 704, 705, 706, 707, 708, 709, 710, 711, 712, 713, 714, 715, 716, 717, 718, 719, 720, 721, 722, 723, 724, 725, 726, 727, 728, 729, 730, 731, 732, 733, 734, 735, 736, 737, 738, 739, 740, 741, 742, 743, 744, 745, 746, 747, 748, 749, 750, 751, 752, 753, 754, 755, 756, 757, 758, 759, 760, 761, 762, 763, 764, 765, 766, 767, 768, 769, 770, 771, 772, 773, 774, 775, 776, 777, 778, 779, 780, 781, 782, 783, 784, 785, 786, 787, 788, 789, 790, 791, 792, 793, 794, 795, 796, 797, 798, 799, 800, 801, 802, 803, 804, 805, 806, 807, 808, 809, 810, 811, 812, 813, 814, 815, 816, 817, 818, 819, 820, 821, 822, 823, 824, 825, 826, 827, 828, 829, 830, 831, 832, 833, 834, 835, 836, 837, 838, 839, 840, 841, 842, 843, 844, 845, 846, 847, 848, 849, 850, 851, 852, 853, 854, 855, 856, 857, 858, 859, 860, 861, 862, 863, 864, 865, 866, 867, 868, 869, 870, 871, 872],
      "AcquisitionTime": ["132323.822500", "132324.282500", "132324.742500", "132325.202500", "132325.662500", "132326.122500", "132326.582500", "132327.042500", "132327.502500", "132327.962500", "132328.422500", "132328.882500", "132329.342500", "132329.802500", "132330.262500", "132330.722500", "132331.182500", "132331.642500", "132332.102500", "132332.562500", "132333.022500", "132333.482500", "132333.942500", "132334.402500", "132334.862500", "132335.322500", "132335.782500", "132336.242500", "132336.702500", "132337.162500", "132337.622500", "132338.082500", "132338.542500", "132339.002500", "132339.462500", "132339.922500", "132340.382500", "132340.842500", "132341.302500", "132341.762500", "132342.222500", "132342.682500", "132343.142500", "132343.602500", "132344.062500", "132344.522500", "132344.982500", "132345.442500", "132345.902500", "132346.362500", "132346.822500", "132347.282500", "132347.742500", "132348.202500", "132348.662500", "132349.122500", "132349.582500", "132350.042500", "132350.502500", "132350.962500", "132351.422500", "132351.882500", "132352.342500", "132352.802500", "132353.262500", "132353.722500", "132354.182500", "132354.642500", "132355.102500", "132355.562500", "132356.022500", "132356.482500", "132356.942500", "132357.402500", "132357.862500", "132358.322500", "132358.782500", "132359.242500", "132359.702500", "132400.162500", "132400.622500", "132401.082500", "132401.542500", "132402.002500", "132402.462500", "132402.922500", "132403.382500", "132403.842500", "132404.302500", "132404.762500", "132405.222500", "132405.682500", "132406.142500", "132406.602500", "132407.062500", "132407.522500", "132407.982500", "132408.442500", "132408.902500", "132409.362500", "132409.822500", "132410.282500", "132410.742500", "132411.202500", "132411.662500", "132412.122500", "132412.582500", "132413.042500", "132413.502500", "132413.962500", "132414.422500", "132414.882500", "132415.342500", "132415.802500", "132416.262500", "132416.722500", "132417.182500", "132417.642500", "132418.102500", "132418.562500", "132419.022500", "132419.482500", "132419.942500", "132420.402500", "132420.862500", "132421.322500", "132421.782500", "132422.242500", "132422.702500", "132423.162500", "132423.622500", "132424.082500", "132424.542500", "132425.002500", "132425.462500", "132425.922500", "132426.382500", "132426.842500", "132427.302500", "132427.762500", "132428.222500", "132428.682500", "132429.142500", "132429.602500", "132430.062500", "132430.522500", "132430.982500", "132431.442500", "132431.902500", "132432.362500", "132432.822500", "132433.282500", "132433.742500", "132434.202500", "132434.662500", "132435.122500", "132435.582500", "132436.042500", "132436.502500", "132436.962500", "132437.422500", "132437.882500", "132438.342500", "132438.802500", "132439.262500", "132439.722500", "132440.182500", "132440.642500", "132441.102500", "132441.562500", "132442.022500", "132442.482500", "132442.942500", "132443.402500", "132443.862500", "132444.322500", "132444.782500", "132445.242500", "132445.702500", "132446.162500", "132446.622500", "132447.082500", "132447.542500", "132448.002500", "132448.462500", "132448.922500", "132449.382500", "132449.842500", "132450.302500", "132450.762500", "132451.222500", "132451.682500", "132452.142500", "132452.602500", "132453.062500", "132453.522500", "132453.982500", "132454.442500", "132454.902500", "132455.362500", "132455.822500", "132456.282500", "132456.742500", "132457.202500", "132457.662500", "132458.122500", "132458.582500", "132459.042500", "132459.502500", "132459.962500", "132500.422500", "132500.882500", "132501.342500", "132501.802500", "132502.262500", "132502.722500", "132503.182500", "132503.642500", "132504.102500", "132504.562500", "132505.022500", "132505.482500", "132505.942500", "132506.402500", "132506.862500", "132507.322500", "132507.782500", "132508.242500", "132508.702500", "132509.162500", "132509.622500", "132510.082500", "132510.542500", "132511.002500", "132511.462500", "132511.922500", "132512.382500", "132512.842500", "132513.302500", "132513.762500", "132514.222500", "132514.682500", "132515.142500", "132515.602500", "132516.062500", "132516.522500", "132516.982500", "132517.442500", "132517.902500", "132518.362500", "132518.822500", "132519.282500", "132519.742500", "132520.202500", "132520.662500", "132521.122500", "132521.582500", "132522.042500", "132522.502500", "132522.962500", "132523.422500", "132523.882500", "132524.342500", "132524.802500", "132525.262500", "132525.722500", "132526.182500", "132526.642500", "132527.102500", "132527.562500", "132528.022500", "132528.482500", "132528.942500", "132529.402500", "132529.862500", "132530.322500", "132530.782500", "132531.242500", "132531.702500", "132532.162500", "132532.622500", "132533.082500", "132533.542500", "132534.002500", "132534.462500", "132534.922500", "132535.382500", "132535.842500", "132536.302500", "132536.762500", "132537.222500", "132537.682500", "132538.142500", "132538.602500", "132539.062500", "132539.522500", "132539.982500", "132540.442500", "132540.902500", "132541.362500", "132541.822500", "132542.282500", "132542.742500", "132543.202500", "132543.662500", "132544.122500", "132544.582500", "132545.042500", "132545.502500", "132545.962500", "132546.422500", "132546.882500", "132547.342500", "132547.802500", "132548.262500", "132548.722500", "132549.182500", "132549.642500", "132550.102500", "132550.562500", "132551.022500", "132551.482500", "132551.942500", "132552.402500", "132552.862500", "132553.322500", "132553.782500", "132554.242500", "132554.702500", "132555.162500", "132555.622500", "132556.082500", "132556.542500", "132557.002500", "132557.462500", "132557.922500", "132558.382500", "132558.842500", "132559.302500", "132559.762500", "132600.222500", "132600.682500", "132601.142500", "132601.602500", "132602.062500", "132602.522500", "132602.982500", "132603.442500", "132603.902500", "132604.362500", "132604.822500", "132605.282500", "132605.742500", "132606.202500", "132606.662500", "132607.122500", "132607.582500", "132608.042500", "132608.502500", "132608.962500", "132609.422500", "132609.882500", "132610.342500", "132610.802500", "132611.262500", "132611.722500", "132612.182500", "132612.642500", "132613.102500", "132613.562500", "132614.022500", "132614.482500", "132614.942500", "132615.402500", "132615.862500", "132616.322500", "132616.782500", "132617.242500", "132617.702500", "132618.162500", "132618.622500", "132619.082500", "132619.542500", "132620.002500", "132620.462500", "132620.922500", "132621.382500", "132621.842500", "132622.302500", "132622.762500", "132623.222500", "132623.682500", "132624.142500", "132624.602500", "132625.062500", "132625.522500", "132625.982500", "132626.442500", "132626.902500", "132627.362500", "132627.822500", "132628.282500", "132628.742500", "132629.202500", "132629.662500", "132630.122500", "132630.582500", "132631.042500", "132631.502500", "132631.962500", "132632.422500", "132632.882500", "132633.342500", "132633.802500", "132634.262500", "132634.722500", "132635.182500", "132635.642500", "132636.102500", "132636.562500", "132637.022500", "132637.482500", "132637.942500", "132638.402500", "132638.862500", "132639.322500", "132639.782500", "132640.242500", "132640.702500", "132641.162500", "132641.622500", "132642.082500", "132642.542500", "132643.002500", "132643.462500", "132643.922500", "132644.382500", "132644.842500", "132645.302500", "132645.762500", "132646.222500", "132646.682500", "132647.142500", "132647.602500", "132648.062500", "132648.522500", "132648.982500", "132649.442500", "132649.902500", "132650.362500", "132650.822500", "132651.282500", "132651.742500", "132652.202500", "132652.662500", "132653.122500", "132653.582500", "132654.042500", "132654.502500", "132654.962500", "132655.422500", "132655.882500", "132656.342500", "132656.802500", "132657.262500", "132657.722500", "132658.182500", "132658.642500", "132659.102500", "132659.562500", "132700.022500", "132700.482500", "132700.942500", "132701.402500", "132701.862500", "132702.322500", "132702.782500", "132703.242500", "132703.702500", "132704.162500", "132704.622500", "132705.082500", "132705.542500", "132706.002500", "132706.462500", "132706.922500", "132707.382500", "132707.842500", "132708.302500", "132708.762500", "132709.222500", "132709.682500", "132710.142500", "132710.602500", "132711.062500", "132711.522500", "132711.982500", "132712.442500", "132712.902500", "132713.362500", "132713.822500", "132714.282500", "132714.742500", "132715.202500", "132715.662500", "132716.122500", "132716.582500", "132717.042500", "132717.502500", "132717.962500", "132718.422500", "132718.882500", "132719.342500", "132719.802500", "132720.262500", "132720.722500", "132721.182500", "132721.642500", "132722.102500", "132722.562500", "132723.022500", "132723.482500", "132723.942500", "132724.402500", "132724.862500", "132725.322500", "132725.782500", "132726.242500", "132726.702500", "132727.162500", "132727.622500", "132728.082500", "132728.542500", "132729.002500", "132729.462500", "132729.922500", "132730.382500", "132730.842500", "132731.302500", "132731.762500", "132732.222500", "132732.682500", "132733.142500", "132733.602500", "132734.062500", "132734.522500", "132734.982500", "132735.442500", "132735.902500", "132736.362500", "132736.822500", "132737.282500", "132737.742500", "132738.202500", "132738.662500", "132739.122500", "132739.582500", "132740.042500", "132740.502500", "132740.962500", "132741.422500", "132741.882500", "132742.342500", "132742.802500", "132743.262500", "132743.722500", "132744.182500", "132744.642500", "132745.102500", "132745.562500", "132746.022500", "132746.482500", "132746.942500", "132747.402500", "132747.862500", "132748.322500", "132748.782500", "132749.242500", "132749.702500", "132750.162500", "132750.622500", "132751.082500", "132751.542500", "132752.002500", "132752.462500", "132752.922500", "132753.382500", "132753.842500", "132754.302500", "132754.762500", "132755.222500", "132755.682500", "132756.142500", "132756.602500", "132757.062500", "132757.522500", "132757.982500", "132758.442500", "132758.902500", "132759.362500", "132759.822500", "132800.282500", "132800.742500", "132801.202500", "132801.662500", "132802.122500", "132802.582500", "132803.042500", "132803.502500", "132803.962500", "132804.422500", "132804.882500", "132805.342500", "132805.802500", "132806.262500", "132806.722500", "132807.182500", "132807.642500", "132808.102500", "132808.562500", "132809.022500", "132809.482500", "132809.942500", "132810.402500", "132810.862500", "132811.322500", "132811.782500", "132812.242500", "132812.702500", "132813.162500", "132813.622500", "132814.082500", "132814.542500", "132815.002500", "132815.462500", "132815.922500", "132816.382500", "132816.842500", "132817.302500", "132817.762500", "132818.222500", "132818.682500", "132819.142500", "132819.602500", "132820.062500", "132820.522500", "132820.982500", "132821.442500", "132821.902500", "132822.362500", "132822.822500", "132823.282500", "132823.742500", "132824.202500", "132824.662500", "132825.122500", "132825.582500", "132826.042500", "132826.502500", "132826.962500", "132827.422500", "132827.882500", "132828.342500", "132828.802500", "132829.262500", "132829.722500", "132830.182500", "132830.642500", "132831.102500", "132831.562500", "132832.022500", "132832.482500", "132832.942500", "132833.402500", "132833.862500", "132834.322500", "132834.782500", "132835.242500", "132835.702500", "132836.162500", "132836.622500", "132837.082500", "132837.542500", "132838.002500", "132838.462500", "132838.922500", "132839.382500", "132839.842500", "132840.302500", "132840.762500", "132841.222500", "132841.682500", "132842.142500", "132842.602500", "132843.062500", "132843.522500", "132843.982500", "132844.442500", "132844.902500", "132845.362500", "132845.822500", "132846.282500", "132846.742500", "132847.202500", "132847.662500", "132848.122500", "132848.582500", "132849.042500", "132849.502500", "132849.962500", "132850.422500", "132850.882500", "132851.342500", "132851.802500", "132852.262500", "132852.722500", "132853.182500", "132853.642500", "132854.102500", "132854.562500", "132855.022500", "132855.482500", "132855.942500", "132856.402500", "132856.862500", "132857.322500", "132857.782500", "132858.242500", "132858.702500", "132859.162500", "132859.622500", "132900.082500", "132900.542500", "132901.002500", "132901.462500", "132901.922500", "132902.382500", "132902.842500", "132903.302500", "132903.762500", "132904.222500", "132904.682500", "132905.142500", "132905.602500", "132906.062500", "132906.522500", "132906.982500", "132907.442500", "132907.902500", "132908.362500", "132908.822500", "132909.282500", "132909.742500", "132910.202500", "132910.662500", "132911.122500", "132911.582500", "132912.042500", "132912.502500", "132912.962500", "132913.422500", "132913.882500", "132914.342500", "132914.802500", "132915.262500", "132915.722500", "132916.182500", "132916.642500", "132917.102500", "132917.562500", "132918.022500", "132918.482500", "132918.942500", "132919.402500", "132919.862500", "132920.322500", "132920.782500", "132921.242500", "132921.702500", "132922.162500", "132922.622500", "132923.082500", "132923.542500", "132924.002500", "132924.462500", "132924.922500", "132925.382500", "132925.842500", "132926.302500", "132926.762500", "132927.222500", "132927.682500", "132928.142500", "132928.602500", "132929.062500", "132929.522500", "132929.982500", "132930.442500", "132930.902500", "132931.362500", "132931.822500", "132932.282500", "132932.742500", "132933.202500", "132933.662500", "132934.122500", "132934.582500", "132935.042500", "132935.502500", "132935.962500", "132936.422500", "132936.882500", "132937.342500", "132937.802500", "132938.262500", "132938.722500", "132939.182500", "132939.642500", "132940.102500", "132940.562500", "132941.022500", "132941.482500", "132941.942500", "132942.402500", "132942.862500", "132943.322500", "132943.782500", "132944.242500", "132944.702500", "132945.162500", "132945.622500", "132946.082500", "132946.542500", "132947.002500", "132947.462500", "132947.922500", "132948.382500", "132948.842500", "132949.302500", "132949.762500", "132950.222500", "132950.682500", "132951.142500", "132951.602500", "132952.062500", "132952.522500", "132952.982500", "132953.442500", "132953.902500", "132954.362500", "132954.822500", "132955.282500", "132955.742500", "132956.202500", "132956.662500", "132957.122500", "132957.582500", "132958.042500", "132958.502500", "132958.962500", "132959.422500", "132959.882500", "133000.342500", "133000.802500", "133001.262500", "133001.722500", "133002.182500", "133002.642500", "133003.102500", "133003.562500", "133004.022500", "133004.482500"],
