{
  "AcquisitionMatrixPE": 82,
  "AcquisitionNumber": 1,
  "AcquisitionTime": "12:54:30.612500",
  "BandwidthPerPixelPhaseEncode": 24.888,
  "BaseResolution": 82,
  "BodyPartExamined": "BRAIN",
  "ConsistencyInfo": "N4_VE11E_LATEST_20181129",
  "ConversionSoftware": "dcm2niix",
  "ConversionSoftwareVersion": "v1.0.20201102",
  "DerivedVendorReportedEchoSpacing": 0.00049,
  "DeviceSerialNumber": "66112",
  "DwellTime": 2e-06,
  "EchoTime": 0.0272,
  "EchoTrainLength": 82,
  "EffectiveEchoSpacing": 0.00049,
  "FlipAngle": 44,
  "ImageComments": "Unaliased MB8/PE3",
  "ImageOrientationPatientDICOM": [0.997668, 0.0248219, 0.0635729, -0.0221176, 0.998835, -0.0428955],
  "ImageType": [
    "ORIGINAL",
    "PRIMARY",
    "M",
    "MB",
    "ND",
    "NORM",
    "MOSAIC"
],
  "ImagingFrequency": 123.252,
  "InPlanePhaseEncodingDirectionDICOM": "COL",
  "InstitutionAddress": "Maynard 3,Hanover,NH,US,03755",
  "InstitutionName": "Dartmouth College - PBS",
  "InstitutionalDepartmentName": "Department",
  "MRAcquisitionType": "2D",
  "MagneticFieldStrength": 3,
  "Manufacturer": "Siemens",
  "ManufacturersModelName": "Prisma",
  "Modality": "MR",
  "MultibandAccelerationFactor": 8,
  "PartialFourier": 1,
  "PatientPosition": "HFS",
  "PercentPhaseFOV": 100,
  "PercentSampling": 100,
  "PhaseEncodingDirection": "j-",
  "PhaseEncodingSteps": 82,
  "PhaseResolution": 1,
  "PixelBandwidth": 3050,
  "ProcedureStepDescription": "Wager_Wager^1076_spacetop",
  "ProtocolName": "func_run-02_task-social_acq-ap-mb8",
  "PulseSequenceDetails": "%CustomerSeq%\\cmrr_mbep2d_bold",
  "ReceiveCoilActiveElements": "HEA;HEP",
  "ReceiveCoilName": "Head_32",
  "ReconMatrixPE": 82,
  "RepetitionTime": 0.46,
  "SAR": 0.0874926,
  "ScanOptions": "FS",
  "ScanningSequence": "EP",
  "SequenceName": "epfid2d1_82",
  "SequenceVariant": "SK\\SS",
  "SeriesDescription": "func_run-02_task-social_acq-ap-mb8",
  "SeriesNumber": 14,
  "ShimSetting": [4168, -7691, -7245, 519, 0, 6, 26, 26],
  "SliceThickness": 2.7,
  "SliceTiming": [0, 0.2525, 0.065, 0.315, 0.1275, 0.3775, 0.19, 0, 0.2525, 0.065, 0.315, 0.1275, 0.3775, 0.19, 0, 0.2525, 0.065, 0.315, 0.1275, 0.3775, 0.19, 0, 0.2525, 0.065, 0.315, 0.1275, 0.3775, 0.19, 0, 0.2525, 0.065, 0.315, 0.1275, 0.3775, 0.19, 0, 0.2525, 0.065, 0.315, 0.1275, 0.3775, 0.19, 0, 0.2525, 0.065, 0.315, 0.1275, 0.3775, 0.19, 0, 0.2525, 0.065, 0.315, 0.1275, 0.3775, 0.19],
  "SoftwareVersions": "syngo MR E11",
  "SpacingBetweenSlices": 2.7,
  "StationName": "AWP66112",
  "TaskName": "social",
  "TotalReadoutTime": 0.03969,
  "TxRefAmp": 229.189,
  "WipMemBlock": "c5be8cc7-3ae9-4e93-a6d2-8cc88df3dd34||Sequence: R016 ve11e/master r/434b28f1; Aug  7 2019 18:53:46 by eja",
  "dcmmeta_affine": [
    [-2.6766715049743652, -0.05933988839387894, 0.17432165145874023, 109.3919448852539],
    [-0.06659546494483948, 2.679800510406494, -0.11175147444009781, -82.46585845947266],
    [0.17056146264076233, 0.11508557200431824, 2.6920480728149414, -85.70490264892578],
    [0.0, 0.0, 0.0, 1.0]
],
  "dcmmeta_reorient_transform": [
    [0.0, -1.0, 0.0, 81.0],
    [1.0, 0.0, 0.0, 0.0],
    [0.0, 0.0, 1.0, 0.0],
    [0.0, 0.0, 0.0, 1.0]
],
  "dcmmeta_shape": [82, 82, 56, 872],
  "dcmmeta_slice_dim": 2,
  "dcmmeta_version": 0.6,
  "global": {
    "const": {
      "AccessionNumber": "A004053",
      "AcquisitionMatrix": [82, 0, 0, 82],
      "AngioFlag": "N",
      "BitsAllocated": 16,
      "BitsStored": 16,
      "BodyPartExamined": "BRAIN",
      "Columns": 656,
      "EchoNumbers": 1,
      "EchoTime": 27.2,
      "EchoTrainLength": 82,
      "FlipAngle": 44.0,
      "HighBit": 15,
      "ImageOrientationPatient": [0.99766846018238, 0.02482194501437, 0.06357290777548, -0.0221175948829, 0.99883471384384, -0.0428955291038],
      "ImagePositionPatient": [-855.75960130548, -922.81362979229, -92.304553137582],
      "ImageType": [
        "ORIGINAL",
        "PRIMARY",
        "M",
        "MB",
        "ND",
        "NORM",
        "MOSAIC"
],
      "ImagedNucleus": "1H",
      "ImagingFrequency": 123.25223,
      "InPlanePhaseEncodingDirection": "COL",
      "MRAcquisitionType": "2D",
      "MagneticFieldStrength": 3.0,
      "Manufacturer": "SIEMENS",
      "ManufacturerModelName": "Prisma",
      "Modality": "MR",
      "NumberOfAverages": 1.0,
      "NumberOfPhaseEncodingSteps": 82,
      "PercentPhaseFieldOfView": 100.0,
      "PercentSampling": 100.0,
      "PerformedProcedureStepStartTime": "121237.882000",
      "PhotometricInterpretation": "MONOCHROME2",
      "PixelBandwidth": 3050.0,
      "PixelRepresentation": 0,
      "PixelSpacing": [2.6829268932343, 2.6829268932343],
      "ProtocolName": "func_run-02_task-social_acq-ap-mb8",
      "RepetitionTime": 460.0,
      "Rows": 656,
      "SAR": 0.0874926361782,
      "SamplesPerPixel": 1,
      "ScanOptions": "FS",
      "ScanningSequence": "EP",
      "SequenceName": "epfid2d1_82",
      "SequenceVariant": [
        "SK",
        "SS"
],
      "SeriesDescription": "func_run-02_task-social_acq-ap-mb8",
      "SeriesNumber": 14,
      "SeriesTime": "125457.611000",
      "SliceLocation": -74.976541155583,
      "SliceThickness": 2.7000000476837,
      "SmallestImagePixelValue": 0,
      "SoftwareVersions": "syngo MR E11",
      "SpacingBetweenSlices": 2.6999998794169,
      "SpecificCharacterSet": "ISO_IR 100",
      "StudyID": "1",
      "StudyTime": "121237.823000",
      "TransmitCoilName": "Body",
      "VariableFlipAngleFlag": "N",
      "WindowCenterWidthExplanation": "Algo1"
    },
    "slices": {}
  },
  "time": {
    "samples": {
      "AcquisitionNumber": [1, 2, 3, 4, 5, 6, 7, 8, 9, 10, 11, 12, 13, 14, 15, 16, 17, 18, 19, 20, 21, 22, 23, 24, 25, 26, 27, 28, 29, 30, 31, 32, 33, 34, 35, 36, 37, 38, 39, 40, 41, 42, 43, 44, 45, 46, 47, 48, 49, 50, 51, 52, 53, 54, 55, 56, 57, 58, 59, 60, 61, 62, 63, 64, 65, 66, 67, 68, 69, 70, 71, 72, 73, 74, 75, 76, 77, 78, 79, 80, 81, 82, 83, 84, 85, 86, 87, 88, 89, 90, 91, 92, 93, 94, 95, 96, 97, 98, 99, 100, 101, 102, 103, 104, 105, 106, 107, 108, 109, 110, 111, 112, 113, 114, 115, 116, 117, 118, 119, 120, 121, 122, 123, 124, 125, 126, 127, 128, 129, 130, 131, 132, 133, 134, 135, 136, 137, 138, 139, 140, 141, 142, 143, 144, 145, 146, 147, 148, 149, 150, 151, 152, 153, 154, 155, 156, 157, 158, 159, 160, 161, 162, 163, 164, 165, 166, 167, 168, 169, 170, 171, 172, 173, 174, 175, 176, 177, 178, 179, 180, 181, 182, 183, 184, 185, 186, 187, 188, 189, 190, 191, 192, 193, 194, 195, 196, 197, 198, 199, 200, 201, 202, 203, 204, 205, 206, 207, 208, 209, 210, 211, 212, 213, 214, 215, 216, 217, 218, 219, 220, 221, 222, 223, 224, 225, 226, 227, 228, 229, 230, 231, 232, 233, 234, 235, 236, 237, 238, 239, 240, 241, 242, 243, 244, 245, 246, 247, 248, 249, 250, 251, 252, 253, 254, 255, 256, 257, 258, 259, 260, 261, 262, 263, 264, 265, 266, 267, 268, 269, 270, 271, 272, 273, 274, 275, 276, 277, 278, 279, 280, 281, 282, 283, 284, 285, 286, 287, 288, 289, 290, 291, 292, 293, 294, 295, 296, 297, 298, 299, 300, 301, 302, 303, 304, 305, 306, 307, 308, 309, 310, 311, 312, 313, 314, 315, 316, 317, 318, 319, 320, 321, 322, 323, 324, 325, 326, 327, 328, 329, 330, 331, 332, 333, 334, 335, 336, 337, 338, 339, 340, 341, 342, 343, 344, 345, 346, 347, 348, 349, 350, 351, 352, 353, 354, 355, 356, 357, 358, 359, 360, 361, 362, 363, 364, 365, 366, 367, 368, 369, 370, 371, 372, 373, 374, 375, 376, 377, 378, 379, 380, 381, 382, 383, 384, 385, 386, 387, 388, 389, 390, 391, 392, 393, 394, 395, 396, 397, 398, 399, 400, 401, 402, 403, 404, 405, 406, 407, 408, 409, 410, 411, 412, 413, 414, 415, 416, 417, 418, 419, 420, 421, 422, 423, 424, 425, 426, 427, 428, 429, 430, 431, 432, 433, 434, 435, 436, 437, 438, 439, 440, 441, 442, 443, 444, 445, 446, 447, 448, 449, 450, 451, 452, 453, 454, 455, 456, 457, 458, 459, 460, 461, 462, 463, 464, 465, 466, 467, 468, 469, 470, 471, 472, 473, 474, 475, 476, 477, 478, 479, 480, 481, 482, 483, 484, 485, 486, 487, 488, 489, 490, 491, 492, 493, 494, 495, 496, 497, 498, 499, 500, 501, 502, 503, 504, 505, 506, 507, 508, 509, 510, 511, 512, 513, 514, 515, 516, 517, 518, 519, 520, 521, 522, 523, 524, 525, 526, 527, 528, 529, 530, 531, 532, 533, 534, 535, 536, 537, 538, 539, 540, 541, 542, 543, 544, 545, 546, 547, 548, 549, 550, 551, 552, 553, 554, 555, 556, 557, 558, 559, 560, 561, 562, 563, 564, 565, 566, 567, 568, 569, 570, 571, 572, 573, 574, 575, 576, 577, 578, 579, 580, 581, 582, 583, 584, 585, 586, 587, 588, 589, 590, 591, 592, 593, 594, 595, 596, 597, 598, 599, 600, 601, 602, 603, 604, 605, 606, 607, 608, 609, 610, 611, 612, 613, 614, 615, 616, 617, 618, 619, 620, 621, 622, 623, 624, 625, 626, 627, 628, 629, 630, 631, 632, 633, 634, 635, 636, 637, 638, 639, 640, 641, 642, 643, 644, 645, 646, 647, 648, 649, 650, 651, 652, 653, 654, 655, 656, 657, 658, 659, 660, 661, 662, 663, 664, 665, 666, 667, 668, 669, 670, 671, 672, 673, 674, 675, 676, 677, 678, 679, 680, 681, 682, 683, 684, 685, 686, 687, 688, 689, 690, 691, 692, 693, 694, 695, 696, 697, 698, 699, 700, 701, 702, 703, 704, 705, 706, 707, 708, 709, 710, 711, 712, 713, 714, 715, 716, 717, 718, 719, 720, 721, 722, 723, 724, 725, 726, 727, 728, 729, 730, 731, 732, 733, 734, 735, 736, 737, 738, 739, 740, 741, 742, 743, 744, 745, 746, 747, 748, 749, 750, 751, 752, 753, 754, 755, 756, 757, 758, 759, 760, 761, 762, 763, 764, 765, 766, 767, 768, 769, 770, 771, 772, 773, 774, 775, 776, 777, 778, 779, 780, 781, 782, 783, 784, 785, 786, 787, 788, 789, 790, 791, 792, 793, 794, 795, 796, 797, 798, 799, 800, 801, 802, 803, 804, 805, 806, 807, 808, 809, 810, 811, 812, 813, 814, 815, 816, 817, 818, 819, 820, 821, 822, 823, 824, 825, 826, 827, 828, 829, 830, 831, 832, 833, 834, 835, 836, 837, 838, 839, 840, 841, 842, 843, 844, 845, 846, 847, 848, 849, 850, 851, 852, 853, 854, 855, 856, 857, 858, 859, 860, 861, 862, 863, 864, 865, 866, 867, 868, 869, 870, 871, 872],
      "AcquisitionTime": ["125430.612500", "125431.072500", "125431.532500", "125431.992500", "125432.452500", "125432.912500", "125433.372500", "125433.832500", "125434.292500", "125434.752500", "125435.212500", "125435.672500", "125436.132500", "125436.592500", "125437.052500", "125437.512500", "125437.972500", "125438.432500", "125438.892500", "125439.352500", "125439.812500", "125440.272500", "125440.732500", "125441.192500", "125441.652500", "125442.112500", "125442.572500", "125443.032500", "125443.492500", "125443.952500", "125444.412500", "125444.872500", "125445.332500", "125445.792500", "125446.252500", "125446.712500", "125447.172500", "125447.632500", "125448.092500", "125448.552500", "125449.012500", "125449.472500", "125449.932500", "125450.392500", "125450.852500", "125451.312500", "125451.772500", "125452.232500", "125452.692500", "125453.152500", "125453.612500", "125454.072500", "125454.532500", "125454.992500", "125455.452500", "125455.912500", "125456.372500", "125456.832500", "125457.292500", "125457.752500", "125458.212500", "125458.672500", "125459.132500", "125459.592500", "125500.052500", "125500.512500", "125500.972500", "125501.432500", "125501.892500", "125502.352500", "125502.812500", "125503.272500", "125503.732500", "125504.192500", "125504.652500", "125505.112500", "125505.572500", "125506.032500", "125506.492500", "125506.952500", "125507.412500", "125507.872500", "125508.332500", "125508.792500", "125509.252500", "125509.712500", "125510.172500", "125510.632500", "125511.092500", "125511.552500", "125512.012500", "125512.472500", "125512.932500", "125513.392500", "125513.852500", "125514.312500", "125514.772500", "125515.232500", "125515.692500", "125516.152500", "125516.612500", "125517.072500", "125517.532500", "125517.992500", "125518.452500", "125518.912500", "125519.372500", "125519.832500", "125520.292500", "125520.752500", "125521.212500", "125521.672500", "125522.132500", "125522.592500", "125523.052500", "125523.512500", "125523.972500", "125524.432500", "125524.892500", "125525.352500", "125525.812500", "125526.272500", "125526.732500", "125527.192500", "125527.652500", "125528.112500", "125528.572500", "125529.032500", "125529.492500", "125529.952500", "125530.412500", "125530.872500", "125531.332500", "125531.792500", "125532.252500", "125532.712500", "125533.172500", "125533.632500", "125534.092500", "125534.552500", "125535.012500", "125535.472500", "125535.932500", "125536.392500", "125536.852500", "125537.312500", "125537.772500", "125538.232500", "125538.692500", "125539.152500", "125539.612500", "125540.072500", "125540.532500", "125540.992500", "125541.452500", "125541.912500", "125542.372500", "125542.832500", "125543.292500", "125543.752500", "125544.212500", "125544.672500", "125545.132500", "125545.592500", "125546.052500", "125546.512500", "125546.972500", "125547.432500", "125547.892500", "125548.352500", "125548.812500", "125549.272500", "125549.732500", "125550.192500", "125550.652500", "125551.112500", "125551.572500", "125552.032500", "125552.492500", "125552.952500", "125553.412500", "125553.872500", "125554.332500", "125554.792500", "125555.252500", "125555.712500", "125556.172500", "125556.632500", "125557.092500", "125557.552500", "125558.012500", "125558.472500", "125558.932500", "125559.392500", "125559.852500", "125600.312500", "125600.772500", "125601.232500", "125601.692500", "125602.152500", "125602.612500", "125603.072500", "125603.532500", "125603.992500", "125604.452500", "125604.912500", "125605.372500", "125605.832500", "125606.292500", "125606.752500", "125607.212500", "125607.672500", "125608.132500", "125608.592500", "125609.052500", "125609.512500", "125609.972500", "125610.432500", "125610.892500", "125611.352500", "125611.812500", "125612.272500", "125612.732500", "125613.192500", "125613.652500", "125614.112500", "125614.572500", "125615.032500", "125615.492500", "125615.952500", "125616.412500", "125616.872500", "125617.332500", "125617.792500", "125618.252500", "125618.712500", "125619.172500", "125619.632500", "125620.092500", "125620.552500", "125621.012500", "125621.472500", "125621.932500", "125622.392500", "125622.852500", "125623.312500", "125623.772500", "125624.232500", "125624.692500", "125625.152500", "125625.612500", "125626.072500", "125626.532500", "125626.992500", "125627.452500", "125627.912500", "125628.372500", "125628.832500", "125629.292500", "125629.752500", "125630.212500", "125630.672500", "125631.132500", "125631.592500", "125632.052500", "125632.512500", "125632.972500", "125633.432500", "125633.892500", "125634.352500", "125634.812500", "125635.272500", "125635.732500", "125636.192500", "125636.652500", "125637.112500", "125637.572500", "125638.032500", "125638.492500", "125638.952500", "125639.412500", "125639.872500", "125640.332500", "125640.792500", "125641.252500", "125641.712500", "125642.172500", "125642.632500", "125643.092500", "125643.552500", "125644.012500", "125644.472500", "125644.932500", "125645.392500", "125645.852500", "125646.312500", "125646.772500", "125647.232500", "125647.692500", "125648.152500", "125648.612500", "125649.072500", "125649.532500", "125649.992500", "125650.452500", "125650.912500", "125651.372500", "125651.832500", "125652.292500", "125652.752500", "125653.212500", "125653.672500", "125654.132500", "125654.592500", "125655.052500", "125655.512500", "125655.972500", "125656.432500", "125656.892500", "125657.352500", "125657.812500", "125658.272500", "125658.732500", "125659.192500", "125659.652500", "125700.112500", "125700.572500", "125701.032500", "125701.492500", "125701.952500", "125702.412500", "125702.872500", "125703.332500", "125703.792500", "125704.252500", "125704.712500", "125705.172500", "125705.632500", "125706.092500", "125706.552500", "125707.012500", "125707.472500", "125707.932500", "125708.392500", "125708.852500", "125709.312500", "125709.772500", "125710.232500", "125710.692500", "125711.152500", "125711.612500", "125712.072500", "125712.532500", "125712.992500", "125713.452500", "125713.912500", "125714.372500", "125714.832500", "125715.292500", "125715.752500", "125716.212500", "125716.672500", "125717.132500", "125717.592500", "125718.052500", "125718.512500", "125718.972500", "125719.432500", "125719.892500", "125720.352500", "125720.812500", "125721.272500", "125721.732500", "125722.192500", "125722.652500", "125723.112500", "125723.572500", "125724.032500", "125724.492500", "125724.952500", "125725.412500", "125725.872500", "125726.332500", "125726.792500", "125727.252500", "125727.712500", "125728.172500", "125728.632500", "125729.092500", "125729.552500", "125730.012500", "125730.472500", "125730.932500", "125731.392500", "125731.852500", "125732.312500", "125732.772500", "125733.232500", "125733.692500", "125734.152500", "125734.612500", "125735.072500", "125735.532500", "125735.992500", "125736.452500", "125736.912500", "125737.372500", "125737.832500", "125738.292500", "125738.752500", "125739.212500", "125739.672500", "125740.132500", "125740.592500", "125741.052500", "125741.512500", "125741.972500", "125742.432500", "125742.892500", "125743.352500", "125743.812500", "125744.272500", "125744.732500", "125745.192500", "125745.652500", "125746.112500", "125746.572500", "125747.032500", "125747.492500", "125747.952500", "125748.412500", "125748.872500", "125749.332500", "125749.792500", "125750.252500", "125750.712500", "125751.172500", "125751.632500", "125752.092500", "125752.552500", "125753.012500", "125753.472500", "125753.932500", "125754.392500", "125754.852500", "125755.312500", "125755.772500", "125756.232500", "125756.692500", "125757.152500", "125757.612500", "125758.072500", "125758.532500", "125758.992500", "125759.452500", "125759.912500", "125800.372500", "125800.832500", "125801.292500", "125801.752500", "125802.212500", "125802.672500", "125803.132500", "125803.592500", "125804.052500", "125804.512500", "125804.972500", "125805.432500", "125805.892500", "125806.352500", "125806.812500", "125807.272500", "125807.732500", "125808.192500", "125808.652500", "125809.112500", "125809.572500", "125810.032500", "125810.492500", "125810.952500", "125811.412500", "125811.872500", "125812.332500", "125812.792500", "125813.252500", "125813.712500", "125814.172500", "125814.632500", "125815.092500", "125815.552500", "125816.012500", "125816.472500", "125816.932500", "125817.392500", "125817.852500", "125818.312500", "125818.772500", "125819.232500", "125819.692500", "125820.152500", "125820.612500", "125821.072500", "125821.532500", "125821.992500", "125822.452500", "125822.912500", "125823.372500", "125823.832500", "125824.292500", "125824.752500", "125825.212500", "125825.672500", "125826.132500", "125826.592500", "125827.052500", "125827.512500", "125827.972500", "125828.432500", "125828.892500", "125829.352500", "125829.812500", "125830.272500", "125830.732500", "125831.192500", "125831.652500", "125832.112500", "125832.572500", "125833.032500", "125833.492500", "125833.952500", "125834.412500", "125834.872500", "125835.332500", "125835.792500", "125836.252500", "125836.712500", "125837.172500", "125837.632500", "125838.092500", "125838.552500", "125839.012500", "125839.472500", "125839.932500", "125840.392500", "125840.852500", "125841.312500", "125841.772500", "125842.232500", "125842.692500", "125843.152500", "125843.612500", "125844.072500", "125844.532500", "125844.992500", "125845.452500", "125845.912500", "125846.372500", "125846.832500", "125847.292500", "125847.752500", "125848.212500", "125848.672500", "125849.132500", "125849.592500", "125850.052500", "125850.512500", "125850.972500", "125851.432500", "125851.892500", "125852.352500", "125852.812500", "125853.272500", "125853.732500", "125854.192500", "125854.652500", "125855.112500", "125855.572500", "125856.032500", "125856.492500", "125856.952500", "125857.412500", "125857.872500", "125858.332500", "125858.792500", "125859.252500", "125859.712500", "125900.172500", "125900.632500", "125901.092500", "125901.552500", "125902.012500", "125902.472500", "125902.932500", "125903.392500", "125903.852500", "125904.312500", "125904.772500", "125905.232500", "125905.692500", "125906.152500", "125906.612500", "125907.072500", "125907.532500", "125907.992500", "125908.452500", "125908.912500", "125909.372500", "125909.832500", "125910.292500", "125910.752500", "125911.212500", "125911.672500", "125912.132500", "125912.592500", "125913.052500", "125913.512500", "125913.972500", "125914.432500", "125914.892500", "125915.352500", "125915.812500", "125916.272500", "125916.732500", "125917.192500", "125917.652500", "125918.112500", "125918.572500", "125919.032500", "125919.492500", "125919.952500", "125920.412500", "125920.872500", "125921.332500", "125921.792500", "125922.252500", "125922.712500", "125923.172500", "125923.632500", "125924.092500", "125924.552500", "125925.012500", "125925.472500", "125925.932500", "125926.392500", "125926.852500", "125927.312500", "125927.772500", "125928.232500", "125928.692500", "125929.152500", "125929.612500", "125930.072500", "125930.532500", "125930.992500", "125931.452500", "125931.912500", "125932.372500", "125932.832500", "125933.292500", "125933.752500", "125934.212500", "125934.672500", "125935.132500", "125935.592500", "125936.052500", "125936.512500", "125936.972500", "125937.432500", "125937.892500", "125938.352500", "125938.812500", "125939.272500", "125939.732500", "125940.192500", "125940.652500", "125941.112500", "125941.572500", "125942.032500", "125942.492500", "125942.952500", "125943.412500", "125943.872500", "125944.332500", "125944.792500", "125945.252500", "125945.712500", "125946.172500", "125946.632500", "125947.092500", "125947.552500", "125948.012500", "125948.472500", "125948.932500", "125949.392500", "125949.852500", "125950.312500", "125950.772500", "125951.232500", "125951.692500", "125952.152500", "125952.612500", "125953.072500", "125953.532500", "125953.992500", "125954.452500", "125954.912500", "125955.372500", "125955.832500", "125956.292500", "125956.752500", "125957.212500", "125957.672500", "125958.132500", "125958.592500", "125959.052500", "125959.512500", "125959.972500", "130000.432500", "130000.892500", "130001.352500", "130001.812500", "130002.272500", "130002.732500", "130003.192500", "130003.652500", "130004.112500", "130004.572500", "130005.032500", "130005.492500", "130005.952500", "130006.412500", "130006.872500", "130007.332500", "130007.792500", "130008.252500", "130008.712500", "130009.172500", "130009.632500", "130010.092500", "130010.552500", "130011.012500", "130011.472500", "130011.932500", "130012.392500", "130012.852500", "130013.312500", "130013.772500", "130014.232500", "130014.692500", "130015.152500", "130015.612500", "130016.072500", "130016.532500", "130016.992500", "130017.452500", "130017.912500", "130018.372500", "130018.832500", "130019.292500", "130019.752500", "130020.212500", "130020.672500", "130021.132500", "130021.592500", "130022.052500", "130022.512500", "130022.972500", "130023.432500", "130023.892500", "130024.352500", "130024.812500", "130025.272500", "130025.732500", "130026.192500", "130026.652500", "130027.112500", "130027.572500", "130028.032500", "130028.492500", "130028.952500", "130029.412500", "130029.872500", "130030.332500", "130030.792500", "130031.252500", "130031.712500", "130032.172500", "130032.632500", "130033.092500", "130033.552500", "130034.012500", "130034.472500", "130034.932500", "130035.392500", "130035.852500", "130036.312500", "130036.772500", "130037.232500", "130037.692500", "130038.152500", "130038.612500", "130039.072500", "130039.532500", "130039.992500", "130040.452500", "130040.912500", "130041.372500", "130041.832500", "130042.292500", "130042.752500", "130043.212500", "130043.672500", "130044.132500", "130044.592500", "130045.052500", "130045.512500", "130045.972500", "130046.432500", "130046.892500", "130047.352500", "130047.812500", "130048.272500", "130048.732500", "130049.192500", "130049.652500", "130050.112500", "130050.572500", "130051.032500", "130051.492500", "130051.952500", "130052.412500", "130052.872500", "130053.332500", "130053.792500", "130054.252500", "130054.712500", "130055.172500", "130055.632500", "130056.092500", "130056.552500", "130057.012500", "130057.472500", "130057.932500", "130058.392500", "130058.852500", "130059.312500", "130059.772500", "130100.232500", "130100.692500", "130101.152500", "130101.612500", "130102.072500", "130102.532500", "130102.992500", "130103.452500", "130103.912500", "130104.372500", "130104.832500", "130105.292500", "130105.752500", "130106.212500", "130106.672500", "130107.132500", "130107.592500", "130108.052500", "130108.512500", "130108.972500", "130109.432500", "130109.892500", "130110.352500", "130110.812500", "130111.272500"],
