{
  "AcquisitionMatrixPE": 82,
  "AcquisitionNumber": 1,
  "AcquisitionTime": "13:08:30.942500",
  "BandwidthPerPixelPhaseEncode": 24.888,
  "BaseResolution": 82,
  "BodyPartExamined": "BRAIN",
  "ConsistencyInfo": "N4_VE11E_LATEST_20181129",
  "ConversionSoftware": "dcm2niix",
  "ConversionSoftwareVersion": "v1.0.20201102",
  "DerivedVendorReportedEchoSpacing": 0.00049,
  "DeviceSerialNumber": "66112",
  "DwellTime": 2e-06,
  "EchoTime": 0.0272,
  "EchoTrainLength": 82,
  "EffectiveEchoSpacing": 0.00049,
  "FlipAngle": 44,
  "ImageComments": "Unaliased MB8/PE3",
  "ImageOrientationPatientDICOM": [0.997668, 0.0248219, 0.0635729, -0.0221176, 0.998835, -0.0428955],
  "ImageType": [
    "ORIGINAL",
    "PRIMARY",
    "M",
    "MB",
    "ND",
    "NORM",
    "MOSAIC"
],
  "ImagingFrequency": 123.252,
  "InPlanePhaseEncodingDirectionDICOM": "COL",
  "InstitutionAddress": "Maynard 3,Hanover,NH,US,03755",
  "InstitutionName": "Dartmouth College - PBS",
  "InstitutionalDepartmentName": "Department",
  "MRAcquisitionType": "2D",
  "MagneticFieldStrength": 3,
  "Manufacturer": "Siemens",
  "ManufacturersModelName": "Prisma",
  "Modality": "MR",
  "MultibandAccelerationFactor": 8,
  "PartialFourier": 1,
  "PatientPosition": "HFS",
  "PercentPhaseFOV": 100,
  "PercentSampling": 100,
  "PhaseEncodingDirection": "j-",
  "PhaseEncodingSteps": 82,
  "PhaseResolution": 1,
  "PixelBandwidth": 3050,
  "ProcedureStepDescription": "Wager_Wager^1076_spacetop",
  "ProtocolName": "func_run-04_task-social_acq-ap-mb8",
  "PulseSequenceDetails": "%CustomerSeq%\\cmrr_mbep2d_bold",
  "ReceiveCoilActiveElements": "HEA;HEP",
  "ReceiveCoilName": "Head_32",
  "ReconMatrixPE": 82,
  "RepetitionTime": 0.46,
  "SAR": 0.0874926,
  "ScanOptions": "FS",
  "ScanningSequence": "EP",
  "SequenceName": "epfid2d1_82",
  "SequenceVariant": "SK\\SS",
  "SeriesDescription": "func_run-04_task-social_acq-ap-mb8",
  "SeriesNumber": 18,
  "ShimSetting": [4168, -7691, -7245, 519, 0, 6, 26, 26],
  "SliceThickness": 2.7,
  "SliceTiming": [0, 0.2525, 0.0625, 0.315, 0.125, 0.3775, 0.1875, 0, 0.2525, 0.0625, 0.315, 0.125, 0.3775, 0.1875, 0, 0.2525, 0.0625, 0.315, 0.125, 0.3775, 0.1875, 0, 0.2525, 0.0625, 0.315, 0.125, 0.3775, 0.1875, 0, 0.2525, 0.0625, 0.315, 0.125, 0.3775, 0.1875, 0, 0.2525, 0.0625, 0.315, 0.125, 0.3775, 0.1875, 0, 0.2525, 0.0625, 0.315, 0.125, 0.3775, 0.1875, 0, 0.2525, 0.0625, 0.315, 0.125, 0.3775, 0.1875],
  "SoftwareVersions": "syngo MR E11",
  "SpacingBetweenSlices": 2.7,
  "StationName": "AWP66112",
  "TaskName": "social",
  "TotalReadoutTime": 0.03969,
  "TxRefAmp": 229.189,
  "WipMemBlock": "1b35d534-d991-45d8-9cae-5bff80a785a2||Sequence: R016 ve11e/master r/434b28f1; Aug  7 2019 18:53:46 by eja",
  "dcmmeta_affine": [
    [-2.6766715049743652, -0.05933988839387894, 0.17432165145874023, 109.3919448852539],
    [-0.06659546494483948, 2.679800510406494, -0.11175147444009781, -82.46585845947266],
    [0.17056146264076233, 0.11508557200431824, 2.6920480728149414, -85.70490264892578],
    [0.0, 0.0, 0.0, 1.0]
],
  "dcmmeta_reorient_transform": [
    [0.0, -1.0, 0.0, 81.0],
    [1.0, 0.0, 0.0, 0.0],
    [0.0, 0.0, 1.0, 0.0],
    [0.0, 0.0, 0.0, 1.0]
],
  "dcmmeta_shape": [82, 82, 56, 872],
  "dcmmeta_slice_dim": 2,
  "dcmmeta_version": 0.6,
  "global": {
    "const": {
      "AccessionNumber": "A004053",
      "AcquisitionMatrix": [82, 0, 0, 82],
      "AngioFlag": "N",
      "BitsAllocated": 16,
      "BitsStored": 16,
      "BodyPartExamined": "BRAIN",
      "Columns": 656,
      "EchoNumbers": 1,
      "EchoTime": 27.2,
      "EchoTrainLength": 82,
      "FlipAngle": 44.0,
      "HighBit": 15,
      "ImageOrientationPatient": [0.99766846018238, 0.02482194501437, 0.06357290777548, -0.0221175948829, 0.99883471384384, -0.0428955291038],
      "ImagePositionPatient": [-855.75960130548, -922.81362979229, -92.304553137582],
      "ImageType": [
        "ORIGINAL",
        "PRIMARY",
        "M",
        "MB",
        "ND",
        "NORM",
        "MOSAIC"
],
      "ImagedNucleus": "1H",
      "ImagingFrequency": 123.252233,
      "InPlanePhaseEncodingDirection": "COL",
      "MRAcquisitionType": "2D",
      "MagneticFieldStrength": 3.0,
      "Manufacturer": "SIEMENS",
      "ManufacturerModelName": "Prisma",
      "Modality": "MR",
      "NumberOfAverages": 1.0,
      "NumberOfPhaseEncodingSteps": 82,
      "PercentPhaseFieldOfView": 100.0,
      "PercentSampling": 100.0,
      "PerformedProcedureStepStartTime": "121237.882000",
      "PhotometricInterpretation": "MONOCHROME2",
      "PixelBandwidth": 3050.0,
      "PixelRepresentation": 0,
      "PixelSpacing": [2.6829268932343, 2.6829268932343],
      "ProtocolName": "func_run-04_task-social_acq-ap-mb8",
      "RepetitionTime": 460.0,
      "Rows": 656,
      "SAR": 0.0874926361782,
      "SamplesPerPixel": 1,
      "ScanOptions": "FS",
      "ScanningSequence": "EP",
      "SequenceName": "epfid2d1_82",
      "SequenceVariant": [
        "SK",
        "SS"
],
      "SeriesDescription": "func_run-04_task-social_acq-ap-mb8",
      "SeriesNumber": 18,
      "SeriesTime": "130857.771000",
      "SliceLocation": -74.976541155583,
      "SliceThickness": 2.7000000476837,
      "SmallestImagePixelValue": 0,
      "SoftwareVersions": "syngo MR E11",
      "SpacingBetweenSlices": 2.6999998794169,
      "SpecificCharacterSet": "ISO_IR 100",
      "StudyID": "1",
      "StudyTime": "121237.823000",
      "TransmitCoilName": "Body",
      "VariableFlipAngleFlag": "N",
      "WindowCenterWidthExplanation": "Algo1"
    },
    "slices": {}
  },
  "time": {
    "samples": {
      "AcquisitionNumber": [1, 2, 3, 4, 5, 6, 7, 8, 9, 10, 11, 12, 13, 14, 15, 16, 17, 18, 19, 20, 21, 22, 23, 24, 25, 26, 27, 28, 29, 30, 31, 32, 33, 34, 35, 36, 37, 38, 39, 40, 41, 42, 43, 44, 45, 46, 47, 48, 49, 50, 51, 52, 53, 54, 55, 56, 57, 58, 59, 60, 61, 62, 63, 64, 65, 66, 67, 68, 69, 70, 71, 72, 73, 74, 75, 76, 77, 78, 79, 80, 81, 82, 83, 84, 85, 86, 87, 88, 89, 90, 91, 92, 93, 94, 95, 96, 97, 98, 99, 100, 101, 102, 103, 104, 105, 106, 107, 108, 109, 110, 111, 112, 113, 114, 115, 116, 117, 118, 119, 120, 121, 122, 123, 124, 125, 126, 127, 128, 129, 130, 131, 132, 133, 134, 135, 136, 137, 138, 139, 140, 141, 142, 143, 144, 145, 146, 147, 148, 149, 150, 151, 152, 153, 154, 155, 156, 157, 158, 159, 160, 161, 162, 163, 164, 165, 166, 167, 168, 169, 170, 171, 172, 173, 174, 175, 176, 177, 178, 179, 180, 181, 182, 183, 184, 185, 186, 187, 188, 189, 190, 191, 192, 193, 194, 195, 196, 197, 198, 199, 200, 201, 202, 203, 204, 205, 206, 207, 208, 209, 210, 211, 212, 213, 214, 215, 216, 217, 218, 219, 220, 221, 222, 223, 224, 225, 226, 227, 228, 229, 230, 231, 232, 233, 234, 235, 236, 237, 238, 239, 240, 241, 242, 243, 244, 245, 246, 247, 248, 249, 250, 251, 252, 253, 254, 255, 256, 257, 258, 259, 260, 261, 262, 263, 264, 265, 266, 267, 268, 269, 270, 271, 272, 273, 274, 275, 276, 277, 278, 279, 280, 281, 282, 283, 284, 285, 286, 287, 288, 289, 290, 291, 292, 293, 294, 295, 296, 297, 298, 299, 300, 301, 302, 303, 304, 305, 306, 307, 308, 309, 310, 311, 312, 313, 314, 315, 316, 317, 318, 319, 320, 321, 322, 323, 324, 325, 326, 327, 328, 329, 330, 331, 332, 333, 334, 335, 336, 337, 338, 339, 340, 341, 342, 343, 344, 345, 346, 347, 348, 349, 350, 351, 352, 353, 354, 355, 356, 357, 358, 359, 360, 361, 362, 363, 364, 365, 366, 367, 368, 369, 370, 371, 372, 373, 374, 375, 376, 377, 378, 379, 380, 381, 382, 383, 384, 385, 386, 387, 388, 389, 390, 391, 392, 393, 394, 395, 396, 397, 398, 399, 400, 401, 402, 403, 404, 405, 406, 407, 408, 409, 410, 411, 412, 413, 414, 415, 416, 417, 418, 419, 420, 421, 422, 423, 424, 425, 426, 427, 428, 429, 430, 431, 432, 433, 434, 435, 436, 437, 438, 439, 440, 441, 442, 443, 444, 445, 446, 447, 448, 449, 450, 451, 452, 453, 454, 455, 456, 457, 458, 459, 460, 461, 462, 463, 464, 465, 466, 467, 468, 469, 470, 471, 472, 473, 474, 475, 476, 477, 478, 479, 480, 481, 482, 483, 484, 485, 486, 487, 488, 489, 490, 491, 492, 493, 494, 495, 496, 497, 498, 499, 500, 501, 502, 503, 504, 505, 506, 507, 508, 509, 510, 511, 512, 513, 514, 515, 516, 517, 518, 519, 520, 521, 522, 523, 524, 525, 526, 527, 528, 529, 530, 531, 532, 533, 534, 535, 536, 537, 538, 539, 540, 541, 542, 543, 544, 545, 546, 547, 548, 549, 550, 551, 552, 553, 554, 555, 556, 557, 558, 559, 560, 561, 562, 563, 564, 565, 566, 567, 568, 569, 570, 571, 572, 573, 574, 575, 576, 577, 578, 579, 580, 581, 582, 583, 584, 585, 586, 587, 588, 589, 590, 591, 592, 593, 594, 595, 596, 597, 598, 599, 600, 601, 602, 603, 604, 605, 606, 607, 608, 609, 610, 611, 612, 613, 614, 615, 616, 617, 618, 619, 620, 621, 622, 623, 624, 625, 626, 627, 628, 629, 630, 631, 632, 633, 634, 635, 636, 637, 638, 639, 640, 641, 642, 643, 644, 645, 646, 647, 648, 649, 650, 651, 652, 653, 654, 655, 656, 657, 658, 659, 660, 661, 662, 663, 664, 665, 666, 667, 668, 669, 670, 671, 672, 673, 674, 675, 676, 677, 678, 679, 680, 681, 682, 683, 684, 685, 686, 687, 688, 689, 690, 691, 692, 693, 694, 695, 696, 697, 698, 699, 700, 701, 702, 703, 704, 705, 706, 707, 708, 709, 710, 711, 712, 713, 714, 715, 716, 717, 718, 719, 720, 721, 722, 723, 724, 725, 726, 727, 728, 729, 730, 731, 732, 733, 734, 735, 736, 737, 738, 739, 740, 741, 742, 743, 744, 745, 746, 747, 748, 749, 750, 751, 752, 753, 754, 755, 756, 757, 758, 759, 760, 761, 762, 763, 764, 765, 766, 767, 768, 769, 770, 771, 772, 773, 774, 775, 776, 777, 778, 779, 780, 781, 782, 783, 784, 785, 786, 787, 788, 789, 790, 791, 792, 793, 794, 795, 796, 797, 798, 799, 800, 801, 802, 803, 804, 805, 806, 807, 808, 809, 810, 811, 812, 813, 814, 815, 816, 817, 818, 819, 820, 821, 822, 823, 824, 825, 826, 827, 828, 829, 830, 831, 832, 833, 834, 835, 836, 837, 838, 839, 840, 841, 842, 843, 844, 845, 846, 847, 848, 849, 850, 851, 852, 853, 854, 855, 856, 857, 858, 859, 860, 861, 862, 863, 864, 865, 866, 867, 868, 869, 870, 871, 872],
      "AcquisitionTime": ["130830.942500", "130831.402500", "130831.862500", "130832.322500", "130832.782500", "130833.242500", "130833.702500", "130834.162500", "130834.622500", "130835.082500", "130835.542500", "130836.002500", "130836.462500", "130836.922500", "130837.382500", "130837.842500", "130838.302500", "130838.762500", "130839.222500", "130839.682500", "130840.142500", "130840.602500", "130841.062500", "130841.522500", "130841.982500", "130842.442500", "130842.902500", "130843.362500", "130843.822500", "130844.282500", "130844.742500", "130845.202500", "130845.662500", "130846.122500", "130846.582500", "130847.042500", "130847.502500", "130847.962500", "130848.422500", "130848.882500", "130849.342500", "130849.802500", "130850.262500", "130850.722500", "130851.182500", "130851.642500", "130852.102500", "130852.562500", "130853.022500", "130853.482500", "130853.942500", "130854.402500", "130854.862500", "130855.322500", "130855.782500", "130856.242500", "130856.702500", "130857.162500", "130857.622500", "130858.082500", "130858.542500", "130859.002500", "130859.462500", "130859.922500", "130900.382500", "130900.842500", "130901.302500", "130901.762500", "130902.222500", "130902.682500", "130903.142500", "130903.602500", "130904.062500", "130904.522500", "130904.982500", "130905.442500", "130905.902500", "130906.362500", "130906.822500", "130907.282500", "130907.742500", "130908.202500", "130908.662500", "130909.122500", "130909.582500", "130910.042500", "130910.502500", "130910.962500", "130911.422500", "130911.882500", "130912.342500", "130912.802500", "130913.262500", "130913.722500", "130914.182500", "130914.642500", "130915.102500", "130915.562500", "130916.022500", "130916.482500", "130916.942500", "130917.402500", "130917.862500", "130918.322500", "130918.782500", "130919.242500", "130919.702500", "130920.162500", "130920.622500", "130921.082500", "130921.542500", "130922.002500", "130922.462500", "130922.922500", "130923.382500", "130923.842500", "130924.302500", "130924.762500", "130925.222500", "130925.682500", "130926.142500", "130926.602500", "130927.062500", "130927.522500", "130927.982500", "130928.442500", "130928.902500", "130929.362500", "130929.822500", "130930.282500", "130930.742500", "130931.202500", "130931.662500", "130932.122500", "130932.582500", "130933.042500", "130933.502500", "130933.962500", "130934.422500", "130934.882500", "130935.342500", "130935.802500", "130936.262500", "130936.722500", "130937.182500", "130937.642500", "130938.102500", "130938.562500", "130939.022500", "130939.482500", "130939.942500", "130940.402500", "130940.862500", "130941.322500", "130941.782500", "130942.242500", "130942.702500", "130943.162500", "130943.622500", "130944.082500", "130944.542500", "130945.002500", "130945.462500", "130945.922500", "130946.382500", "130946.842500", "130947.302500", "130947.762500", "130948.222500", "130948.682500", "130949.142500", "130949.602500", "130950.062500", "130950.522500", "130950.982500", "130951.442500", "130951.902500", "130952.362500", "130952.822500", "130953.282500", "130953.742500", "130954.202500", "130954.662500", "130955.122500", "130955.582500", "130956.042500", "130956.502500", "130956.962500", "130957.422500", "130957.882500", "130958.342500", "130958.802500", "130959.262500", "130959.722500", "131000.182500", "131000.642500", "131001.102500", "131001.562500", "131002.022500", "131002.482500", "131002.942500", "131003.402500", "131003.862500", "131004.322500", "131004.782500", "131005.242500", "131005.702500", "131006.162500", "131006.622500", "131007.082500", "131007.542500", "131008.002500", "131008.462500", "131008.922500", "131009.382500", "131009.842500", "131010.302500", "131010.762500", "131011.222500", "131011.682500", "131012.142500", "131012.602500", "131013.062500", "131013.522500", "131013.982500", "131014.442500", "131014.902500", "131015.362500", "131015.822500", "131016.282500", "131016.742500", "131017.202500", "131017.662500", "131018.122500", "131018.582500", "131019.042500", "131019.502500", "131019.962500", "131020.422500", "131020.882500", "131021.342500", "131021.802500", "131022.262500", "131022.722500", "131023.182500", "131023.642500", "131024.102500", "131024.562500", "131025.022500", "131025.482500", "131025.942500", "131026.402500", "131026.862500", "131027.322500", "131027.782500", "131028.242500", "131028.702500", "131029.162500", "131029.622500", "131030.082500", "131030.542500", "131031.002500", "131031.462500", "131031.922500", "131032.382500", "131032.842500", "131033.302500", "131033.762500", "131034.222500", "131034.682500", "131035.142500", "131035.602500", "131036.062500", "131036.522500", "131036.982500", "131037.442500", "131037.902500", "131038.362500", "131038.822500", "131039.282500", "131039.742500", "131040.202500", "131040.662500", "131041.122500", "131041.582500", "131042.042500", "131042.502500", "131042.962500", "131043.422500", "131043.882500", "131044.342500", "131044.802500", "131045.262500", "131045.722500", "131046.182500", "131046.642500", "131047.102500", "131047.562500", "131048.022500", "131048.482500", "131048.942500", "131049.402500", "131049.862500", "131050.322500", "131050.782500", "131051.242500", "131051.702500", "131052.162500", "131052.622500", "131053.082500", "131053.542500", "131054.002500", "131054.462500", "131054.922500", "131055.382500", "131055.842500", "131056.302500", "131056.762500", "131057.222500", "131057.682500", "131058.142500", "131058.602500", "131059.062500", "131059.522500", "131059.982500", "131100.442500", "131100.902500", "131101.362500", "131101.822500", "131102.282500", "131102.742500", "131103.202500", "131103.662500", "131104.122500", "131104.582500", "131105.042500", "131105.502500", "131105.962500", "131106.422500", "131106.882500", "131107.342500", "131107.802500", "131108.262500", "131108.722500", "131109.182500", "131109.642500", "131110.102500", "131110.562500", "131111.022500", "131111.482500", "131111.942500", "131112.402500", "131112.862500", "131113.322500", "131113.782500", "131114.242500", "131114.702500", "131115.162500", "131115.622500", "131116.082500", "131116.542500", "131117.002500", "131117.462500", "131117.922500", "131118.382500", "131118.842500", "131119.302500", "131119.762500", "131120.222500", "131120.682500", "131121.142500", "131121.602500", "131122.062500", "131122.522500", "131122.982500", "131123.442500", "131123.902500", "131124.362500", "131124.822500", "131125.282500", "131125.742500", "131126.202500", "131126.662500", "131127.122500", "131127.582500", "131128.042500", "131128.502500", "131128.962500", "131129.422500", "131129.882500", "131130.342500", "131130.802500", "131131.262500", "131131.722500", "131132.182500", "131132.642500", "131133.102500", "131133.562500", "131134.022500", "131134.482500", "131134.942500", "131135.402500", "131135.862500", "131136.322500", "131136.782500", "131137.242500", "131137.702500", "131138.162500", "131138.622500", "131139.082500", "131139.542500", "131140.002500", "131140.462500", "131140.922500", "131141.382500", "131141.842500", "131142.302500", "131142.762500", "131143.222500", "131143.682500", "131144.142500", "131144.602500", "131145.062500", "131145.522500", "131145.982500", "131146.442500", "131146.902500", "131147.362500", "131147.822500", "131148.282500", "131148.742500", "131149.202500", "131149.662500", "131150.122500", "131150.582500", "131151.042500", "131151.502500", "131151.962500", "131152.422500", "131152.882500", "131153.342500", "131153.802500", "131154.262500", "131154.722500", "131155.182500", "131155.642500", "131156.102500", "131156.562500", "131157.022500", "131157.482500", "131157.942500", "131158.402500", "131158.862500", "131159.322500", "131159.782500", "131200.242500", "131200.702500", "131201.162500", "131201.622500", "131202.082500", "131202.542500", "131203.002500", "131203.462500", "131203.922500", "131204.382500", "131204.842500", "131205.302500", "131205.762500", "131206.222500", "131206.682500", "131207.142500", "131207.602500", "131208.062500", "131208.522500", "131208.982500", "131209.442500", "131209.902500", "131210.362500", "131210.822500", "131211.282500", "131211.742500", "131212.202500", "131212.662500", "131213.122500", "131213.582500", "131214.042500", "131214.502500", "131214.962500", "131215.422500", "131215.882500", "131216.342500", "131216.802500", "131217.262500", "131217.722500", "131218.182500", "131218.642500", "131219.102500", "131219.562500", "131220.022500", "131220.482500", "131220.942500", "131221.402500", "131221.862500", "131222.322500", "131222.782500", "131223.242500", "131223.702500", "131224.162500", "131224.622500", "131225.082500", "131225.542500", "131226.002500", "131226.462500", "131226.922500", "131227.382500", "131227.842500", "131228.302500", "131228.762500", "131229.222500", "131229.682500", "131230.142500", "131230.602500", "131231.062500", "131231.522500", "131231.982500", "131232.442500", "131232.902500", "131233.362500", "131233.822500", "131234.282500", "131234.742500", "131235.202500", "131235.662500", "131236.122500", "131236.582500", "131237.042500", "131237.502500", "131237.962500", "131238.422500", "131238.882500", "131239.342500", "131239.802500", "131240.262500", "131240.722500", "131241.182500", "131241.642500", "131242.102500", "131242.562500", "131243.022500", "131243.482500", "131243.942500", "131244.402500", "131244.862500", "131245.322500", "131245.782500", "131246.242500", "131246.702500", "131247.162500", "131247.622500", "131248.082500", "131248.542500", "131249.002500", "131249.462500", "131249.922500", "131250.382500", "131250.842500", "131251.302500", "131251.762500", "131252.222500", "131252.682500", "131253.142500", "131253.602500", "131254.062500", "131254.522500", "131254.982500", "131255.442500", "131255.902500", "131256.362500", "131256.822500", "131257.282500", "131257.742500", "131258.202500", "131258.662500", "131259.122500", "131259.582500", "131300.042500", "131300.502500", "131300.962500", "131301.422500", "131301.882500", "131302.342500", "131302.802500", "131303.262500", "131303.722500", "131304.182500", "131304.642500", "131305.102500", "131305.562500", "131306.022500", "131306.482500", "131306.942500", "131307.402500", "131307.862500", "131308.322500", "131308.782500", "131309.242500", "131309.702500", "131310.162500", "131310.622500", "131311.082500", "131311.542500", "131312.002500", "131312.462500", "131312.922500", "131313.382500", "131313.842500", "131314.302500", "131314.762500", "131315.222500", "131315.682500", "131316.142500", "131316.602500", "131317.062500", "131317.522500", "131317.982500", "131318.442500", "131318.902500", "131319.362500", "131319.822500", "131320.282500", "131320.742500", "131321.202500", "131321.662500", "131322.122500", "131322.582500", "131323.042500", "131323.502500", "131323.962500", "131324.422500", "131324.882500", "131325.342500", "131325.802500", "131326.262500", "131326.722500", "131327.182500", "131327.642500", "131328.102500", "131328.562500", "131329.022500", "131329.482500", "131329.942500", "131330.402500", "131330.862500", "131331.322500", "131331.782500", "131332.242500", "131332.702500", "131333.162500", "131333.622500", "131334.082500", "131334.542500", "131335.002500", "131335.462500", "131335.922500", "131336.382500", "131336.842500", "131337.302500", "131337.762500", "131338.222500", "131338.682500", "131339.142500", "131339.602500", "131340.062500", "131340.522500", "131340.982500", "131341.442500", "131341.902500", "131342.362500", "131342.822500", "131343.282500", "131343.742500", "131344.202500", "131344.662500", "131345.122500", "131345.582500", "131346.042500", "131346.502500", "131346.962500", "131347.422500", "131347.882500", "131348.342500", "131348.802500", "131349.262500", "131349.722500", "131350.182500", "131350.642500", "131351.102500", "131351.562500", "131352.022500", "131352.482500", "131352.942500", "131353.402500", "131353.862500", "131354.322500", "131354.782500", "131355.242500", "131355.702500", "131356.162500", "131356.622500", "131357.082500", "131357.542500", "131358.002500", "131358.462500", "131358.922500", "131359.382500", "131359.842500", "131400.302500", "131400.762500", "131401.222500", "131401.682500", "131402.142500", "131402.602500", "131403.062500", "131403.522500", "131403.982500", "131404.442500", "131404.902500", "131405.362500", "131405.822500", "131406.282500", "131406.742500", "131407.202500", "131407.662500", "131408.122500", "131408.582500", "131409.042500", "131409.502500", "131409.962500", "131410.422500", "131410.882500", "131411.342500", "131411.802500", "131412.262500", "131412.722500", "131413.182500", "131413.642500", "131414.102500", "131414.562500", "131415.022500", "131415.482500", "131415.942500", "131416.402500", "131416.862500", "131417.322500", "131417.782500", "131418.242500", "131418.702500", "131419.162500", "131419.622500", "131420.082500", "131420.542500", "131421.002500", "131421.462500", "131421.922500", "131422.382500", "131422.842500", "131423.302500", "131423.762500", "131424.222500", "131424.682500", "131425.142500", "131425.602500", "131426.062500", "131426.522500", "131426.982500", "131427.442500", "131427.902500", "131428.362500", "131428.822500", "131429.282500", "131429.742500", "131430.202500", "131430.662500", "131431.122500", "131431.582500", "131432.042500", "131432.502500", "131432.962500", "131433.422500", "131433.882500", "131434.342500", "131434.802500", "131435.262500", "131435.722500", "131436.182500", "131436.642500", "131437.102500", "131437.562500", "131438.022500", "131438.482500", "131438.942500", "131439.402500", "131439.862500", "131440.322500", "131440.782500", "131441.242500", "131441.702500", "131442.162500", "131442.622500", "131443.082500", "131443.542500", "131444.002500", "131444.462500", "131444.922500", "131445.382500", "131445.842500", "131446.302500", "131446.762500", "131447.222500", "131447.682500", "131448.142500", "131448.602500", "131449.062500", "131449.522500", "131449.982500", "131450.442500", "131450.902500", "131451.362500", "131451.822500", "131452.282500", "131452.742500", "131453.202500", "131453.662500", "131454.122500", "131454.582500", "131455.042500", "131455.502500", "131455.962500", "131456.422500", "131456.882500", "131457.342500", "131457.802500", "131458.262500", "131458.722500", "131459.182500", "131459.642500", "131500.102500", "131500.562500", "131501.022500", "131501.482500", "131501.942500", "131502.402500", "131502.862500", "131503.322500", "131503.782500", "131504.242500", "131504.702500", "131505.162500", "131505.622500", "131506.082500", "131506.542500", "131507.002500", "131507.462500", "131507.922500", "131508.382500", "131508.842500", "131509.302500", "131509.762500", "131510.222500", "131510.682500", "131511.142500", "131511.602500"],
