{
  "AcquisitionMatrixPE": 140,
  "AcquisitionNumber": 1,
  "AcquisitionTime": "19:36:37.997500",
  "BandwidthPerPixelPhaseEncode": 10.352,
  "BaseResolution": 140,
  "BodyPartExamined": "BRAIN",
  "ConsistencyInfo": "N4_VE11E_LATEST_20181129",
  "ConversionSoftware": "dcm2niix",
  "ConversionSoftwareVersion": "v1.0.20201102",
  "DerivedVendorReportedEchoSpacing": 0.000689998,
  "DeviceSerialNumber": "66112",
  "DiffusionScheme": "Monopolar",
  "DwellTime": 2.1e-06,
  "EchoTime": 0.088,
  "EchoTrainLength": 105,
  "EffectiveEchoSpacing": 0.000689998,
  "FlipAngle": 90,
  "ImageComments": "Unaliased MB3/PE3",
  "ImageOrientationPatientDICOM": [0.998661, -0.0271294, 0.0440465, 0.0106326, 0.940919, 0.338465],
  "ImageType": [
    "ORIGINAL",
    "PRIMARY",
    "DIFFUSION",
    "NONE",
    "MB",
    "ND"
],
  "ImagingFrequency": 123.259,
  "InPlanePhaseEncodingDirectionDICOM": "COL",
  "InstitutionAddress": "Maynard 3,Hanover,NH,US,03755",
  "InstitutionName": "Dartmouth College - PBS",
  "InstitutionalDepartmentName": "Department",
  "IntendedFor": [
    "ses-01/dwi/sub-0128_ses-01_acq-96dirX6b0Xmb_dwi.nii.gz"
],
  "MRAcquisitionType": "2D",
  "MagneticFieldStrength": 3,
  "Manufacturer": "Siemens",
  "ManufacturersModelName": "Prisma",
  "Modality": "MR",
  "MultibandAccelerationFactor": 3,
  "PartialFourier": 0.75,
  "PatientPosition": "HFS",
  "PercentPhaseFOV": 100,
  "PercentSampling": 100,
  "PhaseEncodingDirection": "j-",
  "PhaseEncodingSteps": 105,
  "PhaseResolution": 1,
  "PixelBandwidth": 1700,
  "ProcedureStepDescription": "Wager_Wager^1076_spacetop",
  "ProtocolName": "dwi_acq-discorr-AP",
  "PulseSequenceDetails": "%CustomerSeq%\\cmrr_mbep2d_diff",
  "ReceiveCoilActiveElements": "HEA;HEP",
  "ReceiveCoilName": "Head_32",
  "ReconMatrixPE": 140,
  "RepetitionTime": 4.1,
  "SAR": 0.137046,
  "ScanOptions": "PFP\\FS",
  "ScanningSequence": "EP",
  "SequenceName": "ep_b0",
  "SequenceVariant": "SK\\SS",
  "SeriesDescription": "dwi_acq-discorr-AP",
  "SeriesNumber": 7,
  "ShimSetting": [4246, -7813, -7256, 294, -165, -14, 116, 96],
  "SliceThickness": 1.7,
  "SliceTiming": [0, 2.10938, 0.14062, 2.26562, 0.29688, 2.42188, 0.45312, 2.5625, 0.60938, 2.71875, 0.75, 2.875, 0.90625, 3.01562, 1.0625, 3.17188, 1.20312, 3.32812, 1.35938, 3.46875, 1.5, 3.625, 1.65625, 3.78125, 1.8125, 3.92188, 1.96875, 0, 2.10938, 0.14062, 2.26562, 0.29688, 2.42188, 0.45312, 2.5625, 0.60938, 2.71875, 0.75, 2.875, 0.90625, 3.01562, 1.0625, 3.17188, 1.20312, 3.32812, 1.35938, 3.46875, 1.5, 3.625, 1.65625, 3.78125, 1.8125, 3.92188, 1.96875, 0, 2.10938, 0.14062, 2.26562, 0.29688, 2.42188, 0.45312, 2.5625, 0.60938, 2.71875, 0.75, 2.875, 0.90625, 3.01562, 1.0625, 3.17188, 1.20312, 3.32812, 1.35938, 3.46875, 1.5, 3.625, 1.65625, 3.78125, 1.8125, 3.92188, 1.96875],
  "SoftwareVersions": "syngo MR E11",
  "SpacingBetweenSlices": 1.7,
  "StationName": "AWP66112",
  "TotalReadoutTime": 0.0959097,
  "TxRefAmp": 219.13,
  "WipMemBlock": "6e681f42-dd84-4936-a6c7-67d0eb2a6722||Sequence: R016 ve11e/master r/434b28f1; Aug  7 2019 19:06:17 by eja",
  "dcmmeta_affine": [
    [-1.7119903564453125, 0.018227333202958107, 0.08606481552124023, 116.50577545166016],
    [0.04650755226612091, 1.6130037307739258, 0.5738258361816406, -102.98104095458984],
    [0.07550820708274841, -0.5802261829376221, 1.5979156494140625, -23.57594871520996],
    [0.0, 0.0, 0.0, 1.0]
],
  "dcmmeta_reorient_transform": [
    [0.0, -1.0, 0.0, 139.0],
    [1.0, 0.0, 0.0, 0.0],
    [0.0, 0.0, -1.0, 80.0],
    [0.0, 0.0, 0.0, 1.0]
],
  "dcmmeta_shape": [140, 140, 81],
  "dcmmeta_slice_dim": 2,
  "dcmmeta_version": 0.6,
  "global": {
    "const": {
      "AccessionNumber": "A004774",
      "AcquisitionMatrix": [140, 0, 0, 140],
      "AcquisitionNumber": 1,
      "AngioFlag": "N",
      "BitsAllocated": 16,
      "BitsStored": 16,
      "BodyPartExamined": "BRAIN",
      "Columns": 140,
      "EchoNumbers": 1,
      "EchoTime": 88.0,
      "EchoTrainLength": 105,
      "FlipAngle": 90.0,
      "HighBit": 15,
      "ImageOrientationPatient": [0.99866105626897, -0.0271294060789, 0.04404645295075, 0.01063261067431, 0.94091881278523, 0.33846526459458],
      "ImageType": [
        "ORIGINAL",
        "PRIMARY",
        "DIFFUSION",
        "NONE",
        "MB",
        "ND"
],
      "ImagedNucleus": "1H",
      "ImagingFrequency": 123.25907,
      "InPlanePhaseEncodingDirection": "COL",
      "MRAcquisitionType": "2D",
      "MagneticFieldStrength": 3.0,
      "Manufacturer": "SIEMENS",
      "ManufacturerModelName": "Prisma",
      "Modality": "MR",
      "NumberOfAverages": 1.0,
      "NumberOfPhaseEncodingSteps": 105,
      "PercentPhaseFieldOfView": 100.0,
      "PercentSampling": 100.0,
      "PerformedProcedureStepStartTime": "190842.696000",
      "PhotometricInterpretation": "MONOCHROME2",
      "PixelBandwidth": 1700.0,
      "PixelRepresentation": 0,
      "PixelSpacing": [1.7142857313156, 1.7142857313156],
      "ProtocolName": "dwi_acq-discorr-AP",
      "RepetitionTime": 4100.0,
      "Rows": 140,
      "SAR": 0.13704550534677,
      "SamplesPerPixel": 1,
      "ScanOptions": [
        "PFP",
        "FS"
],
      "ScanningSequence": "EP",
      "SequenceName": "ep_b0",
      "SequenceVariant": [
        "SK",
        "SS"
],
      "SeriesDescription": "dwi_acq-discorr-AP",
      "SeriesNumber": 7,
      "SeriesTime": "193642.880000",
      "SliceThickness": 1.7000000476837,
      "SmallestImagePixelValue": 0,
      "SoftwareVersions": "syngo MR E11",
      "SpacingBetweenSlices": 1.7,
      "SpecificCharacterSet": "ISO_IR 100",
      "StudyID": "1",
      "StudyTime": "190842.597000",
      "TransmitCoilName": "Body",
      "VariableFlipAngleFlag": "N",
      "WindowCenterWidthExplanation": "Algo1"
    },
    "slices": {
      "AcquisitionTime": ["193637.997500", "193640.112500", "193638.147500", "193640.265000", "193638.300000", "193640.415000", "193638.450000", "193640.567500", "193638.602500", "193640.717500", "193638.752500", "193640.867500", "193638.905000", "193641.020000", "193639.055000", "193641.170000", "193639.207500", "193641.322500", "193639.357500", "193641.472500", "193639.507500", "193641.625000", "193639.660000", "193641.775000", "193639.810000", "193641.927500", "193639.962500", "193637.997500", "193640.112500", "193638.147500", "193640.265000", "193638.300000", "193640.415000", "193638.450000", "193640.567500", "193638.602500", "193640.717500", "193638.752500", "193640.867500", "193638.905000", "193641.020000", "193639.055000", "193641.170000", "193639.207500", "193641.322500", "193639.357500", "193641.472500", "193639.507500", "193641.625000", "193639.660000", "193641.775000", "193639.810000", "193641.927500", "193639.962500", "193637.997500", "193640.112500", "193638.147500", "193640.265000", "193638.300000", "193640.415000", "193638.450000", "193640.567500", "193638.602500", "193640.717500", "193638.752500", "193640.867500", "193638.905000", "193641.020000", "193639.055000", "193641.170000", "193639.207500", "193641.322500", "193639.357500", "193641.472500", "193639.507500", "193641.625000", "193639.660000", "193641.775000", "193639.810000", "193641.927500", "193639.962500"],
      "ContentTime": ["193642.882000", "193642.972000", "193642.889000", "193642.978000", "193642.895000", "193642.984000", "193642.901000", "193642.990000", "193642.907000", "193642.997000", "193642.913000", "193643.004000", "193642.919000", "193643.010000", "193642.926000", "193643.017000", "193642.932000", "193643.023000", "193642.938000", "193643.029000", "193642.944000", "193643.035000", "193642.954000", "193643.042000", "193642.960000", "193643.048000", "193642.966000", "193642.885000", "193642.973000", "193642.891000", "193642.980000", "193642.897000", "193642.986000", "193642.903000", "193642.992000", "193642.909000", "193643.000000", "193642.915000", "193643.006000", "193642.922000", "193643.012000", "193642.928000", "193643.019000", "193642.934000", "193643.025000", "193642.940000", "193643.031000", "193642.946000", "193643.037000", "193642.956000", "193643.044000", "193642.962000", "193643.051000", "193642.968000", "193642.887000", "193642.976000", "193642.893000", "193642.982000", "193642.899000", "193642.988000", "193642.905000", "193642.994000", "193642.911000", "193643.002000", "193642.917000", "193643.008000", "193642.924000", "193643.014000", "193642.930000", "193643.021000", "193642.936000", "193643.027000", "193642.942000", "193643.033000", "193642.948000", "193643.039000", "193642.958000", "193643.046000", "193642.964000", "193643.053000", "193642.970000"],
      "CsaImage.GSWDDataType": [
        "predicted",
        "predicted",
        "predicted",
        "predicted",
        "predicted",
        "predicted",
        "predicted",
        "predicted",
        "predicted",
        "predicted",
        "predicted",
        "predicted",
        "predicted",
        "predicted",
        "predicted",
        "predicted",
        "predicted",
        "predicted",
        "predicted",
        "predicted",
        "predicted",
        "predicted",
        "predicted",
        "measured",
        "predicted",
        "measured",
        "predicted",
        "predicted",
        "predicted",
        "predicted",
        "predicted",
        "predicted",
        "predicted",
        "predicted",
        "predicted",
        "predicted",
        "predicted",
        "predicted",
        "predicted",
        "predicted",
        "predicted",
        "predicted",
        "predicted",
        "predicted",
        "predicted",
        "predicted",
        "predicted",
        "predicted",
        "predicted",
        "predicted",
        "measured",
        "predicted",
        "measured",
        "predicted",
        "predicted",
        "predicted",
        "predicted",
        "predicted",
        "predicted",
        "predicted",
        "predicted",
        "predicted",
        "predicted",
        "predicted",
        "predicted",
        "predicted",
        "predicted",
        "predicted",
        "predicted",
        "predicted",
        "predicted",
        "predicted",
        "predicted",
        "predicted",
        "predicted",
        "predicted",
        "predicted",
        "measured",
        "predicted",
        "measured",
        "predicted"
],
      "CsaImage.ICE_Dims": [
        "X_1_1_1_1_1_1_1_1_1_1_1_150",
        "X_1_1_1_1_1_1_42_1_1_2_1_150",
        "X_1_1_1_1_1_1_2_1_1_3_1_150",
        "X_1_1_1_1_1_1_43_1_1_4_1_150",
        "X_1_1_1_1_1_1_3_1_1_5_1_150",
        "X_1_1_1_1_1_1_44_1_1_6_1_150",
        "X_1_1_1_1_1_1_4_1_1_7_1_150",
        "X_1_1_1_1_1_1_45_1_1_8_1_150",
        "X_1_1_1_1_1_1_5_1_1_9_1_150",
        "X_1_1_1_1_1_1_46_1_1_10_1_150",
        "X_1_1_1_1_1_1_6_1_1_11_1_150",
        "X_1_1_1_1_1_1_47_1_1_12_1_150",
        "X_1_1_1_1_1_1_7_1_1_13_1_150",
        "X_1_1_1_1_1_1_48_1_1_14_1_150",
        "X_1_1_1_1_1_1_8_1_1_15_1_150",
        "X_1_1_1_1_1_1_49_1_1_16_1_150",
        "X_1_1_1_1_1_1_9_1_1_17_1_150",
        "X_1_1_1_1_1_1_50_1_1_18_1_150",
        "X_1_1_1_1_1_1_10_1_1_19_1_150",
        "X_1_1_1_1_1_1_51_1_1_20_1_150",
        "X_1_1_1_1_1_1_11_1_1_21_1_150",
        "X_1_1_1_1_1_1_52_1_1_22_1_150",
        "X_1_1_1_1_1_1_12_1_1_23_1_150",
        "X_1_1_1_1_1_1_53_1_1_24_1_150",
        "X_1_1_1_1_1_1_13_1_1_25_1_150",
        "X_1_1_1_1_1_1_54_1_1_26_1_150",
        "X_1_1_1_1_1_1_14_1_1_27_1_150",
        "X_1_1_1_1_1_1_55_1_1_28_1_150",
        "X_1_1_1_1_1_1_15_1_1_29_1_150",
        "X_1_1_1_1_1_1_56_1_1_30_1_150",
        "X_1_1_1_1_1_1_16_1_1_31_1_150",
        "X_1_1_1_1_1_1_57_1_1_32_1_150",
        "X_1_1_1_1_1_1_17_1_1_33_1_150",
        "X_1_1_1_1_1_1_58_1_1_34_1_150",
        "X_1_1_1_1_1_1_18_1_1_35_1_150",
        "X_1_1_1_1_1_1_59_1_1_36_1_150",
        "X_1_1_1_1_1_1_19_1_1_37_1_150",
        "X_1_1_1_1_1_1_60_1_1_38_1_150",
        "X_1_1_1_1_1_1_20_1_1_39_1_150",
        "X_1_1_1_1_1_1_61_1_1_40_1_150",
        "X_1_1_1_1_1_1_21_1_1_41_1_150",
        "X_1_1_1_1_1_1_62_1_1_42_1_150",
        "X_1_1_1_1_1_1_22_1_1_43_1_150",
        "X_1_1_1_1_1_1_63_1_1_44_1_150",
        "X_1_1_1_1_1_1_23_1_1_45_1_150",
        "X_1_1_1_1_1_1_64_1_1_46_1_150",
        "X_1_1_1_1_1_1_24_1_1_47_1_150",
        "X_1_1_1_1_1_1_65_1_1_48_1_150",
        "X_1_1_1_1_1_1_25_1_1_49_1_150",
        "X_1_1_1_1_1_1_66_1_1_50_1_150",
        "X_1_1_1_1_1_1_26_1_1_51_1_150",
        "X_1_1_1_1_1_1_67_1_1_52_1_150",
        "X_1_1_1_1_1_1_27_1_1_53_1_150",
        "X_1_1_1_1_1_1_68_1_1_54_1_150",
        "X_1_1_1_1_1_1_28_1_1_55_1_150",
        "X_1_1_1_1_1_1_69_1_1_56_1_150",
        "X_1_1_1_1_1_1_29_1_1_57_1_150",
        "X_1_1_1_1_1_1_70_1_1_58_1_150",
        "X_1_1_1_1_1_1_30_1_1_59_1_150",
        "X_1_1_1_1_1_1_71_1_1_60_1_150",
        "X_1_1_1_1_1_1_31_1_1_61_1_150",
        "X_1_1_1_1_1_1_72_1_1_62_1_150",
        "X_1_1_1_1_1_1_32_1_1_63_1_150",
        "X_1_1_1_1_1_1_73_1_1_64_1_150",
        "X_1_1_1_1_1_1_33_1_1_65_1_150",
        "X_1_1_1_1_1_1_74_1_1_66_1_150",
        "X_1_1_1_1_1_1_34_1_1_67_1_150",
        "X_1_1_1_1_1_1_75_1_1_68_1_150",
        "X_1_1_1_1_1_1_35_1_1_69_1_150",
        "X_1_1_1_1_1_1_76_1_1_70_1_150",
        "X_1_1_1_1_1_1_36_1_1_71_1_150",
        "X_1_1_1_1_1_1_77_1_1_72_1_150",
        "X_1_1_1_1_1_1_37_1_1_73_1_150",
        "X_1_1_1_1_1_1_78_1_1_74_1_150",
        "X_1_1_1_1_1_1_38_1_1_75_1_150",
        "X_1_1_1_1_1_1_79_1_1_76_1_150",
        "X_1_1_1_1_1_1_39_1_1_77_1_150",
        "X_1_1_1_1_1_1_80_1_1_78_1_150",
        "X_1_1_1_1_1_1_40_1_1_79_1_150",
        "X_1_1_1_1_1_1_81_1_1_80_1_150",
        "X_1_1_1_1_1_1_41_1_1_81_1_150"
],
      "CsaImage.ProtocolSliceNumber": [0, 1, 2, 3, 4, 5, 6, 7, 8, 9, 10, 11, 12, 13, 14, 15, 16, 17, 18, 19, 20, 21, 22, 23, 24, 25, 26, 27, 28, 29, 30, 31, 32, 33, 34, 35, 36, 37, 38, 39, 40, 41, 42, 43, 44, 45, 46, 47, 48, 49, 50, 51, 52, 53, 54, 55, 56, 57, 58, 59, 60, 61, 62, 63, 64, 65, 66, 67, 68, 69, 70, 71, 72, 73, 74, 75, 76, 77, 78, 79, 80],
      "CsaImage.RFSWDDataType": [
        "predicted",
        "predicted",
        "predicted",
        "predicted",
        "predicted",
        "predicted",
        "predicted",
        "predicted",
        "predicted",
        "predicted",
        "predicted",
        "predicted",
        "predicted",
        "predicted",
        "predicted",
        "predicted",
        "predicted",
        "predicted",
        "predicted",
        "predicted",
        "predicted",
        "predicted",
        "predicted",
        "measured",
        "predicted",
        "measured",
        "predicted",
        "predicted",
        "predicted",
        "predicted",
        "predicted",
        "predicted",
        "predicted",
        "predicted",
        "predicted",
        "predicted",
        "predicted",
        "predicted",
        "predicted",
        "predicted",
        "predicted",
        "predicted",
        "predicted",
        "predicted",
        "predicted",
        "predicted",
        "predicted",
        "predicted",
        "predicted",
        "predicted",
        "measured",
        "predicted",
        "measured",
        "predicted",
        "predicted",
        "predicted",
        "predicted",
        "predicted",
        "predicted",
        "predicted",
        "predicted",
        "predicted",
        "predicted",
        "predicted",
        "predicted",
        "predicted",
        "predicted",
        "predicted",
        "predicted",
        "predicted",
        "predicted",
        "predicted",
        "predicted",
        "predicted",
        "predicted",
        "predicted",
        "predicted",
        "measured",
        "predicted",
        "measured",
        "predicted"
],
      "CsaImage.SlicePosition_PCS": [
        [-119.03935356, -121.22659021, -104.22698716],
        [-119.12541861, -121.80041414, -102.62907914],
        [-119.21148366, -122.37423902, -101.0311673],
        [-119.29754872, -122.94806295, -99.43325547],
        [-119.38361377, -123.52188783, -97.83534745],
        [-119.46967883, -124.09571176, -96.23743561],
        [-119.55574388, -124.66953664, -94.63952378],
        [-119.64180893, -125.24336057, -93.04161576],
        [-119.72787399, -125.8171845, -91.44370392],
        [-119.81393904, -126.39100843, -89.84579209],
        [-119.9000041, -126.96483426, -88.24788407],
        [-119.98606915, -127.53865819, -86.64997224],
        [-120.0721342, -128.11248212, -85.0520604],
        [-120.1581992, -128.68630605, -83.45415238],
        [-120.24426425, -129.26013189, -81.85624055],
        [-120.33032931, -129.83395582, -80.25832871],
        [-120.41639436, -130.40777974, -78.66041688],
        [-120.50245941, -130.98160367, -77.06250886],
        [-120.58852447, -131.5554276, -75.46459702],
        [-120.67458949, -132.12925344, -73.86668709],
        [-120.76065455, -132.70307737, -72.26877526],
        [-120.8467196, -133.2769013, -70.67086533],
        [-120.93278465, -133.85072522, -69.0729554],
        [-121.0188497, -134.42455106, -67.47504357],
        [-121.10491475, -134.99837499, -65.87713364],
        [-121.1909798, -135.57219892, -64.27922372],
        [-121.27704485, -136.14602285, -62.68131188],
        [-121.36310989, -136.71984678, -61.08340195],
        [-121.44917495, -137.29367261, -59.48549107],
        [-121.53524, -137.86749654, -57.88758019],
        [-121.62130506, -138.44132047, -56.28966931],
        [-121.70737011, -139.0151444, -54.69175938],
        [-121.79343516, -139.58897024, -53.0938485],
        [-121.87950022, -140.16279416, -51.49593762],
        [-121.96556527, -140.73661809, -49.89802698],
        [-122.05163032, -141.31044202, -48.30011634],
        [-122.13769538, -141.88426786, -46.70220569],
        [-122.22376043, -142.45808988, -45.10429505],
        [-122.30982549, -143.03191572, -43.50638441],
        [-122.39589054, -143.60574155, -41.90847376],
        [-122.48195559, -144.17956357, -40.31056336],
        [-122.56802065, -144.75338941, -38.71265248],
        [-122.6540857, -145.32721143, -37.1147416],
        [-122.74015076, -145.90103727, -35.51683072],
        [-122.82621581, -146.4748631, -33.91892079],
        [-122.91228075, -147.04868512, -32.32100991],
        [-122.9983458, -147.62251096, -30.72309903],
        [-123.08441085, -148.19633298, -29.12518815],
        [-123.17047591, -148.77015882, -27.52727822],
        [-123.25654096, -149.34398465, -25.92936639],
        [-123.34260601, -149.91780668, -24.33145646],
        [-123.42867107, -150.49163251, -22.73354653],
        [-123.51473612, -151.06545453, -21.1356347],
        [-123.60080118, -151.63928037, -19.53772477],
        [-123.68686623, -152.21310621, -17.93981484],
        [-123.77293128, -152.78692823, -16.34190301],
        [-123.85899634, -153.36075406, -14.74399308],
        [-123.94506139, -153.9345799, -13.14608124],
        [-124.03112645, -154.50840192, -11.54817322],
        [-124.1171915, -155.08222776, -9.95026139],
        [-124.20325655, -155.65604978, -8.35234955],
        [-124.28932161, -156.22987562, -6.75443772],
        [-124.37538666, -156.80370145, -5.1565297],
        [-124.46145172, -157.37752347, -3.55861787],
        [-124.54751677, -157.95134931, -1.96070603],
        [-124.63358182, -158.52517133, -0.36279801],
        [-124.71964688, -159.09899717, 1.23511382],
        [-124.80571193, -159.672823, 2.83302566],
        [-124.89177699, -160.24664502, 4.43093368],
        [-124.97784204, -160.82047086, 6.02884551],
        [-125.06390709, -161.39429288, 7.62675735],
        [-125.14997215, -161.96811872, 9.22466537],
        [-125.23603696, -162.54194455, 10.8225772],
        [-125.32210226, -163.11576658, 12.42048904],
        [-125.40816707, -163.68959241, 14.01839706],
        [-125.49423236, -164.26341443, 15.61630889],
        [-125.58029718, -164.83724027, 17.21422073],
        [-125.66636247, -165.41106611, 18.81213256],
        [-125.75242729, -165.98488813, 20.41004058],
        [-125.83849258, -166.55871396, 22.0079486],
        [-125.92455739, -167.1325398, 23.60586425]
],
      "CsaImage.TimeAfterStart": [16.4, 18.515, 16.55, 18.665, 16.7025, 18.8175, 16.8525, 18.9675, 17.005, 19.12, 17.155, 19.27, 17.305, 19.4225, 17.4575, 19.5725, 17.6075, 19.725, 17.76, 19.875, 17.91, 20.025, 18.0625, 20.1775, 18.2125, 20.3275, 18.365, 16.4, 18.515, 16.55, 18.665, 16.7025, 18.8175, 16.8525, 18.9675, 17.005, 19.12, 17.155, 19.27, 17.305, 19.4225, 17.4575, 19.5725, 17.6075, 19.725, 17.76, 19.875, 17.91, 20.025, 18.0625, 20.1775, 18.2125, 20.3275, 18.365, 16.4, 18.515, 16.55, 18.665, 16.7025, 18.8175, 16.8525, 18.9675, 17.005, 19.12, 17.155, 19.27, 17.305, 19.4225, 17.4575, 19.5725, 17.6075, 19.725, 17.76, 19.875, 17.91, 20.025, 18.0625, 20.1775, 18.2125, 20.3275, 18.365],
      "ImagePositionPatient": [
        [-119.03935355631, -121.2265902075, -104.22698715835],
        [-119.12541861025, -121.80041413633, -102.62907913833],
        [-119.21148366419, -122.37423901884, -101.03116730362],
        [-119.29754871813, -122.94806294767, -99.4332554689],
        [-119.38361377207, -123.52188783018, -97.83534744888],
        [-119.46967882601, -124.09571175901, -96.237435614163],
        [-119.55574387995, -124.66953664152, -94.639523779447],
        [-119.64180893389, -125.24336057035, -93.041615759427],
        [-119.72787398783, -125.81718449918, -91.44370392471],
        [-119.81393904177, -126.39100842802, -89.845792089993],
        [-119.90000409571, -126.9648342642, -88.247884069974],
        [-119.98606914965, -127.53865819303, -86.649972235257],
        [-120.07213420359, -128.11248212186, -85.05206040054],
        [-120.15819919793, -128.6863060507, -83.454152380521],
        [-120.24426425186, -129.26013188688, -81.856240545804],
        [-120.3303293058, -129.83395581571, -80.258328711087],
        [-120.41639435974, -130.40777974454, -78.66041687637],
        [-120.50245941368, -130.98160367338, -77.062508856351],
        [-120.58852446762, -131.55542760221, -75.464597021634],
        [-120.67458949176, -132.12925343839, -73.866687094266],
        [-120.7606545457, -132.70307736722, -72.268775259549],
        [-120.84671959964, -133.27690129606, -70.670865332181],
        [-120.93278465358, -133.85072522489, -69.072955404813],
        [-121.01884970007, -134.42455106107, -67.475043570096],
        [-121.10491475028, -134.99837498991, -65.877133642728],
        [-121.1909798005, -135.57219891874, -64.27922371536],
        [-121.27704485444, -136.14602284757, -62.681311880643],
        [-121.36310989348, -136.7198467764, -61.083401953275],
        [-121.44917494742, -137.29367261259, -59.485491072232],
        [-121.53524000136, -137.86749654142, -57.88758019119],
        [-121.6213050553, -138.44132047025, -56.289669310147],
        [-121.70737010924, -139.01514439909, -54.691759382779],
        [-121.79343516318, -139.58897023527, -53.093848501737],
        [-121.87950021712, -140.1627941641, -51.495937620694],
        [-121.96556527106, -140.73661809293, -49.89802697807],
        [-122.051630325, -141.31044202177, -48.300116335446],
        [-122.13769537894, -141.88426785795, -46.702205692822],
        [-122.22376043288, -142.45808987943, -45.104295050199],
        [-122.30982548682, -143.03191571561, -43.506384407575],
        [-122.39589054076, -143.6057415518, -41.908473764951],
        [-122.4819555947, -144.17956357328, -40.310563360745],
        [-122.56802064864, -144.75338940946, -38.712652479703],
        [-122.65408570258, -145.32721143095, -37.11474159866],
        [-122.74015075652, -145.90103726713, -35.516830717618],
        [-122.82621581045, -146.47486310331, -33.91892079025],
        [-122.91228074519, -147.04868512479, -32.321009909207],
        [-122.99834579913, -147.62251096097, -30.723099028165],
        [-123.08441085307, -148.19633298246, -29.125188147122],
        [-123.170475907, -148.77015881864, -27.527278219754],
        [-123.25654096094, -149.34398465482, -25.929366385037],
        [-123.34260601488, -149.91780667631, -24.331456457669],
        [-123.42867106882, -150.49163251249, -22.733546530301],
        [-123.51473612276, -151.06545453397, -21.135634695584],
        [-123.6008011767, -151.63928037015, -19.537724768216],
        [-123.68686623064, -152.21310620634, -17.939814840848],
        [-123.77293128458, -152.78692822782, -16.341903006131],
        [-123.85899633852, -153.360754064, -14.743993078763],
        [-123.94506139246, -153.93457990018, -13.146081244046],
        [-124.0311264464, -154.50840192167, -11.548173224027],
        [-124.11719150034, -155.08222775785, -9.9502613893098],
        [-124.20325655428, -155.65604977933, -8.352349554593],
        [-124.28932160822, -156.22987561552, -6.7544377198762],
        [-124.37538666216, -156.8037014517, -5.1565296998567],
        [-124.4614517161, -157.37752347318, -3.5586178651399],
        [-124.54751677004, -157.95134930936, -1.9607060304231],
        [-124.63358182398, -158.52517133085, -0.3627980104036],
        [-124.71964687792, -159.09899716703, 1.2351138243132],
        [-124.80571193186, -159.67282300321, 2.83302565903],
        [-124.8917769858, -160.2466450247, 4.4309336790495],
        [-124.97784203974, -160.82047086088, 6.0288455137663],
        [-125.06390709368, -161.39429288236, 7.6267573484831],
        [-125.14997214762, -161.96811871854, 9.2246653685027],
        [-125.23603696314, -162.54194455472, 10.822577203219],
        [-125.3221022555, -163.11576657621, 12.420489037936],
        [-125.40816707102, -163.68959241239, 14.018397057956],
        [-125.49423236338, -164.26341443388, 15.616308892673],
        [-125.5802971789, -164.83724027006, 17.214220727389],
        [-125.66636247126, -165.41106610624, 18.812132562106],
        [-125.75242728678, -165.98488812772, 20.410040582126],
        [-125.83849257914, -166.5587139639, 22.007948602145],
        [-125.92455739466, -167.13253980009, 23.605864251559]
],
      "InstanceCreationTime": ["193642.882000", "193642.972000", "193642.889000", "193642.978000", "193642.895000", "193642.984000", "193642.901000", "193642.990000", "193642.907000", "193642.997000", "193642.913000", "193643.004000", "193642.919000", "193643.010000", "193642.926000", "193643.017000", "193642.932000", "193643.023000", "193642.938000", "193643.029000", "193642.944000", "193643.035000", "193642.954000", "193643.042000", "193642.960000", "193643.048000", "193642.966000", "193642.885000", "193642.973000", "193642.891000", "193642.980000", "193642.897000", "193642.986000", "193642.903000", "193642.992000", "193642.909000", "193643.000000", "193642.915000", "193643.006000", "193642.922000", "193643.012000", "193642.928000", "193643.019000", "193642.934000", "193643.025000", "193642.940000", "193643.031000", "193642.946000", "193643.037000", "193642.956000", "193643.044000", "193642.962000", "193643.051000", "193642.968000", "193642.887000", "193642.976000", "193642.893000", "193642.982000", "193642.899000", "193642.988000", "193642.905000", "193642.994000", "193642.911000", "193643.002000", "193642.917000", "193643.008000", "193642.924000", "193643.014000", "193642.930000", "193643.021000", "193642.936000", "193643.027000", "193642.942000", "193643.033000", "193642.948000", "193643.039000", "193642.958000", "193643.046000", "193642.964000", "193643.053000", "193642.970000"],
      "InstanceNumber": [1, 2, 3, 4, 5, 6, 7, 8, 9, 10, 11, 12, 13, 14, 15, 16, 17, 18, 19, 20, 21, 22, 23, 24, 25, 26, 27, 28, 29, 30, 31, 32, 33, 34, 35, 36, 37, 38, 39, 40, 41, 42, 43, 44, 45, 46, 47, 48, 49, 50, 51, 52, 53, 54, 55, 56, 57, 58, 59, 60, 61, 62, 63, 64, 65, 66, 67, 68, 69, 70, 71, 72, 73, 74, 75, 76, 77, 78, 79, 80, 81],
      "LargestImagePixelValue": [25057, 17925, 16325, 21488, 32703, 24705, 18926, 22547, 26672, 28451, 28723, 23307, 28562, 21682, 20152, 22383, 31806, 31746, 30099, 28236, 31367, 50319, 42945, 45255, 52177, 43066, 32536, 27047, 42256, 48906, 37502, 39989, 41714, 45500, 43128, 47692, 38530, 34962, 33314, 51304, 49352, 38586, 46448, 48842, 54893, 50681, 54405, 54285, 58757, 49692, 45038, 42632, 46520, 50991, 56277, 47687, 53003, 46883, 59626, 49264, 61266, 51501, 58789, 54989, 49882, 42148, 49326, 43518, 49084, 52699, 56754, 57390, 64470, 65535, 65535, 53308, 14974, 16730, 12479, 12721, 12571],
      "SliceLocation": [-51.022065493381, -49.322068100661, -47.62206680042, -45.922065822085, -44.222068107459, -42.522067129124, -40.822065828883, -39.122068436163, -37.422067457829, -35.722066479494, -34.022068442961, -32.322067464627, -30.622066486292, -28.92206909659, -27.222067474442, -25.522066496107, -23.822065517773, -22.122068125053, -20.422067146719, -18.722067318887, -17.022066340552, -15.322067155025, -13.622067969498, -11.922066347727, -10.222067162389, -8.5220679770504, -6.8220669987158, -5.1220678139432, -3.4220670881988, -1.722067006268, -0.0220669243372, 1.6779322611899, 3.3779329869343, 5.0779330688651, 6.777932926695, 8.4779327845248, 10.177933286168, 11.877932500185, 13.577933001828, 15.277933503472, 16.977932493387, 18.677933219131, 20.377932657248, 22.077933382993, 23.777933212334, 25.477932644416, 27.17793337016, 28.877932808277, 30.577932637618, 32.277934259766, 33.977932801479, 35.67793263082, 37.377932965341, 39.077932794682, 40.777932624022, 42.477932958543, 44.177932787884, 45.877934410032, 47.577931158938, 49.277932781086, 50.977933115607, 52.677934737755, 54.377932774289, 56.077933108809, 57.777934730958, 59.477931479864, 61.177933102012, 62.87793472416, 64.577931473066, 66.277933095214, 67.977933429735, 69.677931466268, 71.377933076346, 73.077933422937, 74.7779314474, 76.477931793991, 78.177933404069, 79.877935038288, 81.577931775123, 83.277929823727, 84.97793501942],
