{
  "AcquisitionMatrixPE": 140,
  "AcquisitionNumber": 1,
  "AcquisitionTime": "14:51:56.095000",
  "BandwidthPerPixelPhaseEncode": 10.352,
  "BaseResolution": 140,
  "BodyPartExamined": "BRAIN",
  "ConsistencyInfo": "N4_VE11C_LATEST_20160120",
  "ConversionSoftware": "dcm2niix",
  "ConversionSoftwareVersion": "v1.0.20201102",
  "DerivedVendorReportedEchoSpacing": 0.000689998,
  "DeviceSerialNumber": "66112",
  "DiffusionScheme": "Monopolar",
  "DwellTime": 2.1e-06,
  "EchoTime": 0.0884,
  "EchoTrainLength": 105,
  "EffectiveEchoSpacing": 0.000689998,
  "FlipAngle": 90,
  "ImageComments": "Unaliased MB3/PE3 SENSE1",
  "ImageOrientationPatientDICOM": [0.999592, 0.0104083, -0.0265933, -0.0123875, 0.997078, -0.0753753],
  "ImageType": [
    "ORIGINAL",
    "PRIMARY",
    "DIFFUSION",
    "NONE",
    "MB",
    "ND",
    "MOSAIC"
],
  "ImagingFrequency": 123.252,
  "InPlanePhaseEncodingDirectionDICOM": "COL",
  "InstitutionAddress": "Maynard 3,Hanover,NH,US,03755",
  "InstitutionName": "Dartmouth College - PBS",
  "InstitutionalDepartmentName": "Department",
  "MRAcquisitionType": "2D",
  "MagneticFieldStrength": 3,
  "Manufacturer": "Siemens",
  "ManufacturersModelName": "Prisma",
  "Modality": "MR",
  "MultibandAccelerationFactor": 3,
  "PartialFourier": 0.75,
  "PatientPosition": "HFS",
  "PercentPhaseFOV": 100,
  "PercentSampling": 100,
  "PhaseEncodingDirection": "j-",
  "PhaseEncodingSteps": 105,
  "PhaseResolution": 1,
  "PixelBandwidth": 1700,
  "ProcedureStepDescription": "Wager_Wager^1076_spacetop",
  "ProtocolName": "dwi_acq-96dir-6b0-mb",
  "PulseSequenceDetails": "%CustomerSeq%\\cmrr_mbep2d_diff",
  "ReceiveCoilActiveElements": "HEA;HEP",
  "ReceiveCoilName": "Head_32",
  "ReconMatrixPE": 140,
  "RepetitionTime": 4.11,
  "SAR": 0.206725,
  "ScanOptions": "PFP\\FS",
  "ScanningSequence": "EP",
  "SequenceName": "ep_b5#1",
  "SequenceVariant": "SK\\SS",
  "SeriesDescription": "dwi_acq-96dir-6b0-mb",
  "SeriesNumber": 8,
  "ShimSetting": [4129, -7744, -7234, 537, -87, 45, -69, 59],
  "SliceThickness": 1.7,
  "SliceTiming": [0, 2.1225, 0.1525, 2.2725, 0.3025, 2.425, 0.455, 2.575, 0.6075, 2.7275, 0.7575, 2.88, 0.91, 3.03, 1.06, 3.1825, 1.2125, 3.3325, 1.365, 3.485, 1.515, 3.635, 1.6675, 3.7875, 1.8175, 3.94, 1.97, 0, 2.1225, 0.1525, 2.2725, 0.3025, 2.425, 0.455, 2.575, 0.6075, 2.7275, 0.7575, 2.88, 0.91, 3.03, 1.06, 3.1825, 1.2125, 3.3325, 1.365, 3.485, 1.515, 3.635, 1.6675, 3.7875, 1.8175, 3.94, 1.97, 0, 2.1225, 0.1525, 2.2725, 0.3025, 2.425, 0.455, 2.575, 0.6075, 2.7275, 0.7575, 2.88, 0.91, 3.03, 1.06, 3.1825, 1.2125, 3.3325, 1.365, 3.485, 1.515, 3.635, 1.6675, 3.7875, 1.8175, 3.94, 1.97],
  "SoftwareVersions": "syngo MR E11",
  "SpacingBetweenSlices": 1.7,
  "StationName": "AWP66112",
  "TotalReadoutTime": 0.0959097,
  "TxRefAmp": 257.728,
  "WipMemBlock": "96112c44-cc03-4e8d-b027-eda2ac1d23dc||Sequence: R016 ve11c/master r/e634e98; Dec 19 2017 11:11:25 by eja",
  "dcmmeta_affine": [
    [-1.7135865688323975, -0.021235642954707146, -0.04374276474118233, 127.71148681640625],
    [-0.017842870205640793, 1.7092770338058472, -0.12864579260349274, -85.37362670898438],
    [-0.04558845981955528, 0.1292148232460022, 1.6945610046386719, -43.83799743652344],
    [0.0, 0.0, 0.0, 1.0]
],
  "dcmmeta_reorient_transform": [
    [0.0, -1.0, 0.0, 139.0],
    [1.0, 0.0, 0.0, 0.0],
    [0.0, 0.0, 1.0, 0.0],
    [0.0, 0.0, 0.0, 1.0]
],
  "dcmmeta_shape": [140, 140, 81, 103],
  "dcmmeta_slice_dim": 2,
  "dcmmeta_version": 0.6,
  "global": {
    "const": {
      "AccessionNumber": "A003446",
      "AcquisitionMatrix": [140, 0, 0, 140],
      "AngioFlag": "N",
      "BitsAllocated": 16,
      "BitsStored": 16,
      "BodyPartExamined": "BRAIN",
      "Columns": 1260,
      "EchoNumbers": 1,
      "EchoTime": 88.4,
      "EchoTrainLength": 105,
      "FlipAngle": 90.0,
      "HighBit": 15,
      "ImageOrientationPatient": [0.99959214908024, 0.01040834046225, -0.0265932688094, -0.0123874584485, 0.9970782884507, -0.0753753114315],
      "ImagePositionPatient": [-1072.4762429663, -1119.4030577518, 72.012698766193],
      "ImageType": [
        "ORIGINAL",
        "PRIMARY",
        "DIFFUSION",
        "NONE",
        "MB",
        "ND",
        "MOSAIC"
],
      "ImagedNucleus": "1H",
      "ImagingFrequency": 123.252104,
      "InPlanePhaseEncodingDirection": "COL",
      "MRAcquisitionType": "2D",
      "MagneticFieldStrength": 3.0,
      "Manufacturer": "SIEMENS",
      "ManufacturerModelName": "Prisma",
      "Modality": "MR",
      "NumberOfAverages": 1.0,
      "NumberOfPhaseEncodingSteps": 105,
      "PercentPhaseFieldOfView": 100.0,
      "PercentSampling": 100.0,
      "PerformedProcedureStepStartTime": "135910.764000",
      "PhotometricInterpretation": "MONOCHROME2",
      "PixelBandwidth": 1700.0,
      "PixelRepresentation": 0,
      "PixelSpacing": [1.7142857313156, 1.7142857313156],
      "ProtocolName": "dwi_acq-96dir-6b0-mb",
      "RepetitionTime": 4110.0,
      "Rows": 1260,
      "SAR": 0.20672488624698,
      "SamplesPerPixel": 1,
      "ScanOptions": [
        "PFP",
        "FS"
],
      "ScanningSequence": "EP",
      "SequenceVariant": [
        "SK",
        "SS"
],
      "SeriesDescription": "dwi_acq-96dir-6b0-mb",
      "SeriesNumber": 8,
      "SeriesTime": "145329.078000",
      "SliceLocation": -40.523328135552,
      "SliceThickness": 1.7000000476837,
      "SmallestImagePixelValue": 0,
      "SoftwareVersions": "syngo MR E11",
      "SpacingBetweenSlices": 1.7000000008471,
      "SpecificCharacterSet": "ISO_IR 100",
      "StudyID": "1",
      "StudyTime": "135910.610000",
      "TransmitCoilName": "Body",
      "VariableFlipAngleFlag": "N",
      "WindowCenterWidthExplanation": "Algo1",
      "dBdt": 0.0},
    "slices": {}
  },
  "time": {
    "samples": {
      "AcquisitionNumber": [1, 2, 3, 4, 5, 6, 7, 8, 9, 10, 11, 12, 13, 14, 15, 16, 17, 18, 19, 20, 21, 22, 23, 24, 25, 26, 27, 28, 29, 30, 31, 32, 33, 34, 35, 36, 37, 38, 39, 40, 41, 42, 43, 44, 45, 46, 47, 48, 49, 50, 51, 52, 53, 54, 55, 56, 57, 58, 59, 60, 61, 62, 63, 64, 65, 66, 67, 68, 69, 70, 71, 72, 73, 74, 75, 76, 77, 78, 79, 80, 81, 82, 83, 84, 85, 86, 87, 88, 89, 90, 91, 92, 93, 94, 95, 96, 97, 98, 99, 100, 101, 102, 103],
      "AcquisitionTime": ["145156.095000", "145200.205000", "145204.315000", "145208.425000", "145212.535000", "145216.645000", "145220.755000", "145224.865000", "145228.975000", "145233.085000", "145237.195000", "145241.305000", "145245.415000", "145249.525000", "145253.635000", "145257.745000", "145301.855000", "145305.965000", "145310.075000", "145314.185000", "145318.295000", "145322.405000", "145326.515000", "145330.625000", "145334.735000", "145338.845000", "145342.955000", "145347.065000", "145351.175000", "145355.285000", "145359.395000", "145403.505000", "145407.615000", "145411.725000", "145415.835000", "145419.945000", "145424.055000", "145428.165000", "145432.275000", "145436.385000", "145440.495000", "145444.605000", "145448.715000", "145452.825000", "145456.935000", "145501.045000", "145505.155000", "145509.265000", "145513.375000", "145517.485000", "145521.595000", "145525.705000", "145529.815000", "145533.925000", "145538.035000", "145542.145000", "145546.255000", "145550.365000", "145554.475000", "145558.585000", "145602.695000", "145606.805000", "145610.915000", "145615.025000", "145619.135000", "145623.245000", "145627.355000", "145631.465000", "145635.575000", "145639.685000", "145643.795000", "145647.905000", "145652.015000", "145656.125000", "145700.235000", "145704.345000", "145708.455000", "145712.565000", "145716.675000", "145720.785000", "145724.895000", "145729.005000", "145733.115000", "145737.225000", "145741.335000", "145745.445000", "145749.555000", "145753.665000", "145757.775000", "145801.885000", "145805.995000", "145810.105000", "145814.215000", "145818.325000", "145822.435000", "145826.545000", "145830.655000", "145834.765000", "145838.875000", "145842.985000", "145847.095000", "145851.205000", "145855.315000"],
      "ContentTime": ["145329.082000", "145329.087000", "145329.102000", "145329.106000", "145329.114000", "145329.117000", "145329.126000", "145329.129000", "145329.133000", "145329.136000", "145329.156000", "145329.159000", "145329.163000", "145329.166000", "145329.169000", "145329.173000", "145329.176000", "145329.179000", "145329.182000", "145329.188000", "145329.191000", "145329.195000", "145509.077000", "145509.081000", "145509.084000", "145509.087000", "145509.091000", "145509.094000", "145509.098000", "145509.101000", "145509.104000", "145509.115000", "145509.119000", "145509.122000", "145509.125000", "145509.129000", "145509.132000", "145509.135000", "145509.139000", "145509.142000", "145509.145000", "145509.149000", "145509.152000", "145509.155000", "145509.159000", "145509.162000", "145629.076000", "145629.080000", "145629.084000", "145629.087000", "145629.090000", "145629.094000", "145629.097000", "145629.100000", "145629.103000", "145629.107000", "145629.110000", "145629.113000", "145629.117000", "145629.120000", "145629.123000", "145629.137000", "145629.140000", "145629.144000", "145629.147000", "145629.150000", "145809.077000", "145809.081000", "145809.084000", "145809.088000", "145809.091000", "145809.094000", "145809.098000", "145809.101000", "145809.104000", "145809.108000", "145809.111000", "145809.114000", "145809.118000", "145809.121000", "145809.124000", "145809.128000", "145809.131000", "145809.134000", "145809.138000", "145809.141000", "145809.144000", "145809.148000", "145809.151000", "145809.154000", "145900.227000", "145900.231000", "145900.234000", "145900.238000", "145900.242000", "145900.245000", "145900.249000", "145900.252000", "145900.256000", "145900.259000", "145900.263000", "145900.266000", "145900.270000"],
      "InstanceCreationTime": ["145329.082000", "145329.087000", "145329.102000", "145329.106000", "145329.114000", "145329.117000", "145329.126000", "145329.129000", "145329.133000", "145329.136000", "145329.156000", "145329.159000", "145329.163000", "145329.166000", "145329.169000", "145329.173000", "145329.176000", "145329.179000", "145329.182000", "145329.188000", "145329.191000", "145329.195000", "145509.077000", "145509.081000", "145509.084000", "145509.087000", "145509.091000", "145509.094000", "145509.098000", "145509.101000", "145509.104000", "145509.115000", "145509.119000", "145509.122000", "145509.125000", "145509.129000", "145509.132000", "145509.135000", "145509.139000", "145509.142000", "145509.145000", "145509.149000", "145509.152000", "145509.155000", "145509.159000", "145509.162000", "145629.076000", "145629.080000", "145629.084000", "145629.087000", "145629.090000", "145629.094000", "145629.097000", "145629.100000", "145629.103000", "145629.107000", "145629.110000", "145629.113000", "145629.117000", "145629.120000", "145629.123000", "145629.137000", "145629.140000", "145629.144000", "145629.147000", "145629.150000", "145809.077000", "145809.081000", "145809.084000", "145809.088000", "145809.091000", "145809.094000", "145809.098000", "145809.101000", "145809.104000", "145809.108000", "145809.111000", "145809.114000", "145809.118000", "145809.121000", "145809.124000", "145809.128000", "145809.131000", "145809.134000", "145809.138000", "145809.141000", "145809.144000", "145809.148000", "145809.151000", "145809.154000", "145900.227000", "145900.231000", "145900.234000", "145900.238000", "145900.242000", "145900.245000", "145900.249000", "145900.252000", "145900.256000", "145900.259000", "145900.263000", "145900.266000", "145900.270000"],
      "InstanceNumber": [1, 2, 3, 4, 5, 6, 7, 8, 9, 10, 11, 12, 13, 14, 15, 16, 17, 18, 19, 20, 21, 22, 23, 24, 25, 26, 27, 28, 29, 30, 31, 32, 33, 34, 35, 36, 37, 38, 39, 40, 41, 42, 43, 44, 45, 46, 47, 48, 49, 50, 51, 52, 53, 54, 55, 56, 57, 58, 59, 60, 61, 62, 63, 64, 65, 66, 67, 68, 69, 70, 71, 72, 73, 74, 75, 76, 77, 78, 79, 80, 81, 82, 83, 84, 85, 86, 87, 88, 89, 90, 91, 92, 93, 94, 95, 96, 97, 98, 99, 100, 101, 102, 103],
      "LargestImagePixelValue": [65535, 65535, 57465, 57018, 54066, 58100, 57868, 58669, 65535, 38959, 34377, 37073, 39058, 37667, 38918, 33876, 38535, 40023, 37245, 36350, 35560, 38410, 36509, 34969, 65535, 22330, 21812, 20847, 18544, 19990, 18611, 18827, 21153, 19488, 18215, 20142, 21767, 20948, 17855, 21160, 65535, 15312, 13947, 11827, 11747, 13088, 10090, 11119, 14302, 14161, 12779, 11910, 10799, 11500, 10527, 11644, 12786, 12650, 11520, 12286, 11202, 12465, 10586, 10141, 10609, 10935, 15217, 9928, 11889, 14825, 15927, 10855, 11474, 65535, 11823, 11287, 14471, 10686, 15350, 13601, 12806, 13464, 10405, 15398, 15485, 12691, 13927, 15815, 15038, 13523, 15012, 14723, 14044, 12072, 13194, 13783, 10312, 12775, 13706, 12071, 14719, 10659, 65535],
      "SequenceName": [
 "ep_b5#1",
 "ep_b5#1",
 "ep_b500#2",
 "ep_b495#3",
 "ep_b500#4",
 "ep_b505#5",
 "ep_b495#6",
 "ep_b500#7",
 "ep_b5#8",
 "ep_b1000#9",
 "ep_b1005#10",
 "ep_b995#11",
 "ep_b1005#12",
 "ep_b995#13",
 "ep_b995#14",
 "ep_b1005#15",
 "ep_b1000#16",
 "ep_b1005#17",
 "ep_b1000#18",
 "ep_b1000#19",
 "ep_b995#20",
 "ep_b1000#21",
 "ep_b1005#22",
 "ep_b1000#23",
 "ep_b5#24",
 "ep_b2000#25",
 "ep_b1995#26",
 "ep_b1990#27",
 "ep_b2000#28",
 "ep_b2005#29",
 "ep_b2010#30",
 "ep_b2000#31",
 "ep_b2010#32",
 "ep_b2000#33",
 "ep_b1995#34",
 "ep_b1995#35",
 "ep_b2005#36",
 "ep_b1995#37",
 "ep_b2005#38",
 "ep_b1995#39",
 "ep_b5#40",
 "ep_b3000#41",
 "ep_b3010#42",
 "ep_b3010#43",
 "ep_b3010#44",
 "ep_b3000#45",
 "ep_b3000#46",
 "ep_b2990#47",
 "ep_b3005#48",
 "ep_b3000#49",
 "ep_b2990#50",
 "ep_b2990#51",
 "ep_b2995#52",
 "ep_b2995#53",
 "ep_b3005#54",
 "ep_b3000#55",
 "ep_b2995#56",
 "ep_b2995#57",
 "ep_b2990#58",
 "ep_b2990#59",
 "ep_b3000#60",
 "ep_b2990#61",
 "ep_b2995#62",
 "ep_b3000#63",
 "ep_b3000#64",
 "ep_b3010#65",
 "ep_b2995#66",
 "ep_b3000#67",
 "ep_b3005#68",
 "ep_b3005#69",
 "ep_b3005#70",
 "ep_b3005#71",
 "ep_b2990#72",
 "ep_b5#73",
 "ep_b3010#74",
 "ep_b3005#75",
 "ep_b3005#76",
 "ep_b3000#77",
 "ep_b2990#78",
 "ep_b3005#79",
 "ep_b2995#80",
 "ep_b3010#81",
 "ep_b3005#82",
 "ep_b3005#83",
 "ep_b3000#84",
 "ep_b3000#85",
 "ep_b3010#86",
 "ep_b3010#87",
 "ep_b2990#88",
 "ep_b3010#89",
 "ep_b2995#90",
 "ep_b2995#91",
 "ep_b2990#92",
 "ep_b2995#93",
 "ep_b3005#94",
 "ep_b3005#95",
 "ep_b2995#96",
 "ep_b3000#97",
 "ep_b2990#98",
 "ep_b2995#99",
 "ep_b2995#100",
 "ep_b2995#101",
 "ep_b5#102"
],
      "WindowCenter": [12671.0, 12700.0, 8332.0, 8358.0, 8313.0, 8234.0, 8374.0, 8381.0, 12684.0, 6058.0, 5931.0, 6029.0, 6025.0, 5993.0, 6035.0, 5935.0, 6118.0, 6057.0, 6067.0, 6027.0, 6039.0, 6074.0, 5981.0, 6035.0, 12660.0, 3901.0, 3882.0, 3792.0, 3907.0, 3818.0, 3746.0, 3868.0, 3801.0, 3872.0, 3833.0, 3849.0, 3872.0, 3878.0, 3792.0, 3878.0, 12637.0, 2793.0, 2695.0, 2650.0, 2624.0, 2720.0, 2639.0, 2621.0, 2732.0, 2747.0, 2634.0, 2626.0, 2662.0, 2676.0, 2620.0, 2655.0, 2720.0, 2686.0, 2635.0, 2652.0, 2674.0, 2648.0, 2650.0, 2661.0, 2677.0, 2649.0, 2772.0, 2616.0, 2660.0, 2758.0, 2794.0, 2691.0, 2642.0, 12658.0, 2625.0, 2656.0, 2710.0, 2644.0, 2718.0, 2711.0, 2686.0, 2673.0, 2626.0, 2764.0, 2790.0, 2717.0, 2671.0, 2729.0, 2749.0, 2661.0, 2771.0, 2732.0, 2700.0, 2701.0, 2694.0, 2735.0, 2667.0, 2711.0, 2713.0, 2683.0, 2770.0, 2676.0, 12677.0],
      "WindowWidth": [30694.0, 30793.0, 17819.0, 17883.0, 17780.0, 17632.0, 17912.0, 17920.0, 30742.0, 13057.0, 12849.0, 13021.0, 13014.0, 12969.0, 13022.0, 12842.0, 13148.0, 13056.0, 13079.0, 12986.0, 13021.0, 13076.0, 12940.0, 12993.0, 30669.0, 8775.0, 8734.0, 8592.0, 8786.0, 8636.0, 8505.0, 8732.0, 8611.0, 8728.0, 8673.0, 8702.0, 8726.0, 8722.0, 8581.0, 8726.0, 30595.0, 6593.0, 6400.0, 6356.0, 6271.0, 6476.0, 6346.0, 6289.0, 6460.0, 6525.0, 6289.0, 6280.0, 6416.0, 6441.0, 6330.0, 6387.0, 6501.0, 6388.0, 6320.0, 6329.0, 6402.0, 6322.0, 6358.0, 6415.0, 6414.0, 6353.0, 6537.0, 6314.0, 6373.0, 6542.0, 6599.0, 6441.0, 6315.0, 30620.0, 6272.0, 6360.0, 6434.0, 6372.0, 6425.0, 6435.0, 6421.0, 6359.0, 6322.0, 6538.0, 6584.0, 6489.0, 6357.0, 6449.0, 6495.0, 6339.0, 6564.0, 6453.0, 6412.0, 6458.0, 6421.0, 6504.0, 6406.0, 6437.0, 6430.0, 6408.0, 6557.0, 6450.0, 30744.0]
    },
    "slices": {}
  }
}