{
  "AcquisitionMatrixPE": 82,
  "AcquisitionNumber": 1,
  "AcquisitionTime": "15:39:46.960000",
  "BandwidthPerPixelPhaseEncode": 24.888,
  "BaseResolution": 82,
  "BodyPartExamined": "BRAIN",
  "ConsistencyInfo": "N4_VE11E_LATEST_20181129",
  "ConversionSoftware": "dcm2niix",
  "ConversionSoftwareVersion": "v1.0.20201102",
  "DerivedVendorReportedEchoSpacing": 0.00049,
  "DeviceSerialNumber": "66112",
  "DwellTime": 2e-06,
  "EchoTime": 0.0272,
  "EchoTrainLength": 82,
  "EffectiveEchoSpacing": 0.00049,
  "FlipAngle": 44,
  "ImageComments": "Unaliased MB8/PE3",
  "ImageOrientationPatientDICOM": [0.982625, 0.173567, 0.0657492, -0.175209, 0.984327, 0.020044],
  "ImageType": [
    "ORIGINAL",
    "PRIMARY",
    "M",
    "MB",
    "ND",
    "NORM",
    "MOSAIC"
],
  "ImagingFrequency": 123.252,
  "InPlanePhaseEncodingDirectionDICOM": "COL",
  "InstitutionAddress": "Maynard 3,Hanover,NH,US,03755",
  "InstitutionName": "Dartmouth College - PBS",
  "InstitutionalDepartmentName": "Department",
  "MRAcquisitionType": "2D",
  "MagneticFieldStrength": 3,
  "Manufacturer": "Siemens",
  "ManufacturersModelName": "Prisma",
  "Modality": "MR",
  "MultibandAccelerationFactor": 8,
  "PartialFourier": 1,
  "PatientPosition": "HFS",
  "PercentPhaseFOV": 100,
  "PercentSampling": 100,
  "PhaseEncodingDirection": "j-",
  "PhaseEncodingSteps": 82,
  "PhaseResolution": 1,
  "PixelBandwidth": 3050,
  "ProcedureStepDescription": "Wager_Wager^1076_spacetop",
  "ProtocolName": "func_run-05_task-social_acq-ap-mb8",
  "PulseSequenceDetails": "%CustomerSeq%\\cmrr_mbep2d_bold",
  "ReceiveCoilActiveElements": "HEA;HEP",
  "ReceiveCoilName": "Head_32",
  "ReconMatrixPE": 82,
  "RepetitionTime": 0.46,
  "SAR": 0.0920852,
  "ScanOptions": "FS",
  "ScanningSequence": "EP",
  "SequenceName": "epfid2d1_82",
  "SequenceVariant": "SK\\SS",
  "SeriesDescription": "func_run-05_task-social_acq-ap-mb8",
  "SeriesNumber": 20,
  "ShimSetting": [4148, -7769, -7307, 654, -41, -329, -58, 52],
  "SliceThickness": 2.7,
  "SliceTiming": [0, 0.25, 0.0625, 0.3125, 0.125, 0.375, 0.1875, 0, 0.25, 0.0625, 0.3125, 0.125, 0.375, 0.1875, 0, 0.25, 0.0625, 0.3125, 0.125, 0.375, 0.1875, 0, 0.25, 0.0625, 0.3125, 0.125, 0.375, 0.1875, 0, 0.25, 0.0625, 0.3125, 0.125, 0.375, 0.1875, 0, 0.25, 0.0625, 0.3125, 0.125, 0.375, 0.1875, 0, 0.25, 0.0625, 0.3125, 0.125, 0.375, 0.1875, 0, 0.25, 0.0625, 0.3125, 0.125, 0.375, 0.1875],
  "SoftwareVersions": "syngo MR E11",
  "SpacingBetweenSlices": 2.7,
  "StationName": "AWP66112",
  "TaskName": "social",
  "TotalReadoutTime": 0.03969,
  "TxRefAmp": 242.88,
  "WipMemBlock": "07983cd9-668e-49d8-a4a2-48736e717444||Sequence: R016 ve11e/master r/434b28f1; Aug  7 2019 18:53:46 by eja",
  "dcmmeta_affine": [
    [-2.636310577392578, -0.4700731635093689, 0.16534732282161713, 125.123291015625],
    [-0.46566808223724365, 2.6408779621124268, 0.08428217470645905, -82.27832794189453],
    [0.1764003336429596, -0.05377667024731636, 2.6936140060424805, -95.20442199707031],
    [0.0, 0.0, 0.0, 1.0]
],
  "dcmmeta_reorient_transform": [
    [0.0, -1.0, 0.0, 81.0],
    [1.0, 0.0, 0.0, 0.0],
    [0.0, 0.0, 1.0, 0.0],
    [0.0, 0.0, 0.0, 1.0]
],
  "dcmmeta_shape": [82, 82, 56, 872],
  "dcmmeta_slice_dim": 2,
  "dcmmeta_version": 0.6,
  "global": {
    "const": {
      "AccessionNumber": "A003858",
      "AcquisitionMatrix": [82, 0, 0, 82],
      "AngioFlag": "N",
      "BitsAllocated": 16,
      "BitsStored": 16,
      "BodyPartExamined": "BRAIN",
      "Columns": 656,
      "EchoNumbers": 1,
      "EchoTime": 27.2,
      "EchoTrainLength": 82,
      "FlipAngle": 44.0,
      "HighBit": 15,
      "ImageOrientationPatient": [0.9826247858746, 0.17356719517126, 0.06574921250689, -0.1752090837936, 0.98432718838484, 0.02004403059729],
      "ImagePositionPatient": [-708.75747272622, -1023.2114808746, -165.62113312427],
      "ImageType": [
        "ORIGINAL",
        "PRIMARY",
        "M",
        "MB",
        "ND",
        "NORM",
        "MOSAIC"
],
      "ImagedNucleus": "1H",
      "ImagingFrequency": 123.25238,
      "InPlanePhaseEncodingDirection": "COL",
      "MRAcquisitionType": "2D",
      "MagneticFieldStrength": 3.0,
      "Manufacturer": "SIEMENS",
      "ManufacturerModelName": "Prisma",
      "Modality": "MR",
      "NumberOfAverages": 1.0,
      "NumberOfPhaseEncodingSteps": 82,
      "PercentPhaseFieldOfView": 100.0,
      "PercentSampling": 100.0,
      "PerformedProcedureStepStartTime": "143547.740000",
      "PhotometricInterpretation": "MONOCHROME2",
      "PixelBandwidth": 3050.0,
      "PixelRepresentation": 0,
      "PixelSpacing": [2.6829268932343, 2.6829268932343],
      "ProtocolName": "func_run-05_task-social_acq-ap-mb8",
      "RepetitionTime": 460.0,
      "Rows": 656,
      "SAR": 0.09208518889601,
      "SamplesPerPixel": 1,
      "ScanOptions": "FS",
      "ScanningSequence": "EP",
      "SequenceName": "epfid2d1_82",
      "SequenceVariant": [
        "SK",
        "SS"
],
      "SeriesDescription": "func_run-05_task-social_acq-ap-mb8",
      "SeriesNumber": 20,
      "SeriesTime": "154009.240000",
      "SliceLocation": -89.885100260661,
      "SliceThickness": 2.7000000476837,
      "SmallestImagePixelValue": 0,
      "SoftwareVersions": "syngo MR E11",
      "SpacingBetweenSlices": 2.699999983956,
      "SpecificCharacterSet": "ISO_IR 100",
      "StudyID": "1",
      "StudyTime": "143547.670000",
      "TransmitCoilName": "Body",
      "VariableFlipAngleFlag": "N",
      "WindowCenterWidthExplanation": "Algo1"
    },
    "slices": {}
  },
  "time": {
    "samples": {
      "AcquisitionNumber": [1, 2, 3, 4, 5, 6, 7, 8, 9, 10, 11, 12, 13, 14, 15, 16, 17, 18, 19, 20, 21, 22, 23, 24, 25, 26, 27, 28, 29, 30, 31, 32, 33, 34, 35, 36, 37, 38, 39, 40, 41, 42, 43, 44, 45, 46, 47, 48, 49, 50, 51, 52, 53, 54, 55, 56, 57, 58, 59, 60, 61, 62, 63, 64, 65, 66, 67, 68, 69, 70, 71, 72, 73, 74, 75, 76, 77, 78, 79, 80, 81, 82, 83, 84, 85, 86, 87, 88, 89, 90, 91, 92, 93, 94, 95, 96, 97, 98, 99, 100, 101, 102, 103, 104, 105, 106, 107, 108, 109, 110, 111, 112, 113, 114, 115, 116, 117, 118, 119, 120, 121, 122, 123, 124, 125, 126, 127, 128, 129, 130, 131, 132, 133, 134, 135, 136, 137, 138, 139, 140, 141, 142, 143, 144, 145, 146, 147, 148, 149, 150, 151, 152, 153, 154, 155, 156, 157, 158, 159, 160, 161, 162, 163, 164, 165, 166, 167, 168, 169, 170, 171, 172, 173, 174, 175, 176, 177, 178, 179, 180, 181, 182, 183, 184, 185, 186, 187, 188, 189, 190, 191, 192, 193, 194, 195, 196, 197, 198, 199, 200, 201, 202, 203, 204, 205, 206, 207, 208, 209, 210, 211, 212, 213, 214, 215, 216, 217, 218, 219, 220, 221, 222, 223, 224, 225, 226, 227, 228, 229, 230, 231, 232, 233, 234, 235, 236, 237, 238, 239, 240, 241, 242, 243, 244, 245, 246, 247, 248, 249, 250, 251, 252, 253, 254, 255, 256, 257, 258, 259, 260, 261, 262, 263, 264, 265, 266, 267, 268, 269, 270, 271, 272, 273, 274, 275, 276, 277, 278, 279, 280, 281, 282, 283, 284, 285, 286, 287, 288, 289, 290, 291, 292, 293, 294, 295, 296, 297, 298, 299, 300, 301, 302, 303, 304, 305, 306, 307, 308, 309, 310, 311, 312, 313, 314, 315, 316, 317, 318, 319, 320, 321, 322, 323, 324, 325, 326, 327, 328, 329, 330, 331, 332, 333, 334, 335, 336, 337, 338, 339, 340, 341, 342, 343, 344, 345, 346, 347, 348, 349, 350, 351, 352, 353, 354, 355, 356, 357, 358, 359, 360, 361, 362, 363, 364, 365, 366, 367, 368, 369, 370, 371, 372, 373, 374, 375, 376, 377, 378, 379, 380, 381, 382, 383, 384, 385, 386, 387, 388, 389, 390, 391, 392, 393, 394, 395, 396, 397, 398, 399, 400, 401, 402, 403, 404, 405, 406, 407, 408, 409, 410, 411, 412, 413, 414, 415, 416, 417, 418, 419, 420, 421, 422, 423, 424, 425, 426, 427, 428, 429, 430, 431, 432, 433, 434, 435, 436, 437, 438, 439, 440, 441, 442, 443, 444, 445, 446, 447, 448, 449, 450, 451, 452, 453, 454, 455, 456, 457, 458, 459, 460, 461, 462, 463, 464, 465, 466, 467, 468, 469, 470, 471, 472, 473, 474, 475, 476, 477, 478, 479, 480, 481, 482, 483, 484, 485, 486, 487, 488, 489, 490, 491, 492, 493, 494, 495, 496, 497, 498, 499, 500, 501, 502, 503, 504, 505, 506, 507, 508, 509, 510, 511, 512, 513, 514, 515, 516, 517, 518, 519, 520, 521, 522, 523, 524, 525, 526, 527, 528, 529, 530, 531, 532, 533, 534, 535, 536, 537, 538, 539, 540, 541, 542, 543, 544, 545, 546, 547, 548, 549, 550, 551, 552, 553, 554, 555, 556, 557, 558, 559, 560, 561, 562, 563, 564, 565, 566, 567, 568, 569, 570, 571, 572, 573, 574, 575, 576, 577, 578, 579, 580, 581, 582, 583, 584, 585, 586, 587, 588, 589, 590, 591, 592, 593, 594, 595, 596, 597, 598, 599, 600, 601, 602, 603, 604, 605, 606, 607, 608, 609, 610, 611, 612, 613, 614, 615, 616, 617, 618, 619, 620, 621, 622, 623, 624, 625, 626, 627, 628, 629, 630, 631, 632, 633, 634, 635, 636, 637, 638, 639, 640, 641, 642, 643, 644, 645, 646, 647, 648, 649, 650, 651, 652, 653, 654, 655, 656, 657, 658, 659, 660, 661, 662, 663, 664, 665, 666, 667, 668, 669, 670, 671, 672, 673, 674, 675, 676, 677, 678, 679, 680, 681, 682, 683, 684, 685, 686, 687, 688, 689, 690, 691, 692, 693, 694, 695, 696, 697, 698, 699, 700, 701, 702, 703, 704, 705, 706, 707, 708, 709, 710, 711, 712, 713, 714, 715, 716, 717, 718, 719, 720, 721, 722, 723, 724, 725, 726, 727, 728, 729, 730, 731, 732, 733, 734, 735, 736, 737, 738, 739, 740, 741, 742, 743, 744, 745, 746, 747, 748, 749, 750, 751, 752, 753, 754, 755, 756, 757, 758, 759, 760, 761, 762, 763, 764, 765, 766, 767, 768, 769, 770, 771, 772, 773, 774, 775, 776, 777, 778, 779, 780, 781, 782, 783, 784, 785, 786, 787, 788, 789, 790, 791, 792, 793, 794, 795, 796, 797, 798, 799, 800, 801, 802, 803, 804, 805, 806, 807, 808, 809, 810, 811, 812, 813, 814, 815, 816, 817, 818, 819, 820, 821, 822, 823, 824, 825, 826, 827, 828, 829, 830, 831, 832, 833, 834, 835, 836, 837, 838, 839, 840, 841, 842, 843, 844, 845, 846, 847, 848, 849, 850, 851, 852, 853, 854, 855, 856, 857, 858, 859, 860, 861, 862, 863, 864, 865, 866, 867, 868, 869, 870, 871, 872],
      "AcquisitionTime": ["153946.960000", "153947.420000", "153947.880000", "153948.340000", "153948.800000", "153949.260000", "153949.720000", "153950.180000", "153950.640000", "153951.100000", "153951.560000", "153952.020000", "153952.480000", "153952.940000", "153953.400000", "153953.860000", "153954.320000", "153954.780000", "153955.240000", "153955.700000", "153956.160000", "153956.620000", "153957.080000", "153957.540000", "153958.000000", "153958.460000", "153958.920000", "153959.380000", "153959.840000", "154000.300000", "154000.760000", "154001.220000", "154001.680000", "154002.140000", "154002.600000", "154003.060000", "154003.520000", "154003.980000", "154004.440000", "154004.900000", "154005.360000", "154005.820000", "154006.280000", "154006.740000", "154007.200000", "154007.660000", "154008.120000", "154008.580000", "154009.040000", "154009.500000", "154009.960000", "154010.420000", "154010.880000", "154011.340000", "154011.800000", "154012.260000", "154012.720000", "154013.180000", "154013.640000", "154014.100000", "154014.560000", "154015.020000", "154015.480000", "154015.940000", "154016.400000", "154016.860000", "154017.320000", "154017.780000", "154018.240000", "154018.700000", "154019.160000", "154019.620000", "154020.080000", "154020.540000", "154021.000000", "154021.460000", "154021.920000", "154022.380000", "154022.840000", "154023.300000", "154023.760000", "154024.220000", "154024.680000", "154025.140000", "154025.600000", "154026.060000", "154026.520000", "154026.980000", "154027.440000", "154027.900000", "154028.360000", "154028.820000", "154029.280000", "154029.740000", "154030.200000", "154030.660000", "154031.120000", "154031.580000", "154032.040000", "154032.500000", "154032.960000", "154033.420000", "154033.880000", "154034.340000", "154034.800000", "154035.260000", "154035.720000", "154036.180000", "154036.640000", "154037.100000", "154037.560000", "154038.020000", "154038.480000", "154038.940000", "154039.400000", "154039.860000", "154040.320000", "154040.780000", "154041.240000", "154041.700000", "154042.160000", "154042.620000", "154043.080000", "154043.540000", "154044.000000", "154044.460000", "154044.920000", "154045.380000", "154045.840000", "154046.300000", "154046.760000", "154047.220000", "154047.680000", "154048.140000", "154048.600000", "154049.060000", "154049.520000", "154049.980000", "154050.440000", "154050.900000", "154051.360000", "154051.820000", "154052.280000", "154052.740000", "154053.200000", "154053.660000", "154054.120000", "154054.580000", "154055.040000", "154055.500000", "154055.960000", "154056.420000", "154056.880000", "154057.340000", "154057.800000", "154058.260000", "154058.720000", "154059.180000", "154059.640000", "154100.100000", "154100.560000", "154101.020000", "154101.480000", "154101.940000", "154102.400000", "154102.860000", "154103.320000", "154103.780000", "154104.240000", "154104.700000", "154105.160000", "154105.620000", "154106.080000", "154106.540000", "154107.000000", "154107.460000", "154107.920000", "154108.380000", "154108.840000", "154109.300000", "154109.760000", "154110.220000", "154110.680000", "154111.140000", "154111.600000", "154112.060000", "154112.520000", "154112.980000", "154113.440000", "154113.900000", "154114.360000", "154114.820000", "154115.280000", "154115.740000", "154116.200000", "154116.660000", "154117.120000", "154117.580000", "154118.040000", "154118.500000", "154118.960000", "154119.420000", "154119.880000", "154120.340000", "154120.800000", "154121.260000", "154121.720000", "154122.180000", "154122.640000", "154123.100000", "154123.560000", "154124.020000", "154124.480000", "154124.940000", "154125.400000", "154125.860000", "154126.320000", "154126.780000", "154127.240000", "154127.700000", "154128.160000", "154128.620000", "154129.080000", "154129.540000", "154130.000000", "154130.460000", "154130.920000", "154131.380000", "154131.840000", "154132.300000", "154132.760000", "154133.220000", "154133.680000", "154134.140000", "154134.600000", "154135.060000", "154135.520000", "154135.980000", "154136.440000", "154136.900000", "154137.360000", "154137.820000", "154138.280000", "154138.740000", "154139.200000", "154139.660000", "154140.120000", "154140.580000", "154141.040000", "154141.500000", "154141.960000", "154142.420000", "154142.880000", "154143.340000", "154143.800000", "154144.260000", "154144.720000", "154145.180000", "154145.640000", "154146.100000", "154146.560000", "154147.020000", "154147.480000", "154147.940000", "154148.400000", "154148.860000", "154149.320000", "154149.780000", "154150.240000", "154150.700000", "154151.160000", "154151.620000", "154152.080000", "154152.540000", "154153.000000", "154153.460000", "154153.920000", "154154.380000", "154154.840000", "154155.300000", "154155.760000", "154156.220000", "154156.680000", "154157.140000", "154157.600000", "154158.060000", "154158.520000", "154158.980000", "154159.440000", "154159.900000", "154200.360000", "154200.820000", "154201.280000", "154201.740000", "154202.200000", "154202.660000", "154203.120000", "154203.580000", "154204.040000", "154204.500000", "154204.960000", "154205.420000", "154205.880000", "154206.340000", "154206.800000", "154207.260000", "154207.720000", "154208.180000", "154208.640000", "154209.100000", "154209.560000", "154210.020000", "154210.480000", "154210.940000", "154211.400000", "154211.860000", "154212.320000", "154212.780000", "154213.240000", "154213.700000", "154214.160000", "154214.620000", "154215.080000", "154215.540000", "154216.000000", "154216.460000", "154216.920000", "154217.380000", "154217.840000", "154218.300000", "154218.760000", "154219.220000", "154219.680000", "154220.140000", "154220.600000", "154221.060000", "154221.520000", "154221.980000", "154222.440000", "154222.900000", "154223.360000", "154223.820000", "154224.280000", "154224.740000", "154225.200000", "154225.660000", "154226.120000", "154226.580000", "154227.040000", "154227.500000", "154227.960000", "154228.420000", "154228.880000", "154229.340000", "154229.800000", "154230.260000", "154230.720000", "154231.180000", "154231.640000", "154232.100000", "154232.560000", "154233.020000", "154233.480000", "154233.940000", "154234.400000", "154234.860000", "154235.320000", "154235.780000", "154236.240000", "154236.700000", "154237.160000", "154237.620000", "154238.080000", "154238.540000", "154239.000000", "154239.460000", "154239.920000", "154240.380000", "154240.840000", "154241.300000", "154241.760000", "154242.220000", "154242.680000", "154243.140000", "154243.600000", "154244.060000", "154244.520000", "154244.980000", "154245.440000", "154245.900000", "154246.360000", "154246.820000", "154247.280000", "154247.740000", "154248.200000", "154248.660000", "154249.120000", "154249.580000", "154250.040000", "154250.500000", "154250.960000", "154251.420000", "154251.880000", "154252.340000", "154252.800000", "154253.260000", "154253.720000", "154254.180000", "154254.640000", "154255.100000", "154255.560000", "154256.020000", "154256.480000", "154256.940000", "154257.400000", "154257.860000", "154258.320000", "154258.780000", "154259.240000", "154259.700000", "154300.160000", "154300.620000", "154301.080000", "154301.540000", "154302.000000", "154302.460000", "154302.920000", "154303.380000", "154303.840000", "154304.300000", "154304.760000", "154305.220000", "154305.680000", "154306.140000", "154306.600000", "154307.060000", "154307.520000", "154307.980000", "154308.440000", "154308.900000", "154309.360000", "154309.820000", "154310.280000", "154310.740000", "154311.200000", "154311.660000", "154312.120000", "154312.580000", "154313.040000", "154313.500000", "154313.960000", "154314.420000", "154314.880000", "154315.340000", "154315.800000", "154316.260000", "154316.720000", "154317.180000", "154317.640000", "154318.100000", "154318.560000", "154319.020000", "154319.480000", "154319.940000", "154320.400000", "154320.860000", "154321.320000", "154321.780000", "154322.240000", "154322.700000", "154323.160000", "154323.620000", "154324.080000", "154324.540000", "154325.000000", "154325.460000", "154325.920000", "154326.380000", "154326.840000", "154327.300000", "154327.760000", "154328.220000", "154328.680000", "154329.140000", "154329.600000", "154330.060000", "154330.520000", "154330.980000", "154331.440000", "154331.900000", "154332.360000", "154332.820000", "154333.280000", "154333.740000", "154334.200000", "154334.660000", "154335.120000", "154335.580000", "154336.040000", "154336.500000", "154336.960000", "154337.420000", "154337.880000", "154338.340000", "154338.800000", "154339.260000", "154339.720000", "154340.180000", "154340.640000", "154341.100000", "154341.560000", "154342.020000", "154342.480000", "154342.940000", "154343.400000", "154343.860000", "154344.320000", "154344.780000", "154345.240000", "154345.700000", "154346.160000", "154346.620000", "154347.080000", "154347.540000", "154348.000000", "154348.460000", "154348.920000", "154349.380000", "154349.840000", "154350.300000", "154350.760000", "154351.220000", "154351.680000", "154352.140000", "154352.600000", "154353.060000", "154353.520000", "154353.980000", "154354.440000", "154354.900000", "154355.360000", "154355.820000", "154356.280000", "154356.740000", "154357.200000", "154357.660000", "154358.120000", "154358.580000", "154359.040000", "154359.500000", "154359.960000", "154400.420000", "154400.880000", "154401.340000", "154401.800000", "154402.260000", "154402.720000", "154403.180000", "154403.640000", "154404.100000", "154404.560000", "154405.020000", "154405.480000", "154405.940000", "154406.400000", "154406.860000", "154407.320000", "154407.780000", "154408.240000", "154408.700000", "154409.160000", "154409.620000", "154410.080000", "154410.540000", "154411.000000", "154411.460000", "154411.920000", "154412.380000", "154412.840000", "154413.300000", "154413.760000", "154414.220000", "154414.680000", "154415.140000", "154415.600000", "154416.060000", "154416.520000", "154416.980000", "154417.440000", "154417.900000", "154418.360000", "154418.820000", "154419.280000", "154419.740000", "154420.200000", "154420.660000", "154421.120000", "154421.580000", "154422.040000", "154422.500000", "154422.960000", "154423.420000", "154423.880000", "154424.340000", "154424.800000", "154425.260000", "154425.720000", "154426.180000", "154426.640000", "154427.100000", "154427.560000", "154428.020000", "154428.480000", "154428.940000", "154429.400000", "154429.860000", "154430.320000", "154430.780000", "154431.240000", "154431.700000", "154432.160000", "154432.620000", "154433.080000", "154433.540000", "154434.000000", "154434.460000", "154434.920000", "154435.380000", "154435.840000", "154436.300000", "154436.760000", "154437.220000", "154437.680000", "154438.140000", "154438.600000", "154439.060000", "154439.520000", "154439.980000", "154440.440000", "154440.900000", "154441.360000", "154441.820000", "154442.280000", "154442.740000", "154443.200000", "154443.660000", "154444.120000", "154444.580000", "154445.040000", "154445.500000", "154445.960000", "154446.420000", "154446.880000", "154447.340000", "154447.800000", "154448.260000", "154448.720000", "154449.180000", "154449.640000", "154450.100000", "154450.560000", "154451.020000", "154451.480000", "154451.940000", "154452.400000", "154452.860000", "154453.320000", "154453.780000", "154454.240000", "154454.700000", "154455.160000", "154455.620000", "154456.080000", "154456.540000", "154457.000000", "154457.460000", "154457.920000", "154458.380000", "154458.840000", "154459.300000", "154459.760000", "154500.220000", "154500.680000", "154501.140000", "154501.600000", "154502.060000", "154502.520000", "154502.980000", "154503.440000", "154503.900000", "154504.360000", "154504.820000", "154505.280000", "154505.740000", "154506.200000", "154506.660000", "154507.120000", "154507.580000", "154508.040000", "154508.500000", "154508.960000", "154509.420000", "154509.880000", "154510.340000", "154510.800000", "154511.260000", "154511.720000", "154512.180000", "154512.640000", "154513.100000", "154513.560000", "154514.020000", "154514.480000", "154514.940000", "154515.400000", "154515.860000", "154516.320000", "154516.780000", "154517.240000", "154517.700000", "154518.160000", "154518.620000", "154519.080000", "154519.540000", "154520.000000", "154520.460000", "154520.920000", "154521.380000", "154521.840000", "154522.300000", "154522.760000", "154523.220000", "154523.680000", "154524.140000", "154524.600000", "154525.060000", "154525.520000", "154525.980000", "154526.440000", "154526.900000", "154527.360000", "154527.820000", "154528.280000", "154528.740000", "154529.200000", "154529.660000", "154530.120000", "154530.580000", "154531.040000", "154531.500000", "154531.960000", "154532.420000", "154532.880000", "154533.340000", "154533.800000", "154534.260000", "154534.720000", "154535.180000", "154535.640000", "154536.100000", "154536.560000", "154537.020000", "154537.480000", "154537.940000", "154538.400000", "154538.860000", "154539.320000", "154539.780000", "154540.240000", "154540.700000", "154541.160000", "154541.620000", "154542.080000", "154542.540000", "154543.000000", "154543.460000", "154543.920000", "154544.380000", "154544.840000", "154545.300000", "154545.760000", "154546.220000", "154546.680000", "154547.140000", "154547.600000", "154548.060000", "154548.520000", "154548.980000", "154549.440000", "154549.900000", "154550.360000", "154550.820000", "154551.280000", "154551.740000", "154552.200000", "154552.660000", "154553.120000", "154553.580000", "154554.040000", "154554.500000", "154554.960000", "154555.420000", "154555.880000", "154556.340000", "154556.800000", "154557.260000", "154557.720000", "154558.180000", "154558.640000", "154559.100000", "154559.560000", "154600.020000", "154600.480000", "154600.940000", "154601.400000", "154601.860000", "154602.320000", "154602.780000", "154603.240000", "154603.700000", "154604.160000", "154604.620000", "154605.080000", "154605.540000", "154606.000000", "154606.460000", "154606.920000", "154607.380000", "154607.840000", "154608.300000", "154608.760000", "154609.220000", "154609.680000", "154610.140000", "154610.600000", "154611.060000", "154611.520000", "154611.980000", "154612.440000", "154612.900000", "154613.360000", "154613.820000", "154614.280000", "154614.740000", "154615.200000", "154615.660000", "154616.120000", "154616.580000", "154617.040000", "154617.500000", "154617.960000", "154618.420000", "154618.880000", "154619.340000", "154619.800000", "154620.260000", "154620.720000", "154621.180000", "154621.640000", "154622.100000", "154622.560000", "154623.020000", "154623.480000", "154623.940000", "154624.400000", "154624.860000", "154625.320000", "154625.780000", "154626.240000", "154626.700000", "154627.160000", "154627.620000"],
