{
  "AcquisitionMatrixPE": 82,
  "AcquisitionNumber": 1,
  "AcquisitionTime": "15:09:6.547500",
  "BandwidthPerPixelPhaseEncode": 24.888,
  "BaseResolution": 82,
  "BodyPartExamined": "BRAIN",
  "ConsistencyInfo": "N4_VE11E_LATEST_20181129",
  "ConversionSoftware": "dcm2niix",
  "ConversionSoftwareVersion": "v1.0.20201102",
  "DerivedVendorReportedEchoSpacing": 0.00049,
  "DeviceSerialNumber": "66112",
  "DwellTime": 2e-06,
  "EchoTime": 0.0272,
  "EchoTrainLength": 82,
  "EffectiveEchoSpacing": 0.00049,
  "FlipAngle": 44,
  "ImageComments": "Unaliased MB8/PE3",
  "ImageOrientationPatientDICOM": [0.982625, 0.173567, 0.0657492, -0.175209, 0.984327, 0.020044],
  "ImageType": [
    "ORIGINAL",
    "PRIMARY",
    "M",
    "MB",
    "ND",
    "NORM",
    "MOSAIC"
],
  "ImagingFrequency": 123.252,
  "InPlanePhaseEncodingDirectionDICOM": "COL",
  "InstitutionAddress": "Maynard 3,Hanover,NH,US,03755",
  "InstitutionName": "Dartmouth College - PBS",
  "InstitutionalDepartmentName": "Department",
  "MRAcquisitionType": "2D",
  "MagneticFieldStrength": 3,
  "Manufacturer": "Siemens",
  "ManufacturersModelName": "Prisma",
  "Modality": "MR",
  "MultibandAccelerationFactor": 8,
  "PartialFourier": 1,
  "PatientPosition": "HFS",
  "PercentPhaseFOV": 100,
  "PercentSampling": 100,
  "PhaseEncodingDirection": "j-",
  "PhaseEncodingSteps": 82,
  "PhaseResolution": 1,
  "PixelBandwidth": 3050,
  "ProcedureStepDescription": "Wager_Wager^1076_spacetop",
  "ProtocolName": "func_run-01_task-social_acq-ap-mb8",
  "PulseSequenceDetails": "%CustomerSeq%\\cmrr_mbep2d_bold",
  "ReceiveCoilActiveElements": "HEA;HEP",
  "ReceiveCoilName": "Head_32",
  "ReconMatrixPE": 82,
  "RepetitionTime": 0.46,
  "SAR": 0.0920852,
  "ScanOptions": "FS",
  "ScanningSequence": "EP",
  "SequenceName": "epfid2d1_82",
  "SequenceVariant": "SK\\SS",
  "SeriesDescription": "func_run-01_task-social_acq-ap-mb8",
  "SeriesNumber": 12,
  "ShimSetting": [4148, -7769, -7307, 654, -41, -329, -58, 52],
  "SliceThickness": 2.7,
  "SliceTiming": [0, 0.25, 0.0625, 0.3125, 0.125, 0.3775, 0.1875, 0, 0.25, 0.0625, 0.3125, 0.125, 0.3775, 0.1875, 0, 0.25, 0.0625, 0.3125, 0.125, 0.3775, 0.1875, 0, 0.25, 0.0625, 0.3125, 0.125, 0.3775, 0.1875, 0, 0.25, 0.0625, 0.3125, 0.125, 0.3775, 0.1875, 0, 0.25, 0.0625, 0.3125, 0.125, 0.3775, 0.1875, 0, 0.25, 0.0625, 0.3125, 0.125, 0.3775, 0.1875, 0, 0.25, 0.0625, 0.3125, 0.125, 0.3775, 0.1875],
  "SoftwareVersions": "syngo MR E11",
  "SpacingBetweenSlices": 2.7,
  "StationName": "AWP66112",
  "TaskName": "social",
  "TotalReadoutTime": 0.03969,
  "TxRefAmp": 242.88,
  "WipMemBlock": "7c821ff2-5d62-472a-8b53-47190f9742dd||Sequence: R016 ve11e/master r/434b28f1; Aug  7 2019 18:53:46 by eja",
  "dcmmeta_affine": [
    [-2.636310577392578, -0.4700731635093689, 0.16534732282161713, 125.123291015625],
    [-0.46566808223724365, 2.6408779621124268, 0.08428217470645905, -82.27832794189453],
    [0.1764003336429596, -0.05377667024731636, 2.6936140060424805, -95.20442199707031],
    [0.0, 0.0, 0.0, 1.0]
],
  "dcmmeta_reorient_transform": [
    [0.0, -1.0, 0.0, 81.0],
    [1.0, 0.0, 0.0, 0.0],
    [0.0, 0.0, 1.0, 0.0],
    [0.0, 0.0, 0.0, 1.0]
],
  "dcmmeta_shape": [82, 82, 56, 872],
  "dcmmeta_slice_dim": 2,
  "dcmmeta_version": 0.6,
  "global": {
    "const": {
      "AccessionNumber": "A003858",
      "AcquisitionMatrix": [82, 0, 0, 82],
      "AngioFlag": "N",
      "BitsAllocated": 16,
      "BitsStored": 16,
      "BodyPartExamined": "BRAIN",
      "Columns": 656,
      "EchoNumbers": 1,
      "EchoTime": 27.2,
      "EchoTrainLength": 82,
      "FlipAngle": 44.0,
      "HighBit": 15,
      "ImageOrientationPatient": [0.9826247858746, 0.17356719517126, 0.06574921250689, -0.1752090837936, 0.98432718838484, 0.02004403059729],
      "ImagePositionPatient": [-708.75747272622, -1023.2114808746, -165.62113312427],
      "ImageType": [
        "ORIGINAL",
        "PRIMARY",
        "M",
        "MB",
        "ND",
        "NORM",
        "MOSAIC"
],
      "ImagedNucleus": "1H",
      "ImagingFrequency": 123.252371,
      "InPlanePhaseEncodingDirection": "COL",
      "MRAcquisitionType": "2D",
      "MagneticFieldStrength": 3.0,
      "Manufacturer": "SIEMENS",
      "ManufacturerModelName": "Prisma",
      "Modality": "MR",
      "NumberOfAverages": 1.0,
      "NumberOfPhaseEncodingSteps": 82,
      "PercentPhaseFieldOfView": 100.0,
      "PercentSampling": 100.0,
      "PerformedProcedureStepStartTime": "143547.740000",
      "PhotometricInterpretation": "MONOCHROME2",
      "PixelBandwidth": 3050.0,
      "PixelRepresentation": 0,
      "PixelSpacing": [2.6829268932343, 2.6829268932343],
      "ProtocolName": "func_run-01_task-social_acq-ap-mb8",
      "RepetitionTime": 460.0,
      "Rows": 656,
      "SAR": 0.09208518889601,
      "SamplesPerPixel": 1,
      "ScanOptions": "FS",
      "ScanningSequence": "EP",
      "SequenceName": "epfid2d1_82",
      "SequenceVariant": [
        "SK",
        "SS"
],
      "SeriesDescription": "func_run-01_task-social_acq-ap-mb8",
      "SeriesNumber": 12,
      "SeriesTime": "150929.145000",
      "SliceLocation": -89.885100260661,
      "SliceThickness": 2.7000000476837,
      "SmallestImagePixelValue": 0,
      "SoftwareVersions": "syngo MR E11",
      "SpacingBetweenSlices": 2.699999983956,
      "SpecificCharacterSet": "ISO_IR 100",
      "StudyID": "1",
      "StudyTime": "143547.670000",
      "TransmitCoilName": "Body",
      "VariableFlipAngleFlag": "N",
      "WindowCenterWidthExplanation": "Algo1"
    },
    "slices": {}
  },
  "time": {
    "samples": {
      "AcquisitionNumber": [1, 2, 3, 4, 5, 6, 7, 8, 9, 10, 11, 12, 13, 14, 15, 16, 17, 18, 19, 20, 21, 22, 23, 24, 25, 26, 27, 28, 29, 30, 31, 32, 33, 34, 35, 36, 37, 38, 39, 40, 41, 42, 43, 44, 45, 46, 47, 48, 49, 50, 51, 52, 53, 54, 55, 56, 57, 58, 59, 60, 61, 62, 63, 64, 65, 66, 67, 68, 69, 70, 71, 72, 73, 74, 75, 76, 77, 78, 79, 80, 81, 82, 83, 84, 85, 86, 87, 88, 89, 90, 91, 92, 93, 94, 95, 96, 97, 98, 99, 100, 101, 102, 103, 104, 105, 106, 107, 108, 109, 110, 111, 112, 113, 114, 115, 116, 117, 118, 119, 120, 121, 122, 123, 124, 125, 126, 127, 128, 129, 130, 131, 132, 133, 134, 135, 136, 137, 138, 139, 140, 141, 142, 143, 144, 145, 146, 147, 148, 149, 150, 151, 152, 153, 154, 155, 156, 157, 158, 159, 160, 161, 162, 163, 164, 165, 166, 167, 168, 169, 170, 171, 172, 173, 174, 175, 176, 177, 178, 179, 180, 181, 182, 183, 184, 185, 186, 187, 188, 189, 190, 191, 192, 193, 194, 195, 196, 197, 198, 199, 200, 201, 202, 203, 204, 205, 206, 207, 208, 209, 210, 211, 212, 213, 214, 215, 216, 217, 218, 219, 220, 221, 222, 223, 224, 225, 226, 227, 228, 229, 230, 231, 232, 233, 234, 235, 236, 237, 238, 239, 240, 241, 242, 243, 244, 245, 246, 247, 248, 249, 250, 251, 252, 253, 254, 255, 256, 257, 258, 259, 260, 261, 262, 263, 264, 265, 266, 267, 268, 269, 270, 271, 272, 273, 274, 275, 276, 277, 278, 279, 280, 281, 282, 283, 284, 285, 286, 287, 288, 289, 290, 291, 292, 293, 294, 295, 296, 297, 298, 299, 300, 301, 302, 303, 304, 305, 306, 307, 308, 309, 310, 311, 312, 313, 314, 315, 316, 317, 318, 319, 320, 321, 322, 323, 324, 325, 326, 327, 328, 329, 330, 331, 332, 333, 334, 335, 336, 337, 338, 339, 340, 341, 342, 343, 344, 345, 346, 347, 348, 349, 350, 351, 352, 353, 354, 355, 356, 357, 358, 359, 360, 361, 362, 363, 364, 365, 366, 367, 368, 369, 370, 371, 372, 373, 374, 375, 376, 377, 378, 379, 380, 381, 382, 383, 384, 385, 386, 387, 388, 389, 390, 391, 392, 393, 394, 395, 396, 397, 398, 399, 400, 401, 402, 403, 404, 405, 406, 407, 408, 409, 410, 411, 412, 413, 414, 415, 416, 417, 418, 419, 420, 421, 422, 423, 424, 425, 426, 427, 428, 429, 430, 431, 432, 433, 434, 435, 436, 437, 438, 439, 440, 441, 442, 443, 444, 445, 446, 447, 448, 449, 450, 451, 452, 453, 454, 455, 456, 457, 458, 459, 460, 461, 462, 463, 464, 465, 466, 467, 468, 469, 470, 471, 472, 473, 474, 475, 476, 477, 478, 479, 480, 481, 482, 483, 484, 485, 486, 487, 488, 489, 490, 491, 492, 493, 494, 495, 496, 497, 498, 499, 500, 501, 502, 503, 504, 505, 506, 507, 508, 509, 510, 511, 512, 513, 514, 515, 516, 517, 518, 519, 520, 521, 522, 523, 524, 525, 526, 527, 528, 529, 530, 531, 532, 533, 534, 535, 536, 537, 538, 539, 540, 541, 542, 543, 544, 545, 546, 547, 548, 549, 550, 551, 552, 553, 554, 555, 556, 557, 558, 559, 560, 561, 562, 563, 564, 565, 566, 567, 568, 569, 570, 571, 572, 573, 574, 575, 576, 577, 578, 579, 580, 581, 582, 583, 584, 585, 586, 587, 588, 589, 590, 591, 592, 593, 594, 595, 596, 597, 598, 599, 600, 601, 602, 603, 604, 605, 606, 607, 608, 609, 610, 611, 612, 613, 614, 615, 616, 617, 618, 619, 620, 621, 622, 623, 624, 625, 626, 627, 628, 629, 630, 631, 632, 633, 634, 635, 636, 637, 638, 639, 640, 641, 642, 643, 644, 645, 646, 647, 648, 649, 650, 651, 652, 653, 654, 655, 656, 657, 658, 659, 660, 661, 662, 663, 664, 665, 666, 667, 668, 669, 670, 671, 672, 673, 674, 675, 676, 677, 678, 679, 680, 681, 682, 683, 684, 685, 686, 687, 688, 689, 690, 691, 692, 693, 694, 695, 696, 697, 698, 699, 700, 701, 702, 703, 704, 705, 706, 707, 708, 709, 710, 711, 712, 713, 714, 715, 716, 717, 718, 719, 720, 721, 722, 723, 724, 725, 726, 727, 728, 729, 730, 731, 732, 733, 734, 735, 736, 737, 738, 739, 740, 741, 742, 743, 744, 745, 746, 747, 748, 749, 750, 751, 752, 753, 754, 755, 756, 757, 758, 759, 760, 761, 762, 763, 764, 765, 766, 767, 768, 769, 770, 771, 772, 773, 774, 775, 776, 777, 778, 779, 780, 781, 782, 783, 784, 785, 786, 787, 788, 789, 790, 791, 792, 793, 794, 795, 796, 797, 798, 799, 800, 801, 802, 803, 804, 805, 806, 807, 808, 809, 810, 811, 812, 813, 814, 815, 816, 817, 818, 819, 820, 821, 822, 823, 824, 825, 826, 827, 828, 829, 830, 831, 832, 833, 834, 835, 836, 837, 838, 839, 840, 841, 842, 843, 844, 845, 846, 847, 848, 849, 850, 851, 852, 853, 854, 855, 856, 857, 858, 859, 860, 861, 862, 863, 864, 865, 866, 867, 868, 869, 870, 871, 872],
      "AcquisitionTime": ["150906.547500", "150907.007500", "150907.467500", "150907.927500", "150908.387500", "150908.847500", "150909.307500", "150909.767500", "150910.227500", "150910.687500", "150911.147500", "150911.607500", "150912.067500", "150912.527500", "150912.987500", "150913.447500", "150913.907500", "150914.367500", "150914.827500", "150915.287500", "150915.747500", "150916.207500", "150916.667500", "150917.127500", "150917.587500", "150918.047500", "150918.507500", "150918.967500", "150919.427500", "150919.887500", "150920.347500", "150920.807500", "150921.267500", "150921.727500", "150922.187500", "150922.647500", "150923.107500", "150923.567500", "150924.027500", "150924.487500", "150924.947500", "150925.407500", "150925.867500", "150926.327500", "150926.787500", "150927.247500", "150927.707500", "150928.167500", "150928.627500", "150929.087500", "150929.547500", "150930.007500", "150930.467500", "150930.927500", "150931.387500", "150931.847500", "150932.307500", "150932.767500", "150933.227500", "150933.687500", "150934.147500", "150934.607500", "150935.067500", "150935.527500", "150935.987500", "150936.447500", "150936.907500", "150937.367500", "150937.827500", "150938.287500", "150938.747500", "150939.207500", "150939.667500", "150940.127500", "150940.587500", "150941.047500", "150941.507500", "150941.967500", "150942.427500", "150942.887500", "150943.347500", "150943.807500", "150944.267500", "150944.727500", "150945.187500", "150945.647500", "150946.107500", "150946.567500", "150947.027500", "150947.487500", "150947.947500", "150948.407500", "150948.867500", "150949.327500", "150949.787500", "150950.247500", "150950.707500", "150951.167500", "150951.627500", "150952.087500", "150952.547500", "150953.007500", "150953.467500", "150953.927500", "150954.387500", "150954.847500", "150955.307500", "150955.767500", "150956.227500", "150956.687500", "150957.147500", "150957.607500", "150958.067500", "150958.527500", "150958.987500", "150959.447500", "150959.907500", "151000.367500", "151000.827500", "151001.287500", "151001.747500", "151002.207500", "151002.667500", "151003.127500", "151003.587500", "151004.047500", "151004.507500", "151004.967500", "151005.427500", "151005.887500", "151006.347500", "151006.807500", "151007.267500", "151007.727500", "151008.187500", "151008.647500", "151009.107500", "151009.567500", "151010.027500", "151010.487500", "151010.947500", "151011.407500", "151011.867500", "151012.327500", "151012.787500", "151013.247500", "151013.707500", "151014.167500", "151014.627500", "151015.087500", "151015.547500", "151016.007500", "151016.467500", "151016.927500", "151017.387500", "151017.847500", "151018.307500", "151018.767500", "151019.227500", "151019.687500", "151020.147500", "151020.607500", "151021.067500", "151021.527500", "151021.987500", "151022.447500", "151022.907500", "151023.367500", "151023.827500", "151024.287500", "151024.747500", "151025.207500", "151025.667500", "151026.127500", "151026.587500", "151027.047500", "151027.507500", "151027.967500", "151028.427500", "151028.887500", "151029.347500", "151029.807500", "151030.267500", "151030.727500", "151031.187500", "151031.647500", "151032.107500", "151032.567500", "151033.027500", "151033.487500", "151033.947500", "151034.407500", "151034.867500", "151035.327500", "151035.787500", "151036.247500", "151036.707500", "151037.167500", "151037.627500", "151038.087500", "151038.547500", "151039.007500", "151039.467500", "151039.927500", "151040.387500", "151040.847500", "151041.307500", "151041.767500", "151042.227500", "151042.687500", "151043.147500", "151043.607500", "151044.067500", "151044.527500", "151044.987500", "151045.447500", "151045.907500", "151046.367500", "151046.827500", "151047.287500", "151047.747500", "151048.207500", "151048.667500", "151049.127500", "151049.587500", "151050.047500", "151050.507500", "151050.967500", "151051.427500", "151051.887500", "151052.347500", "151052.807500", "151053.267500", "151053.727500", "151054.187500", "151054.647500", "151055.107500", "151055.567500", "151056.027500", "151056.487500", "151056.947500", "151057.407500", "151057.867500", "151058.327500", "151058.787500", "151059.247500", "151059.707500", "151100.167500", "151100.627500", "151101.087500", "151101.547500", "151102.007500", "151102.467500", "151102.927500", "151103.387500", "151103.847500", "151104.307500", "151104.767500", "151105.227500", "151105.687500", "151106.147500", "151106.607500", "151107.067500", "151107.527500", "151107.987500", "151108.447500", "151108.907500", "151109.367500", "151109.827500", "151110.287500", "151110.747500", "151111.207500", "151111.667500", "151112.127500", "151112.587500", "151113.047500", "151113.507500", "151113.967500", "151114.427500", "151114.887500", "151115.347500", "151115.807500", "151116.267500", "151116.727500", "151117.187500", "151117.647500", "151118.107500", "151118.567500", "151119.027500", "151119.487500", "151119.947500", "151120.407500", "151120.867500", "151121.327500", "151121.787500", "151122.247500", "151122.707500", "151123.167500", "151123.627500", "151124.087500", "151124.547500", "151125.007500", "151125.467500", "151125.927500", "151126.387500", "151126.847500", "151127.307500", "151127.767500", "151128.227500", "151128.687500", "151129.147500", "151129.607500", "151130.067500", "151130.527500", "151130.987500", "151131.447500", "151131.907500", "151132.367500", "151132.827500", "151133.287500", "151133.747500", "151134.207500", "151134.667500", "151135.127500", "151135.587500", "151136.047500", "151136.507500", "151136.967500", "151137.427500", "151137.887500", "151138.347500", "151138.807500", "151139.267500", "151139.727500", "151140.187500", "151140.647500", "151141.107500", "151141.567500", "151142.027500", "151142.487500", "151142.947500", "151143.407500", "151143.867500", "151144.327500", "151144.787500", "151145.247500", "151145.707500", "151146.167500", "151146.627500", "151147.087500", "151147.547500", "151148.007500", "151148.467500", "151148.927500", "151149.387500", "151149.847500", "151150.307500", "151150.767500", "151151.227500", "151151.687500", "151152.147500", "151152.607500", "151153.067500", "151153.527500", "151153.987500", "151154.447500", "151154.907500", "151155.367500", "151155.827500", "151156.287500", "151156.747500", "151157.207500", "151157.667500", "151158.127500", "151158.587500", "151159.047500", "151159.507500", "151159.967500", "151200.427500", "151200.887500", "151201.347500", "151201.807500", "151202.267500", "151202.727500", "151203.187500", "151203.647500", "151204.107500", "151204.567500", "151205.027500", "151205.487500", "151205.947500", "151206.407500", "151206.867500", "151207.327500", "151207.787500", "151208.247500", "151208.707500", "151209.167500", "151209.627500", "151210.087500", "151210.547500", "151211.007500", "151211.467500", "151211.927500", "151212.387500", "151212.847500", "151213.307500", "151213.767500", "151214.227500", "151214.687500", "151215.147500", "151215.607500", "151216.067500", "151216.527500", "151216.987500", "151217.447500", "151217.907500", "151218.367500", "151218.827500", "151219.287500", "151219.747500", "151220.207500", "151220.667500", "151221.127500", "151221.587500", "151222.047500", "151222.507500", "151222.967500", "151223.427500", "151223.887500", "151224.347500", "151224.807500", "151225.267500", "151225.727500", "151226.187500", "151226.647500", "151227.107500", "151227.567500", "151228.027500", "151228.487500", "151228.947500", "151229.407500", "151229.867500", "151230.327500", "151230.787500", "151231.247500", "151231.707500", "151232.167500", "151232.627500", "151233.087500", "151233.547500", "151234.007500", "151234.467500", "151234.927500", "151235.387500", "151235.847500", "151236.307500", "151236.767500", "151237.227500", "151237.687500", "151238.147500", "151238.607500", "151239.067500", "151239.527500", "151239.987500", "151240.447500", "151240.907500", "151241.367500", "151241.827500", "151242.287500", "151242.747500", "151243.207500", "151243.667500", "151244.127500", "151244.587500", "151245.047500", "151245.507500", "151245.967500", "151246.427500", "151246.887500", "151247.347500", "151247.807500", "151248.267500", "151248.727500", "151249.187500", "151249.647500", "151250.107500", "151250.567500", "151251.027500", "151251.487500", "151251.947500", "151252.407500", "151252.867500", "151253.327500", "151253.787500", "151254.247500", "151254.707500", "151255.167500", "151255.627500", "151256.087500", "151256.547500", "151257.007500", "151257.467500", "151257.927500", "151258.387500", "151258.847500", "151259.307500", "151259.767500", "151300.227500", "151300.687500", "151301.147500", "151301.607500", "151302.067500", "151302.527500", "151302.987500", "151303.447500", "151303.907500", "151304.367500", "151304.827500", "151305.287500", "151305.747500", "151306.207500", "151306.667500", "151307.127500", "151307.587500", "151308.047500", "151308.507500", "151308.967500", "151309.427500", "151309.887500", "151310.347500", "151310.807500", "151311.267500", "151311.727500", "151312.187500", "151312.647500", "151313.107500", "151313.567500", "151314.027500", "151314.487500", "151314.947500", "151315.407500", "151315.867500", "151316.327500", "151316.787500", "151317.247500", "151317.707500", "151318.167500", "151318.627500", "151319.087500", "151319.547500", "151320.007500", "151320.467500", "151320.927500", "151321.387500", "151321.847500", "151322.307500", "151322.767500", "151323.227500", "151323.687500", "151324.147500", "151324.607500", "151325.067500", "151325.527500", "151325.987500", "151326.447500", "151326.907500", "151327.367500", "151327.827500", "151328.287500", "151328.747500", "151329.207500", "151329.667500", "151330.127500", "151330.587500", "151331.047500", "151331.507500", "151331.967500", "151332.427500", "151332.887500", "151333.347500", "151333.807500", "151334.267500", "151334.727500", "151335.187500", "151335.647500", "151336.107500", "151336.567500", "151337.027500", "151337.487500", "151337.947500", "151338.407500", "151338.867500", "151339.327500", "151339.787500", "151340.247500", "151340.707500", "151341.167500", "151341.627500", "151342.087500", "151342.547500", "151343.007500", "151343.467500", "151343.927500", "151344.387500", "151344.847500", "151345.307500", "151345.767500", "151346.227500", "151346.687500", "151347.147500", "151347.607500", "151348.067500", "151348.527500", "151348.987500", "151349.447500", "151349.907500", "151350.367500", "151350.827500", "151351.287500", "151351.747500", "151352.207500", "151352.667500", "151353.127500", "151353.587500", "151354.047500", "151354.507500", "151354.967500", "151355.427500", "151355.887500", "151356.347500", "151356.807500", "151357.267500", "151357.727500", "151358.187500", "151358.647500", "151359.107500", "151359.567500", "151400.027500", "151400.487500", "151400.947500", "151401.407500", "151401.867500", "151402.327500", "151402.787500", "151403.247500", "151403.707500", "151404.167500", "151404.627500", "151405.087500", "151405.547500", "151406.007500", "151406.467500", "151406.927500", "151407.387500", "151407.847500", "151408.307500", "151408.767500", "151409.227500", "151409.687500", "151410.147500", "151410.607500", "151411.067500", "151411.527500", "151411.987500", "151412.447500", "151412.907500", "151413.367500", "151413.827500", "151414.287500", "151414.747500", "151415.207500", "151415.667500", "151416.127500", "151416.587500", "151417.047500", "151417.507500", "151417.967500", "151418.427500", "151418.887500", "151419.347500", "151419.807500", "151420.267500", "151420.727500", "151421.187500", "151421.647500", "151422.107500", "151422.567500", "151423.027500", "151423.487500", "151423.947500", "151424.407500", "151424.867500", "151425.327500", "151425.787500", "151426.247500", "151426.707500", "151427.167500", "151427.627500", "151428.087500", "151428.547500", "151429.007500", "151429.467500", "151429.927500", "151430.387500", "151430.847500", "151431.307500", "151431.767500", "151432.227500", "151432.687500", "151433.147500", "151433.607500", "151434.067500", "151434.527500", "151434.987500", "151435.447500", "151435.907500", "151436.367500", "151436.827500", "151437.287500", "151437.747500", "151438.207500", "151438.667500", "151439.127500", "151439.587500", "151440.047500", "151440.507500", "151440.967500", "151441.427500", "151441.887500", "151442.347500", "151442.807500", "151443.267500", "151443.727500", "151444.187500", "151444.647500", "151445.107500", "151445.567500", "151446.027500", "151446.487500", "151446.947500", "151447.407500", "151447.867500", "151448.327500", "151448.787500", "151449.247500", "151449.707500", "151450.167500", "151450.627500", "151451.087500", "151451.547500", "151452.007500", "151452.467500", "151452.927500", "151453.387500", "151453.847500", "151454.307500", "151454.767500", "151455.227500", "151455.687500", "151456.147500", "151456.607500", "151457.067500", "151457.527500", "151457.987500", "151458.447500", "151458.907500", "151459.367500", "151459.827500", "151500.287500", "151500.747500", "151501.207500", "151501.667500", "151502.127500", "151502.587500", "151503.047500", "151503.507500", "151503.967500", "151504.427500", "151504.887500", "151505.347500", "151505.807500", "151506.267500", "151506.727500", "151507.187500", "151507.647500", "151508.107500", "151508.567500", "151509.027500", "151509.487500", "151509.947500", "151510.407500", "151510.867500", "151511.327500", "151511.787500", "151512.247500", "151512.707500", "151513.167500", "151513.627500", "151514.087500", "151514.547500", "151515.007500", "151515.467500", "151515.927500", "151516.387500", "151516.847500", "151517.307500", "151517.767500", "151518.227500", "151518.687500", "151519.147500", "151519.607500", "151520.067500", "151520.527500", "151520.987500", "151521.447500", "151521.907500", "151522.367500", "151522.827500", "151523.287500", "151523.747500", "151524.207500", "151524.667500", "151525.127500", "151525.587500", "151526.047500", "151526.507500", "151526.967500", "151527.427500", "151527.887500", "151528.347500", "151528.807500", "151529.267500", "151529.727500", "151530.187500", "151530.647500", "151531.107500", "151531.567500", "151532.027500", "151532.487500", "151532.947500", "151533.407500", "151533.867500", "151534.327500", "151534.787500", "151535.247500", "151535.707500", "151536.167500", "151536.627500", "151537.087500", "151537.547500", "151538.007500", "151538.467500", "151538.927500", "151539.387500", "151539.847500", "151540.307500", "151540.767500", "151541.227500", "151541.687500", "151542.147500", "151542.607500", "151543.067500", "151543.527500", "151543.987500", "151544.447500", "151544.907500", "151545.367500", "151545.827500", "151546.287500", "151546.747500", "151547.207500"],
