{
  "AcquisitionMatrixPE": 82,
  "AcquisitionNumber": 1,
  "AcquisitionTime": "15:31:51.675000",
  "BandwidthPerPixelPhaseEncode": 24.888,
  "BaseResolution": 82,
  "BodyPartExamined": "BRAIN",
  "ConsistencyInfo": "N4_VE11E_LATEST_20181129",
  "ConversionSoftware": "dcm2niix",
  "ConversionSoftwareVersion": "v1.0.20201102",
  "DerivedVendorReportedEchoSpacing": 0.00049,
  "DeviceSerialNumber": "66112",
  "DwellTime": 2e-06,
  "EchoTime": 0.0272,
  "EchoTrainLength": 82,
  "EffectiveEchoSpacing": 0.00049,
  "FlipAngle": 44,
  "ImageComments": "Unaliased MB8/PE3",
  "ImageOrientationPatientDICOM": [0.982625, 0.173567, 0.0657492, -0.175209, 0.984327, 0.020044],
  "ImageType": [
    "ORIGINAL",
    "PRIMARY",
    "M",
    "MB",
    "ND",
    "NORM",
    "MOSAIC"
],
  "ImagingFrequency": 123.252,
  "InPlanePhaseEncodingDirectionDICOM": "COL",
  "InstitutionAddress": "Maynard 3,Hanover,NH,US,03755",
  "InstitutionName": "Dartmouth College - PBS",
  "InstitutionalDepartmentName": "Department",
  "MRAcquisitionType": "2D",
  "MagneticFieldStrength": 3,
  "Manufacturer": "Siemens",
  "ManufacturersModelName": "Prisma",
  "Modality": "MR",
  "MultibandAccelerationFactor": 8,
  "PartialFourier": 1,
  "PatientPosition": "HFS",
  "PercentPhaseFOV": 100,
  "PercentSampling": 100,
  "PhaseEncodingDirection": "j-",
  "PhaseEncodingSteps": 82,
  "PhaseResolution": 1,
  "PixelBandwidth": 3050,
  "ProcedureStepDescription": "Wager_Wager^1076_spacetop",
  "ProtocolName": "func_run-04_task-social_acq-ap-mb8",
  "PulseSequenceDetails": "%CustomerSeq%\\cmrr_mbep2d_bold",
  "ReceiveCoilActiveElements": "HEA;HEP",
  "ReceiveCoilName": "Head_32",
  "ReconMatrixPE": 82,
  "RepetitionTime": 0.46,
  "SAR": 0.0920852,
  "ScanOptions": "FS",
  "ScanningSequence": "EP",
  "SequenceName": "epfid2d1_82",
  "SequenceVariant": "SK\\SS",
  "SeriesDescription": "func_run-04_task-social_acq-ap-mb8",
  "SeriesNumber": 18,
  "ShimSetting": [4148, -7769, -7307, 654, -41, -329, -58, 52],
  "SliceThickness": 2.7,
  "SliceTiming": [0, 0.25, 0.0625, 0.315, 0.125, 0.3775, 0.1875, 0, 0.25, 0.0625, 0.315, 0.125, 0.3775, 0.1875, 0, 0.25, 0.0625, 0.315, 0.125, 0.3775, 0.1875, 0, 0.25, 0.0625, 0.315, 0.125, 0.3775, 0.1875, 0, 0.25, 0.0625, 0.315, 0.125, 0.3775, 0.1875, 0, 0.25, 0.0625, 0.315, 0.125, 0.3775, 0.1875, 0, 0.25, 0.0625, 0.315, 0.125, 0.3775, 0.1875, 0, 0.25, 0.0625, 0.315, 0.125, 0.3775, 0.1875],
  "SoftwareVersions": "syngo MR E11",
  "SpacingBetweenSlices": 2.7,
  "StationName": "AWP66112",
  "TaskName": "social",
  "TotalReadoutTime": 0.03969,
  "TxRefAmp": 242.88,
  "WipMemBlock": "ea4fad93-bed3-40d0-8eab-5841e67ad244||Sequence: R016 ve11e/master r/434b28f1; Aug  7 2019 18:53:46 by eja",
  "dcmmeta_affine": [
    [-2.636310577392578, -0.4700731635093689, 0.16534732282161713, 125.123291015625],
    [-0.46566808223724365, 2.6408779621124268, 0.08428217470645905, -82.27832794189453],
    [0.1764003336429596, -0.05377667024731636, 2.6936140060424805, -95.20442199707031],
    [0.0, 0.0, 0.0, 1.0]
],
  "dcmmeta_reorient_transform": [
    [0.0, -1.0, 0.0, 81.0],
    [1.0, 0.0, 0.0, 0.0],
    [0.0, 0.0, 1.0, 0.0],
    [0.0, 0.0, 0.0, 1.0]
],
  "dcmmeta_shape": [82, 82, 56, 872],
  "dcmmeta_slice_dim": 2,
  "dcmmeta_version": 0.6,
  "global": {
    "const": {
      "AccessionNumber": "A003858",
      "AcquisitionMatrix": [82, 0, 0, 82],
      "AngioFlag": "N",
      "BitsAllocated": 16,
      "BitsStored": 16,
      "BodyPartExamined": "BRAIN",
      "Columns": 656,
      "EchoNumbers": 1,
      "EchoTime": 27.2,
      "EchoTrainLength": 82,
      "FlipAngle": 44.0,
      "HighBit": 15,
      "ImageOrientationPatient": [0.9826247858746, 0.17356719517126, 0.06574921250689, -0.1752090837936, 0.98432718838484, 0.02004403059729],
      "ImagePositionPatient": [-708.75747272622, -1023.2114808746, -165.62113312427],
      "ImageType": [
        "ORIGINAL",
        "PRIMARY",
        "M",
        "MB",
        "ND",
        "NORM",
        "MOSAIC"
],
      "ImagedNucleus": "1H",
      "ImagingFrequency": 123.252379,
      "InPlanePhaseEncodingDirection": "COL",
      "MRAcquisitionType": "2D",
      "MagneticFieldStrength": 3.0,
      "Manufacturer": "SIEMENS",
      "ManufacturerModelName": "Prisma",
      "Modality": "MR",
      "NumberOfAverages": 1.0,
      "NumberOfPhaseEncodingSteps": 82,
      "PercentPhaseFieldOfView": 100.0,
      "PercentSampling": 100.0,
      "PerformedProcedureStepStartTime": "143547.740000",
      "PhotometricInterpretation": "MONOCHROME2",
      "PixelBandwidth": 3050.0,
      "PixelRepresentation": 0,
      "PixelSpacing": [2.6829268932343, 2.6829268932343],
      "ProtocolName": "func_run-04_task-social_acq-ap-mb8",
      "RepetitionTime": 460.0,
      "Rows": 656,
      "SAR": 0.09208518889601,
      "SamplesPerPixel": 1,
      "ScanOptions": "FS",
      "ScanningSequence": "EP",
      "SequenceName": "epfid2d1_82",
      "SequenceVariant": [
        "SK",
        "SS"
],
      "SeriesDescription": "func_run-04_task-social_acq-ap-mb8",
      "SeriesNumber": 18,
      "SeriesTime": "153209.152000",
      "SliceLocation": -89.885100260661,
      "SliceThickness": 2.7000000476837,
      "SmallestImagePixelValue": 0,
      "SoftwareVersions": "syngo MR E11",
      "SpacingBetweenSlices": 2.699999983956,
      "SpecificCharacterSet": "ISO_IR 100",
      "StudyID": "1",
      "StudyTime": "143547.670000",
      "TransmitCoilName": "Body",
      "VariableFlipAngleFlag": "N",
      "WindowCenterWidthExplanation": "Algo1"
    },
    "slices": {}
  },
  "time": {
    "samples": {
      "AcquisitionNumber": [1, 2, 3, 4, 5, 6, 7, 8, 9, 10, 11, 12, 13, 14, 15, 16, 17, 18, 19, 20, 21, 22, 23, 24, 25, 26, 27, 28, 29, 30, 31, 32, 33, 34, 35, 36, 37, 38, 39, 40, 41, 42, 43, 44, 45, 46, 47, 48, 49, 50, 51, 52, 53, 54, 55, 56, 57, 58, 59, 60, 61, 62, 63, 64, 65, 66, 67, 68, 69, 70, 71, 72, 73, 74, 75, 76, 77, 78, 79, 80, 81, 82, 83, 84, 85, 86, 87, 88, 89, 90, 91, 92, 93, 94, 95, 96, 97, 98, 99, 100, 101, 102, 103, 104, 105, 106, 107, 108, 109, 110, 111, 112, 113, 114, 115, 116, 117, 118, 119, 120, 121, 122, 123, 124, 125, 126, 127, 128, 129, 130, 131, 132, 133, 134, 135, 136, 137, 138, 139, 140, 141, 142, 143, 144, 145, 146, 147, 148, 149, 150, 151, 152, 153, 154, 155, 156, 157, 158, 159, 160, 161, 162, 163, 164, 165, 166, 167, 168, 169, 170, 171, 172, 173, 174, 175, 176, 177, 178, 179, 180, 181, 182, 183, 184, 185, 186, 187, 188, 189, 190, 191, 192, 193, 194, 195, 196, 197, 198, 199, 200, 201, 202, 203, 204, 205, 206, 207, 208, 209, 210, 211, 212, 213, 214, 215, 216, 217, 218, 219, 220, 221, 222, 223, 224, 225, 226, 227, 228, 229, 230, 231, 232, 233, 234, 235, 236, 237, 238, 239, 240, 241, 242, 243, 244, 245, 246, 247, 248, 249, 250, 251, 252, 253, 254, 255, 256, 257, 258, 259, 260, 261, 262, 263, 264, 265, 266, 267, 268, 269, 270, 271, 272, 273, 274, 275, 276, 277, 278, 279, 280, 281, 282, 283, 284, 285, 286, 287, 288, 289, 290, 291, 292, 293, 294, 295, 296, 297, 298, 299, 300, 301, 302, 303, 304, 305, 306, 307, 308, 309, 310, 311, 312, 313, 314, 315, 316, 317, 318, 319, 320, 321, 322, 323, 324, 325, 326, 327, 328, 329, 330, 331, 332, 333, 334, 335, 336, 337, 338, 339, 340, 341, 342, 343, 344, 345, 346, 347, 348, 349, 350, 351, 352, 353, 354, 355, 356, 357, 358, 359, 360, 361, 362, 363, 364, 365, 366, 367, 368, 369, 370, 371, 372, 373, 374, 375, 376, 377, 378, 379, 380, 381, 382, 383, 384, 385, 386, 387, 388, 389, 390, 391, 392, 393, 394, 395, 396, 397, 398, 399, 400, 401, 402, 403, 404, 405, 406, 407, 408, 409, 410, 411, 412, 413, 414, 415, 416, 417, 418, 419, 420, 421, 422, 423, 424, 425, 426, 427, 428, 429, 430, 431, 432, 433, 434, 435, 436, 437, 438, 439, 440, 441, 442, 443, 444, 445, 446, 447, 448, 449, 450, 451, 452, 453, 454, 455, 456, 457, 458, 459, 460, 461, 462, 463, 464, 465, 466, 467, 468, 469, 470, 471, 472, 473, 474, 475, 476, 477, 478, 479, 480, 481, 482, 483, 484, 485, 486, 487, 488, 489, 490, 491, 492, 493, 494, 495, 496, 497, 498, 499, 500, 501, 502, 503, 504, 505, 506, 507, 508, 509, 510, 511, 512, 513, 514, 515, 516, 517, 518, 519, 520, 521, 522, 523, 524, 525, 526, 527, 528, 529, 530, 531, 532, 533, 534, 535, 536, 537, 538, 539, 540, 541, 542, 543, 544, 545, 546, 547, 548, 549, 550, 551, 552, 553, 554, 555, 556, 557, 558, 559, 560, 561, 562, 563, 564, 565, 566, 567, 568, 569, 570, 571, 572, 573, 574, 575, 576, 577, 578, 579, 580, 581, 582, 583, 584, 585, 586, 587, 588, 589, 590, 591, 592, 593, 594, 595, 596, 597, 598, 599, 600, 601, 602, 603, 604, 605, 606, 607, 608, 609, 610, 611, 612, 613, 614, 615, 616, 617, 618, 619, 620, 621, 622, 623, 624, 625, 626, 627, 628, 629, 630, 631, 632, 633, 634, 635, 636, 637, 638, 639, 640, 641, 642, 643, 644, 645, 646, 647, 648, 649, 650, 651, 652, 653, 654, 655, 656, 657, 658, 659, 660, 661, 662, 663, 664, 665, 666, 667, 668, 669, 670, 671, 672, 673, 674, 675, 676, 677, 678, 679, 680, 681, 682, 683, 684, 685, 686, 687, 688, 689, 690, 691, 692, 693, 694, 695, 696, 697, 698, 699, 700, 701, 702, 703, 704, 705, 706, 707, 708, 709, 710, 711, 712, 713, 714, 715, 716, 717, 718, 719, 720, 721, 722, 723, 724, 725, 726, 727, 728, 729, 730, 731, 732, 733, 734, 735, 736, 737, 738, 739, 740, 741, 742, 743, 744, 745, 746, 747, 748, 749, 750, 751, 752, 753, 754, 755, 756, 757, 758, 759, 760, 761, 762, 763, 764, 765, 766, 767, 768, 769, 770, 771, 772, 773, 774, 775, 776, 777, 778, 779, 780, 781, 782, 783, 784, 785, 786, 787, 788, 789, 790, 791, 792, 793, 794, 795, 796, 797, 798, 799, 800, 801, 802, 803, 804, 805, 806, 807, 808, 809, 810, 811, 812, 813, 814, 815, 816, 817, 818, 819, 820, 821, 822, 823, 824, 825, 826, 827, 828, 829, 830, 831, 832, 833, 834, 835, 836, 837, 838, 839, 840, 841, 842, 843, 844, 845, 846, 847, 848, 849, 850, 851, 852, 853, 854, 855, 856, 857, 858, 859, 860, 861, 862, 863, 864, 865, 866, 867, 868, 869, 870, 871, 872],
      "AcquisitionTime": ["153151.675000", "153152.135000", "153152.595000", "153153.055000", "153153.515000", "153153.975000", "153154.435000", "153154.895000", "153155.355000", "153155.815000", "153156.275000", "153156.735000", "153157.195000", "153157.655000", "153158.115000", "153158.575000", "153159.035000", "153159.495000", "153159.955000", "153200.415000", "153200.875000", "153201.335000", "153201.795000", "153202.255000", "153202.715000", "153203.175000", "153203.635000", "153204.095000", "153204.555000", "153205.015000", "153205.475000", "153205.935000", "153206.395000", "153206.855000", "153207.315000", "153207.775000", "153208.235000", "153208.695000", "153209.155000", "153209.615000", "153210.075000", "153210.535000", "153210.995000", "153211.455000", "153211.915000", "153212.375000", "153212.835000", "153213.295000", "153213.755000", "153214.215000", "153214.675000", "153215.135000", "153215.595000", "153216.055000", "153216.515000", "153216.975000", "153217.435000", "153217.895000", "153218.355000", "153218.815000", "153219.275000", "153219.735000", "153220.195000", "153220.655000", "153221.115000", "153221.575000", "153222.035000", "153222.495000", "153222.955000", "153223.415000", "153223.875000", "153224.335000", "153224.795000", "153225.255000", "153225.715000", "153226.175000", "153226.635000", "153227.095000", "153227.555000", "153228.015000", "153228.475000", "153228.935000", "153229.395000", "153229.855000", "153230.315000", "153230.775000", "153231.235000", "153231.695000", "153232.155000", "153232.615000", "153233.075000", "153233.535000", "153233.995000", "153234.455000", "153234.915000", "153235.375000", "153235.835000", "153236.295000", "153236.755000", "153237.215000", "153237.675000", "153238.135000", "153238.595000", "153239.055000", "153239.515000", "153239.975000", "153240.435000", "153240.895000", "153241.355000", "153241.815000", "153242.275000", "153242.735000", "153243.195000", "153243.655000", "153244.115000", "153244.575000", "153245.035000", "153245.495000", "153245.955000", "153246.415000", "153246.875000", "153247.335000", "153247.795000", "153248.255000", "153248.715000", "153249.175000", "153249.635000", "153250.095000", "153250.555000", "153251.015000", "153251.475000", "153251.935000", "153252.395000", "153252.855000", "153253.315000", "153253.775000", "153254.235000", "153254.695000", "153255.155000", "153255.615000", "153256.075000", "153256.535000", "153256.995000", "153257.455000", "153257.915000", "153258.375000", "153258.835000", "153259.295000", "153259.755000", "153300.215000", "153300.675000", "153301.135000", "153301.595000", "153302.055000", "153302.515000", "153302.975000", "153303.435000", "153303.895000", "153304.355000", "153304.815000", "153305.275000", "153305.735000", "153306.195000", "153306.655000", "153307.115000", "153307.575000", "153308.035000", "153308.495000", "153308.955000", "153309.415000", "153309.875000", "153310.335000", "153310.795000", "153311.255000", "153311.715000", "153312.175000", "153312.635000", "153313.095000", "153313.555000", "153314.015000", "153314.475000", "153314.935000", "153315.395000", "153315.855000", "153316.315000", "153316.775000", "153317.235000", "153317.695000", "153318.155000", "153318.615000", "153319.075000", "153319.535000", "153319.995000", "153320.455000", "153320.915000", "153321.375000", "153321.835000", "153322.295000", "153322.755000", "153323.215000", "153323.675000", "153324.135000", "153324.595000", "153325.055000", "153325.515000", "153325.975000", "153326.435000", "153326.895000", "153327.355000", "153327.815000", "153328.275000", "153328.735000", "153329.195000", "153329.655000", "153330.115000", "153330.575000", "153331.035000", "153331.495000", "153331.955000", "153332.415000", "153332.875000", "153333.335000", "153333.795000", "153334.255000", "153334.715000", "153335.175000", "153335.635000", "153336.095000", "153336.555000", "153337.015000", "153337.475000", "153337.935000", "153338.395000", "153338.855000", "153339.315000", "153339.775000", "153340.235000", "153340.695000", "153341.155000", "153341.615000", "153342.075000", "153342.535000", "153342.995000", "153343.455000", "153343.915000", "153344.375000", "153344.835000", "153345.295000", "153345.755000", "153346.215000", "153346.675000", "153347.135000", "153347.595000", "153348.055000", "153348.515000", "153348.975000", "153349.435000", "153349.895000", "153350.355000", "153350.815000", "153351.275000", "153351.735000", "153352.195000", "153352.655000", "153353.115000", "153353.575000", "153354.035000", "153354.495000", "153354.955000", "153355.415000", "153355.875000", "153356.335000", "153356.795000", "153357.255000", "153357.715000", "153358.175000", "153358.635000", "153359.095000", "153359.555000", "153400.015000", "153400.475000", "153400.935000", "153401.395000", "153401.855000", "153402.315000", "153402.775000", "153403.235000", "153403.695000", "153404.155000", "153404.615000", "153405.075000", "153405.535000", "153405.995000", "153406.455000", "153406.915000", "153407.375000", "153407.835000", "153408.295000", "153408.755000", "153409.215000", "153409.675000", "153410.135000", "153410.595000", "153411.055000", "153411.515000", "153411.975000", "153412.435000", "153412.895000", "153413.355000", "153413.815000", "153414.275000", "153414.735000", "153415.195000", "153415.655000", "153416.115000", "153416.575000", "153417.035000", "153417.495000", "153417.955000", "153418.415000", "153418.875000", "153419.335000", "153419.795000", "153420.255000", "153420.715000", "153421.175000", "153421.635000", "153422.095000", "153422.555000", "153423.015000", "153423.475000", "153423.935000", "153424.395000", "153424.855000", "153425.315000", "153425.775000", "153426.235000", "153426.695000", "153427.155000", "153427.615000", "153428.075000", "153428.535000", "153428.995000", "153429.455000", "153429.915000", "153430.375000", "153430.835000", "153431.295000", "153431.755000", "153432.215000", "153432.675000", "153433.135000", "153433.595000", "153434.055000", "153434.515000", "153434.975000", "153435.435000", "153435.895000", "153436.355000", "153436.815000", "153437.275000", "153437.735000", "153438.195000", "153438.655000", "153439.115000", "153439.575000", "153440.035000", "153440.495000", "153440.955000", "153441.415000", "153441.875000", "153442.335000", "153442.795000", "153443.255000", "153443.715000", "153444.175000", "153444.635000", "153445.095000", "153445.555000", "153446.015000", "153446.475000", "153446.935000", "153447.395000", "153447.855000", "153448.315000", "153448.775000", "153449.235000", "153449.695000", "153450.155000", "153450.615000", "153451.075000", "153451.535000", "153451.995000", "153452.455000", "153452.915000", "153453.375000", "153453.835000", "153454.295000", "153454.755000", "153455.215000", "153455.675000", "153456.135000", "153456.595000", "153457.055000", "153457.515000", "153457.975000", "153458.435000", "153458.895000", "153459.355000", "153459.815000", "153500.275000", "153500.735000", "153501.195000", "153501.655000", "153502.115000", "153502.575000", "153503.035000", "153503.495000", "153503.955000", "153504.415000", "153504.875000", "153505.335000", "153505.795000", "153506.255000", "153506.715000", "153507.175000", "153507.635000", "153508.095000", "153508.555000", "153509.015000", "153509.475000", "153509.935000", "153510.395000", "153510.855000", "153511.315000", "153511.775000", "153512.235000", "153512.695000", "153513.155000", "153513.615000", "153514.075000", "153514.535000", "153514.995000", "153515.455000", "153515.915000", "153516.375000", "153516.835000", "153517.295000", "153517.755000", "153518.215000", "153518.675000", "153519.135000", "153519.595000", "153520.055000", "153520.515000", "153520.975000", "153521.435000", "153521.895000", "153522.355000", "153522.815000", "153523.275000", "153523.735000", "153524.195000", "153524.655000", "153525.115000", "153525.575000", "153526.035000", "153526.495000", "153526.955000", "153527.415000", "153527.875000", "153528.335000", "153528.795000", "153529.255000", "153529.715000", "153530.175000", "153530.635000", "153531.095000", "153531.555000", "153532.015000", "153532.475000", "153532.935000", "153533.395000", "153533.855000", "153534.315000", "153534.775000", "153535.235000", "153535.695000", "153536.155000", "153536.615000", "153537.075000", "153537.535000", "153537.995000", "153538.455000", "153538.915000", "153539.375000", "153539.835000", "153540.295000", "153540.755000", "153541.215000", "153541.675000", "153542.135000", "153542.595000", "153543.055000", "153543.515000", "153543.975000", "153544.435000", "153544.895000", "153545.355000", "153545.815000", "153546.275000", "153546.735000", "153547.195000", "153547.655000", "153548.115000", "153548.575000", "153549.035000", "153549.495000", "153549.955000", "153550.415000", "153550.875000", "153551.335000", "153551.795000", "153552.255000", "153552.715000", "153553.175000", "153553.635000", "153554.095000", "153554.555000", "153555.015000", "153555.475000", "153555.935000", "153556.395000", "153556.855000", "153557.315000", "153557.775000", "153558.235000", "153558.695000", "153559.155000", "153559.615000", "153600.075000", "153600.535000", "153600.995000", "153601.455000", "153601.915000", "153602.375000", "153602.835000", "153603.295000", "153603.755000", "153604.215000", "153604.675000", "153605.135000", "153605.595000", "153606.055000", "153606.515000", "153606.975000", "153607.435000", "153607.895000", "153608.355000", "153608.815000", "153609.275000", "153609.735000", "153610.195000", "153610.655000", "153611.115000", "153611.575000", "153612.035000", "153612.495000", "153612.955000", "153613.415000", "153613.875000", "153614.335000", "153614.795000", "153615.255000", "153615.715000", "153616.175000", "153616.635000", "153617.095000", "153617.555000", "153618.015000", "153618.475000", "153618.935000", "153619.395000", "153619.855000", "153620.315000", "153620.775000", "153621.235000", "153621.695000", "153622.155000", "153622.615000", "153623.075000", "153623.535000", "153623.995000", "153624.455000", "153624.915000", "153625.375000", "153625.835000", "153626.295000", "153626.755000", "153627.215000", "153627.675000", "153628.135000", "153628.595000", "153629.055000", "153629.515000", "153629.975000", "153630.435000", "153630.895000", "153631.355000", "153631.815000", "153632.275000", "153632.735000", "153633.195000", "153633.655000", "153634.115000", "153634.575000", "153635.035000", "153635.495000", "153635.955000", "153636.415000", "153636.875000", "153637.335000", "153637.795000", "153638.255000", "153638.715000", "153639.175000", "153639.635000", "153640.095000", "153640.555000", "153641.015000", "153641.475000", "153641.935000", "153642.395000", "153642.855000", "153643.315000", "153643.775000", "153644.235000", "153644.695000", "153645.155000", "153645.615000", "153646.075000", "153646.535000", "153646.995000", "153647.455000", "153647.915000", "153648.375000", "153648.835000", "153649.295000", "153649.755000", "153650.215000", "153650.675000", "153651.135000", "153651.595000", "153652.055000", "153652.515000", "153652.975000", "153653.435000", "153653.895000", "153654.355000", "153654.815000", "153655.275000", "153655.735000", "153656.195000", "153656.655000", "153657.115000", "153657.575000", "153658.035000", "153658.495000", "153658.955000", "153659.415000", "153659.875000", "153700.335000", "153700.795000", "153701.255000", "153701.715000", "153702.175000", "153702.635000", "153703.095000", "153703.555000", "153704.015000", "153704.475000", "153704.935000", "153705.395000", "153705.855000", "153706.315000", "153706.775000", "153707.235000", "153707.695000", "153708.155000", "153708.615000", "153709.075000", "153709.535000", "153709.995000", "153710.455000", "153710.915000", "153711.375000", "153711.835000", "153712.295000", "153712.755000", "153713.215000", "153713.675000", "153714.135000", "153714.595000", "153715.055000", "153715.515000", "153715.975000", "153716.435000", "153716.895000", "153717.355000", "153717.815000", "153718.275000", "153718.735000", "153719.195000", "153719.655000", "153720.115000", "153720.575000", "153721.035000", "153721.495000", "153721.955000", "153722.415000", "153722.875000", "153723.335000", "153723.795000", "153724.255000", "153724.715000", "153725.175000", "153725.635000", "153726.095000", "153726.555000", "153727.015000", "153727.475000", "153727.935000", "153728.395000", "153728.855000", "153729.315000", "153729.775000", "153730.235000", "153730.695000", "153731.155000", "153731.615000", "153732.075000", "153732.535000", "153732.995000", "153733.455000", "153733.915000", "153734.375000", "153734.835000", "153735.295000", "153735.755000", "153736.215000", "153736.675000", "153737.135000", "153737.595000", "153738.055000", "153738.515000", "153738.975000", "153739.435000", "153739.895000", "153740.355000", "153740.815000", "153741.275000", "153741.735000", "153742.195000", "153742.655000", "153743.115000", "153743.575000", "153744.035000", "153744.495000", "153744.955000", "153745.415000", "153745.875000", "153746.335000", "153746.795000", "153747.255000", "153747.715000", "153748.175000", "153748.635000", "153749.095000", "153749.555000", "153750.015000", "153750.475000", "153750.935000", "153751.395000", "153751.855000", "153752.315000", "153752.775000", "153753.235000", "153753.695000", "153754.155000", "153754.615000", "153755.075000", "153755.535000", "153755.995000", "153756.455000", "153756.915000", "153757.375000", "153757.835000", "153758.295000", "153758.755000", "153759.215000", "153759.675000", "153800.135000", "153800.595000", "153801.055000", "153801.515000", "153801.975000", "153802.435000", "153802.895000", "153803.355000", "153803.815000", "153804.275000", "153804.735000", "153805.195000", "153805.655000", "153806.115000", "153806.575000", "153807.035000", "153807.495000", "153807.955000", "153808.415000", "153808.875000", "153809.335000", "153809.795000", "153810.255000", "153810.715000", "153811.175000", "153811.635000", "153812.095000", "153812.555000", "153813.015000", "153813.475000", "153813.935000", "153814.395000", "153814.855000", "153815.315000", "153815.775000", "153816.235000", "153816.695000", "153817.155000", "153817.615000", "153818.075000", "153818.535000", "153818.995000", "153819.455000", "153819.915000", "153820.375000", "153820.835000", "153821.295000", "153821.755000", "153822.215000", "153822.675000", "153823.135000", "153823.595000", "153824.055000", "153824.515000", "153824.975000", "153825.435000", "153825.895000", "153826.355000", "153826.815000", "153827.275000", "153827.735000", "153828.195000", "153828.655000", "153829.115000", "153829.575000", "153830.035000", "153830.495000", "153830.955000", "153831.415000", "153831.875000", "153832.335000"],
