{
  "AcquisitionMatrixPE": 82,
  "AcquisitionNumber": 1,
  "AcquisitionTime": "20:35:44.272500",
  "BandwidthPerPixelPhaseEncode": 24.888,
  "BaseResolution": 82,
  "BodyPartExamined": "BRAIN",
  "ConsistencyInfo": "N4_VE11E_LATEST_20181129",
  "ConversionSoftware": "dcm2niix",
  "ConversionSoftwareVersion": "v1.0.20201102",
  "DerivedVendorReportedEchoSpacing": 0.00049,
  "DeviceSerialNumber": "66112",
  "DwellTime": 2e-06,
  "EchoTime": 0.0272,
  "EchoTrainLength": 82,
  "EffectiveEchoSpacing": 0.00049,
  "FlipAngle": 44,
  "ImageComments": "Unaliased MB8/PE3",
  "ImageOrientationPatientDICOM": [0.994328, -0.0833696, 0.0660436, 0.0787792, 0.99448, 0.0693042],
  "ImageType": [
    "ORIGINAL",
    "PRIMARY",
    "M",
    "MB",
    "ND",
    "NORM",
    "MOSAIC"
],
  "ImagingFrequency": 123.252,
  "InPlanePhaseEncodingDirectionDICOM": "COL",
  "InstitutionAddress": "Maynard 3,Hanover,NH,US,03755",
  "InstitutionName": "Dartmouth College - PBS",
  "InstitutionalDepartmentName": "Department",
  "MRAcquisitionType": "2D",
  "MagneticFieldStrength": 3,
  "Manufacturer": "Siemens",
  "ManufacturersModelName": "Prisma",
  "Modality": "MR",
  "MultibandAccelerationFactor": 8,
  "PartialFourier": 1,
  "PatientPosition": "HFS",
  "PercentPhaseFOV": 100,
  "PercentSampling": 100,
  "PhaseEncodingDirection": "j-",
  "PhaseEncodingSteps": 82,
  "PhaseResolution": 1,
  "PixelBandwidth": 3050,
  "ProcedureStepDescription": "Wager_Wager^1076_spacetop",
  "ProtocolName": "func_run-04_task-alignvideo_acq-ap-mb8",
  "PulseSequenceDetails": "%CustomerSeq%\\cmrr_mbep2d_bold",
  "ReceiveCoilActiveElements": "HEA;HEP",
  "ReceiveCoilName": "Head_32",
  "ReconMatrixPE": 82,
  "RepetitionTime": 0.46,
  "SAR": 0.0972289,
  "ScanOptions": "FS",
  "ScanningSequence": "EP",
  "SequenceName": "epfid2d1_82",
  "SequenceVariant": "SK\\SS",
  "SeriesDescription": "func_run-04_task-alignvideo_acq-ap-mb8",
  "SeriesNumber": 36,
  "ShimSetting": [4149, -7765, -7215, 631, -135, -238, -41, 61],
  "SliceThickness": 2.7,
  "SliceTiming": [0, 0.2525, 0.0625, 0.315, 0.125, 0.3775, 0.1875, 0, 0.2525, 0.0625, 0.315, 0.125, 0.3775, 0.1875, 0, 0.2525, 0.0625, 0.315, 0.125, 0.3775, 0.1875, 0, 0.2525, 0.0625, 0.315, 0.125, 0.3775, 0.1875, 0, 0.2525, 0.0625, 0.315, 0.125, 0.3775, 0.1875, 0, 0.2525, 0.0625, 0.315, 0.125, 0.3775, 0.1875, 0, 0.2525, 0.0625, 0.315, 0.125, 0.3775, 0.1875, 0, 0.2525, 0.0625, 0.315, 0.125, 0.3775, 0.1875],
  "SoftwareVersions": "syngo MR E11",
  "SpacingBetweenSlices": 2.7,
  "StationName": "AWP66112",
  "TaskName": "alignvideo",
  "TotalReadoutTime": 0.03969,
  "TxRefAmp": 230.061,
  "WipMemBlock": "0f367b9e-b712-4a6c-9b08-c4d87cb8e416||Sequence: R016 ve11e/master r/434b28f1; Aug  7 2019 18:53:46 by eja",
  "dcmmeta_affine": [
    [-2.6677088737487793, 0.21135880053043365, 0.19293372333049774, 99.10676574707031],
    [0.22367459535598755, 2.6681175231933594, 0.17201223969459534, -110.07281494140625],
    [0.17719019949436188, -0.18593811988830566, 2.687598943710327, -53.27225875854492],
    [0.0, 0.0, 0.0, 1.0]
],
  "dcmmeta_reorient_transform": [
    [0.0, -1.0, 0.0, 81.0],
    [1.0, 0.0, 0.0, 0.0],
    [0.0, 0.0, 1.0, 0.0],
    [0.0, 0.0, 0.0, 1.0]
],
  "dcmmeta_shape": [82, 82, 56, 914],
  "dcmmeta_slice_dim": 2,
  "dcmmeta_version": 0.6,
  "global": {
    "const": {
      "AccessionNumber": "A004039",
      "AcquisitionMatrix": [82, 0, 0, 82],
      "AngioFlag": "N",
      "BitsAllocated": 16,
      "BitsStored": 16,
      "BodyPartExamined": "BRAIN",
      "Columns": 656,
      "EchoNumbers": 1,
      "EchoTime": 27.2,
      "EchoTrainLength": 82,
      "FlipAngle": 44.0,
      "HighBit": 15,
      "ImageOrientationPatient": [0.99432778642198, -0.0833696219453, 0.06604361654136, 0.07877918612196, 0.99448014915183, 0.0693042046121],
      "ImagePositionPatient": [-942.51921754314, -807.59982667869, -172.55106989079],
      "ImageType": [
        "ORIGINAL",
        "PRIMARY",
        "M",
        "MB",
        "ND",
        "NORM",
        "MOSAIC"
],
      "ImagedNucleus": "1H",
      "ImagingFrequency": 123.252184,
      "InPlanePhaseEncodingDirection": "COL",
      "MRAcquisitionType": "2D",
      "MagneticFieldStrength": 3.0,
      "Manufacturer": "SIEMENS",
      "ManufacturerModelName": "Prisma",
      "Modality": "MR",
      "NumberOfAverages": 1.0,
      "NumberOfPhaseEncodingSteps": 82,
      "PercentPhaseFieldOfView": 100.0,
      "PercentSampling": 100.0,
      "PerformedProcedureStepStartTime": "182704.420000",
      "PhotometricInterpretation": "MONOCHROME2",
      "PixelBandwidth": 3050.0,
      "PixelRepresentation": 0,
      "PixelSpacing": [2.6829268932343, 2.6829268932343],
      "ProtocolName": "func_run-04_task-alignvideo_acq-ap-mb8",
      "RepetitionTime": 460.0,
      "Rows": 656,
      "SAR": 0.09722891784601,
      "SamplesPerPixel": 1,
      "ScanOptions": "FS",
      "ScanningSequence": "EP",
      "SequenceName": "epfid2d1_82",
      "SequenceVariant": [
        "SK",
        "SS"
],
      "SeriesDescription": "func_run-04_task-alignvideo_acq-ap-mb8",
      "SeriesNumber": 36,
      "SeriesTime": "203556.501000",
      "SliceLocation": -52.95825969184,
      "SliceThickness": 2.7000000476837,
      "SmallestImagePixelValue": 0,
      "SoftwareVersions": "syngo MR E11",
      "SpacingBetweenSlices": 2.7000000429224,
      "SpecificCharacterSet": "ISO_IR 100",
      "StudyID": "2",
      "StudyTime": "182704.348000",
      "TransmitCoilName": "Body",
      "VariableFlipAngleFlag": "N",
      "WindowCenterWidthExplanation": "Algo1"
    },
    "slices": {}
  },
  "time": {
    "samples": {
      "AcquisitionNumber": [1, 2, 3, 4, 5, 6, 7, 8, 9, 10, 11, 12, 13, 14, 15, 16, 17, 18, 19, 20, 21, 22, 23, 24, 25, 26, 27, 28, 29, 30, 31, 32, 33, 34, 35, 36, 37, 38, 39, 40, 41, 42, 43, 44, 45, 46, 47, 48, 49, 50, 51, 52, 53, 54, 55, 56, 57, 58, 59, 60, 61, 62, 63, 64, 65, 66, 67, 68, 69, 70, 71, 72, 73, 74, 75, 76, 77, 78, 79, 80, 81, 82, 83, 84, 85, 86, 87, 88, 89, 90, 91, 92, 93, 94, 95, 96, 97, 98, 99, 100, 101, 102, 103, 104, 105, 106, 107, 108, 109, 110, 111, 112, 113, 114, 115, 116, 117, 118, 119, 120, 121, 122, 123, 124, 125, 126, 127, 128, 129, 130, 131, 132, 133, 134, 135, 136, 137, 138, 139, 140, 141, 142, 143, 144, 145, 146, 147, 148, 149, 150, 151, 152, 153, 154, 155, 156, 157, 158, 159, 160, 161, 162, 163, 164, 165, 166, 167, 168, 169, 170, 171, 172, 173, 174, 175, 176, 177, 178, 179, 180, 181, 182, 183, 184, 185, 186, 187, 188, 189, 190, 191, 192, 193, 194, 195, 196, 197, 198, 199, 200, 201, 202, 203, 204, 205, 206, 207, 208, 209, 210, 211, 212, 213, 214, 215, 216, 217, 218, 219, 220, 221, 222, 223, 224, 225, 226, 227, 228, 229, 230, 231, 232, 233, 234, 235, 236, 237, 238, 239, 240, 241, 242, 243, 244, 245, 246, 247, 248, 249, 250, 251, 252, 253, 254, 255, 256, 257, 258, 259, 260, 261, 262, 263, 264, 265, 266, 267, 268, 269, 270, 271, 272, 273, 274, 275, 276, 277, 278, 279, 280, 281, 282, 283, 284, 285, 286, 287, 288, 289, 290, 291, 292, 293, 294, 295, 296, 297, 298, 299, 300, 301, 302, 303, 304, 305, 306, 307, 308, 309, 310, 311, 312, 313, 314, 315, 316, 317, 318, 319, 320, 321, 322, 323, 324, 325, 326, 327, 328, 329, 330, 331, 332, 333, 334, 335, 336, 337, 338, 339, 340, 341, 342, 343, 344, 345, 346, 347, 348, 349, 350, 351, 352, 353, 354, 355, 356, 357, 358, 359, 360, 361, 362, 363, 364, 365, 366, 367, 368, 369, 370, 371, 372, 373, 374, 375, 376, 377, 378, 379, 380, 381, 382, 383, 384, 385, 386, 387, 388, 389, 390, 391, 392, 393, 394, 395, 396, 397, 398, 399, 400, 401, 402, 403, 404, 405, 406, 407, 408, 409, 410, 411, 412, 413, 414, 415, 416, 417, 418, 419, 420, 421, 422, 423, 424, 425, 426, 427, 428, 429, 430, 431, 432, 433, 434, 435, 436, 437, 438, 439, 440, 441, 442, 443, 444, 445, 446, 447, 448, 449, 450, 451, 452, 453, 454, 455, 456, 457, 458, 459, 460, 461, 462, 463, 464, 465, 466, 467, 468, 469, 470, 471, 472, 473, 474, 475, 476, 477, 478, 479, 480, 481, 482, 483, 484, 485, 486, 487, 488, 489, 490, 491, 492, 493, 494, 495, 496, 497, 498, 499, 500, 501, 502, 503, 504, 505, 506, 507, 508, 509, 510, 511, 512, 513, 514, 515, 516, 517, 518, 519, 520, 521, 522, 523, 524, 525, 526, 527, 528, 529, 530, 531, 532, 533, 534, 535, 536, 537, 538, 539, 540, 541, 542, 543, 544, 545, 546, 547, 548, 549, 550, 551, 552, 553, 554, 555, 556, 557, 558, 559, 560, 561, 562, 563, 564, 565, 566, 567, 568, 569, 570, 571, 572, 573, 574, 575, 576, 577, 578, 579, 580, 581, 582, 583, 584, 585, 586, 587, 588, 589, 590, 591, 592, 593, 594, 595, 596, 597, 598, 599, 600, 601, 602, 603, 604, 605, 606, 607, 608, 609, 610, 611, 612, 613, 614, 615, 616, 617, 618, 619, 620, 621, 622, 623, 624, 625, 626, 627, 628, 629, 630, 631, 632, 633, 634, 635, 636, 637, 638, 639, 640, 641, 642, 643, 644, 645, 646, 647, 648, 649, 650, 651, 652, 653, 654, 655, 656, 657, 658, 659, 660, 661, 662, 663, 664, 665, 666, 667, 668, 669, 670, 671, 672, 673, 674, 675, 676, 677, 678, 679, 680, 681, 682, 683, 684, 685, 686, 687, 688, 689, 690, 691, 692, 693, 694, 695, 696, 697, 698, 699, 700, 701, 702, 703, 704, 705, 706, 707, 708, 709, 710, 711, 712, 713, 714, 715, 716, 717, 718, 719, 720, 721, 722, 723, 724, 725, 726, 727, 728, 729, 730, 731, 732, 733, 734, 735, 736, 737, 738, 739, 740, 741, 742, 743, 744, 745, 746, 747, 748, 749, 750, 751, 752, 753, 754, 755, 756, 757, 758, 759, 760, 761, 762, 763, 764, 765, 766, 767, 768, 769, 770, 771, 772, 773, 774, 775, 776, 777, 778, 779, 780, 781, 782, 783, 784, 785, 786, 787, 788, 789, 790, 791, 792, 793, 794, 795, 796, 797, 798, 799, 800, 801, 802, 803, 804, 805, 806, 807, 808, 809, 810, 811, 812, 813, 814, 815, 816, 817, 818, 819, 820, 821, 822, 823, 824, 825, 826, 827, 828, 829, 830, 831, 832, 833, 834, 835, 836, 837, 838, 839, 840, 841, 842, 843, 844, 845, 846, 847, 848, 849, 850, 851, 852, 853, 854, 855, 856, 857, 858, 859, 860, 861, 862, 863, 864, 865, 866, 867, 868, 869, 870, 871, 872, 873, 874, 875, 876, 877, 878, 879, 880, 881, 882, 883, 884, 885, 886, 887, 888, 889, 890, 891, 892, 893, 894, 895, 896, 897, 898, 899, 900, 901, 902, 903, 904, 905, 906, 907, 908, 909, 910, 911, 912, 913, 914],
      "AcquisitionTime": ["203544.272500", "203544.732500", "203545.192500", "203545.652500", "203546.112500", "203546.572500", "203547.032500", "203547.492500", "203547.952500", "203548.412500", "203548.872500", "203549.332500", "203549.792500", "203550.252500", "203550.712500", "203551.172500", "203551.632500", "203552.092500", "203552.552500", "203553.012500", "203553.472500", "203553.932500", "203554.392500", "203554.852500", "203555.312500", "203555.772500", "203556.232500", "203556.692500", "203557.152500", "203557.612500", "203558.072500", "203558.532500", "203558.992500", "203559.452500", "203559.912500", "203600.372500", "203600.832500", "203601.292500", "203601.752500", "203602.212500", "203602.672500", "203603.132500", "203603.592500", "203604.052500", "203604.512500", "203604.972500", "203605.432500", "203605.892500", "203606.352500", "203606.812500", "203607.272500", "203607.732500", "203608.192500", "203608.652500", "203609.112500", "203609.572500", "203610.032500", "203610.492500", "203610.952500", "203611.412500", "203611.872500", "203612.332500", "203612.792500", "203613.252500", "203613.712500", "203614.172500", "203614.632500", "203615.092500", "203615.552500", "203616.012500", "203616.472500", "203616.932500", "203617.392500", "203617.852500", "203618.312500", "203618.772500", "203619.232500", "203619.692500", "203620.152500", "203620.612500", "203621.072500", "203621.532500", "203621.992500", "203622.452500", "203622.912500", "203623.372500", "203623.832500", "203624.292500", "203624.752500", "203625.212500", "203625.672500", "203626.132500", "203626.592500", "203627.052500", "203627.512500", "203627.972500", "203628.432500", "203628.892500", "203629.352500", "203629.812500", "203630.272500", "203630.732500", "203631.192500", "203631.652500", "203632.112500", "203632.572500", "203633.032500", "203633.492500", "203633.952500", "203634.412500", "203634.872500", "203635.332500", "203635.792500", "203636.252500", "203636.712500", "203637.172500", "203637.632500", "203638.092500", "203638.552500", "203639.012500", "203639.472500", "203639.932500", "203640.392500", "203640.852500", "203641.312500", "203641.772500", "203642.232500", "203642.692500", "203643.152500", "203643.612500", "203644.072500", "203644.532500", "203644.992500", "203645.452500", "203645.912500", "203646.372500", "203646.832500", "203647.292500", "203647.752500", "203648.212500", "203648.672500", "203649.132500", "203649.592500", "203650.052500", "203650.512500", "203650.972500", "203651.432500", "203651.892500", "203652.352500", "203652.812500", "203653.272500", "203653.732500", "203654.192500", "203654.652500", "203655.112500", "203655.572500", "203656.032500", "203656.492500", "203656.952500", "203657.412500", "203657.872500", "203658.332500", "203658.792500", "203659.252500", "203659.712500", "203700.172500", "203700.632500", "203701.092500", "203701.552500", "203702.012500", "203702.472500", "203702.932500", "203703.392500", "203703.852500", "203704.312500", "203704.772500", "203705.232500", "203705.692500", "203706.152500", "203706.612500", "203707.072500", "203707.532500", "203707.992500", "203708.452500", "203708.912500", "203709.372500", "203709.832500", "203710.292500", "203710.752500", "203711.212500", "203711.672500", "203712.132500", "203712.592500", "203713.052500", "203713.512500", "203713.972500", "203714.432500", "203714.892500", "203715.352500", "203715.812500", "203716.272500", "203716.732500", "203717.192500", "203717.652500", "203718.112500", "203718.572500", "203719.032500", "203719.492500", "203719.952500", "203720.412500", "203720.872500", "203721.332500", "203721.792500", "203722.252500", "203722.712500", "203723.172500", "203723.632500", "203724.092500", "203724.552500", "203725.012500", "203725.472500", "203725.932500", "203726.392500", "203726.852500", "203727.312500", "203727.772500", "203728.232500", "203728.692500", "203729.152500", "203729.612500", "203730.072500", "203730.532500", "203730.992500", "203731.452500", "203731.912500", "203732.372500", "203732.832500", "203733.292500", "203733.752500", "203734.212500", "203734.672500", "203735.132500", "203735.592500", "203736.052500", "203736.512500", "203736.972500", "203737.432500", "203737.892500", "203738.352500", "203738.812500", "203739.272500", "203739.732500", "203740.192500", "203740.652500", "203741.112500", "203741.572500", "203742.032500", "203742.492500", "203742.952500", "203743.412500", "203743.872500", "203744.332500", "203744.792500", "203745.252500", "203745.712500", "203746.172500", "203746.632500", "203747.092500", "203747.552500", "203748.012500", "203748.472500", "203748.932500", "203749.392500", "203749.852500", "203750.312500", "203750.772500", "203751.232500", "203751.692500", "203752.152500", "203752.612500", "203753.072500", "203753.532500", "203753.992500", "203754.452500", "203754.912500", "203755.372500", "203755.832500", "203756.292500", "203756.752500", "203757.212500", "203757.672500", "203758.132500", "203758.592500", "203759.052500", "203759.512500", "203759.972500", "203800.432500", "203800.892500", "203801.352500", "203801.812500", "203802.272500", "203802.732500", "203803.192500", "203803.652500", "203804.112500", "203804.572500", "203805.032500", "203805.492500", "203805.952500", "203806.412500", "203806.872500", "203807.332500", "203807.792500", "203808.252500", "203808.712500", "203809.172500", "203809.632500", "203810.092500", "203810.552500", "203811.012500", "203811.472500", "203811.932500", "203812.392500", "203812.852500", "203813.312500", "203813.772500", "203814.232500", "203814.692500", "203815.152500", "203815.612500", "203816.072500", "203816.532500", "203816.992500", "203817.452500", "203817.912500", "203818.372500", "203818.832500", "203819.292500", "203819.752500", "203820.212500", "203820.672500", "203821.132500", "203821.592500", "203822.052500", "203822.512500", "203822.972500", "203823.432500", "203823.892500", "203824.352500", "203824.812500", "203825.272500", "203825.732500", "203826.192500", "203826.652500", "203827.112500", "203827.572500", "203828.032500", "203828.492500", "203828.952500", "203829.412500", "203829.872500", "203830.332500", "203830.792500", "203831.252500", "203831.712500", "203832.172500", "203832.632500", "203833.092500", "203833.552500", "203834.012500", "203834.472500", "203834.932500", "203835.392500", "203835.852500", "203836.312500", "203836.772500", "203837.232500", "203837.692500", "203838.152500", "203838.612500", "203839.072500", "203839.532500", "203839.992500", "203840.452500", "203840.912500", "203841.372500", "203841.832500", "203842.292500", "203842.752500", "203843.212500", "203843.672500", "203844.132500", "203844.592500", "203845.052500", "203845.512500", "203845.972500", "203846.432500", "203846.892500", "203847.352500", "203847.812500", "203848.272500", "203848.732500", "203849.192500", "203849.652500", "203850.112500", "203850.572500", "203851.032500", "203851.492500", "203851.952500", "203852.412500", "203852.872500", "203853.332500", "203853.792500", "203854.252500", "203854.712500", "203855.172500", "203855.632500", "203856.092500", "203856.552500", "203857.012500", "203857.472500", "203857.932500", "203858.392500", "203858.852500", "203859.312500", "203859.772500", "203900.232500", "203900.692500", "203901.152500", "203901.612500", "203902.072500", "203902.532500", "203902.992500", "203903.452500", "203903.912500", "203904.372500", "203904.832500", "203905.292500", "203905.752500", "203906.212500", "203906.672500", "203907.132500", "203907.592500", "203908.052500", "203908.512500", "203908.972500", "203909.432500", "203909.892500", "203910.352500", "203910.812500", "203911.272500", "203911.732500", "203912.192500", "203912.652500", "203913.112500", "203913.572500", "203914.032500", "203914.492500", "203914.952500", "203915.412500", "203915.872500", "203916.332500", "203916.792500", "203917.252500", "203917.712500", "203918.172500", "203918.632500", "203919.092500", "203919.552500", "203920.012500", "203920.472500", "203920.932500", "203921.392500", "203921.852500", "203922.312500", "203922.772500", "203923.232500", "203923.692500", "203924.152500", "203924.612500", "203925.072500", "203925.532500", "203925.992500", "203926.452500", "203926.912500", "203927.372500", "203927.832500", "203928.292500", "203928.752500", "203929.212500", "203929.672500", "203930.132500", "203930.592500", "203931.052500", "203931.512500", "203931.972500", "203932.432500", "203932.892500", "203933.352500", "203933.812500", "203934.272500", "203934.732500", "203935.192500", "203935.652500", "203936.112500", "203936.572500", "203937.032500", "203937.492500", "203937.952500", "203938.412500", "203938.872500", "203939.332500", "203939.792500", "203940.252500", "203940.712500", "203941.172500", "203941.632500", "203942.092500", "203942.552500", "203943.012500", "203943.472500", "203943.932500", "203944.392500", "203944.852500", "203945.312500", "203945.772500", "203946.232500", "203946.692500", "203947.152500", "203947.612500", "203948.072500", "203948.532500", "203948.992500", "203949.452500", "203949.912500", "203950.372500", "203950.832500", "203951.292500", "203951.752500", "203952.212500", "203952.672500", "203953.132500", "203953.592500", "203954.052500", "203954.512500", "203954.972500", "203955.432500", "203955.892500", "203956.352500", "203956.812500", "203957.272500", "203957.732500", "203958.192500", "203958.652500", "203959.112500", "203959.572500", "204000.032500", "204000.492500", "204000.952500", "204001.412500", "204001.872500", "204002.332500", "204002.792500", "204003.252500", "204003.712500", "204004.172500", "204004.632500", "204005.092500", "204005.552500", "204006.012500", "204006.472500", "204006.932500", "204007.392500", "204007.852500", "204008.312500", "204008.772500", "204009.232500", "204009.692500", "204010.152500", "204010.612500", "204011.072500", "204011.532500", "204011.992500", "204012.452500", "204012.912500", "204013.372500", "204013.832500", "204014.292500", "204014.752500", "204015.212500", "204015.672500", "204016.132500", "204016.592500", "204017.052500", "204017.512500", "204017.972500", "204018.432500", "204018.892500", "204019.352500", "204019.812500", "204020.272500", "204020.732500", "204021.192500", "204021.652500", "204022.112500", "204022.572500", "204023.032500", "204023.492500", "204023.952500", "204024.412500", "204024.872500", "204025.332500", "204025.792500", "204026.252500", "204026.712500", "204027.172500", "204027.632500", "204028.092500", "204028.552500", "204029.012500", "204029.472500", "204029.932500", "204030.392500", "204030.852500", "204031.312500", "204031.772500", "204032.232500", "204032.692500", "204033.152500", "204033.612500", "204034.072500", "204034.532500", "204034.992500", "204035.452500", "204035.912500", "204036.372500", "204036.832500", "204037.292500", "204037.752500", "204038.212500", "204038.672500", "204039.132500", "204039.592500", "204040.052500", "204040.512500", "204040.972500", "204041.432500", "204041.892500", "204042.352500", "204042.812500", "204043.272500", "204043.732500", "204044.192500", "204044.652500", "204045.112500", "204045.572500", "204046.032500", "204046.492500", "204046.952500", "204047.412500", "204047.872500", "204048.332500", "204048.792500", "204049.252500", "204049.712500", "204050.172500", "204050.632500", "204051.092500", "204051.552500", "204052.012500", "204052.472500", "204052.932500", "204053.392500", "204053.852500", "204054.312500", "204054.772500", "204055.232500", "204055.692500", "204056.152500", "204056.612500", "204057.072500", "204057.532500", "204057.992500", "204058.452500", "204058.912500", "204059.372500", "204059.832500", "204100.292500", "204100.752500", "204101.212500", "204101.672500", "204102.132500", "204102.592500", "204103.052500", "204103.512500", "204103.972500", "204104.432500", "204104.892500", "204105.352500", "204105.812500", "204106.272500", "204106.732500", "204107.192500", "204107.652500", "204108.112500", "204108.572500", "204109.032500", "204109.492500", "204109.952500", "204110.412500", "204110.872500", "204111.332500", "204111.792500", "204112.252500", "204112.712500", "204113.172500", "204113.632500", "204114.092500", "204114.552500", "204115.012500", "204115.472500", "204115.932500", "204116.392500", "204116.852500", "204117.312500", "204117.772500", "204118.232500", "204118.692500", "204119.152500", "204119.612500", "204120.072500", "204120.532500", "204120.992500", "204121.452500", "204121.912500", "204122.372500", "204122.832500", "204123.292500", "204123.752500", "204124.212500", "204124.672500", "204125.132500", "204125.592500", "204126.052500", "204126.512500", "204126.972500", "204127.432500", "204127.892500", "204128.352500", "204128.812500", "204129.272500", "204129.732500", "204130.192500", "204130.652500", "204131.112500", "204131.572500", "204132.032500", "204132.492500", "204132.952500", "204133.412500", "204133.872500", "204134.332500", "204134.792500", "204135.252500", "204135.712500", "204136.172500", "204136.632500", "204137.092500", "204137.552500", "204138.012500", "204138.472500", "204138.932500", "204139.392500", "204139.852500", "204140.312500", "204140.772500", "204141.232500", "204141.692500", "204142.152500", "204142.612500", "204143.072500", "204143.532500", "204143.992500", "204144.452500", "204144.912500", "204145.372500", "204145.832500", "204146.292500", "204146.752500", "204147.212500", "204147.672500", "204148.132500", "204148.592500", "204149.052500", "204149.512500", "204149.972500", "204150.432500", "204150.892500", "204151.352500", "204151.812500", "204152.272500", "204152.732500", "204153.192500", "204153.652500", "204154.112500", "204154.572500", "204155.032500", "204155.492500", "204155.952500", "204156.412500", "204156.872500", "204157.332500", "204157.792500", "204158.252500", "204158.712500", "204159.172500", "204159.632500", "204200.092500", "204200.552500", "204201.012500", "204201.472500", "204201.932500", "204202.392500", "204202.852500", "204203.312500", "204203.772500", "204204.232500", "204204.692500", "204205.152500", "204205.612500", "204206.072500", "204206.532500", "204206.992500", "204207.452500", "204207.912500", "204208.372500", "204208.832500", "204209.292500", "204209.752500", "204210.212500", "204210.672500", "204211.132500", "204211.592500", "204212.052500", "204212.512500", "204212.972500", "204213.432500", "204213.892500", "204214.352500", "204214.812500", "204215.272500", "204215.732500", "204216.192500", "204216.652500", "204217.112500", "204217.572500", "204218.032500", "204218.492500", "204218.952500", "204219.412500", "204219.872500", "204220.332500", "204220.792500", "204221.252500", "204221.712500", "204222.172500", "204222.632500", "204223.092500", "204223.552500", "204224.012500", "204224.472500", "204224.932500", "204225.392500", "204225.852500", "204226.312500", "204226.772500", "204227.232500", "204227.692500", "204228.152500", "204228.612500", "204229.072500", "204229.532500", "204229.992500", "204230.452500", "204230.912500", "204231.372500", "204231.832500", "204232.292500", "204232.752500", "204233.212500", "204233.672500", "204234.132500", "204234.592500", "204235.052500", "204235.512500", "204235.972500", "204236.432500", "204236.892500", "204237.352500", "204237.812500", "204238.272500", "204238.732500", "204239.192500", "204239.652500", "204240.112500", "204240.572500", "204241.032500", "204241.492500", "204241.952500", "204242.412500", "204242.872500", "204243.332500", "204243.792500", "204244.252500"],
