{
  "AcquisitionMatrixPE": 82,
  "AcquisitionNumber": 1,
  "AcquisitionTime": "19:05:36.510000",
  "BandwidthPerPixelPhaseEncode": 24.888,
  "BaseResolution": 82,
  "BodyPartExamined": "BRAIN",
  "ConsistencyInfo": "N4_VE11E_LATEST_20181129",
  "ConversionSoftware": "dcm2niix",
  "ConversionSoftwareVersion": "v1.0.20201102",
  "DerivedVendorReportedEchoSpacing": 0.00049,
  "DeviceSerialNumber": "66112",
  "DwellTime": 2e-06,
  "EchoTime": 0.0272,
  "EchoTrainLength": 82,
  "EffectiveEchoSpacing": 0.00049,
  "FlipAngle": 44,
  "ImageComments": "Unaliased MB8/PE3",
  "ImageOrientationPatientDICOM": [0.991435, -0.0949516, 0.0896682, 0.0827304, 0.987877, 0.131359],
  "ImageType": [
    "ORIGINAL",
    "PRIMARY",
    "M",
    "MB",
    "ND",
    "NORM",
    "MOSAIC"
],
  "ImagingFrequency": 123.252,
  "InPlanePhaseEncodingDirectionDICOM": "COL",
  "InstitutionAddress": "Maynard 3,Hanover,NH,US,03755",
  "InstitutionName": "Dartmouth College - PBS",
  "InstitutionalDepartmentName": "Department",
  "MRAcquisitionType": "2D",
  "MagneticFieldStrength": 3,
  "Manufacturer": "Siemens",
  "ManufacturersModelName": "Prisma",
  "Modality": "MR",
  "MultibandAccelerationFactor": 8,
  "PartialFourier": 1,
  "PatientPosition": "HFS",
  "PercentPhaseFOV": 100,
  "PercentSampling": 100,
  "PhaseEncodingDirection": "j-",
  "PhaseEncodingSteps": 82,
  "PhaseResolution": 1,
  "PixelBandwidth": 3050,
  "ProcedureStepDescription": "Wager_Wager^1076_spacetop",
  "ProtocolName": "func_run-02_task-narratives_acq-ap-mb8",
  "PulseSequenceDetails": "%CustomerSeq%\\cmrr_mbep2d_bold",
  "ReceiveCoilActiveElements": "HEA;HEP",
  "ReceiveCoilName": "Head_32",
  "ReconMatrixPE": 82,
  "RepetitionTime": 0.46,
  "SAR": 0.0973258,
  "ScanOptions": "FS",
  "ScanningSequence": "EP",
  "SequenceName": "epfid2d1_82",
  "SequenceVariant": "SK\\SS",
  "SeriesDescription": "func_run-02_task-narratives_acq-ap-mb8",
  "SeriesNumber": 10,
  "ShimSetting": [4149, -7764, -7220, 615, -135, -238, -38, 63],
  "SliceThickness": 2.7,
  "SliceTiming": [0, 0.2525, 0.0625, 0.315, 0.1275, 0.3775, 0.19, 0, 0.2525, 0.0625, 0.315, 0.1275, 0.3775, 0.19, 0, 0.2525, 0.0625, 0.315, 0.1275, 0.3775, 0.19, 0, 0.2525, 0.0625, 0.315, 0.1275, 0.3775, 0.19, 0, 0.2525, 0.0625, 0.315, 0.1275, 0.3775, 0.19, 0, 0.2525, 0.0625, 0.315, 0.1275, 0.3775, 0.19, 0, 0.2525, 0.0625, 0.315, 0.1275, 0.3775, 0.19, 0, 0.2525, 0.0625, 0.315, 0.1275, 0.3775, 0.19],
  "SoftwareVersions": "syngo MR E11",
  "SpacingBetweenSlices": 2.7,
  "StationName": "AWP66112",
  "TaskName": "narratives",
  "TotalReadoutTime": 0.03969,
  "TxRefAmp": 230.061,
  "WipMemBlock": "3bff592b-a804-497d-8c41-77a9ac8e6a02||Sequence: R016 ve11e/master r/434b28f1; Aug  7 2019 18:53:46 by eja",
  "dcmmeta_affine": [
    [-2.6599483489990234, 0.22195950150489807, 0.2728453278541565, 96.20130157470703],
    [0.25474825501441956, 2.6504011154174805, 0.33160197734832764, -114.30896759033203],
    [0.24057310819625854, -0.3524262607097626, 2.6656322479248047, -50.316139221191406],
    [0.0, 0.0, 0.0, 1.0]
],
  "dcmmeta_reorient_transform": [
    [0.0, -1.0, 0.0, 81.0],
    [1.0, 0.0, 0.0, 0.0],
    [0.0, 0.0, 1.0, 0.0],
    [0.0, 0.0, 0.0, 1.0]
],
  "dcmmeta_shape": [82, 82, 56, 1098],
  "dcmmeta_slice_dim": 2,
  "dcmmeta_version": 0.6,
  "global": {
    "const": {
      "AccessionNumber": "A004039",
      "AcquisitionMatrix": [82, 0, 0, 82],
      "AngioFlag": "N",
      "BitsAllocated": 16,
      "BitsStored": 16,
      "BodyPartExamined": "BRAIN",
      "Columns": 656,
      "EchoNumbers": 1,
      "EchoTime": 27.2,
      "EchoTrainLength": 82,
      "FlipAngle": 44.0,
      "HighBit": 15,
      "ImageOrientationPatient": [0.99143522832421, -0.0949516191599, 0.08966815519818, 0.08273035793464, 0.98787677996765, 0.13135888046401],
      "ImagePositionPatient": [-941.28754230057, -787.92591486285, -249.05349008133],
      "ImageType": [
        "ORIGINAL",
        "PRIMARY",
        "M",
        "MB",
        "ND",
        "NORM",
        "MOSAIC"
],
      "ImagedNucleus": "1H",
      "ImagingFrequency": 123.252157,
      "InPlanePhaseEncodingDirection": "COL",
      "MRAcquisitionType": "2D",
      "MagneticFieldStrength": 3.0,
      "Manufacturer": "SIEMENS",
      "ManufacturerModelName": "Prisma",
      "Modality": "MR",
      "NumberOfAverages": 1.0,
      "NumberOfPhaseEncodingSteps": 82,
      "PercentPhaseFieldOfView": 100.0,
      "PercentSampling": 100.0,
      "PerformedProcedureStepStartTime": "182704.420000",
      "PhotometricInterpretation": "MONOCHROME2",
      "PixelBandwidth": 3050.0,
      "PixelRepresentation": 0,
      "PixelSpacing": [2.6829268932343, 2.6829268932343],
      "ProtocolName": "func_run-02_task-narratives_acq-ap-mb8",
      "RepetitionTime": 460.0,
      "Rows": 656,
      "SAR": 0.09732577203496,
      "SamplesPerPixel": 1,
      "ScanOptions": "FS",
      "ScanningSequence": "EP",
      "SequenceName": "epfid2d1_82",
      "SequenceVariant": [
        "SK",
        "SS"
],
      "SeriesDescription": "func_run-02_task-narratives_acq-ap-mb8",
      "SeriesNumber": 10,
      "SeriesTime": "190556.414000",
      "SliceLocation": -53.993086166567,
      "SliceThickness": 2.7000000476837,
      "SmallestImagePixelValue": 0,
      "SoftwareVersions": "syngo MR E11",
      "SpacingBetweenSlices": 2.6999999832121,
      "SpecificCharacterSet": "ISO_IR 100",
      "StudyID": "2",
      "StudyTime": "182704.348000",
      "TransmitCoilName": "Body",
      "VariableFlipAngleFlag": "N",
      "WindowCenterWidthExplanation": "Algo1"
    },
    "slices": {}
  },
  "time": {
    "samples": {
      "AcquisitionNumber": [1, 2, 3, 4, 5, 6, 7, 8, 9, 10, 11, 12, 13, 14, 15, 16, 17, 18, 19, 20, 21, 22, 23, 24, 25, 26, 27, 28, 29, 30, 31, 32, 33, 34, 35, 36, 37, 38, 39, 40, 41, 42, 43, 44, 45, 46, 47, 48, 49, 50, 51, 52, 53, 54, 55, 56, 57, 58, 59, 60, 61, 62, 63, 64, 65, 66, 67, 68, 69, 70, 71, 72, 73, 74, 75, 76, 77, 78, 79, 80, 81, 82, 83, 84, 85, 86, 87, 88, 89, 90, 91, 92, 93, 94, 95, 96, 97, 98, 99, 100, 101, 102, 103, 104, 105, 106, 107, 108, 109, 110, 111, 112, 113, 114, 115, 116, 117, 118, 119, 120, 121, 122, 123, 124, 125, 126, 127, 128, 129, 130, 131, 132, 133, 134, 135, 136, 137, 138, 139, 140, 141, 142, 143, 144, 145, 146, 147, 148, 149, 150, 151, 152, 153, 154, 155, 156, 157, 158, 159, 160, 161, 162, 163, 164, 165, 166, 167, 168, 169, 170, 171, 172, 173, 174, 175, 176, 177, 178, 179, 180, 181, 182, 183, 184, 185, 186, 187, 188, 189, 190, 191, 192, 193, 194, 195, 196, 197, 198, 199, 200, 201, 202, 203, 204, 205, 206, 207, 208, 209, 210, 211, 212, 213, 214, 215, 216, 217, 218, 219, 220, 221, 222, 223, 224, 225, 226, 227, 228, 229, 230, 231, 232, 233, 234, 235, 236, 237, 238, 239, 240, 241, 242, 243, 244, 245, 246, 247, 248, 249, 250, 251, 252, 253, 254, 255, 256, 257, 258, 259, 260, 261, 262, 263, 264, 265, 266, 267, 268, 269, 270, 271, 272, 273, 274, 275, 276, 277, 278, 279, 280, 281, 282, 283, 284, 285, 286, 287, 288, 289, 290, 291, 292, 293, 294, 295, 296, 297, 298, 299, 300, 301, 302, 303, 304, 305, 306, 307, 308, 309, 310, 311, 312, 313, 314, 315, 316, 317, 318, 319, 320, 321, 322, 323, 324, 325, 326, 327, 328, 329, 330, 331, 332, 333, 334, 335, 336, 337, 338, 339, 340, 341, 342, 343, 344, 345, 346, 347, 348, 349, 350, 351, 352, 353, 354, 355, 356, 357, 358, 359, 360, 361, 362, 363, 364, 365, 366, 367, 368, 369, 370, 371, 372, 373, 374, 375, 376, 377, 378, 379, 380, 381, 382, 383, 384, 385, 386, 387, 388, 389, 390, 391, 392, 393, 394, 395, 396, 397, 398, 399, 400, 401, 402, 403, 404, 405, 406, 407, 408, 409, 410, 411, 412, 413, 414, 415, 416, 417, 418, 419, 420, 421, 422, 423, 424, 425, 426, 427, 428, 429, 430, 431, 432, 433, 434, 435, 436, 437, 438, 439, 440, 441, 442, 443, 444, 445, 446, 447, 448, 449, 450, 451, 452, 453, 454, 455, 456, 457, 458, 459, 460, 461, 462, 463, 464, 465, 466, 467, 468, 469, 470, 471, 472, 473, 474, 475, 476, 477, 478, 479, 480, 481, 482, 483, 484, 485, 486, 487, 488, 489, 490, 491, 492, 493, 494, 495, 496, 497, 498, 499, 500, 501, 502, 503, 504, 505, 506, 507, 508, 509, 510, 511, 512, 513, 514, 515, 516, 517, 518, 519, 520, 521, 522, 523, 524, 525, 526, 527, 528, 529, 530, 531, 532, 533, 534, 535, 536, 537, 538, 539, 540, 541, 542, 543, 544, 545, 546, 547, 548, 549, 550, 551, 552, 553, 554, 555, 556, 557, 558, 559, 560, 561, 562, 563, 564, 565, 566, 567, 568, 569, 570, 571, 572, 573, 574, 575, 576, 577, 578, 579, 580, 581, 582, 583, 584, 585, 586, 587, 588, 589, 590, 591, 592, 593, 594, 595, 596, 597, 598, 599, 600, 601, 602, 603, 604, 605, 606, 607, 608, 609, 610, 611, 612, 613, 614, 615, 616, 617, 618, 619, 620, 621, 622, 623, 624, 625, 626, 627, 628, 629, 630, 631, 632, 633, 634, 635, 636, 637, 638, 639, 640, 641, 642, 643, 644, 645, 646, 647, 648, 649, 650, 651, 652, 653, 654, 655, 656, 657, 658, 659, 660, 661, 662, 663, 664, 665, 666, 667, 668, 669, 670, 671, 672, 673, 674, 675, 676, 677, 678, 679, 680, 681, 682, 683, 684, 685, 686, 687, 688, 689, 690, 691, 692, 693, 694, 695, 696, 697, 698, 699, 700, 701, 702, 703, 704, 705, 706, 707, 708, 709, 710, 711, 712, 713, 714, 715, 716, 717, 718, 719, 720, 721, 722, 723, 724, 725, 726, 727, 728, 729, 730, 731, 732, 733, 734, 735, 736, 737, 738, 739, 740, 741, 742, 743, 744, 745, 746, 747, 748, 749, 750, 751, 752, 753, 754, 755, 756, 757, 758, 759, 760, 761, 762, 763, 764, 765, 766, 767, 768, 769, 770, 771, 772, 773, 774, 775, 776, 777, 778, 779, 780, 781, 782, 783, 784, 785, 786, 787, 788, 789, 790, 791, 792, 793, 794, 795, 796, 797, 798, 799, 800, 801, 802, 803, 804, 805, 806, 807, 808, 809, 810, 811, 812, 813, 814, 815, 816, 817, 818, 819, 820, 821, 822, 823, 824, 825, 826, 827, 828, 829, 830, 831, 832, 833, 834, 835, 836, 837, 838, 839, 840, 841, 842, 843, 844, 845, 846, 847, 848, 849, 850, 851, 852, 853, 854, 855, 856, 857, 858, 859, 860, 861, 862, 863, 864, 865, 866, 867, 868, 869, 870, 871, 872, 873, 874, 875, 876, 877, 878, 879, 880, 881, 882, 883, 884, 885, 886, 887, 888, 889, 890, 891, 892, 893, 894, 895, 896, 897, 898, 899, 900, 901, 902, 903, 904, 905, 906, 907, 908, 909, 910, 911, 912, 913, 914, 915, 916, 917, 918, 919, 920, 921, 922, 923, 924, 925, 926, 927, 928, 929, 930, 931, 932, 933, 934, 935, 936, 937, 938, 939, 940, 941, 942, 943, 944, 945, 946, 947, 948, 949, 950, 951, 952, 953, 954, 955, 956, 957, 958, 959, 960, 961, 962, 963, 964, 965, 966, 967, 968, 969, 970, 971, 972, 973, 974, 975, 976, 977, 978, 979, 980, 981, 982, 983, 984, 985, 986, 987, 988, 989, 990, 991, 992, 993, 994, 995, 996, 997, 998, 999, 1000, 1001, 1002, 1003, 1004, 1005, 1006, 1007, 1008, 1009, 1010, 1011, 1012, 1013, 1014, 1015, 1016, 1017, 1018, 1019, 1020, 1021, 1022, 1023, 1024, 1025, 1026, 1027, 1028, 1029, 1030, 1031, 1032, 1033, 1034, 1035, 1036, 1037, 1038, 1039, 1040, 1041, 1042, 1043, 1044, 1045, 1046, 1047, 1048, 1049, 1050, 1051, 1052, 1053, 1054, 1055, 1056, 1057, 1058, 1059, 1060, 1061, 1062, 1063, 1064, 1065, 1066, 1067, 1068, 1069, 1070, 1071, 1072, 1073, 1074, 1075, 1076, 1077, 1078, 1079, 1080, 1081, 1082, 1083, 1084, 1085, 1086, 1087, 1088, 1089, 1090, 1091, 1092, 1093, 1094, 1095, 1096, 1097, 1098],
      "AcquisitionTime": ["190536.510000", "190536.970000", "190537.430000", "190537.890000", "190538.350000", "190538.810000", "190539.270000", "190539.730000", "190540.190000", "190540.650000", "190541.110000", "190541.570000", "190542.030000", "190542.490000", "190542.950000", "190543.410000", "190543.870000", "190544.330000", "190544.790000", "190545.250000", "190545.710000", "190546.170000", "190546.630000", "190547.090000", "190547.550000", "190548.010000", "190548.470000", "190548.930000", "190549.390000", "190549.850000", "190550.310000", "190550.770000", "190551.230000", "190551.690000", "190552.150000", "190552.610000", "190553.070000", "190553.530000", "190553.990000", "190554.450000", "190554.910000", "190555.370000", "190555.830000", "190556.290000", "190556.750000", "190557.210000", "190557.670000", "190558.130000", "190558.590000", "190559.050000", "190559.510000", "190559.970000", "190600.430000", "190600.890000", "190601.350000", "190601.810000", "190602.270000", "190602.730000", "190603.190000", "190603.650000", "190604.110000", "190604.570000", "190605.030000", "190605.490000", "190605.950000", "190606.410000", "190606.870000", "190607.330000", "190607.790000", "190608.250000", "190608.710000", "190609.170000", "190609.630000", "190610.090000", "190610.550000", "190611.010000", "190611.470000", "190611.930000", "190612.390000", "190612.850000", "190613.310000", "190613.770000", "190614.230000", "190614.690000", "190615.150000", "190615.610000", "190616.070000", "190616.530000", "190616.990000", "190617.450000", "190617.910000", "190618.370000", "190618.830000", "190619.290000", "190619.750000", "190620.210000", "190620.670000", "190621.130000", "190621.590000", "190622.050000", "190622.510000", "190622.970000", "190623.430000", "190623.890000", "190624.350000", "190624.810000", "190625.270000", "190625.730000", "190626.190000", "190626.650000", "190627.110000", "190627.570000", "190628.030000", "190628.490000", "190628.950000", "190629.410000", "190629.870000", "190630.330000", "190630.790000", "190631.250000", "190631.710000", "190632.170000", "190632.630000", "190633.090000", "190633.550000", "190634.010000", "190634.470000", "190634.930000", "190635.390000", "190635.850000", "190636.310000", "190636.770000", "190637.230000", "190637.690000", "190638.150000", "190638.610000", "190639.070000", "190639.530000", "190639.990000", "190640.450000", "190640.910000", "190641.370000", "190641.830000", "190642.290000", "190642.750000", "190643.210000", "190643.670000", "190644.130000", "190644.590000", "190645.050000", "190645.510000", "190645.970000", "190646.430000", "190646.890000", "190647.350000", "190647.810000", "190648.270000", "190648.730000", "190649.190000", "190649.650000", "190650.110000", "190650.570000", "190651.030000", "190651.490000", "190651.950000", "190652.410000", "190652.870000", "190653.330000", "190653.790000", "190654.250000", "190654.710000", "190655.170000", "190655.630000", "190656.090000", "190656.550000", "190657.010000", "190657.470000", "190657.930000", "190658.390000", "190658.850000", "190659.310000", "190659.770000", "190700.230000", "190700.690000", "190701.150000", "190701.610000", "190702.070000", "190702.530000", "190702.990000", "190703.450000", "190703.910000", "190704.370000", "190704.830000", "190705.290000", "190705.750000", "190706.210000", "190706.670000", "190707.130000", "190707.590000", "190708.050000", "190708.510000", "190708.970000", "190709.430000", "190709.890000", "190710.350000", "190710.810000", "190711.270000", "190711.730000", "190712.190000", "190712.650000", "190713.110000", "190713.570000", "190714.030000", "190714.490000", "190714.950000", "190715.410000", "190715.870000", "190716.330000", "190716.790000", "190717.250000", "190717.710000", "190718.170000", "190718.630000", "190719.090000", "190719.550000", "190720.010000", "190720.470000", "190720.930000", "190721.390000", "190721.850000", "190722.310000", "190722.770000", "190723.230000", "190723.690000", "190724.150000", "190724.610000", "190725.070000", "190725.530000", "190725.990000", "190726.450000", "190726.910000", "190727.370000", "190727.830000", "190728.290000", "190728.750000", "190729.210000", "190729.670000", "190730.130000", "190730.590000", "190731.050000", "190731.510000", "190731.970000", "190732.430000", "190732.890000", "190733.350000", "190733.810000", "190734.270000", "190734.730000", "190735.190000", "190735.650000", "190736.110000", "190736.570000", "190737.030000", "190737.490000", "190737.950000", "190738.410000", "190738.870000", "190739.330000", "190739.790000", "190740.250000", "190740.710000", "190741.170000", "190741.630000", "190742.090000", "190742.550000", "190743.010000", "190743.470000", "190743.930000", "190744.390000", "190744.850000", "190745.310000", "190745.770000", "190746.230000", "190746.690000", "190747.150000", "190747.610000", "190748.070000", "190748.530000", "190748.990000", "190749.450000", "190749.910000", "190750.370000", "190750.830000", "190751.290000", "190751.750000", "190752.210000", "190752.670000", "190753.130000", "190753.590000", "190754.050000", "190754.510000", "190754.970000", "190755.430000", "190755.890000", "190756.350000", "190756.810000", "190757.270000", "190757.730000", "190758.190000", "190758.650000", "190759.110000", "190759.570000", "190800.030000", "190800.490000", "190800.950000", "190801.410000", "190801.870000", "190802.330000", "190802.790000", "190803.250000", "190803.710000", "190804.170000", "190804.630000", "190805.090000", "190805.550000", "190806.010000", "190806.470000", "190806.930000", "190807.390000", "190807.850000", "190808.310000", "190808.770000", "190809.230000", "190809.690000", "190810.150000", "190810.610000", "190811.070000", "190811.530000", "190811.990000", "190812.450000", "190812.910000", "190813.370000", "190813.830000", "190814.290000", "190814.750000", "190815.210000", "190815.670000", "190816.130000", "190816.590000", "190817.050000", "190817.510000", "190817.970000", "190818.430000", "190818.890000", "190819.350000", "190819.810000", "190820.270000", "190820.730000", "190821.190000", "190821.650000", "190822.110000", "190822.570000", "190823.030000", "190823.490000", "190823.950000", "190824.410000", "190824.870000", "190825.330000", "190825.790000", "190826.250000", "190826.710000", "190827.170000", "190827.630000", "190828.090000", "190828.550000", "190829.010000", "190829.470000", "190829.930000", "190830.390000", "190830.850000", "190831.310000", "190831.770000", "190832.230000", "190832.690000", "190833.150000", "190833.610000", "190834.070000", "190834.530000", "190834.990000", "190835.450000", "190835.910000", "190836.370000", "190836.830000", "190837.290000", "190837.750000", "190838.210000", "190838.670000", "190839.130000", "190839.590000", "190840.050000", "190840.510000", "190840.970000", "190841.430000", "190841.890000", "190842.350000", "190842.810000", "190843.270000", "190843.730000", "190844.190000", "190844.650000", "190845.110000", "190845.570000", "190846.030000", "190846.490000", "190846.950000", "190847.410000", "190847.870000", "190848.330000", "190848.790000", "190849.250000", "190849.710000", "190850.170000", "190850.630000", "190851.090000", "190851.550000", "190852.010000", "190852.470000", "190852.930000", "190853.390000", "190853.850000", "190854.310000", "190854.770000", "190855.230000", "190855.690000", "190856.150000", "190856.610000", "190857.070000", "190857.530000", "190857.990000", "190858.450000", "190858.910000", "190859.370000", "190859.830000", "190900.290000", "190900.750000", "190901.210000", "190901.670000", "190902.130000", "190902.590000", "190903.050000", "190903.510000", "190903.970000", "190904.430000", "190904.890000", "190905.350000", "190905.810000", "190906.270000", "190906.730000", "190907.190000", "190907.650000", "190908.110000", "190908.570000", "190909.030000", "190909.490000", "190909.950000", "190910.410000", "190910.870000", "190911.330000", "190911.790000", "190912.250000", "190912.710000", "190913.170000", "190913.630000", "190914.090000", "190914.550000", "190915.010000", "190915.470000", "190915.930000", "190916.390000", "190916.850000", "190917.310000", "190917.770000", "190918.230000", "190918.690000", "190919.150000", "190919.610000", "190920.070000", "190920.530000", "190920.990000", "190921.450000", "190921.910000", "190922.370000", "190922.830000", "190923.290000", "190923.750000", "190924.210000", "190924.670000", "190925.130000", "190925.590000", "190926.050000", "190926.510000", "190926.970000", "190927.430000", "190927.890000", "190928.350000", "190928.810000", "190929.270000", "190929.730000", "190930.190000", "190930.650000", "190931.110000", "190931.570000", "190932.030000", "190932.490000", "190932.950000", "190933.410000", "190933.870000", "190934.330000", "190934.790000", "190935.250000", "190935.710000", "190936.170000", "190936.630000", "190937.090000", "190937.550000", "190938.010000", "190938.470000", "190938.930000", "190939.390000", "190939.850000", "190940.310000", "190940.770000", "190941.230000", "190941.690000", "190942.150000", "190942.610000", "190943.070000", "190943.530000", "190943.990000", "190944.450000", "190944.910000", "190945.370000", "190945.830000", "190946.290000", "190946.750000", "190947.210000", "190947.670000", "190948.130000", "190948.590000", "190949.050000", "190949.510000", "190949.970000", "190950.430000", "190950.890000", "190951.350000", "190951.810000", "190952.270000", "190952.730000", "190953.190000", "190953.650000", "190954.110000", "190954.570000", "190955.030000", "190955.490000", "190955.950000", "190956.410000", "190956.870000", "190957.330000", "190957.790000", "190958.250000", "190958.710000", "190959.170000", "190959.630000", "191000.090000", "191000.550000", "191001.010000", "191001.470000", "191001.930000", "191002.390000", "191002.850000", "191003.310000", "191003.770000", "191004.230000", "191004.690000", "191005.150000", "191005.610000", "191006.070000", "191006.530000", "191006.990000", "191007.450000", "191007.910000", "191008.370000", "191008.830000", "191009.290000", "191009.750000", "191010.210000", "191010.670000", "191011.130000", "191011.590000", "191012.050000", "191012.510000", "191012.970000", "191013.430000", "191013.890000", "191014.350000", "191014.810000", "191015.270000", "191015.730000", "191016.190000", "191016.650000", "191017.110000", "191017.570000", "191018.030000", "191018.490000", "191018.950000", "191019.410000", "191019.870000", "191020.330000", "191020.790000", "191021.250000", "191021.710000", "191022.170000", "191022.630000", "191023.090000", "191023.550000", "191024.010000", "191024.470000", "191024.930000", "191025.390000", "191025.850000", "191026.310000", "191026.770000", "191027.230000", "191027.690000", "191028.150000", "191028.610000", "191029.070000", "191029.530000", "191029.990000", "191030.450000", "191030.910000", "191031.370000", "191031.830000", "191032.290000", "191032.750000", "191033.210000", "191033.670000", "191034.130000", "191034.590000", "191035.050000", "191035.510000", "191035.970000", "191036.430000", "191036.890000", "191037.350000", "191037.810000", "191038.270000", "191038.730000", "191039.190000", "191039.650000", "191040.110000", "191040.570000", "191041.030000", "191041.490000", "191041.950000", "191042.410000", "191042.870000", "191043.330000", "191043.790000", "191044.250000", "191044.710000", "191045.170000", "191045.630000", "191046.090000", "191046.550000", "191047.010000", "191047.470000", "191047.930000", "191048.390000", "191048.850000", "191049.310000", "191049.770000", "191050.230000", "191050.690000", "191051.150000", "191051.610000", "191052.070000", "191052.530000", "191052.990000", "191053.450000", "191053.910000", "191054.370000", "191054.830000", "191055.290000", "191055.750000", "191056.210000", "191056.670000", "191057.130000", "191057.590000", "191058.050000", "191058.510000", "191058.970000", "191059.430000", "191059.890000", "191100.350000", "191100.810000", "191101.270000", "191101.730000", "191102.190000", "191102.650000", "191103.110000", "191103.570000", "191104.030000", "191104.490000", "191104.950000", "191105.410000", "191105.870000", "191106.330000", "191106.790000", "191107.250000", "191107.710000", "191108.170000", "191108.630000", "191109.090000", "191109.550000", "191110.010000", "191110.470000", "191110.930000", "191111.390000", "191111.850000", "191112.310000", "191112.770000", "191113.230000", "191113.690000", "191114.150000", "191114.610000", "191115.070000", "191115.530000", "191115.990000", "191116.450000", "191116.910000", "191117.370000", "191117.830000", "191118.290000", "191118.750000", "191119.210000", "191119.670000", "191120.130000", "191120.590000", "191121.050000", "191121.510000", "191121.970000", "191122.430000", "191122.890000", "191123.350000", "191123.810000", "191124.270000", "191124.730000", "191125.190000", "191125.650000", "191126.110000", "191126.570000", "191127.030000", "191127.490000", "191127.950000", "191128.410000", "191128.870000", "191129.330000", "191129.790000", "191130.250000", "191130.710000", "191131.170000", "191131.630000", "191132.090000", "191132.550000", "191133.010000", "191133.470000", "191133.930000", "191134.390000", "191134.850000", "191135.310000", "191135.770000", "191136.230000", "191136.690000", "191137.150000", "191137.610000", "191138.070000", "191138.530000", "191138.990000", "191139.450000", "191139.910000", "191140.370000", "191140.830000", "191141.290000", "191141.750000", "191142.210000", "191142.670000", "191143.130000", "191143.590000", "191144.050000", "191144.510000", "191144.970000", "191145.430000", "191145.890000", "191146.350000", "191146.810000", "191147.270000", "191147.730000", "191148.190000", "191148.650000", "191149.110000", "191149.570000", "191150.030000", "191150.490000", "191150.950000", "191151.410000", "191151.870000", "191152.330000", "191152.790000", "191153.250000", "191153.710000", "191154.170000", "191154.630000", "191155.090000", "191155.550000", "191156.010000", "191156.470000", "191156.930000", "191157.390000", "191157.850000", "191158.310000", "191158.770000", "191159.230000", "191159.690000", "191200.150000", "191200.610000", "191201.070000", "191201.530000", "191201.990000", "191202.450000", "191202.910000", "191203.370000", "191203.830000", "191204.290000", "191204.750000", "191205.210000", "191205.670000", "191206.130000", "191206.590000", "191207.050000", "191207.510000", "191207.970000", "191208.430000", "191208.890000", "191209.350000", "191209.810000", "191210.270000", "191210.730000", "191211.190000", "191211.650000", "191212.110000", "191212.570000", "191213.030000", "191213.490000", "191213.950000", "191214.410000", "191214.870000", "191215.330000", "191215.790000", "191216.250000", "191216.710000", "191217.170000", "191217.630000", "191218.090000", "191218.550000", "191219.010000", "191219.470000", "191219.930000", "191220.390000", "191220.850000", "191221.310000", "191221.770000", "191222.230000", "191222.690000", "191223.150000", "191223.610000", "191224.070000", "191224.530000", "191224.990000", "191225.450000", "191225.910000", "191226.370000", "191226.830000", "191227.290000", "191227.750000", "191228.210000", "191228.670000", "191229.130000", "191229.590000", "191230.050000", "191230.510000", "191230.970000", "191231.430000", "191231.890000", "191232.350000", "191232.810000", "191233.270000", "191233.730000", "191234.190000", "191234.650000", "191235.110000", "191235.570000", "191236.030000", "191236.490000", "191236.950000", "191237.410000", "191237.870000", "191238.330000", "191238.790000", "191239.250000", "191239.710000", "191240.170000", "191240.630000", "191241.090000", "191241.550000", "191242.010000", "191242.470000", "191242.930000", "191243.390000", "191243.850000", "191244.310000", "191244.770000", "191245.230000", "191245.690000", "191246.150000", "191246.610000", "191247.070000", "191247.530000", "191247.990000", "191248.450000", "191248.910000", "191249.370000", "191249.830000", "191250.290000", "191250.750000", "191251.210000", "191251.670000", "191252.130000", "191252.590000", "191253.050000", "191253.510000", "191253.970000", "191254.430000", "191254.890000", "191255.350000", "191255.810000", "191256.270000", "191256.730000", "191257.190000", "191257.650000", "191258.110000", "191258.570000", "191259.030000", "191259.490000", "191259.950000", "191300.410000", "191300.870000", "191301.330000", "191301.790000", "191302.250000", "191302.710000", "191303.170000", "191303.630000", "191304.090000", "191304.550000", "191305.010000", "191305.470000", "191305.930000", "191306.390000", "191306.850000", "191307.310000", "191307.770000", "191308.230000", "191308.690000", "191309.150000", "191309.610000", "191310.070000", "191310.530000", "191310.990000", "191311.450000", "191311.910000", "191312.370000", "191312.830000", "191313.290000", "191313.750000", "191314.210000", "191314.670000", "191315.130000", "191315.590000", "191316.050000", "191316.510000", "191316.970000", "191317.430000", "191317.890000", "191318.350000", "191318.810000", "191319.270000", "191319.730000", "191320.190000", "191320.650000", "191321.110000", "191321.570000", "191322.030000", "191322.490000", "191322.950000", "191323.410000", "191323.870000", "191324.330000", "191324.790000", "191325.250000", "191325.710000", "191326.170000", "191326.630000", "191327.090000", "191327.550000", "191328.010000", "191328.470000", "191328.930000", "191329.390000", "191329.850000", "191330.310000", "191330.770000", "191331.230000", "191331.690000", "191332.150000", "191332.610000", "191333.070000", "191333.530000", "191333.990000", "191334.450000", "191334.910000", "191335.370000", "191335.830000", "191336.290000", "191336.750000", "191337.210000", "191337.670000", "191338.130000", "191338.590000", "191339.050000", "191339.510000", "191339.970000", "191340.430000", "191340.890000", "191341.350000", "191341.810000", "191342.270000", "191342.730000", "191343.190000", "191343.650000", "191344.110000", "191344.570000", "191345.030000", "191345.490000", "191345.950000", "191346.410000", "191346.870000", "191347.330000", "191347.790000", "191348.250000", "191348.710000", "191349.170000", "191349.630000", "191350.090000", "191350.550000", "191351.010000", "191351.470000", "191351.930000", "191352.390000", "191352.850000", "191353.310000", "191353.770000", "191354.230000", "191354.690000", "191355.150000", "191355.610000", "191356.070000", "191356.530000", "191356.990000", "191357.450000", "191357.910000", "191358.370000", "191358.830000", "191359.290000", "191359.750000", "191400.210000", "191400.670000", "191401.130000"],
