{
  "AcquisitionMatrixPE": 82,
  "AcquisitionNumber": 1,
  "AcquisitionTime": "19:43:30.242500",
  "BandwidthPerPixelPhaseEncode": 24.888,
  "BaseResolution": 82,
  "BodyPartExamined": "BRAIN",
  "ConsistencyInfo": "N4_VE11E_LATEST_20181129",
  "ConversionSoftware": "dcm2niix",
  "ConversionSoftwareVersion": "v1.0.20201102",
  "DerivedVendorReportedEchoSpacing": 0.00049,
  "DeviceSerialNumber": "66112",
  "DwellTime": 2e-06,
  "EchoTime": 0.0272,
  "EchoTrainLength": 82,
  "EffectiveEchoSpacing": 0.00049,
  "FlipAngle": 44,
  "ImageComments": "Unaliased MB8/PE3",
  "ImageOrientationPatientDICOM": [0.991435, -0.0949516, 0.0896682, 0.0827304, 0.987877, 0.131359],
  "ImageType": [
    "ORIGINAL",
    "PRIMARY",
    "M",
    "MB",
    "ND",
    "NORM",
    "MOSAIC"
],
  "ImagingFrequency": 123.252,
  "InPlanePhaseEncodingDirectionDICOM": "COL",
  "InstitutionAddress": "Maynard 3,Hanover,NH,US,03755",
  "InstitutionName": "Dartmouth College - PBS",
  "InstitutionalDepartmentName": "Department",
  "MRAcquisitionType": "2D",
  "MagneticFieldStrength": 3,
  "Manufacturer": "Siemens",
  "ManufacturersModelName": "Prisma",
  "Modality": "MR",
  "MultibandAccelerationFactor": 8,
  "PartialFourier": 1,
  "PatientPosition": "HFS",
  "PercentPhaseFOV": 100,
  "PercentSampling": 100,
  "PhaseEncodingDirection": "j-",
  "PhaseEncodingSteps": 82,
  "PhaseResolution": 1,
  "PixelBandwidth": 3050,
  "ProcedureStepDescription": "Wager_Wager^1076_spacetop",
  "ProtocolName": "func_run-02_task-faces_acq-ap-mb8",
  "PulseSequenceDetails": "%CustomerSeq%\\cmrr_mbep2d_bold",
  "ReceiveCoilActiveElements": "HEA;HEP",
  "ReceiveCoilName": "Head_32",
  "ReconMatrixPE": 82,
  "RepetitionTime": 0.46,
  "SAR": 0.0972289,
  "ScanOptions": "FS",
  "ScanningSequence": "EP",
  "SequenceName": "epfid2d1_82",
  "SequenceVariant": "SK\\SS",
  "SeriesDescription": "func_run-02_task-faces_acq-ap-mb8",
  "SeriesNumber": 18,
  "ShimSetting": [4149, -7764, -7220, 615, -135, -238, -38, 63],
  "SliceThickness": 2.7,
  "SliceTiming": [0, 0.2525, 0.0625, 0.315, 0.125, 0.3775, 0.1875, 0, 0.2525, 0.0625, 0.315, 0.125, 0.3775, 0.1875, 0, 0.2525, 0.0625, 0.315, 0.125, 0.3775, 0.1875, 0, 0.2525, 0.0625, 0.315, 0.125, 0.3775, 0.1875, 0, 0.2525, 0.0625, 0.315, 0.125, 0.3775, 0.1875, 0, 0.2525, 0.0625, 0.315, 0.125, 0.3775, 0.1875, 0, 0.2525, 0.0625, 0.315, 0.125, 0.3775, 0.1875, 0, 0.2525, 0.0625, 0.315, 0.125, 0.3775, 0.1875],
  "SoftwareVersions": "syngo MR E11",
  "SpacingBetweenSlices": 2.7,
  "StationName": "AWP66112",
  "TaskName": "faces",
  "TotalReadoutTime": 0.03969,
  "TxRefAmp": 230.061,
  "WipMemBlock": "1982b371-adfb-40e7-851a-5e98657072a2||Sequence: R016 ve11e/master r/434b28f1; Aug  7 2019 18:53:46 by eja",
  "dcmmeta_affine": [
    [-2.6599483489990234, 0.22195950150489807, 0.2728453278541565, 96.20130157470703],
    [0.25474825501441956, 2.6504011154174805, 0.33160197734832764, -114.30896759033203],
    [0.24057310819625854, -0.3524262607097626, 2.6656322479248047, -50.316139221191406],
    [0.0, 0.0, 0.0, 1.0]
],
  "dcmmeta_reorient_transform": [
    [0.0, -1.0, 0.0, 81.0],
    [1.0, 0.0, 0.0, 0.0],
    [0.0, 0.0, 1.0, 0.0],
    [0.0, 0.0, 0.0, 1.0]
],
  "dcmmeta_shape": [82, 82, 56, 914],
  "dcmmeta_slice_dim": 2,
  "dcmmeta_version": 0.6,
  "global": {
    "const": {
      "AccessionNumber": "A004039",
      "AcquisitionMatrix": [82, 0, 0, 82],
      "AngioFlag": "N",
      "BitsAllocated": 16,
      "BitsStored": 16,
      "BodyPartExamined": "BRAIN",
      "Columns": 656,
      "EchoNumbers": 1,
      "EchoTime": 27.2,
      "EchoTrainLength": 82,
      "FlipAngle": 44.0,
      "HighBit": 15,
      "ImageOrientationPatient": [0.99143522832421, -0.0949516191599, 0.08966815519818, 0.08273035793464, 0.98787677996765, 0.13135888046401],
      "ImagePositionPatient": [-941.28754230057, -787.92591486285, -249.05349008133],
      "ImageType": [
        "ORIGINAL",
        "PRIMARY",
        "M",
        "MB",
        "ND",
        "NORM",
        "MOSAIC"
],
      "ImagedNucleus": "1H",
      "ImagingFrequency": 123.252177,
      "InPlanePhaseEncodingDirection": "COL",
      "MRAcquisitionType": "2D",
      "MagneticFieldStrength": 3.0,
      "Manufacturer": "SIEMENS",
      "ManufacturerModelName": "Prisma",
      "Modality": "MR",
      "NumberOfAverages": 1.0,
      "NumberOfPhaseEncodingSteps": 82,
      "PercentPhaseFieldOfView": 100.0,
      "PercentSampling": 100.0,
      "PerformedProcedureStepStartTime": "182704.420000",
      "PhotometricInterpretation": "MONOCHROME2",
      "PixelBandwidth": 3050.0,
      "PixelRepresentation": 0,
      "PixelSpacing": [2.6829268932343, 2.6829268932343],
      "ProtocolName": "func_run-02_task-faces_acq-ap-mb8",
      "RepetitionTime": 460.0,
      "Rows": 656,
      "SAR": 0.09722891784601,
      "SamplesPerPixel": 1,
      "ScanOptions": "FS",
      "ScanningSequence": "EP",
      "SequenceName": "epfid2d1_82",
      "SequenceVariant": [
        "SK",
        "SS"
],
      "SeriesDescription": "func_run-02_task-faces_acq-ap-mb8",
      "SeriesNumber": 18,
      "SeriesTime": "194356.500000",
      "SliceLocation": -53.993086166567,
      "SliceThickness": 2.7000000476837,
      "SmallestImagePixelValue": 0,
      "SoftwareVersions": "syngo MR E11",
      "SpacingBetweenSlices": 2.6999999832121,
      "SpecificCharacterSet": "ISO_IR 100",
      "StudyID": "2",
      "StudyTime": "182704.348000",
      "TransmitCoilName": "Body",
      "VariableFlipAngleFlag": "N",
      "WindowCenterWidthExplanation": "Algo1"
    },
    "slices": {}
  },
  "time": {
    "samples": {
      "AcquisitionNumber": [1, 2, 3, 4, 5, 6, 7, 8, 9, 10, 11, 12, 13, 14, 15, 16, 17, 18, 19, 20, 21, 22, 23, 24, 25, 26, 27, 28, 29, 30, 31, 32, 33, 34, 35, 36, 37, 38, 39, 40, 41, 42, 43, 44, 45, 46, 47, 48, 49, 50, 51, 52, 53, 54, 55, 56, 57, 58, 59, 60, 61, 62, 63, 64, 65, 66, 67, 68, 69, 70, 71, 72, 73, 74, 75, 76, 77, 78, 79, 80, 81, 82, 83, 84, 85, 86, 87, 88, 89, 90, 91, 92, 93, 94, 95, 96, 97, 98, 99, 100, 101, 102, 103, 104, 105, 106, 107, 108, 109, 110, 111, 112, 113, 114, 115, 116, 117, 118, 119, 120, 121, 122, 123, 124, 125, 126, 127, 128, 129, 130, 131, 132, 133, 134, 135, 136, 137, 138, 139, 140, 141, 142, 143, 144, 145, 146, 147, 148, 149, 150, 151, 152, 153, 154, 155, 156, 157, 158, 159, 160, 161, 162, 163, 164, 165, 166, 167, 168, 169, 170, 171, 172, 173, 174, 175, 176, 177, 178, 179, 180, 181, 182, 183, 184, 185, 186, 187, 188, 189, 190, 191, 192, 193, 194, 195, 196, 197, 198, 199, 200, 201, 202, 203, 204, 205, 206, 207, 208, 209, 210, 211, 212, 213, 214, 215, 216, 217, 218, 219, 220, 221, 222, 223, 224, 225, 226, 227, 228, 229, 230, 231, 232, 233, 234, 235, 236, 237, 238, 239, 240, 241, 242, 243, 244, 245, 246, 247, 248, 249, 250, 251, 252, 253, 254, 255, 256, 257, 258, 259, 260, 261, 262, 263, 264, 265, 266, 267, 268, 269, 270, 271, 272, 273, 274, 275, 276, 277, 278, 279, 280, 281, 282, 283, 284, 285, 286, 287, 288, 289, 290, 291, 292, 293, 294, 295, 296, 297, 298, 299, 300, 301, 302, 303, 304, 305, 306, 307, 308, 309, 310, 311, 312, 313, 314, 315, 316, 317, 318, 319, 320, 321, 322, 323, 324, 325, 326, 327, 328, 329, 330, 331, 332, 333, 334, 335, 336, 337, 338, 339, 340, 341, 342, 343, 344, 345, 346, 347, 348, 349, 350, 351, 352, 353, 354, 355, 356, 357, 358, 359, 360, 361, 362, 363, 364, 365, 366, 367, 368, 369, 370, 371, 372, 373, 374, 375, 376, 377, 378, 379, 380, 381, 382, 383, 384, 385, 386, 387, 388, 389, 390, 391, 392, 393, 394, 395, 396, 397, 398, 399, 400, 401, 402, 403, 404, 405, 406, 407, 408, 409, 410, 411, 412, 413, 414, 415, 416, 417, 418, 419, 420, 421, 422, 423, 424, 425, 426, 427, 428, 429, 430, 431, 432, 433, 434, 435, 436, 437, 438, 439, 440, 441, 442, 443, 444, 445, 446, 447, 448, 449, 450, 451, 452, 453, 454, 455, 456, 457, 458, 459, 460, 461, 462, 463, 464, 465, 466, 467, 468, 469, 470, 471, 472, 473, 474, 475, 476, 477, 478, 479, 480, 481, 482, 483, 484, 485, 486, 487, 488, 489, 490, 491, 492, 493, 494, 495, 496, 497, 498, 499, 500, 501, 502, 503, 504, 505, 506, 507, 508, 509, 510, 511, 512, 513, 514, 515, 516, 517, 518, 519, 520, 521, 522, 523, 524, 525, 526, 527, 528, 529, 530, 531, 532, 533, 534, 535, 536, 537, 538, 539, 540, 541, 542, 543, 544, 545, 546, 547, 548, 549, 550, 551, 552, 553, 554, 555, 556, 557, 558, 559, 560, 561, 562, 563, 564, 565, 566, 567, 568, 569, 570, 571, 572, 573, 574, 575, 576, 577, 578, 579, 580, 581, 582, 583, 584, 585, 586, 587, 588, 589, 590, 591, 592, 593, 594, 595, 596, 597, 598, 599, 600, 601, 602, 603, 604, 605, 606, 607, 608, 609, 610, 611, 612, 613, 614, 615, 616, 617, 618, 619, 620, 621, 622, 623, 624, 625, 626, 627, 628, 629, 630, 631, 632, 633, 634, 635, 636, 637, 638, 639, 640, 641, 642, 643, 644, 645, 646, 647, 648, 649, 650, 651, 652, 653, 654, 655, 656, 657, 658, 659, 660, 661, 662, 663, 664, 665, 666, 667, 668, 669, 670, 671, 672, 673, 674, 675, 676, 677, 678, 679, 680, 681, 682, 683, 684, 685, 686, 687, 688, 689, 690, 691, 692, 693, 694, 695, 696, 697, 698, 699, 700, 701, 702, 703, 704, 705, 706, 707, 708, 709, 710, 711, 712, 713, 714, 715, 716, 717, 718, 719, 720, 721, 722, 723, 724, 725, 726, 727, 728, 729, 730, 731, 732, 733, 734, 735, 736, 737, 738, 739, 740, 741, 742, 743, 744, 745, 746, 747, 748, 749, 750, 751, 752, 753, 754, 755, 756, 757, 758, 759, 760, 761, 762, 763, 764, 765, 766, 767, 768, 769, 770, 771, 772, 773, 774, 775, 776, 777, 778, 779, 780, 781, 782, 783, 784, 785, 786, 787, 788, 789, 790, 791, 792, 793, 794, 795, 796, 797, 798, 799, 800, 801, 802, 803, 804, 805, 806, 807, 808, 809, 810, 811, 812, 813, 814, 815, 816, 817, 818, 819, 820, 821, 822, 823, 824, 825, 826, 827, 828, 829, 830, 831, 832, 833, 834, 835, 836, 837, 838, 839, 840, 841, 842, 843, 844, 845, 846, 847, 848, 849, 850, 851, 852, 853, 854, 855, 856, 857, 858, 859, 860, 861, 862, 863, 864, 865, 866, 867, 868, 869, 870, 871, 872, 873, 874, 875, 876, 877, 878, 879, 880, 881, 882, 883, 884, 885, 886, 887, 888, 889, 890, 891, 892, 893, 894, 895, 896, 897, 898, 899, 900, 901, 902, 903, 904, 905, 906, 907, 908, 909, 910, 911, 912, 913, 914],
      "AcquisitionTime": ["194330.242500", "194330.702500", "194331.162500", "194331.622500", "194332.082500", "194332.542500", "194333.002500", "194333.462500", "194333.922500", "194334.382500", "194334.842500", "194335.302500", "194335.762500", "194336.222500", "194336.682500", "194337.142500", "194337.602500", "194338.062500", "194338.522500", "194338.982500", "194339.442500", "194339.902500", "194340.362500", "194340.822500", "194341.282500", "194341.742500", "194342.202500", "194342.662500", "194343.122500", "194343.582500", "194344.042500", "194344.502500", "194344.962500", "194345.422500", "194345.882500", "194346.342500", "194346.802500", "194347.262500", "194347.722500", "194348.182500", "194348.642500", "194349.102500", "194349.562500", "194350.022500", "194350.482500", "194350.942500", "194351.402500", "194351.862500", "194352.322500", "194352.782500", "194353.242500", "194353.702500", "194354.162500", "194354.622500", "194355.082500", "194355.542500", "194356.002500", "194356.462500", "194356.922500", "194357.382500", "194357.842500", "194358.302500", "194358.762500", "194359.222500", "194359.682500", "194400.142500", "194400.602500", "194401.062500", "194401.522500", "194401.982500", "194402.442500", "194402.902500", "194403.362500", "194403.822500", "194404.282500", "194404.742500", "194405.202500", "194405.662500", "194406.122500", "194406.582500", "194407.042500", "194407.502500", "194407.962500", "194408.422500", "194408.882500", "194409.342500", "194409.802500", "194410.262500", "194410.722500", "194411.182500", "194411.642500", "194412.102500", "194412.562500", "194413.022500", "194413.482500", "194413.942500", "194414.402500", "194414.862500", "194415.322500", "194415.782500", "194416.242500", "194416.702500", "194417.162500", "194417.622500", "194418.082500", "194418.542500", "194419.002500", "194419.462500", "194419.922500", "194420.382500", "194420.842500", "194421.302500", "194421.762500", "194422.222500", "194422.682500", "194423.142500", "194423.602500", "194424.062500", "194424.522500", "194424.982500", "194425.442500", "194425.902500", "194426.362500", "194426.822500", "194427.282500", "194427.742500", "194428.202500", "194428.662500", "194429.122500", "194429.582500", "194430.042500", "194430.502500", "194430.962500", "194431.422500", "194431.882500", "194432.342500", "194432.802500", "194433.262500", "194433.722500", "194434.182500", "194434.642500", "194435.102500", "194435.562500", "194436.022500", "194436.482500", "194436.942500", "194437.402500", "194437.862500", "194438.322500", "194438.782500", "194439.242500", "194439.702500", "194440.162500", "194440.622500", "194441.082500", "194441.542500", "194442.002500", "194442.462500", "194442.922500", "194443.382500", "194443.842500", "194444.302500", "194444.762500", "194445.222500", "194445.682500", "194446.142500", "194446.602500", "194447.062500", "194447.522500", "194447.982500", "194448.442500", "194448.902500", "194449.362500", "194449.822500", "194450.282500", "194450.742500", "194451.202500", "194451.662500", "194452.122500", "194452.582500", "194453.042500", "194453.502500", "194453.962500", "194454.422500", "194454.882500", "194455.342500", "194455.802500", "194456.262500", "194456.722500", "194457.182500", "194457.642500", "194458.102500", "194458.562500", "194459.022500", "194459.482500", "194459.942500", "194500.402500", "194500.862500", "194501.322500", "194501.782500", "194502.242500", "194502.702500", "194503.162500", "194503.622500", "194504.082500", "194504.542500", "194505.002500", "194505.462500", "194505.922500", "194506.382500", "194506.842500", "194507.302500", "194507.762500", "194508.222500", "194508.682500", "194509.142500", "194509.602500", "194510.062500", "194510.522500", "194510.982500", "194511.442500", "194511.902500", "194512.362500", "194512.822500", "194513.282500", "194513.742500", "194514.202500", "194514.662500", "194515.122500", "194515.582500", "194516.042500", "194516.502500", "194516.962500", "194517.422500", "194517.882500", "194518.342500", "194518.802500", "194519.262500", "194519.722500", "194520.182500", "194520.642500", "194521.102500", "194521.562500", "194522.022500", "194522.482500", "194522.942500", "194523.402500", "194523.862500", "194524.322500", "194524.782500", "194525.242500", "194525.702500", "194526.162500", "194526.622500", "194527.082500", "194527.542500", "194528.002500", "194528.462500", "194528.922500", "194529.382500", "194529.842500", "194530.302500", "194530.762500", "194531.222500", "194531.682500", "194532.142500", "194532.602500", "194533.062500", "194533.522500", "194533.982500", "194534.442500", "194534.902500", "194535.362500", "194535.822500", "194536.282500", "194536.742500", "194537.202500", "194537.662500", "194538.122500", "194538.582500", "194539.042500", "194539.502500", "194539.962500", "194540.422500", "194540.882500", "194541.342500", "194541.802500", "194542.262500", "194542.722500", "194543.182500", "194543.642500", "194544.102500", "194544.562500", "194545.022500", "194545.482500", "194545.942500", "194546.402500", "194546.862500", "194547.322500", "194547.782500", "194548.242500", "194548.702500", "194549.162500", "194549.622500", "194550.082500", "194550.542500", "194551.002500", "194551.462500", "194551.922500", "194552.382500", "194552.842500", "194553.302500", "194553.762500", "194554.222500", "194554.682500", "194555.142500", "194555.602500", "194556.062500", "194556.522500", "194556.982500", "194557.442500", "194557.902500", "194558.362500", "194558.822500", "194559.282500", "194559.742500", "194600.202500", "194600.662500", "194601.122500", "194601.582500", "194602.042500", "194602.502500", "194602.962500", "194603.422500", "194603.882500", "194604.342500", "194604.802500", "194605.262500", "194605.722500", "194606.182500", "194606.642500", "194607.102500", "194607.562500", "194608.022500", "194608.482500", "194608.942500", "194609.402500", "194609.862500", "194610.322500", "194610.782500", "194611.242500", "194611.702500", "194612.162500", "194612.622500", "194613.082500", "194613.542500", "194614.002500", "194614.462500", "194614.922500", "194615.382500", "194615.842500", "194616.302500", "194616.762500", "194617.222500", "194617.682500", "194618.142500", "194618.602500", "194619.062500", "194619.522500", "194619.982500", "194620.442500", "194620.902500", "194621.362500", "194621.822500", "194622.282500", "194622.742500", "194623.202500", "194623.662500", "194624.122500", "194624.582500", "194625.042500", "194625.502500", "194625.962500", "194626.422500", "194626.882500", "194627.342500", "194627.802500", "194628.262500", "194628.722500", "194629.182500", "194629.642500", "194630.102500", "194630.562500", "194631.022500", "194631.482500", "194631.942500", "194632.402500", "194632.862500", "194633.322500", "194633.782500", "194634.242500", "194634.702500", "194635.162500", "194635.622500", "194636.082500", "194636.542500", "194637.002500", "194637.462500", "194637.922500", "194638.382500", "194638.842500", "194639.302500", "194639.762500", "194640.222500", "194640.682500", "194641.142500", "194641.602500", "194642.062500", "194642.522500", "194642.982500", "194643.442500", "194643.902500", "194644.362500", "194644.822500", "194645.282500", "194645.742500", "194646.202500", "194646.662500", "194647.122500", "194647.582500", "194648.042500", "194648.502500", "194648.962500", "194649.422500", "194649.882500", "194650.342500", "194650.802500", "194651.262500", "194651.722500", "194652.182500", "194652.642500", "194653.102500", "194653.562500", "194654.022500", "194654.482500", "194654.942500", "194655.402500", "194655.862500", "194656.322500", "194656.782500", "194657.242500", "194657.702500", "194658.162500", "194658.622500", "194659.082500", "194659.542500", "194700.002500", "194700.462500", "194700.922500", "194701.382500", "194701.842500", "194702.302500", "194702.762500", "194703.222500", "194703.682500", "194704.142500", "194704.602500", "194705.062500", "194705.522500", "194705.982500", "194706.442500", "194706.902500", "194707.362500", "194707.822500", "194708.282500", "194708.742500", "194709.202500", "194709.662500", "194710.122500", "194710.582500", "194711.042500", "194711.502500", "194711.962500", "194712.422500", "194712.882500", "194713.342500", "194713.802500", "194714.262500", "194714.722500", "194715.182500", "194715.642500", "194716.102500", "194716.562500", "194717.022500", "194717.482500", "194717.942500", "194718.402500", "194718.862500", "194719.322500", "194719.782500", "194720.242500", "194720.702500", "194721.162500", "194721.622500", "194722.082500", "194722.542500", "194723.002500", "194723.462500", "194723.922500", "194724.382500", "194724.842500", "194725.302500", "194725.762500", "194726.222500", "194726.682500", "194727.142500", "194727.602500", "194728.062500", "194728.522500", "194728.982500", "194729.442500", "194729.902500", "194730.362500", "194730.822500", "194731.282500", "194731.742500", "194732.202500", "194732.662500", "194733.122500", "194733.582500", "194734.042500", "194734.502500", "194734.962500", "194735.422500", "194735.882500", "194736.342500", "194736.802500", "194737.262500", "194737.722500", "194738.182500", "194738.642500", "194739.102500", "194739.562500", "194740.022500", "194740.482500", "194740.942500", "194741.402500", "194741.862500", "194742.322500", "194742.782500", "194743.242500", "194743.702500", "194744.162500", "194744.622500", "194745.082500", "194745.542500", "194746.002500", "194746.462500", "194746.922500", "194747.382500", "194747.842500", "194748.302500", "194748.762500", "194749.222500", "194749.682500", "194750.142500", "194750.602500", "194751.062500", "194751.522500", "194751.982500", "194752.442500", "194752.902500", "194753.362500", "194753.822500", "194754.282500", "194754.742500", "194755.202500", "194755.662500", "194756.122500", "194756.582500", "194757.042500", "194757.502500", "194757.962500", "194758.422500", "194758.882500", "194759.342500", "194759.802500", "194800.262500", "194800.722500", "194801.182500", "194801.642500", "194802.102500", "194802.562500", "194803.022500", "194803.482500", "194803.942500", "194804.402500", "194804.862500", "194805.322500", "194805.782500", "194806.242500", "194806.702500", "194807.162500", "194807.622500", "194808.082500", "194808.542500", "194809.002500", "194809.462500", "194809.922500", "194810.382500", "194810.842500", "194811.302500", "194811.762500", "194812.222500", "194812.682500", "194813.142500", "194813.602500", "194814.062500", "194814.522500", "194814.982500", "194815.442500", "194815.902500", "194816.362500", "194816.822500", "194817.282500", "194817.742500", "194818.202500", "194818.662500", "194819.122500", "194819.582500", "194820.042500", "194820.502500", "194820.962500", "194821.422500", "194821.882500", "194822.342500", "194822.802500", "194823.262500", "194823.722500", "194824.182500", "194824.642500", "194825.102500", "194825.562500", "194826.022500", "194826.482500", "194826.942500", "194827.402500", "194827.862500", "194828.322500", "194828.782500", "194829.242500", "194829.702500", "194830.162500", "194830.622500", "194831.082500", "194831.542500", "194832.002500", "194832.462500", "194832.922500", "194833.382500", "194833.842500", "194834.302500", "194834.762500", "194835.222500", "194835.682500", "194836.142500", "194836.602500", "194837.062500", "194837.522500", "194837.982500", "194838.442500", "194838.902500", "194839.362500", "194839.822500", "194840.282500", "194840.742500", "194841.202500", "194841.662500", "194842.122500", "194842.582500", "194843.042500", "194843.502500", "194843.962500", "194844.422500", "194844.882500", "194845.342500", "194845.802500", "194846.262500", "194846.722500", "194847.182500", "194847.642500", "194848.102500", "194848.562500", "194849.022500", "194849.482500", "194849.942500", "194850.402500", "194850.862500", "194851.322500", "194851.782500", "194852.242500", "194852.702500", "194853.162500", "194853.622500", "194854.082500", "194854.542500", "194855.002500", "194855.462500", "194855.922500", "194856.382500", "194856.842500", "194857.302500", "194857.762500", "194858.222500", "194858.682500", "194859.142500", "194859.602500", "194900.062500", "194900.522500", "194900.982500", "194901.442500", "194901.902500", "194902.362500", "194902.822500", "194903.282500", "194903.742500", "194904.202500", "194904.662500", "194905.122500", "194905.582500", "194906.042500", "194906.502500", "194906.962500", "194907.422500", "194907.882500", "194908.342500", "194908.802500", "194909.262500", "194909.722500", "194910.182500", "194910.642500", "194911.102500", "194911.562500", "194912.022500", "194912.482500", "194912.942500", "194913.402500", "194913.862500", "194914.322500", "194914.782500", "194915.242500", "194915.702500", "194916.162500", "194916.622500", "194917.082500", "194917.542500", "194918.002500", "194918.462500", "194918.922500", "194919.382500", "194919.842500", "194920.302500", "194920.762500", "194921.222500", "194921.682500", "194922.142500", "194922.602500", "194923.062500", "194923.522500", "194923.982500", "194924.442500", "194924.902500", "194925.362500", "194925.822500", "194926.282500", "194926.742500", "194927.202500", "194927.662500", "194928.122500", "194928.582500", "194929.042500", "194929.502500", "194929.962500", "194930.422500", "194930.882500", "194931.342500", "194931.802500", "194932.262500", "194932.722500", "194933.182500", "194933.642500", "194934.102500", "194934.562500", "194935.022500", "194935.482500", "194935.942500", "194936.402500", "194936.862500", "194937.322500", "194937.782500", "194938.242500", "194938.702500", "194939.162500", "194939.622500", "194940.082500", "194940.542500", "194941.002500", "194941.462500", "194941.922500", "194942.382500", "194942.842500", "194943.302500", "194943.762500", "194944.222500", "194944.682500", "194945.142500", "194945.602500", "194946.062500", "194946.522500", "194946.982500", "194947.442500", "194947.902500", "194948.362500", "194948.822500", "194949.282500", "194949.742500", "194950.202500", "194950.662500", "194951.122500", "194951.582500", "194952.042500", "194952.502500", "194952.962500", "194953.422500", "194953.882500", "194954.342500", "194954.802500", "194955.262500", "194955.722500", "194956.182500", "194956.642500", "194957.102500", "194957.562500", "194958.022500", "194958.482500", "194958.942500", "194959.402500", "194959.862500", "195000.322500", "195000.782500", "195001.242500", "195001.702500", "195002.162500", "195002.622500", "195003.082500", "195003.542500", "195004.002500", "195004.462500", "195004.922500", "195005.382500", "195005.842500", "195006.302500", "195006.762500", "195007.222500", "195007.682500", "195008.142500", "195008.602500", "195009.062500", "195009.522500", "195009.982500", "195010.442500", "195010.902500", "195011.362500", "195011.822500", "195012.282500", "195012.742500", "195013.202500", "195013.662500", "195014.122500", "195014.582500", "195015.042500", "195015.502500", "195015.962500", "195016.422500", "195016.882500", "195017.342500", "195017.802500", "195018.262500", "195018.722500", "195019.182500", "195019.642500", "195020.102500", "195020.562500", "195021.022500", "195021.482500", "195021.942500", "195022.402500", "195022.862500", "195023.322500", "195023.782500", "195024.242500", "195024.702500", "195025.162500", "195025.622500", "195026.082500", "195026.542500", "195027.002500", "195027.462500", "195027.922500", "195028.382500", "195028.842500", "195029.302500", "195029.762500", "195030.222500"],
