{
  "AcquisitionMatrixPE": 82,
  "AcquisitionNumber": 1,
  "AcquisitionTime": "18:57:45.760000",
  "BandwidthPerPixelPhaseEncode": 24.888,
  "BaseResolution": 82,
  "BodyPartExamined": "BRAIN",
  "ConsistencyInfo": "N4_VE11E_LATEST_20181129",
  "ConversionSoftware": "dcm2niix",
  "ConversionSoftwareVersion": "v1.0.20201102",
  "DerivedVendorReportedEchoSpacing": 0.00049,
  "DeviceSerialNumber": "66112",
  "DwellTime": 2e-06,
  "EchoTime": 0.0272,
  "EchoTrainLength": 82,
  "EffectiveEchoSpacing": 0.00049,
  "FlipAngle": 44,
  "ImageComments": "Unaliased MB8/PE3",
  "ImageOrientationPatientDICOM": [0.991435, -0.0949516, 0.0896682, 0.0827304, 0.987877, 0.131359],
  "ImageType": [
    "ORIGINAL",
    "PRIMARY",
    "M",
    "MB",
    "ND",
    "NORM",
    "MOSAIC"
],
  "ImagingFrequency": 123.252,
  "InPlanePhaseEncodingDirectionDICOM": "COL",
  "InstitutionAddress": "Maynard 3,Hanover,NH,US,03755",
  "InstitutionName": "Dartmouth College - PBS",
  "InstitutionalDepartmentName": "Department",
  "MRAcquisitionType": "2D",
  "MagneticFieldStrength": 3,
  "Manufacturer": "Siemens",
  "ManufacturersModelName": "Prisma",
  "Modality": "MR",
  "MultibandAccelerationFactor": 8,
  "PartialFourier": 1,
  "PatientPosition": "HFS",
  "PercentPhaseFOV": 100,
  "PercentSampling": 100,
  "PhaseEncodingDirection": "j-",
  "PhaseEncodingSteps": 82,
  "PhaseResolution": 1,
  "PixelBandwidth": 3050,
  "ProcedureStepDescription": "Wager_Wager^1076_spacetop",
  "ProtocolName": "func_run-01_task-narratives_acq-ap-mb8",
  "PulseSequenceDetails": "%CustomerSeq%\\cmrr_mbep2d_bold",
  "ReceiveCoilActiveElements": "HEA;HEP",
  "ReceiveCoilName": "Head_32",
  "ReconMatrixPE": 82,
  "RepetitionTime": 0.46,
  "SAR": 0.0972605,
  "ScanOptions": "FS",
  "ScanningSequence": "EP",
  "SequenceName": "epfid2d1_82",
  "SequenceVariant": "SK\\SS",
  "SeriesDescription": "func_run-01_task-narratives_acq-ap-mb8",
  "SeriesNumber": 8,
  "ShimSetting": [4149, -7764, -7220, 615, -135, -238, -38, 63],
  "SliceThickness": 2.7,
  "SliceTiming": [0, 0.25, 0.0625, 0.315, 0.125, 0.3775, 0.1875, 0, 0.25, 0.0625, 0.315, 0.125, 0.3775, 0.1875, 0, 0.25, 0.0625, 0.315, 0.125, 0.3775, 0.1875, 0, 0.25, 0.0625, 0.315, 0.125, 0.3775, 0.1875, 0, 0.25, 0.0625, 0.315, 0.125, 0.3775, 0.1875, 0, 0.25, 0.0625, 0.315, 0.125, 0.3775, 0.1875, 0, 0.25, 0.0625, 0.315, 0.125, 0.3775, 0.1875, 0, 0.25, 0.0625, 0.315, 0.125, 0.3775, 0.1875],
  "SoftwareVersions": "syngo MR E11",
  "SpacingBetweenSlices": 2.7,
  "StationName": "AWP66112",
  "TaskName": "narratives",
  "TotalReadoutTime": 0.03969,
  "TxRefAmp": 230.061,
  "WipMemBlock": "0997a9a1-f26f-4d96-9fd5-72e517bfc92a||Sequence: R016 ve11e/master r/434b28f1; Aug  7 2019 18:53:46 by eja",
  "dcmmeta_affine": [
    [-2.6599483489990234, 0.22195950150489807, 0.2728453278541565, 96.20130157470703],
    [0.25474825501441956, 2.6504011154174805, 0.33160197734832764, -114.30896759033203],
    [0.24057310819625854, -0.3524262607097626, 2.6656322479248047, -50.316139221191406],
    [0.0, 0.0, 0.0, 1.0]
],
  "dcmmeta_reorient_transform": [
    [0.0, -1.0, 0.0, 81.0],
    [1.0, 0.0, 0.0, 0.0],
    [0.0, 0.0, 1.0, 0.0],
    [0.0, 0.0, 0.0, 1.0]
],
  "dcmmeta_shape": [82, 82, 56, 967],
  "dcmmeta_slice_dim": 2,
  "dcmmeta_version": 0.6,
  "global": {
    "const": {
      "AccessionNumber": "A004039",
      "AcquisitionMatrix": [82, 0, 0, 82],
      "AngioFlag": "N",
      "BitsAllocated": 16,
      "BitsStored": 16,
      "BodyPartExamined": "BRAIN",
      "Columns": 656,
      "EchoNumbers": 1,
      "EchoTime": 27.2,
      "EchoTrainLength": 82,
      "FlipAngle": 44.0,
      "HighBit": 15,
      "ImageOrientationPatient": [0.99143522832421, -0.0949516191599, 0.08966815519818, 0.08273035793464, 0.98787677996765, 0.13135888046401],
      "ImagePositionPatient": [-941.28754230057, -787.92591486285, -249.05349008133],
      "ImageType": [
        "ORIGINAL",
        "PRIMARY",
        "M",
        "MB",
        "ND",
        "NORM",
        "MOSAIC"
],
      "ImagedNucleus": "1H",
      "ImagingFrequency": 123.252148,
      "InPlanePhaseEncodingDirection": "COL",
      "MRAcquisitionType": "2D",
      "MagneticFieldStrength": 3.0,
      "Manufacturer": "SIEMENS",
      "ManufacturerModelName": "Prisma",
      "Modality": "MR",
      "NumberOfAverages": 1.0,
      "NumberOfPhaseEncodingSteps": 82,
      "PercentPhaseFieldOfView": 100.0,
      "PercentSampling": 100.0,
      "PerformedProcedureStepStartTime": "182704.420000",
      "PhotometricInterpretation": "MONOCHROME2",
      "PixelBandwidth": 3050.0,
      "PixelRepresentation": 0,
      "PixelSpacing": [2.6829268932343, 2.6829268932343],
      "ProtocolName": "func_run-01_task-narratives_acq-ap-mb8",
      "RepetitionTime": 460.0,
      "Rows": 656,
      "SAR": 0.09726054259013,
      "SamplesPerPixel": 1,
      "ScanOptions": "FS",
      "ScanningSequence": "EP",
      "SequenceName": "epfid2d1_82",
      "SequenceVariant": [
        "SK",
        "SS"
],
      "SeriesDescription": "func_run-01_task-narratives_acq-ap-mb8",
      "SeriesNumber": 8,
      "SeriesTime": "185756.594000",
      "SliceLocation": -53.993086166567,
      "SliceThickness": 2.7000000476837,
      "SmallestImagePixelValue": 0,
      "SoftwareVersions": "syngo MR E11",
      "SpacingBetweenSlices": 2.6999999832121,
      "SpecificCharacterSet": "ISO_IR 100",
      "StudyID": "2",
      "StudyTime": "182704.348000",
      "TransmitCoilName": "Body",
      "VariableFlipAngleFlag": "N",
      "WindowCenterWidthExplanation": "Algo1"
    },
    "slices": {}
  },
  "time": {
    "samples": {
      "AcquisitionNumber": [1, 2, 3, 4, 5, 6, 7, 8, 9, 10, 11, 12, 13, 14, 15, 16, 17, 18, 19, 20, 21, 22, 23, 24, 25, 26, 27, 28, 29, 30, 31, 32, 33, 34, 35, 36, 37, 38, 39, 40, 41, 42, 43, 44, 45, 46, 47, 48, 49, 50, 51, 52, 53, 54, 55, 56, 57, 58, 59, 60, 61, 62, 63, 64, 65, 66, 67, 68, 69, 70, 71, 72, 73, 74, 75, 76, 77, 78, 79, 80, 81, 82, 83, 84, 85, 86, 87, 88, 89, 90, 91, 92, 93, 94, 95, 96, 97, 98, 99, 100, 101, 102, 103, 104, 105, 106, 107, 108, 109, 110, 111, 112, 113, 114, 115, 116, 117, 118, 119, 120, 121, 122, 123, 124, 125, 126, 127, 128, 129, 130, 131, 132, 133, 134, 135, 136, 137, 138, 139, 140, 141, 142, 143, 144, 145, 146, 147, 148, 149, 150, 151, 152, 153, 154, 155, 156, 157, 158, 159, 160, 161, 162, 163, 164, 165, 166, 167, 168, 169, 170, 171, 172, 173, 174, 175, 176, 177, 178, 179, 180, 181, 182, 183, 184, 185, 186, 187, 188, 189, 190, 191, 192, 193, 194, 195, 196, 197, 198, 199, 200, 201, 202, 203, 204, 205, 206, 207, 208, 209, 210, 211, 212, 213, 214, 215, 216, 217, 218, 219, 220, 221, 222, 223, 224, 225, 226, 227, 228, 229, 230, 231, 232, 233, 234, 235, 236, 237, 238, 239, 240, 241, 242, 243, 244, 245, 246, 247, 248, 249, 250, 251, 252, 253, 254, 255, 256, 257, 258, 259, 260, 261, 262, 263, 264, 265, 266, 267, 268, 269, 270, 271, 272, 273, 274, 275, 276, 277, 278, 279, 280, 281, 282, 283, 284, 285, 286, 287, 288, 289, 290, 291, 292, 293, 294, 295, 296, 297, 298, 299, 300, 301, 302, 303, 304, 305, 306, 307, 308, 309, 310, 311, 312, 313, 314, 315, 316, 317, 318, 319, 320, 321, 322, 323, 324, 325, 326, 327, 328, 329, 330, 331, 332, 333, 334, 335, 336, 337, 338, 339, 340, 341, 342, 343, 344, 345, 346, 347, 348, 349, 350, 351, 352, 353, 354, 355, 356, 357, 358, 359, 360, 361, 362, 363, 364, 365, 366, 367, 368, 369, 370, 371, 372, 373, 374, 375, 376, 377, 378, 379, 380, 381, 382, 383, 384, 385, 386, 387, 388, 389, 390, 391, 392, 393, 394, 395, 396, 397, 398, 399, 400, 401, 402, 403, 404, 405, 406, 407, 408, 409, 410, 411, 412, 413, 414, 415, 416, 417, 418, 419, 420, 421, 422, 423, 424, 425, 426, 427, 428, 429, 430, 431, 432, 433, 434, 435, 436, 437, 438, 439, 440, 441, 442, 443, 444, 445, 446, 447, 448, 449, 450, 451, 452, 453, 454, 455, 456, 457, 458, 459, 460, 461, 462, 463, 464, 465, 466, 467, 468, 469, 470, 471, 472, 473, 474, 475, 476, 477, 478, 479, 480, 481, 482, 483, 484, 485, 486, 487, 488, 489, 490, 491, 492, 493, 494, 495, 496, 497, 498, 499, 500, 501, 502, 503, 504, 505, 506, 507, 508, 509, 510, 511, 512, 513, 514, 515, 516, 517, 518, 519, 520, 521, 522, 523, 524, 525, 526, 527, 528, 529, 530, 531, 532, 533, 534, 535, 536, 537, 538, 539, 540, 541, 542, 543, 544, 545, 546, 547, 548, 549, 550, 551, 552, 553, 554, 555, 556, 557, 558, 559, 560, 561, 562, 563, 564, 565, 566, 567, 568, 569, 570, 571, 572, 573, 574, 575, 576, 577, 578, 579, 580, 581, 582, 583, 584, 585, 586, 587, 588, 589, 590, 591, 592, 593, 594, 595, 596, 597, 598, 599, 600, 601, 602, 603, 604, 605, 606, 607, 608, 609, 610, 611, 612, 613, 614, 615, 616, 617, 618, 619, 620, 621, 622, 623, 624, 625, 626, 627, 628, 629, 630, 631, 632, 633, 634, 635, 636, 637, 638, 639, 640, 641, 642, 643, 644, 645, 646, 647, 648, 649, 650, 651, 652, 653, 654, 655, 656, 657, 658, 659, 660, 661, 662, 663, 664, 665, 666, 667, 668, 669, 670, 671, 672, 673, 674, 675, 676, 677, 678, 679, 680, 681, 682, 683, 684, 685, 686, 687, 688, 689, 690, 691, 692, 693, 694, 695, 696, 697, 698, 699, 700, 701, 702, 703, 704, 705, 706, 707, 708, 709, 710, 711, 712, 713, 714, 715, 716, 717, 718, 719, 720, 721, 722, 723, 724, 725, 726, 727, 728, 729, 730, 731, 732, 733, 734, 735, 736, 737, 738, 739, 740, 741, 742, 743, 744, 745, 746, 747, 748, 749, 750, 751, 752, 753, 754, 755, 756, 757, 758, 759, 760, 761, 762, 763, 764, 765, 766, 767, 768, 769, 770, 771, 772, 773, 774, 775, 776, 777, 778, 779, 780, 781, 782, 783, 784, 785, 786, 787, 788, 789, 790, 791, 792, 793, 794, 795, 796, 797, 798, 799, 800, 801, 802, 803, 804, 805, 806, 807, 808, 809, 810, 811, 812, 813, 814, 815, 816, 817, 818, 819, 820, 821, 822, 823, 824, 825, 826, 827, 828, 829, 830, 831, 832, 833, 834, 835, 836, 837, 838, 839, 840, 841, 842, 843, 844, 845, 846, 847, 848, 849, 850, 851, 852, 853, 854, 855, 856, 857, 858, 859, 860, 861, 862, 863, 864, 865, 866, 867, 868, 869, 870, 871, 872, 873, 874, 875, 876, 877, 878, 879, 880, 881, 882, 883, 884, 885, 886, 887, 888, 889, 890, 891, 892, 893, 894, 895, 896, 897, 898, 899, 900, 901, 902, 903, 904, 905, 906, 907, 908, 909, 910, 911, 912, 913, 914, 915, 916, 917, 918, 919, 920, 921, 922, 923, 924, 925, 926, 927, 928, 929, 930, 931, 932, 933, 934, 935, 936, 937, 938, 939, 940, 941, 942, 943, 944, 945, 946, 947, 948, 949, 950, 951, 952, 953, 954, 955, 956, 957, 958, 959, 960, 961, 962, 963, 964, 965, 966, 967],
      "AcquisitionTime": ["185745.760000", "185746.220000", "185746.680000", "185747.140000", "185747.600000", "185748.060000", "185748.520000", "185748.980000", "185749.440000", "185749.900000", "185750.360000", "185750.820000", "185751.280000", "185751.740000", "185752.200000", "185752.660000", "185753.120000", "185753.580000", "185754.040000", "185754.500000", "185754.960000", "185755.420000", "185755.880000", "185756.340000", "185756.800000", "185757.260000", "185757.720000", "185758.180000", "185758.640000", "185759.100000", "185759.560000", "185800.020000", "185800.480000", "185800.940000", "185801.400000", "185801.860000", "185802.320000", "185802.780000", "185803.240000", "185803.700000", "185804.160000", "185804.620000", "185805.080000", "185805.540000", "185806.000000", "185806.460000", "185806.920000", "185807.380000", "185807.840000", "185808.300000", "185808.760000", "185809.220000", "185809.680000", "185810.140000", "185810.600000", "185811.060000", "185811.520000", "185811.980000", "185812.440000", "185812.900000", "185813.360000", "185813.820000", "185814.280000", "185814.740000", "185815.200000", "185815.660000", "185816.120000", "185816.580000", "185817.040000", "185817.500000", "185817.960000", "185818.420000", "185818.880000", "185819.340000", "185819.800000", "185820.260000", "185820.720000", "185821.180000", "185821.640000", "185822.100000", "185822.560000", "185823.020000", "185823.480000", "185823.940000", "185824.400000", "185824.860000", "185825.320000", "185825.780000", "185826.240000", "185826.700000", "185827.160000", "185827.620000", "185828.080000", "185828.540000", "185829.000000", "185829.460000", "185829.920000", "185830.380000", "185830.840000", "185831.300000", "185831.760000", "185832.220000", "185832.680000", "185833.140000", "185833.600000", "185834.060000", "185834.520000", "185834.980000", "185835.440000", "185835.900000", "185836.360000", "185836.820000", "185837.280000", "185837.740000", "185838.200000", "185838.660000", "185839.120000", "185839.580000", "185840.040000", "185840.500000", "185840.960000", "185841.420000", "185841.880000", "185842.340000", "185842.800000", "185843.260000", "185843.720000", "185844.180000", "185844.640000", "185845.100000", "185845.560000", "185846.020000", "185846.480000", "185846.940000", "185847.400000", "185847.860000", "185848.320000", "185848.780000", "185849.240000", "185849.700000", "185850.160000", "185850.620000", "185851.080000", "185851.540000", "185852.000000", "185852.460000", "185852.920000", "185853.380000", "185853.840000", "185854.300000", "185854.760000", "185855.220000", "185855.680000", "185856.140000", "185856.600000", "185857.060000", "185857.520000", "185857.980000", "185858.440000", "185858.900000", "185859.360000", "185859.820000", "185900.280000", "185900.740000", "185901.200000", "185901.660000", "185902.120000", "185902.580000", "185903.040000", "185903.500000", "185903.960000", "185904.420000", "185904.880000", "185905.340000", "185905.800000", "185906.260000", "185906.720000", "185907.180000", "185907.640000", "185908.100000", "185908.560000", "185909.020000", "185909.480000", "185909.940000", "185910.400000", "185910.860000", "185911.320000", "185911.780000", "185912.240000", "185912.700000", "185913.160000", "185913.620000", "185914.080000", "185914.540000", "185915.000000", "185915.460000", "185915.920000", "185916.380000", "185916.840000", "185917.300000", "185917.760000", "185918.220000", "185918.680000", "185919.140000", "185919.600000", "185920.060000", "185920.520000", "185920.980000", "185921.440000", "185921.900000", "185922.360000", "185922.820000", "185923.280000", "185923.740000", "185924.200000", "185924.660000", "185925.120000", "185925.580000", "185926.040000", "185926.500000", "185926.960000", "185927.420000", "185927.880000", "185928.340000", "185928.800000", "185929.260000", "185929.720000", "185930.180000", "185930.640000", "185931.100000", "185931.560000", "185932.020000", "185932.480000", "185932.940000", "185933.400000", "185933.860000", "185934.320000", "185934.780000", "185935.240000", "185935.700000", "185936.160000", "185936.620000", "185937.080000", "185937.540000", "185938.000000", "185938.460000", "185938.920000", "185939.380000", "185939.840000", "185940.300000", "185940.760000", "185941.220000", "185941.680000", "185942.140000", "185942.600000", "185943.060000", "185943.520000", "185943.980000", "185944.440000", "185944.900000", "185945.360000", "185945.820000", "185946.280000", "185946.740000", "185947.200000", "185947.660000", "185948.120000", "185948.580000", "185949.040000", "185949.500000", "185949.960000", "185950.420000", "185950.880000", "185951.340000", "185951.800000", "185952.260000", "185952.720000", "185953.180000", "185953.640000", "185954.100000", "185954.560000", "185955.020000", "185955.480000", "185955.940000", "185956.400000", "185956.860000", "185957.320000", "185957.780000", "185958.240000", "185958.700000", "185959.160000", "185959.620000", "190000.080000", "190000.540000", "190001.000000", "190001.460000", "190001.920000", "190002.380000", "190002.840000", "190003.300000", "190003.760000", "190004.220000", "190004.680000", "190005.140000", "190005.600000", "190006.060000", "190006.520000", "190006.980000", "190007.440000", "190007.900000", "190008.360000", "190008.820000", "190009.280000", "190009.740000", "190010.200000", "190010.660000", "190011.120000", "190011.580000", "190012.040000", "190012.500000", "190012.960000", "190013.420000", "190013.880000", "190014.340000", "190014.800000", "190015.260000", "190015.720000", "190016.180000", "190016.640000", "190017.100000", "190017.560000", "190018.020000", "190018.480000", "190018.940000", "190019.400000", "190019.860000", "190020.320000", "190020.780000", "190021.240000", "190021.700000", "190022.160000", "190022.620000", "190023.080000", "190023.540000", "190024.000000", "190024.460000", "190024.920000", "190025.380000", "190025.840000", "190026.300000", "190026.760000", "190027.220000", "190027.680000", "190028.140000", "190028.600000", "190029.060000", "190029.520000", "190029.980000", "190030.440000", "190030.900000", "190031.360000", "190031.820000", "190032.280000", "190032.740000", "190033.200000", "190033.660000", "190034.120000", "190034.580000", "190035.040000", "190035.500000", "190035.960000", "190036.420000", "190036.880000", "190037.340000", "190037.800000", "190038.260000", "190038.720000", "190039.180000", "190039.640000", "190040.100000", "190040.560000", "190041.020000", "190041.480000", "190041.940000", "190042.400000", "190042.860000", "190043.320000", "190043.780000", "190044.240000", "190044.700000", "190045.160000", "190045.620000", "190046.080000", "190046.540000", "190047.000000", "190047.460000", "190047.920000", "190048.380000", "190048.840000", "190049.300000", "190049.760000", "190050.220000", "190050.680000", "190051.140000", "190051.600000", "190052.060000", "190052.520000", "190052.980000", "190053.440000", "190053.900000", "190054.360000", "190054.820000", "190055.280000", "190055.740000", "190056.200000", "190056.660000", "190057.120000", "190057.580000", "190058.040000", "190058.500000", "190058.960000", "190059.420000", "190059.880000", "190100.340000", "190100.800000", "190101.260000", "190101.720000", "190102.180000", "190102.640000", "190103.100000", "190103.560000", "190104.020000", "190104.480000", "190104.940000", "190105.400000", "190105.860000", "190106.320000", "190106.780000", "190107.240000", "190107.700000", "190108.160000", "190108.620000", "190109.080000", "190109.540000", "190110.000000", "190110.460000", "190110.920000", "190111.380000", "190111.840000", "190112.300000", "190112.760000", "190113.220000", "190113.680000", "190114.140000", "190114.600000", "190115.060000", "190115.520000", "190115.980000", "190116.440000", "190116.900000", "190117.360000", "190117.820000", "190118.280000", "190118.740000", "190119.200000", "190119.660000", "190120.120000", "190120.580000", "190121.040000", "190121.500000", "190121.960000", "190122.420000", "190122.880000", "190123.340000", "190123.800000", "190124.260000", "190124.720000", "190125.180000", "190125.640000", "190126.100000", "190126.560000", "190127.020000", "190127.480000", "190127.940000", "190128.400000", "190128.860000", "190129.320000", "190129.780000", "190130.240000", "190130.700000", "190131.160000", "190131.620000", "190132.080000", "190132.540000", "190133.000000", "190133.460000", "190133.920000", "190134.380000", "190134.840000", "190135.300000", "190135.760000", "190136.220000", "190136.680000", "190137.140000", "190137.600000", "190138.060000", "190138.520000", "190138.980000", "190139.440000", "190139.900000", "190140.360000", "190140.820000", "190141.280000", "190141.740000", "190142.200000", "190142.660000", "190143.120000", "190143.580000", "190144.040000", "190144.500000", "190144.960000", "190145.420000", "190145.880000", "190146.340000", "190146.800000", "190147.260000", "190147.720000", "190148.180000", "190148.640000", "190149.100000", "190149.560000", "190150.020000", "190150.480000", "190150.940000", "190151.400000", "190151.860000", "190152.320000", "190152.780000", "190153.240000", "190153.700000", "190154.160000", "190154.620000", "190155.080000", "190155.540000", "190156.000000", "190156.460000", "190156.920000", "190157.380000", "190157.840000", "190158.300000", "190158.760000", "190159.220000", "190159.680000", "190200.140000", "190200.600000", "190201.060000", "190201.520000", "190201.980000", "190202.440000", "190202.900000", "190203.360000", "190203.820000", "190204.280000", "190204.740000", "190205.200000", "190205.660000", "190206.120000", "190206.580000", "190207.040000", "190207.500000", "190207.960000", "190208.420000", "190208.880000", "190209.340000", "190209.800000", "190210.260000", "190210.720000", "190211.180000", "190211.640000", "190212.100000", "190212.560000", "190213.020000", "190213.480000", "190213.940000", "190214.400000", "190214.860000", "190215.320000", "190215.780000", "190216.240000", "190216.700000", "190217.160000", "190217.620000", "190218.080000", "190218.540000", "190219.000000", "190219.460000", "190219.920000", "190220.380000", "190220.840000", "190221.300000", "190221.760000", "190222.220000", "190222.680000", "190223.140000", "190223.600000", "190224.060000", "190224.520000", "190224.980000", "190225.440000", "190225.900000", "190226.360000", "190226.820000", "190227.280000", "190227.740000", "190228.200000", "190228.660000", "190229.120000", "190229.580000", "190230.040000", "190230.500000", "190230.960000", "190231.420000", "190231.880000", "190232.340000", "190232.800000", "190233.260000", "190233.720000", "190234.180000", "190234.640000", "190235.100000", "190235.560000", "190236.020000", "190236.480000", "190236.940000", "190237.400000", "190237.860000", "190238.320000", "190238.780000", "190239.240000", "190239.700000", "190240.160000", "190240.620000", "190241.080000", "190241.540000", "190242.000000", "190242.460000", "190242.920000", "190243.380000", "190243.840000", "190244.300000", "190244.760000", "190245.220000", "190245.680000", "190246.140000", "190246.600000", "190247.060000", "190247.520000", "190247.980000", "190248.440000", "190248.900000", "190249.360000", "190249.820000", "190250.280000", "190250.740000", "190251.200000", "190251.660000", "190252.120000", "190252.580000", "190253.040000", "190253.500000", "190253.960000", "190254.420000", "190254.880000", "190255.340000", "190255.800000", "190256.260000", "190256.720000", "190257.180000", "190257.640000", "190258.100000", "190258.560000", "190259.020000", "190259.480000", "190259.940000", "190300.400000", "190300.860000", "190301.320000", "190301.780000", "190302.240000", "190302.700000", "190303.160000", "190303.620000", "190304.080000", "190304.540000", "190305.000000", "190305.460000", "190305.920000", "190306.380000", "190306.840000", "190307.300000", "190307.760000", "190308.220000", "190308.680000", "190309.140000", "190309.600000", "190310.060000", "190310.520000", "190310.980000", "190311.440000", "190311.900000", "190312.360000", "190312.820000", "190313.280000", "190313.740000", "190314.200000", "190314.660000", "190315.120000", "190315.580000", "190316.040000", "190316.500000", "190316.960000", "190317.420000", "190317.880000", "190318.340000", "190318.800000", "190319.260000", "190319.720000", "190320.180000", "190320.640000", "190321.100000", "190321.560000", "190322.020000", "190322.480000", "190322.940000", "190323.400000", "190323.860000", "190324.320000", "190324.780000", "190325.240000", "190325.700000", "190326.160000", "190326.620000", "190327.080000", "190327.540000", "190328.000000", "190328.460000", "190328.920000", "190329.380000", "190329.840000", "190330.300000", "190330.760000", "190331.220000", "190331.680000", "190332.140000", "190332.600000", "190333.060000", "190333.520000", "190333.980000", "190334.440000", "190334.900000", "190335.360000", "190335.820000", "190336.280000", "190336.740000", "190337.200000", "190337.660000", "190338.120000", "190338.580000", "190339.040000", "190339.500000", "190339.960000", "190340.420000", "190340.880000", "190341.340000", "190341.800000", "190342.260000", "190342.720000", "190343.180000", "190343.640000", "190344.100000", "190344.560000", "190345.020000", "190345.480000", "190345.940000", "190346.400000", "190346.860000", "190347.320000", "190347.780000", "190348.240000", "190348.700000", "190349.160000", "190349.620000", "190350.080000", "190350.540000", "190351.000000", "190351.460000", "190351.920000", "190352.380000", "190352.840000", "190353.300000", "190353.760000", "190354.220000", "190354.680000", "190355.140000", "190355.600000", "190356.060000", "190356.520000", "190356.980000", "190357.440000", "190357.900000", "190358.360000", "190358.820000", "190359.280000", "190359.740000", "190400.200000", "190400.660000", "190401.120000", "190401.580000", "190402.040000", "190402.500000", "190402.960000", "190403.420000", "190403.880000", "190404.340000", "190404.800000", "190405.260000", "190405.720000", "190406.180000", "190406.640000", "190407.100000", "190407.560000", "190408.020000", "190408.480000", "190408.940000", "190409.400000", "190409.860000", "190410.320000", "190410.780000", "190411.240000", "190411.700000", "190412.160000", "190412.620000", "190413.080000", "190413.540000", "190414.000000", "190414.460000", "190414.920000", "190415.380000", "190415.840000", "190416.300000", "190416.760000", "190417.220000", "190417.680000", "190418.140000", "190418.600000", "190419.060000", "190419.520000", "190419.980000", "190420.440000", "190420.900000", "190421.360000", "190421.820000", "190422.280000", "190422.740000", "190423.200000", "190423.660000", "190424.120000", "190424.580000", "190425.040000", "190425.500000", "190425.960000", "190426.420000", "190426.880000", "190427.340000", "190427.800000", "190428.260000", "190428.720000", "190429.180000", "190429.640000", "190430.100000", "190430.560000", "190431.020000", "190431.480000", "190431.940000", "190432.400000", "190432.860000", "190433.320000", "190433.780000", "190434.240000", "190434.700000", "190435.160000", "190435.620000", "190436.080000", "190436.540000", "190437.000000", "190437.460000", "190437.920000", "190438.380000", "190438.840000", "190439.300000", "190439.760000", "190440.220000", "190440.680000", "190441.140000", "190441.600000", "190442.060000", "190442.520000", "190442.980000", "190443.440000", "190443.900000", "190444.360000", "190444.820000", "190445.280000", "190445.740000", "190446.200000", "190446.660000", "190447.120000", "190447.580000", "190448.040000", "190448.500000", "190448.960000", "190449.420000", "190449.880000", "190450.340000", "190450.800000", "190451.260000", "190451.720000", "190452.180000", "190452.640000", "190453.100000", "190453.560000", "190454.020000", "190454.480000", "190454.940000", "190455.400000", "190455.860000", "190456.320000", "190456.780000", "190457.240000", "190457.700000", "190458.160000", "190458.620000", "190459.080000", "190459.540000", "190500.000000", "190500.460000", "190500.920000", "190501.380000", "190501.840000", "190502.300000", "190502.760000", "190503.220000", "190503.680000", "190504.140000", "190504.600000", "190505.060000", "190505.520000", "190505.980000", "190506.440000", "190506.900000", "190507.360000", "190507.820000", "190508.280000", "190508.740000", "190509.200000", "190509.660000", "190510.120000"],
