{
  "AcquisitionMatrixPE": 82,
  "AcquisitionNumber": 1,
  "AcquisitionTime": "15:02:39.665000",
  "BandwidthPerPixelPhaseEncode": 24.888,
  "BaseResolution": 82,
  "BodyPartExamined": "BRAIN",
  "ConsistencyInfo": "N4_VE11E_LATEST_20181129",
  "ConversionSoftware": "dcm2niix",
  "ConversionSoftwareVersion": "v1.0.20201102",
  "DerivedVendorReportedEchoSpacing": 0.00049,
  "DeviceSerialNumber": "66112",
  "DwellTime": 2e-06,
  "EchoTime": 0.0272,
  "EchoTrainLength": 82,
  "EffectiveEchoSpacing": 0.00049,
  "FlipAngle": 44,
  "ImageComments": "Unaliased MB8/PE3",
  "ImageOrientationPatientDICOM": [0.999981, -0.00334158, 0.00509797, 0.00366507, 0.99789, -0.0648251],
  "ImageType": [
    "ORIGINAL",
    "PRIMARY",
    "M",
    "MB",
    "ND",
    "NORM",
    "MOSAIC"
],
  "ImagingFrequency": 123.252,
  "InPlanePhaseEncodingDirectionDICOM": "COL",
  "InstitutionAddress": "Maynard 3,Hanover,NH,US,03755",
  "InstitutionName": "Dartmouth College - PBS",
  "InstitutionalDepartmentName": "Department",
  "MRAcquisitionType": "2D",
  "MagneticFieldStrength": 3,
  "Manufacturer": "Siemens",
  "ManufacturersModelName": "Prisma",
  "Modality": "MR",
  "MultibandAccelerationFactor": 8,
  "PartialFourier": 1,
  "PatientPosition": "HFS",
  "PercentPhaseFOV": 100,
  "PercentSampling": 100,
  "PhaseEncodingDirection": "j-",
  "PhaseEncodingSteps": 82,
  "PhaseResolution": 1,
  "PixelBandwidth": 3050,
  "ProcedureStepDescription": "Wager_Wager^1076_spacetop",
  "ProtocolName": "func_run-01_task-faces_acq-ap-mb8",
  "PulseSequenceDetails": "%CustomerSeq%\\cmrr_mbep2d_bold",
  "ReceiveCoilActiveElements": "HEA;HEP",
  "ReceiveCoilName": "Head_32",
  "ReconMatrixPE": 82,
  "RepetitionTime": 0.46,
  "SAR": 0.117183,
  "ScanOptions": "FS",
  "ScanningSequence": "EP",
  "SequenceName": "epfid2d1_82",
  "SequenceVariant": "SK\\SS",
  "SeriesDescription": "func_run-01_task-faces_acq-ap-mb8",
  "SeriesNumber": 16,
  "ShimSetting": [4144, -7727, -7297, 425, -132, -72, 56, 72],
  "SliceThickness": 2.7,
  "SliceTiming": [0, 0.25, 0.0625, 0.3125, 0.125, 0.3775, 0.1875, 0, 0.25, 0.0625, 0.3125, 0.125, 0.3775, 0.1875, 0, 0.25, 0.0625, 0.3125, 0.125, 0.3775, 0.1875, 0, 0.25, 0.0625, 0.3125, 0.125, 0.3775, 0.1875, 0, 0.25, 0.0625, 0.3125, 0.125, 0.3775, 0.1875, 0, 0.25, 0.0625, 0.3125, 0.125, 0.3775, 0.1875, 0, 0.25, 0.0625, 0.3125, 0.125, 0.3775, 0.1875, 0, 0.25, 0.0625, 0.3125, 0.125, 0.3775, 0.1875],
  "SoftwareVersions": "syngo MR E11",
  "SpacingBetweenSlices": 2.7,
  "StationName": "AWP66112",
  "TaskName": "faces",
  "TotalReadoutTime": 0.03969,
  "TxRefAmp": 285.472,
  "WipMemBlock": "b2349b89-b195-4aa2-bca8-a347593c4659||Sequence: R016 ve11e/master r/434b28f1; Aug  7 2019 18:53:46 by eja",
  "dcmmeta_affine": [
    [-2.6828770637512207, 0.009833117946982384, 0.013150596059858799, 109.39604949951172],
    [0.008965208195149899, 2.6772656440734863, -0.17507508397102356, -84.59111022949219],
    [0.013677471317350864, 0.1739211082458496, 2.6942858695983887, -74.3005599975586],
    [0.0, 0.0, 0.0, 1.0]
],
  "dcmmeta_reorient_transform": [
    [0.0, -1.0, 0.0, 81.0],
    [1.0, 0.0, 0.0, 0.0],
    [0.0, 0.0, 1.0, 0.0],
    [0.0, 0.0, 0.0, 1.0]
],
  "dcmmeta_shape": [82, 82, 56, 914],
  "dcmmeta_slice_dim": 2,
  "dcmmeta_version": 0.6,
  "global": {
    "const": {
      "AccessionNumber": "A003996",
      "AcquisitionMatrix": [82, 0, 0, 82],
      "AngioFlag": "N",
      "BitsAllocated": 16,
      "BitsStored": 16,
      "BodyPartExamined": "BRAIN",
      "Columns": 656,
      "EchoNumbers": 1,
      "EchoTime": 27.2,
      "EchoTrainLength": 82,
      "FlipAngle": 44.0,
      "HighBit": 15,
      "ImageOrientationPatient": [0.99998142212553, -0.0033415776258, 0.00509796653348, 0.00366507106814, 0.99788990805987, -0.0648251389996],
      "ImagePositionPatient": [-883.00035376919, -898.06964187367, -14.223023072837],
      "ImageType": [
        "ORIGINAL",
        "PRIMARY",
        "M",
        "MB",
        "ND",
        "NORM",
        "MOSAIC"
],
      "ImagedNucleus": "1H",
      "ImagingFrequency": 123.252198,
      "InPlanePhaseEncodingDirection": "COL",
      "MRAcquisitionType": "2D",
      "MagneticFieldStrength": 3.0,
      "Manufacturer": "SIEMENS",
      "ManufacturerModelName": "Prisma",
      "Modality": "MR",
      "NumberOfAverages": 1.0,
      "NumberOfPhaseEncodingSteps": 82,
      "PercentPhaseFieldOfView": 100.0,
      "PercentSampling": 100.0,
      "PerformedProcedureStepStartTime": "140552.928000",
      "PhotometricInterpretation": "MONOCHROME2",
      "PixelBandwidth": 3050.0,
      "PixelRepresentation": 0,
      "PixelSpacing": [2.6829268932343, 2.6829268932343],
      "ProtocolName": "func_run-01_task-faces_acq-ap-mb8",
      "RepetitionTime": 460.0,
      "Rows": 656,
      "SAR": 0.11718262013026,
      "SamplesPerPixel": 1,
      "ScanOptions": "FS",
      "ScanningSequence": "EP",
      "SequenceName": "epfid2d1_82",
      "SequenceVariant": [
        "SK",
        "SS"
],
      "SeriesDescription": "func_run-01_task-faces_acq-ap-mb8",
      "SeriesNumber": 16,
      "SeriesTime": "150249.552000",
      "SliceLocation": -68.125375728079,
      "SliceThickness": 2.7000000476837,
      "SmallestImagePixelValue": 0,
      "SoftwareVersions": "syngo MR E11",
      "SpacingBetweenSlices": 2.7000000955671,
      "SpecificCharacterSet": "ISO_IR 100",
      "StudyID": "2",
      "StudyTime": "140552.872000",
      "TransmitCoilName": "Body",
      "VariableFlipAngleFlag": "N",
      "WindowCenterWidthExplanation": "Algo1"
    },
    "slices": {}
  },
  "time": {
    "samples": {
      "AcquisitionNumber": [1, 2, 3, 4, 5, 6, 7, 8, 9, 10, 11, 12, 13, 14, 15, 16, 17, 18, 19, 20, 21, 22, 23, 24, 25, 26, 27, 28, 29, 30, 31, 32, 33, 34, 35, 36, 37, 38, 39, 40, 41, 42, 43, 44, 45, 46, 47, 48, 49, 50, 51, 52, 53, 54, 55, 56, 57, 58, 59, 60, 61, 62, 63, 64, 65, 66, 67, 68, 69, 70, 71, 72, 73, 74, 75, 76, 77, 78, 79, 80, 81, 82, 83, 84, 85, 86, 87, 88, 89, 90, 91, 92, 93, 94, 95, 96, 97, 98, 99, 100, 101, 102, 103, 104, 105, 106, 107, 108, 109, 110, 111, 112, 113, 114, 115, 116, 117, 118, 119, 120, 121, 122, 123, 124, 125, 126, 127, 128, 129, 130, 131, 132, 133, 134, 135, 136, 137, 138, 139, 140, 141, 142, 143, 144, 145, 146, 147, 148, 149, 150, 151, 152, 153, 154, 155, 156, 157, 158, 159, 160, 161, 162, 163, 164, 165, 166, 167, 168, 169, 170, 171, 172, 173, 174, 175, 176, 177, 178, 179, 180, 181, 182, 183, 184, 185, 186, 187, 188, 189, 190, 191, 192, 193, 194, 195, 196, 197, 198, 199, 200, 201, 202, 203, 204, 205, 206, 207, 208, 209, 210, 211, 212, 213, 214, 215, 216, 217, 218, 219, 220, 221, 222, 223, 224, 225, 226, 227, 228, 229, 230, 231, 232, 233, 234, 235, 236, 237, 238, 239, 240, 241, 242, 243, 244, 245, 246, 247, 248, 249, 250, 251, 252, 253, 254, 255, 256, 257, 258, 259, 260, 261, 262, 263, 264, 265, 266, 267, 268, 269, 270, 271, 272, 273, 274, 275, 276, 277, 278, 279, 280, 281, 282, 283, 284, 285, 286, 287, 288, 289, 290, 291, 292, 293, 294, 295, 296, 297, 298, 299, 300, 301, 302, 303, 304, 305, 306, 307, 308, 309, 310, 311, 312, 313, 314, 315, 316, 317, 318, 319, 320, 321, 322, 323, 324, 325, 326, 327, 328, 329, 330, 331, 332, 333, 334, 335, 336, 337, 338, 339, 340, 341, 342, 343, 344, 345, 346, 347, 348, 349, 350, 351, 352, 353, 354, 355, 356, 357, 358, 359, 360, 361, 362, 363, 364, 365, 366, 367, 368, 369, 370, 371, 372, 373, 374, 375, 376, 377, 378, 379, 380, 381, 382, 383, 384, 385, 386, 387, 388, 389, 390, 391, 392, 393, 394, 395, 396, 397, 398, 399, 400, 401, 402, 403, 404, 405, 406, 407, 408, 409, 410, 411, 412, 413, 414, 415, 416, 417, 418, 419, 420, 421, 422, 423, 424, 425, 426, 427, 428, 429, 430, 431, 432, 433, 434, 435, 436, 437, 438, 439, 440, 441, 442, 443, 444, 445, 446, 447, 448, 449, 450, 451, 452, 453, 454, 455, 456, 457, 458, 459, 460, 461, 462, 463, 464, 465, 466, 467, 468, 469, 470, 471, 472, 473, 474, 475, 476, 477, 478, 479, 480, 481, 482, 483, 484, 485, 486, 487, 488, 489, 490, 491, 492, 493, 494, 495, 496, 497, 498, 499, 500, 501, 502, 503, 504, 505, 506, 507, 508, 509, 510, 511, 512, 513, 514, 515, 516, 517, 518, 519, 520, 521, 522, 523, 524, 525, 526, 527, 528, 529, 530, 531, 532, 533, 534, 535, 536, 537, 538, 539, 540, 541, 542, 543, 544, 545, 546, 547, 548, 549, 550, 551, 552, 553, 554, 555, 556, 557, 558, 559, 560, 561, 562, 563, 564, 565, 566, 567, 568, 569, 570, 571, 572, 573, 574, 575, 576, 577, 578, 579, 580, 581, 582, 583, 584, 585, 586, 587, 588, 589, 590, 591, 592, 593, 594, 595, 596, 597, 598, 599, 600, 601, 602, 603, 604, 605, 606, 607, 608, 609, 610, 611, 612, 613, 614, 615, 616, 617, 618, 619, 620, 621, 622, 623, 624, 625, 626, 627, 628, 629, 630, 631, 632, 633, 634, 635, 636, 637, 638, 639, 640, 641, 642, 643, 644, 645, 646, 647, 648, 649, 650, 651, 652, 653, 654, 655, 656, 657, 658, 659, 660, 661, 662, 663, 664, 665, 666, 667, 668, 669, 670, 671, 672, 673, 674, 675, 676, 677, 678, 679, 680, 681, 682, 683, 684, 685, 686, 687, 688, 689, 690, 691, 692, 693, 694, 695, 696, 697, 698, 699, 700, 701, 702, 703, 704, 705, 706, 707, 708, 709, 710, 711, 712, 713, 714, 715, 716, 717, 718, 719, 720, 721, 722, 723, 724, 725, 726, 727, 728, 729, 730, 731, 732, 733, 734, 735, 736, 737, 738, 739, 740, 741, 742, 743, 744, 745, 746, 747, 748, 749, 750, 751, 752, 753, 754, 755, 756, 757, 758, 759, 760, 761, 762, 763, 764, 765, 766, 767, 768, 769, 770, 771, 772, 773, 774, 775, 776, 777, 778, 779, 780, 781, 782, 783, 784, 785, 786, 787, 788, 789, 790, 791, 792, 793, 794, 795, 796, 797, 798, 799, 800, 801, 802, 803, 804, 805, 806, 807, 808, 809, 810, 811, 812, 813, 814, 815, 816, 817, 818, 819, 820, 821, 822, 823, 824, 825, 826, 827, 828, 829, 830, 831, 832, 833, 834, 835, 836, 837, 838, 839, 840, 841, 842, 843, 844, 845, 846, 847, 848, 849, 850, 851, 852, 853, 854, 855, 856, 857, 858, 859, 860, 861, 862, 863, 864, 865, 866, 867, 868, 869, 870, 871, 872, 873, 874, 875, 876, 877, 878, 879, 880, 881, 882, 883, 884, 885, 886, 887, 888, 889, 890, 891, 892, 893, 894, 895, 896, 897, 898, 899, 900, 901, 902, 903, 904, 905, 906, 907, 908, 909, 910, 911, 912, 913, 914],
      "AcquisitionTime": ["150239.665000", "150240.125000", "150240.585000", "150241.045000", "150241.505000", "150241.965000", "150242.425000", "150242.885000", "150243.345000", "150243.805000", "150244.265000", "150244.725000", "150245.185000", "150245.645000", "150246.105000", "150246.565000", "150247.025000", "150247.485000", "150247.945000", "150248.405000", "150248.865000", "150249.325000", "150249.785000", "150250.245000", "150250.705000", "150251.165000", "150251.625000", "150252.085000", "150252.545000", "150253.005000", "150253.465000", "150253.925000", "150254.385000", "150254.845000", "150255.305000", "150255.765000", "150256.225000", "150256.685000", "150257.145000", "150257.605000", "150258.065000", "150258.525000", "150258.985000", "150259.445000", "150259.905000", "150300.365000", "150300.825000", "150301.285000", "150301.745000", "150302.205000", "150302.665000", "150303.125000", "150303.585000", "150304.045000", "150304.505000", "150304.965000", "150305.425000", "150305.885000", "150306.345000", "150306.805000", "150307.265000", "150307.725000", "150308.185000", "150308.645000", "150309.105000", "150309.565000", "150310.025000", "150310.485000", "150310.945000", "150311.405000", "150311.865000", "150312.325000", "150312.785000", "150313.245000", "150313.705000", "150314.165000", "150314.625000", "150315.085000", "150315.545000", "150316.005000", "150316.465000", "150316.925000", "150317.385000", "150317.845000", "150318.305000", "150318.765000", "150319.225000", "150319.685000", "150320.145000", "150320.605000", "150321.065000", "150321.525000", "150321.985000", "150322.445000", "150322.905000", "150323.365000", "150323.825000", "150324.285000", "150324.745000", "150325.205000", "150325.665000", "150326.125000", "150326.585000", "150327.045000", "150327.505000", "150327.965000", "150328.425000", "150328.885000", "150329.345000", "150329.805000", "150330.265000", "150330.725000", "150331.185000", "150331.645000", "150332.105000", "150332.565000", "150333.025000", "150333.485000", "150333.945000", "150334.405000", "150334.865000", "150335.325000", "150335.785000", "150336.245000", "150336.705000", "150337.165000", "150337.625000", "150338.085000", "150338.545000", "150339.005000", "150339.465000", "150339.925000", "150340.385000", "150340.845000", "150341.305000", "150341.765000", "150342.225000", "150342.685000", "150343.145000", "150343.605000", "150344.065000", "150344.525000", "150344.985000", "150345.445000", "150345.905000", "150346.365000", "150346.825000", "150347.285000", "150347.745000", "150348.205000", "150348.665000", "150349.125000", "150349.585000", "150350.045000", "150350.505000", "150350.965000", "150351.425000", "150351.885000", "150352.345000", "150352.805000", "150353.265000", "150353.725000", "150354.185000", "150354.645000", "150355.105000", "150355.565000", "150356.025000", "150356.485000", "150356.945000", "150357.405000", "150357.865000", "150358.325000", "150358.785000", "150359.245000", "150359.705000", "150400.165000", "150400.625000", "150401.085000", "150401.545000", "150402.005000", "150402.465000", "150402.925000", "150403.385000", "150403.845000", "150404.305000", "150404.765000", "150405.225000", "150405.685000", "150406.145000", "150406.605000", "150407.065000", "150407.525000", "150407.985000", "150408.445000", "150408.905000", "150409.365000", "150409.825000", "150410.285000", "150410.745000", "150411.205000", "150411.665000", "150412.125000", "150412.585000", "150413.045000", "150413.505000", "150413.965000", "150414.425000", "150414.885000", "150415.345000", "150415.805000", "150416.265000", "150416.725000", "150417.185000", "150417.645000", "150418.105000", "150418.565000", "150419.025000", "150419.485000", "150419.945000", "150420.405000", "150420.865000", "150421.325000", "150421.785000", "150422.245000", "150422.705000", "150423.165000", "150423.625000", "150424.085000", "150424.545000", "150425.005000", "150425.465000", "150425.925000", "150426.385000", "150426.845000", "150427.305000", "150427.765000", "150428.225000", "150428.685000", "150429.145000", "150429.605000", "150430.065000", "150430.525000", "150430.985000", "150431.445000", "150431.905000", "150432.365000", "150432.825000", "150433.285000", "150433.745000", "150434.205000", "150434.665000", "150435.125000", "150435.585000", "150436.045000", "150436.505000", "150436.965000", "150437.425000", "150437.885000", "150438.345000", "150438.805000", "150439.265000", "150439.725000", "150440.185000", "150440.645000", "150441.105000", "150441.565000", "150442.025000", "150442.485000", "150442.945000", "150443.405000", "150443.865000", "150444.325000", "150444.785000", "150445.245000", "150445.705000", "150446.165000", "150446.625000", "150447.085000", "150447.545000", "150448.005000", "150448.465000", "150448.925000", "150449.385000", "150449.845000", "150450.305000", "150450.765000", "150451.225000", "150451.685000", "150452.145000", "150452.605000", "150453.065000", "150453.525000", "150453.985000", "150454.445000", "150454.905000", "150455.365000", "150455.825000", "150456.285000", "150456.745000", "150457.205000", "150457.665000", "150458.125000", "150458.585000", "150459.045000", "150459.505000", "150459.965000", "150500.425000", "150500.885000", "150501.345000", "150501.805000", "150502.265000", "150502.725000", "150503.185000", "150503.645000", "150504.105000", "150504.565000", "150505.025000", "150505.485000", "150505.945000", "150506.405000", "150506.865000", "150507.325000", "150507.785000", "150508.245000", "150508.705000", "150509.165000", "150509.625000", "150510.085000", "150510.545000", "150511.005000", "150511.465000", "150511.925000", "150512.385000", "150512.845000", "150513.305000", "150513.765000", "150514.225000", "150514.685000", "150515.145000", "150515.605000", "150516.065000", "150516.525000", "150516.985000", "150517.445000", "150517.905000", "150518.365000", "150518.825000", "150519.285000", "150519.745000", "150520.205000", "150520.665000", "150521.125000", "150521.585000", "150522.045000", "150522.505000", "150522.965000", "150523.425000", "150523.885000", "150524.345000", "150524.805000", "150525.265000", "150525.725000", "150526.185000", "150526.645000", "150527.105000", "150527.565000", "150528.025000", "150528.485000", "150528.945000", "150529.405000", "150529.865000", "150530.325000", "150530.785000", "150531.245000", "150531.705000", "150532.165000", "150532.625000", "150533.085000", "150533.545000", "150534.005000", "150534.465000", "150534.925000", "150535.385000", "150535.845000", "150536.305000", "150536.765000", "150537.225000", "150537.685000", "150538.145000", "150538.605000", "150539.065000", "150539.525000", "150539.985000", "150540.445000", "150540.905000", "150541.365000", "150541.825000", "150542.285000", "150542.745000", "150543.205000", "150543.665000", "150544.125000", "150544.585000", "150545.045000", "150545.505000", "150545.965000", "150546.425000", "150546.885000", "150547.345000", "150547.805000", "150548.265000", "150548.725000", "150549.185000", "150549.645000", "150550.105000", "150550.565000", "150551.025000", "150551.485000", "150551.945000", "150552.405000", "150552.865000", "150553.325000", "150553.785000", "150554.245000", "150554.705000", "150555.165000", "150555.625000", "150556.085000", "150556.545000", "150557.005000", "150557.465000", "150557.925000", "150558.385000", "150558.845000", "150559.305000", "150559.765000", "150600.225000", "150600.685000", "150601.145000", "150601.605000", "150602.065000", "150602.525000", "150602.985000", "150603.445000", "150603.905000", "150604.365000", "150604.825000", "150605.285000", "150605.745000", "150606.205000", "150606.665000", "150607.125000", "150607.585000", "150608.045000", "150608.505000", "150608.965000", "150609.425000", "150609.885000", "150610.345000", "150610.805000", "150611.265000", "150611.725000", "150612.185000", "150612.645000", "150613.105000", "150613.565000", "150614.025000", "150614.485000", "150614.945000", "150615.405000", "150615.865000", "150616.325000", "150616.785000", "150617.245000", "150617.705000", "150618.165000", "150618.625000", "150619.085000", "150619.545000", "150620.005000", "150620.465000", "150620.925000", "150621.385000", "150621.845000", "150622.305000", "150622.765000", "150623.225000", "150623.685000", "150624.145000", "150624.605000", "150625.065000", "150625.525000", "150625.985000", "150626.445000", "150626.905000", "150627.365000", "150627.825000", "150628.285000", "150628.745000", "150629.205000", "150629.665000", "150630.125000", "150630.585000", "150631.045000", "150631.505000", "150631.965000", "150632.425000", "150632.885000", "150633.345000", "150633.805000", "150634.265000", "150634.725000", "150635.185000", "150635.645000", "150636.105000", "150636.565000", "150637.025000", "150637.485000", "150637.945000", "150638.405000", "150638.865000", "150639.325000", "150639.785000", "150640.245000", "150640.705000", "150641.165000", "150641.625000", "150642.085000", "150642.545000", "150643.005000", "150643.465000", "150643.925000", "150644.385000", "150644.845000", "150645.305000", "150645.765000", "150646.225000", "150646.685000", "150647.145000", "150647.605000", "150648.065000", "150648.525000", "150648.985000", "150649.445000", "150649.905000", "150650.365000", "150650.825000", "150651.285000", "150651.745000", "150652.205000", "150652.665000", "150653.125000", "150653.585000", "150654.045000", "150654.505000", "150654.965000", "150655.425000", "150655.885000", "150656.345000", "150656.805000", "150657.265000", "150657.725000", "150658.185000", "150658.645000", "150659.105000", "150659.565000", "150700.025000", "150700.485000", "150700.945000", "150701.405000", "150701.865000", "150702.325000", "150702.785000", "150703.245000", "150703.705000", "150704.165000", "150704.625000", "150705.085000", "150705.545000", "150706.005000", "150706.465000", "150706.925000", "150707.385000", "150707.845000", "150708.305000", "150708.765000", "150709.225000", "150709.685000", "150710.145000", "150710.605000", "150711.065000", "150711.525000", "150711.985000", "150712.445000", "150712.905000", "150713.365000", "150713.825000", "150714.285000", "150714.745000", "150715.205000", "150715.665000", "150716.125000", "150716.585000", "150717.045000", "150717.505000", "150717.965000", "150718.425000", "150718.885000", "150719.345000", "150719.805000", "150720.265000", "150720.725000", "150721.185000", "150721.645000", "150722.105000", "150722.565000", "150723.025000", "150723.485000", "150723.945000", "150724.405000", "150724.865000", "150725.325000", "150725.785000", "150726.245000", "150726.705000", "150727.165000", "150727.625000", "150728.085000", "150728.545000", "150729.005000", "150729.465000", "150729.925000", "150730.385000", "150730.845000", "150731.305000", "150731.765000", "150732.225000", "150732.685000", "150733.145000", "150733.605000", "150734.065000", "150734.525000", "150734.985000", "150735.445000", "150735.905000", "150736.365000", "150736.825000", "150737.285000", "150737.745000", "150738.205000", "150738.665000", "150739.125000", "150739.585000", "150740.045000", "150740.505000", "150740.965000", "150741.425000", "150741.885000", "150742.345000", "150742.805000", "150743.265000", "150743.725000", "150744.185000", "150744.645000", "150745.105000", "150745.565000", "150746.025000", "150746.485000", "150746.945000", "150747.405000", "150747.865000", "150748.325000", "150748.785000", "150749.245000", "150749.705000", "150750.165000", "150750.625000", "150751.085000", "150751.545000", "150752.005000", "150752.465000", "150752.925000", "150753.385000", "150753.845000", "150754.305000", "150754.765000", "150755.225000", "150755.685000", "150756.145000", "150756.605000", "150757.065000", "150757.525000", "150757.985000", "150758.445000", "150758.905000", "150759.365000", "150759.825000", "150800.285000", "150800.745000", "150801.205000", "150801.665000", "150802.125000", "150802.585000", "150803.045000", "150803.505000", "150803.965000", "150804.425000", "150804.885000", "150805.345000", "150805.805000", "150806.265000", "150806.725000", "150807.185000", "150807.645000", "150808.105000", "150808.565000", "150809.025000", "150809.485000", "150809.945000", "150810.405000", "150810.865000", "150811.325000", "150811.785000", "150812.245000", "150812.705000", "150813.165000", "150813.625000", "150814.085000", "150814.545000", "150815.005000", "150815.465000", "150815.925000", "150816.385000", "150816.845000", "150817.305000", "150817.765000", "150818.225000", "150818.685000", "150819.145000", "150819.605000", "150820.065000", "150820.525000", "150820.985000", "150821.445000", "150821.905000", "150822.365000", "150822.825000", "150823.285000", "150823.745000", "150824.205000", "150824.665000", "150825.125000", "150825.585000", "150826.045000", "150826.505000", "150826.965000", "150827.425000", "150827.885000", "150828.345000", "150828.805000", "150829.265000", "150829.725000", "150830.185000", "150830.645000", "150831.105000", "150831.565000", "150832.025000", "150832.485000", "150832.945000", "150833.405000", "150833.865000", "150834.325000", "150834.785000", "150835.245000", "150835.705000", "150836.165000", "150836.625000", "150837.085000", "150837.545000", "150838.005000", "150838.465000", "150838.925000", "150839.385000", "150839.845000", "150840.305000", "150840.765000", "150841.225000", "150841.685000", "150842.145000", "150842.605000", "150843.065000", "150843.525000", "150843.985000", "150844.445000", "150844.905000", "150845.365000", "150845.825000", "150846.285000", "150846.745000", "150847.205000", "150847.665000", "150848.125000", "150848.585000", "150849.045000", "150849.505000", "150849.965000", "150850.425000", "150850.885000", "150851.345000", "150851.805000", "150852.265000", "150852.725000", "150853.185000", "150853.645000", "150854.105000", "150854.565000", "150855.025000", "150855.485000", "150855.945000", "150856.405000", "150856.865000", "150857.325000", "150857.785000", "150858.245000", "150858.705000", "150859.165000", "150859.625000", "150900.085000", "150900.545000", "150901.005000", "150901.465000", "150901.925000", "150902.385000", "150902.845000", "150903.305000", "150903.765000", "150904.225000", "150904.685000", "150905.145000", "150905.605000", "150906.065000", "150906.525000", "150906.985000", "150907.445000", "150907.905000", "150908.365000", "150908.825000", "150909.285000", "150909.745000", "150910.205000", "150910.665000", "150911.125000", "150911.585000", "150912.045000", "150912.505000", "150912.965000", "150913.425000", "150913.885000", "150914.345000", "150914.805000", "150915.265000", "150915.725000", "150916.185000", "150916.645000", "150917.105000", "150917.565000", "150918.025000", "150918.485000", "150918.945000", "150919.405000", "150919.865000", "150920.325000", "150920.785000", "150921.245000", "150921.705000", "150922.165000", "150922.625000", "150923.085000", "150923.545000", "150924.005000", "150924.465000", "150924.925000", "150925.385000", "150925.845000", "150926.305000", "150926.765000", "150927.225000", "150927.685000", "150928.145000", "150928.605000", "150929.065000", "150929.525000", "150929.985000", "150930.445000", "150930.905000", "150931.365000", "150931.825000", "150932.285000", "150932.745000", "150933.205000", "150933.665000", "150934.125000", "150934.585000", "150935.045000", "150935.505000", "150935.965000", "150936.425000", "150936.885000", "150937.345000", "150937.805000", "150938.265000", "150938.725000", "150939.185000", "150939.645000"],
