{
  "AcquisitionMatrixPE": 82,
  "AcquisitionNumber": 1,
  "AcquisitionTime": "16:03:55.032500",
  "BandwidthPerPixelPhaseEncode": 24.888,
  "BaseResolution": 82,
  "BodyPartExamined": "BRAIN",
  "ConsistencyInfo": "N4_VE11E_LATEST_20181129",
  "ConversionSoftware": "dcm2niix",
  "ConversionSoftwareVersion": "v1.0.20201102",
  "DerivedVendorReportedEchoSpacing": 0.00049,
  "DeviceSerialNumber": "66112",
  "DwellTime": 2e-06,
  "EchoTime": 0.0272,
  "EchoTrainLength": 82,
  "EffectiveEchoSpacing": 0.00049,
  "FlipAngle": 44,
  "ImageComments": "Unaliased MB8/PE3",
  "ImageOrientationPatientDICOM": [0.999864, -0.00782862, 0.0145348, 0.00855113, 0.998696, -0.0503308],
  "ImageType": [
    "ORIGINAL",
    "PRIMARY",
    "M",
    "MB",
    "ND",
    "NORM",
    "MOSAIC"
],
  "ImagingFrequency": 123.252,
  "InPlanePhaseEncodingDirectionDICOM": "COL",
  "InstitutionAddress": "Maynard 3,Hanover,NH,US,03755",
  "InstitutionName": "Dartmouth College - PBS",
  "InstitutionalDepartmentName": "Department",
  "MRAcquisitionType": "2D",
  "MagneticFieldStrength": 3,
  "Manufacturer": "Siemens",
  "ManufacturersModelName": "Prisma",
  "Modality": "MR",
  "MultibandAccelerationFactor": 8,
  "PartialFourier": 1,
  "PatientPosition": "HFS",
  "PercentPhaseFOV": 100,
  "PercentSampling": 100,
  "PhaseEncodingDirection": "j-",
  "PhaseEncodingSteps": 82,
  "PhaseResolution": 1,
  "PixelBandwidth": 3050,
  "ProcedureStepDescription": "Wager_Wager^1076_spacetop",
  "ProtocolName": "func_run-04_task-alignvideo_acq-ap-mb8",
  "PulseSequenceDetails": "%CustomerSeq%\\cmrr_mbep2d_bold",
  "ReceiveCoilActiveElements": "HEA;HEP",
  "ReceiveCoilName": "Head_32",
  "ReconMatrixPE": 82,
  "RepetitionTime": 0.46,
  "SAR": 0.117183,
  "ScanOptions": "FS",
  "ScanningSequence": "EP",
  "SequenceName": "epfid2d1_82",
  "SequenceVariant": "SK\\SS",
  "SeriesDescription": "func_run-04_task-alignvideo_acq-ap-mb8",
  "SeriesNumber": 34,
  "ShimSetting": [4143, -7728, -7298, 420, -133, -79, 57, 72],
  "SliceThickness": 2.7,
  "SliceTiming": [0, 0.2525, 0.0625, 0.315, 0.125, 0.3775, 0.19, 0, 0.2525, 0.0625, 0.315, 0.125, 0.3775, 0.19, 0, 0.2525, 0.0625, 0.315, 0.125, 0.3775, 0.19, 0, 0.2525, 0.0625, 0.315, 0.125, 0.3775, 0.19, 0, 0.2525, 0.0625, 0.315, 0.125, 0.3775, 0.19, 0, 0.2525, 0.0625, 0.315, 0.125, 0.3775, 0.19, 0, 0.2525, 0.0625, 0.315, 0.125, 0.3775, 0.19, 0, 0.2525, 0.0625, 0.315, 0.125, 0.3775, 0.19],
  "SoftwareVersions": "syngo MR E11",
  "SpacingBetweenSlices": 2.7,
  "StationName": "AWP66112",
  "TaskName": "alignvideo",
  "TotalReadoutTime": 0.03969,
  "TxRefAmp": 285.472,
  "WipMemBlock": "79b145cc-e9df-4f35-8a84-67cea0a21ea4||Sequence: R016 ve11e/master r/434b28f1; Aug  7 2019 18:53:46 by eja",
  "dcmmeta_affine": [
    [-2.682561159133911, 0.02294205315411091, 0.0381290540099144, 108.22874450683594],
    [0.021003620699048042, 2.6794283390045166, -0.136210098862648, -86.9484634399414],
    [0.038995932787656784, 0.1350337415933609, 2.6962924003601074, -74.90118408203125],
    [0.0, 0.0, 0.0, 1.0]
],
  "dcmmeta_reorient_transform": [
    [0.0, -1.0, 0.0, 81.0],
    [1.0, 0.0, 0.0, 0.0],
    [0.0, 0.0, 1.0, 0.0],
    [0.0, 0.0, 0.0, 1.0]
],
  "dcmmeta_shape": [82, 82, 56, 914],
  "dcmmeta_slice_dim": 2,
  "dcmmeta_version": 0.6,
  "global": {
    "const": {
      "AccessionNumber": "A003996",
      "AcquisitionMatrix": [82, 0, 0, 82],
      "AngioFlag": "N",
      "BitsAllocated": 16,
      "BitsStored": 16,
      "BodyPartExamined": "BRAIN",
      "Columns": 656,
      "EchoNumbers": 1,
      "EchoTime": 27.2,
      "EchoTrainLength": 82,
      "FlipAngle": 44.0,
      "HighBit": 15,
      "ImageOrientationPatient": [0.99986371616542, -0.0078286221208, 0.01453484680223, 0.00855112878857, 0.99869599634738, -0.0503307567612],
      "ImagePositionPatient": [-886.56649665795, -893.05312906306, -36.400599461602],
      "ImageType": [
        "ORIGINAL",
        "PRIMARY",
        "M",
        "MB",
        "ND",
        "NORM",
        "MOSAIC"
],
      "ImagedNucleus": "1H",
      "ImagingFrequency": 123.252202,
      "InPlanePhaseEncodingDirection": "COL",
      "MRAcquisitionType": "2D",
      "MagneticFieldStrength": 3.0,
      "Manufacturer": "SIEMENS",
      "ManufacturerModelName": "Prisma",
      "Modality": "MR",
      "NumberOfAverages": 1.0,
      "NumberOfPhaseEncodingSteps": 82,
      "PercentPhaseFieldOfView": 100.0,
      "PercentSampling": 100.0,
      "PerformedProcedureStepStartTime": "140552.928000",
      "PhotometricInterpretation": "MONOCHROME2",
      "PixelBandwidth": 3050.0,
      "PixelRepresentation": 0,
      "PixelSpacing": [2.6829268932343, 2.6829268932343],
      "ProtocolName": "func_run-04_task-alignvideo_acq-ap-mb8",
      "RepetitionTime": 460.0,
      "Rows": 656,
      "SAR": 0.11718262013026,
      "SamplesPerPixel": 1,
      "ScanOptions": "FS",
      "ScanningSequence": "EP",
      "SequenceName": "epfid2d1_82",
      "SequenceVariant": [
        "SK",
        "SS"
],
      "SeriesDescription": "func_run-04_task-alignvideo_acq-ap-mb8",
      "SeriesNumber": 34,
      "SeriesTime": "160409.589000",
      "SliceLocation": -68.883547176906,
      "SliceThickness": 2.7000000476837,
      "SmallestImagePixelValue": 0,
      "SoftwareVersions": "syngo MR E11",
      "SpacingBetweenSlices": 2.6999999400835,
      "SpecificCharacterSet": "ISO_IR 100",
      "StudyID": "2",
      "StudyTime": "140552.872000",
      "TransmitCoilName": "Body",
      "VariableFlipAngleFlag": "N",
      "WindowCenterWidthExplanation": "Algo1"
    },
    "slices": {}
  },
  "time": {
    "samples": {
      "AcquisitionNumber": [1, 2, 3, 4, 5, 6, 7, 8, 9, 10, 11, 12, 13, 14, 15, 16, 17, 18, 19, 20, 21, 22, 23, 24, 25, 26, 27, 28, 29, 30, 31, 32, 33, 34, 35, 36, 37, 38, 39, 40, 41, 42, 43, 44, 45, 46, 47, 48, 49, 50, 51, 52, 53, 54, 55, 56, 57, 58, 59, 60, 61, 62, 63, 64, 65, 66, 67, 68, 69, 70, 71, 72, 73, 74, 75, 76, 77, 78, 79, 80, 81, 82, 83, 84, 85, 86, 87, 88, 89, 90, 91, 92, 93, 94, 95, 96, 97, 98, 99, 100, 101, 102, 103, 104, 105, 106, 107, 108, 109, 110, 111, 112, 113, 114, 115, 116, 117, 118, 119, 120, 121, 122, 123, 124, 125, 126, 127, 128, 129, 130, 131, 132, 133, 134, 135, 136, 137, 138, 139, 140, 141, 142, 143, 144, 145, 146, 147, 148, 149, 150, 151, 152, 153, 154, 155, 156, 157, 158, 159, 160, 161, 162, 163, 164, 165, 166, 167, 168, 169, 170, 171, 172, 173, 174, 175, 176, 177, 178, 179, 180, 181, 182, 183, 184, 185, 186, 187, 188, 189, 190, 191, 192, 193, 194, 195, 196, 197, 198, 199, 200, 201, 202, 203, 204, 205, 206, 207, 208, 209, 210, 211, 212, 213, 214, 215, 216, 217, 218, 219, 220, 221, 222, 223, 224, 225, 226, 227, 228, 229, 230, 231, 232, 233, 234, 235, 236, 237, 238, 239, 240, 241, 242, 243, 244, 245, 246, 247, 248, 249, 250, 251, 252, 253, 254, 255, 256, 257, 258, 259, 260, 261, 262, 263, 264, 265, 266, 267, 268, 269, 270, 271, 272, 273, 274, 275, 276, 277, 278, 279, 280, 281, 282, 283, 284, 285, 286, 287, 288, 289, 290, 291, 292, 293, 294, 295, 296, 297, 298, 299, 300, 301, 302, 303, 304, 305, 306, 307, 308, 309, 310, 311, 312, 313, 314, 315, 316, 317, 318, 319, 320, 321, 322, 323, 324, 325, 326, 327, 328, 329, 330, 331, 332, 333, 334, 335, 336, 337, 338, 339, 340, 341, 342, 343, 344, 345, 346, 347, 348, 349, 350, 351, 352, 353, 354, 355, 356, 357, 358, 359, 360, 361, 362, 363, 364, 365, 366, 367, 368, 369, 370, 371, 372, 373, 374, 375, 376, 377, 378, 379, 380, 381, 382, 383, 384, 385, 386, 387, 388, 389, 390, 391, 392, 393, 394, 395, 396, 397, 398, 399, 400, 401, 402, 403, 404, 405, 406, 407, 408, 409, 410, 411, 412, 413, 414, 415, 416, 417, 418, 419, 420, 421, 422, 423, 424, 425, 426, 427, 428, 429, 430, 431, 432, 433, 434, 435, 436, 437, 438, 439, 440, 441, 442, 443, 444, 445, 446, 447, 448, 449, 450, 451, 452, 453, 454, 455, 456, 457, 458, 459, 460, 461, 462, 463, 464, 465, 466, 467, 468, 469, 470, 471, 472, 473, 474, 475, 476, 477, 478, 479, 480, 481, 482, 483, 484, 485, 486, 487, 488, 489, 490, 491, 492, 493, 494, 495, 496, 497, 498, 499, 500, 501, 502, 503, 504, 505, 506, 507, 508, 509, 510, 511, 512, 513, 514, 515, 516, 517, 518, 519, 520, 521, 522, 523, 524, 525, 526, 527, 528, 529, 530, 531, 532, 533, 534, 535, 536, 537, 538, 539, 540, 541, 542, 543, 544, 545, 546, 547, 548, 549, 550, 551, 552, 553, 554, 555, 556, 557, 558, 559, 560, 561, 562, 563, 564, 565, 566, 567, 568, 569, 570, 571, 572, 573, 574, 575, 576, 577, 578, 579, 580, 581, 582, 583, 584, 585, 586, 587, 588, 589, 590, 591, 592, 593, 594, 595, 596, 597, 598, 599, 600, 601, 602, 603, 604, 605, 606, 607, 608, 609, 610, 611, 612, 613, 614, 615, 616, 617, 618, 619, 620, 621, 622, 623, 624, 625, 626, 627, 628, 629, 630, 631, 632, 633, 634, 635, 636, 637, 638, 639, 640, 641, 642, 643, 644, 645, 646, 647, 648, 649, 650, 651, 652, 653, 654, 655, 656, 657, 658, 659, 660, 661, 662, 663, 664, 665, 666, 667, 668, 669, 670, 671, 672, 673, 674, 675, 676, 677, 678, 679, 680, 681, 682, 683, 684, 685, 686, 687, 688, 689, 690, 691, 692, 693, 694, 695, 696, 697, 698, 699, 700, 701, 702, 703, 704, 705, 706, 707, 708, 709, 710, 711, 712, 713, 714, 715, 716, 717, 718, 719, 720, 721, 722, 723, 724, 725, 726, 727, 728, 729, 730, 731, 732, 733, 734, 735, 736, 737, 738, 739, 740, 741, 742, 743, 744, 745, 746, 747, 748, 749, 750, 751, 752, 753, 754, 755, 756, 757, 758, 759, 760, 761, 762, 763, 764, 765, 766, 767, 768, 769, 770, 771, 772, 773, 774, 775, 776, 777, 778, 779, 780, 781, 782, 783, 784, 785, 786, 787, 788, 789, 790, 791, 792, 793, 794, 795, 796, 797, 798, 799, 800, 801, 802, 803, 804, 805, 806, 807, 808, 809, 810, 811, 812, 813, 814, 815, 816, 817, 818, 819, 820, 821, 822, 823, 824, 825, 826, 827, 828, 829, 830, 831, 832, 833, 834, 835, 836, 837, 838, 839, 840, 841, 842, 843, 844, 845, 846, 847, 848, 849, 850, 851, 852, 853, 854, 855, 856, 857, 858, 859, 860, 861, 862, 863, 864, 865, 866, 867, 868, 869, 870, 871, 872, 873, 874, 875, 876, 877, 878, 879, 880, 881, 882, 883, 884, 885, 886, 887, 888, 889, 890, 891, 892, 893, 894, 895, 896, 897, 898, 899, 900, 901, 902, 903, 904, 905, 906, 907, 908, 909, 910, 911, 912, 913, 914],
      "AcquisitionTime": ["160355.032500", "160355.492500", "160355.952500", "160356.412500", "160356.872500", "160357.332500", "160357.792500", "160358.252500", "160358.712500", "160359.172500", "160359.632500", "160400.092500", "160400.552500", "160401.012500", "160401.472500", "160401.932500", "160402.392500", "160402.852500", "160403.312500", "160403.772500", "160404.232500", "160404.692500", "160405.152500", "160405.612500", "160406.072500", "160406.532500", "160406.992500", "160407.452500", "160407.912500", "160408.372500", "160408.832500", "160409.292500", "160409.752500", "160410.212500", "160410.672500", "160411.132500", "160411.592500", "160412.052500", "160412.512500", "160412.972500", "160413.432500", "160413.892500", "160414.352500", "160414.812500", "160415.272500", "160415.732500", "160416.192500", "160416.652500", "160417.112500", "160417.572500", "160418.032500", "160418.492500", "160418.952500", "160419.412500", "160419.872500", "160420.332500", "160420.792500", "160421.252500", "160421.712500", "160422.172500", "160422.632500", "160423.092500", "160423.552500", "160424.012500", "160424.472500", "160424.932500", "160425.392500", "160425.852500", "160426.312500", "160426.772500", "160427.232500", "160427.692500", "160428.152500", "160428.612500", "160429.072500", "160429.532500", "160429.992500", "160430.452500", "160430.912500", "160431.372500", "160431.832500", "160432.292500", "160432.752500", "160433.212500", "160433.672500", "160434.132500", "160434.592500", "160435.052500", "160435.512500", "160435.972500", "160436.432500", "160436.892500", "160437.352500", "160437.812500", "160438.272500", "160438.732500", "160439.192500", "160439.652500", "160440.112500", "160440.572500", "160441.032500", "160441.492500", "160441.952500", "160442.412500", "160442.872500", "160443.332500", "160443.792500", "160444.252500", "160444.712500", "160445.172500", "160445.632500", "160446.092500", "160446.552500", "160447.012500", "160447.472500", "160447.932500", "160448.392500", "160448.852500", "160449.312500", "160449.772500", "160450.232500", "160450.692500", "160451.152500", "160451.612500", "160452.072500", "160452.532500", "160452.992500", "160453.452500", "160453.912500", "160454.372500", "160454.832500", "160455.292500", "160455.752500", "160456.212500", "160456.672500", "160457.132500", "160457.592500", "160458.052500", "160458.512500", "160458.972500", "160459.432500", "160459.892500", "160500.352500", "160500.812500", "160501.272500", "160501.732500", "160502.192500", "160502.652500", "160503.112500", "160503.572500", "160504.032500", "160504.492500", "160504.952500", "160505.412500", "160505.872500", "160506.332500", "160506.792500", "160507.252500", "160507.712500", "160508.172500", "160508.632500", "160509.092500", "160509.552500", "160510.012500", "160510.472500", "160510.932500", "160511.392500", "160511.852500", "160512.312500", "160512.772500", "160513.232500", "160513.692500", "160514.152500", "160514.612500", "160515.072500", "160515.532500", "160515.992500", "160516.452500", "160516.912500", "160517.372500", "160517.832500", "160518.292500", "160518.752500", "160519.212500", "160519.672500", "160520.132500", "160520.592500", "160521.052500", "160521.512500", "160521.972500", "160522.432500", "160522.892500", "160523.352500", "160523.812500", "160524.272500", "160524.732500", "160525.192500", "160525.652500", "160526.112500", "160526.572500", "160527.032500", "160527.492500", "160527.952500", "160528.412500", "160528.872500", "160529.332500", "160529.792500", "160530.252500", "160530.712500", "160531.172500", "160531.632500", "160532.092500", "160532.552500", "160533.012500", "160533.472500", "160533.932500", "160534.392500", "160534.852500", "160535.312500", "160535.772500", "160536.232500", "160536.692500", "160537.152500", "160537.612500", "160538.072500", "160538.532500", "160538.992500", "160539.452500", "160539.912500", "160540.372500", "160540.832500", "160541.292500", "160541.752500", "160542.212500", "160542.672500", "160543.132500", "160543.592500", "160544.052500", "160544.512500", "160544.972500", "160545.432500", "160545.892500", "160546.352500", "160546.812500", "160547.272500", "160547.732500", "160548.192500", "160548.652500", "160549.112500", "160549.572500", "160550.032500", "160550.492500", "160550.952500", "160551.412500", "160551.872500", "160552.332500", "160552.792500", "160553.252500", "160553.712500", "160554.172500", "160554.632500", "160555.092500", "160555.552500", "160556.012500", "160556.472500", "160556.932500", "160557.392500", "160557.852500", "160558.312500", "160558.772500", "160559.232500", "160559.692500", "160600.152500", "160600.612500", "160601.072500", "160601.532500", "160601.992500", "160602.452500", "160602.912500", "160603.372500", "160603.832500", "160604.292500", "160604.752500", "160605.212500", "160605.672500", "160606.132500", "160606.592500", "160607.052500", "160607.512500", "160607.972500", "160608.432500", "160608.892500", "160609.352500", "160609.812500", "160610.272500", "160610.732500", "160611.192500", "160611.652500", "160612.112500", "160612.572500", "160613.032500", "160613.492500", "160613.952500", "160614.412500", "160614.872500", "160615.332500", "160615.792500", "160616.252500", "160616.712500", "160617.172500", "160617.632500", "160618.092500", "160618.552500", "160619.012500", "160619.472500", "160619.932500", "160620.392500", "160620.852500", "160621.312500", "160621.772500", "160622.232500", "160622.692500", "160623.152500", "160623.612500", "160624.072500", "160624.532500", "160624.992500", "160625.452500", "160625.912500", "160626.372500", "160626.832500", "160627.292500", "160627.752500", "160628.212500", "160628.672500", "160629.132500", "160629.592500", "160630.052500", "160630.512500", "160630.972500", "160631.432500", "160631.892500", "160632.352500", "160632.812500", "160633.272500", "160633.732500", "160634.192500", "160634.652500", "160635.112500", "160635.572500", "160636.032500", "160636.492500", "160636.952500", "160637.412500", "160637.872500", "160638.332500", "160638.792500", "160639.252500", "160639.712500", "160640.172500", "160640.632500", "160641.092500", "160641.552500", "160642.012500", "160642.472500", "160642.932500", "160643.392500", "160643.852500", "160644.312500", "160644.772500", "160645.232500", "160645.692500", "160646.152500", "160646.612500", "160647.072500", "160647.532500", "160647.992500", "160648.452500", "160648.912500", "160649.372500", "160649.832500", "160650.292500", "160650.752500", "160651.212500", "160651.672500", "160652.132500", "160652.592500", "160653.052500", "160653.512500", "160653.972500", "160654.432500", "160654.892500", "160655.352500", "160655.812500", "160656.272500", "160656.732500", "160657.192500", "160657.652500", "160658.112500", "160658.572500", "160659.032500", "160659.492500", "160659.952500", "160700.412500", "160700.872500", "160701.332500", "160701.792500", "160702.252500", "160702.712500", "160703.172500", "160703.632500", "160704.092500", "160704.552500", "160705.012500", "160705.472500", "160705.932500", "160706.392500", "160706.852500", "160707.312500", "160707.772500", "160708.232500", "160708.692500", "160709.152500", "160709.612500", "160710.072500", "160710.532500", "160710.992500", "160711.452500", "160711.912500", "160712.372500", "160712.832500", "160713.292500", "160713.752500", "160714.212500", "160714.672500", "160715.132500", "160715.592500", "160716.052500", "160716.512500", "160716.972500", "160717.432500", "160717.892500", "160718.352500", "160718.812500", "160719.272500", "160719.732500", "160720.192500", "160720.652500", "160721.112500", "160721.572500", "160722.032500", "160722.492500", "160722.952500", "160723.412500", "160723.872500", "160724.332500", "160724.792500", "160725.252500", "160725.712500", "160726.172500", "160726.632500", "160727.092500", "160727.552500", "160728.012500", "160728.472500", "160728.932500", "160729.392500", "160729.852500", "160730.312500", "160730.772500", "160731.232500", "160731.692500", "160732.152500", "160732.612500", "160733.072500", "160733.532500", "160733.992500", "160734.452500", "160734.912500", "160735.372500", "160735.832500", "160736.292500", "160736.752500", "160737.212500", "160737.672500", "160738.132500", "160738.592500", "160739.052500", "160739.512500", "160739.972500", "160740.432500", "160740.892500", "160741.352500", "160741.812500", "160742.272500", "160742.732500", "160743.192500", "160743.652500", "160744.112500", "160744.572500", "160745.032500", "160745.492500", "160745.952500", "160746.412500", "160746.872500", "160747.332500", "160747.792500", "160748.252500", "160748.712500", "160749.172500", "160749.632500", "160750.092500", "160750.552500", "160751.012500", "160751.472500", "160751.932500", "160752.392500", "160752.852500", "160753.312500", "160753.772500", "160754.232500", "160754.692500", "160755.152500", "160755.612500", "160756.072500", "160756.532500", "160756.992500", "160757.452500", "160757.912500", "160758.372500", "160758.832500", "160759.292500", "160759.752500", "160800.212500", "160800.672500", "160801.132500", "160801.592500", "160802.052500", "160802.512500", "160802.972500", "160803.432500", "160803.892500", "160804.352500", "160804.812500", "160805.272500", "160805.732500", "160806.192500", "160806.652500", "160807.112500", "160807.572500", "160808.032500", "160808.492500", "160808.952500", "160809.412500", "160809.872500", "160810.332500", "160810.792500", "160811.252500", "160811.712500", "160812.172500", "160812.632500", "160813.092500", "160813.552500", "160814.012500", "160814.472500", "160814.932500", "160815.392500", "160815.852500", "160816.312500", "160816.772500", "160817.232500", "160817.692500", "160818.152500", "160818.612500", "160819.072500", "160819.532500", "160819.992500", "160820.452500", "160820.912500", "160821.372500", "160821.832500", "160822.292500", "160822.752500", "160823.212500", "160823.672500", "160824.132500", "160824.592500", "160825.052500", "160825.512500", "160825.972500", "160826.432500", "160826.892500", "160827.352500", "160827.812500", "160828.272500", "160828.732500", "160829.192500", "160829.652500", "160830.112500", "160830.572500", "160831.032500", "160831.492500", "160831.952500", "160832.412500", "160832.872500", "160833.332500", "160833.792500", "160834.252500", "160834.712500", "160835.172500", "160835.632500", "160836.092500", "160836.552500", "160837.012500", "160837.472500", "160837.932500", "160838.392500", "160838.852500", "160839.312500", "160839.772500", "160840.232500", "160840.692500", "160841.152500", "160841.612500", "160842.072500", "160842.532500", "160842.992500", "160843.452500", "160843.912500", "160844.372500", "160844.832500", "160845.292500", "160845.752500", "160846.212500", "160846.672500", "160847.132500", "160847.592500", "160848.052500", "160848.512500", "160848.972500", "160849.432500", "160849.892500", "160850.352500", "160850.812500", "160851.272500", "160851.732500", "160852.192500", "160852.652500", "160853.112500", "160853.572500", "160854.032500", "160854.492500", "160854.952500", "160855.412500", "160855.872500", "160856.332500", "160856.792500", "160857.252500", "160857.712500", "160858.172500", "160858.632500", "160859.092500", "160859.552500", "160900.012500", "160900.472500", "160900.932500", "160901.392500", "160901.852500", "160902.312500", "160902.772500", "160903.232500", "160903.692500", "160904.152500", "160904.612500", "160905.072500", "160905.532500", "160905.992500", "160906.452500", "160906.912500", "160907.372500", "160907.832500", "160908.292500", "160908.752500", "160909.212500", "160909.672500", "160910.132500", "160910.592500", "160911.052500", "160911.512500", "160911.972500", "160912.432500", "160912.892500", "160913.352500", "160913.812500", "160914.272500", "160914.732500", "160915.192500", "160915.652500", "160916.112500", "160916.572500", "160917.032500", "160917.492500", "160917.952500", "160918.412500", "160918.872500", "160919.332500", "160919.792500", "160920.252500", "160920.712500", "160921.172500", "160921.632500", "160922.092500", "160922.552500", "160923.012500", "160923.472500", "160923.932500", "160924.392500", "160924.852500", "160925.312500", "160925.772500", "160926.232500", "160926.692500", "160927.152500", "160927.612500", "160928.072500", "160928.532500", "160928.992500", "160929.452500", "160929.912500", "160930.372500", "160930.832500", "160931.292500", "160931.752500", "160932.212500", "160932.672500", "160933.132500", "160933.592500", "160934.052500", "160934.512500", "160934.972500", "160935.432500", "160935.892500", "160936.352500", "160936.812500", "160937.272500", "160937.732500", "160938.192500", "160938.652500", "160939.112500", "160939.572500", "160940.032500", "160940.492500", "160940.952500", "160941.412500", "160941.872500", "160942.332500", "160942.792500", "160943.252500", "160943.712500", "160944.172500", "160944.632500", "160945.092500", "160945.552500", "160946.012500", "160946.472500", "160946.932500", "160947.392500", "160947.852500", "160948.312500", "160948.772500", "160949.232500", "160949.692500", "160950.152500", "160950.612500", "160951.072500", "160951.532500", "160951.992500", "160952.452500", "160952.912500", "160953.372500", "160953.832500", "160954.292500", "160954.752500", "160955.212500", "160955.672500", "160956.132500", "160956.592500", "160957.052500", "160957.512500", "160957.972500", "160958.432500", "160958.892500", "160959.352500", "160959.812500", "161000.272500", "161000.732500", "161001.192500", "161001.652500", "161002.112500", "161002.572500", "161003.032500", "161003.492500", "161003.952500", "161004.412500", "161004.872500", "161005.332500", "161005.792500", "161006.252500", "161006.712500", "161007.172500", "161007.632500", "161008.092500", "161008.552500", "161009.012500", "161009.472500", "161009.932500", "161010.392500", "161010.852500", "161011.312500", "161011.772500", "161012.232500", "161012.692500", "161013.152500", "161013.612500", "161014.072500", "161014.532500", "161014.992500", "161015.452500", "161015.912500", "161016.372500", "161016.832500", "161017.292500", "161017.752500", "161018.212500", "161018.672500", "161019.132500", "161019.592500", "161020.052500", "161020.512500", "161020.972500", "161021.432500", "161021.892500", "161022.352500", "161022.812500", "161023.272500", "161023.732500", "161024.192500", "161024.652500", "161025.112500", "161025.572500", "161026.032500", "161026.492500", "161026.952500", "161027.412500", "161027.872500", "161028.332500", "161028.792500", "161029.252500", "161029.712500", "161030.172500", "161030.632500", "161031.092500", "161031.552500", "161032.012500", "161032.472500", "161032.932500", "161033.392500", "161033.852500", "161034.312500", "161034.772500", "161035.232500", "161035.692500", "161036.152500", "161036.612500", "161037.072500", "161037.532500", "161037.992500", "161038.452500", "161038.912500", "161039.372500", "161039.832500", "161040.292500", "161040.752500", "161041.212500", "161041.672500", "161042.132500", "161042.592500", "161043.052500", "161043.512500", "161043.972500", "161044.432500", "161044.892500", "161045.352500", "161045.812500", "161046.272500", "161046.732500", "161047.192500", "161047.652500", "161048.112500", "161048.572500", "161049.032500", "161049.492500", "161049.952500", "161050.412500", "161050.872500", "161051.332500", "161051.792500", "161052.252500", "161052.712500", "161053.172500", "161053.632500", "161054.092500", "161054.552500", "161055.012500"],
