{
  "AcquisitionMatrixPE": 82,
  "AcquisitionNumber": 1,
  "AcquisitionTime": "14:18:26.982500",
  "BandwidthPerPixelPhaseEncode": 24.888,
  "BaseResolution": 82,
  "BodyPartExamined": "BRAIN",
  "ConsistencyInfo": "N4_VE11E_LATEST_20181129",
  "ConversionSoftware": "dcm2niix",
  "ConversionSoftwareVersion": "v1.0.20201102",
  "DerivedVendorReportedEchoSpacing": 0.00049,
  "DeviceSerialNumber": "66112",
  "DwellTime": 2e-06,
  "EchoTime": 0.0272,
  "EchoTrainLength": 82,
  "EffectiveEchoSpacing": 0.00049,
  "FlipAngle": 44,
  "ImageComments": "Unaliased MB8/PE3",
  "ImageOrientationPatientDICOM": [0.999981, -0.00334158, 0.00509797, 0.00366507, 0.99789, -0.0648251],
  "ImageType": [
    "ORIGINAL",
    "PRIMARY",
    "M",
    "MB",
    "ND",
    "NORM",
    "MOSAIC"
],
  "ImagingFrequency": 123.252,
  "InPlanePhaseEncodingDirectionDICOM": "COL",
  "InstitutionAddress": "Maynard 3,Hanover,NH,US,03755",
  "InstitutionName": "Dartmouth College - PBS",
  "InstitutionalDepartmentName": "Department",
  "MRAcquisitionType": "2D",
  "MagneticFieldStrength": 3,
  "Manufacturer": "Siemens",
  "ManufacturersModelName": "Prisma",
  "Modality": "MR",
  "MultibandAccelerationFactor": 8,
  "PartialFourier": 1,
  "PatientPosition": "HFS",
  "PercentPhaseFOV": 100,
  "PercentSampling": 100,
  "PhaseEncodingDirection": "j-",
  "PhaseEncodingSteps": 82,
  "PhaseResolution": 1,
  "PixelBandwidth": 3050,
  "ProcedureStepDescription": "Wager_Wager^1076_spacetop",
  "ProtocolName": "func_run-01_task-narratives_acq-ap-mb8",
  "PulseSequenceDetails": "%CustomerSeq%\\cmrr_mbep2d_bold",
  "ReceiveCoilActiveElements": "HEA;HEP",
  "ReceiveCoilName": "Head_32",
  "ReconMatrixPE": 82,
  "RepetitionTime": 0.46,
  "SAR": 0.117221,
  "ScanOptions": "FS",
  "ScanningSequence": "EP",
  "SequenceName": "epfid2d1_82",
  "SequenceVariant": "SK\\SS",
  "SeriesDescription": "func_run-01_task-narratives_acq-ap-mb8",
  "SeriesNumber": 8,
  "ShimSetting": [4144, -7727, -7297, 425, -132, -72, 56, 72],
  "SliceThickness": 2.7,
  "SliceTiming": [0, 0.25, 0.0625, 0.3125, 0.125, 0.3775, 0.1875, 0, 0.25, 0.0625, 0.3125, 0.125, 0.3775, 0.1875, 0, 0.25, 0.0625, 0.3125, 0.125, 0.3775, 0.1875, 0, 0.25, 0.0625, 0.3125, 0.125, 0.3775, 0.1875, 0, 0.25, 0.0625, 0.3125, 0.125, 0.3775, 0.1875, 0, 0.25, 0.0625, 0.3125, 0.125, 0.3775, 0.1875, 0, 0.25, 0.0625, 0.3125, 0.125, 0.3775, 0.1875, 0, 0.25, 0.0625, 0.3125, 0.125, 0.3775, 0.1875],
  "SoftwareVersions": "syngo MR E11",
  "SpacingBetweenSlices": 2.7,
  "StationName": "AWP66112",
  "TaskName": "narratives",
  "TotalReadoutTime": 0.03969,
  "TxRefAmp": 285.472,
  "WipMemBlock": "1e041b8a-1ec9-44aa-a0f9-4866ae98bd24||Sequence: R016 ve11e/master r/434b28f1; Aug  7 2019 18:53:46 by eja",
  "dcmmeta_affine": [
    [-2.6828770637512207, 0.009833117946982384, 0.013150596059858799, 109.39604949951172],
    [0.008965208195149899, 2.6772656440734863, -0.17507508397102356, -84.59111022949219],
    [0.013677471317350864, 0.1739211082458496, 2.6942858695983887, -74.3005599975586],
    [0.0, 0.0, 0.0, 1.0]
],
  "dcmmeta_reorient_transform": [
    [0.0, -1.0, 0.0, 81.0],
    [1.0, 0.0, 0.0, 0.0],
    [0.0, 0.0, 1.0, 0.0],
    [0.0, 0.0, 0.0, 1.0]
],
  "dcmmeta_shape": [82, 82, 56, 967],
  "dcmmeta_slice_dim": 2,
  "dcmmeta_version": 0.6,
  "global": {
    "const": {
      "AccessionNumber": "A003996",
      "AcquisitionMatrix": [82, 0, 0, 82],
      "AngioFlag": "N",
      "BitsAllocated": 16,
      "BitsStored": 16,
      "BodyPartExamined": "BRAIN",
      "Columns": 656,
      "EchoNumbers": 1,
      "EchoTime": 27.2,
      "EchoTrainLength": 82,
      "FlipAngle": 44.0,
      "HighBit": 15,
      "ImageOrientationPatient": [0.99998142212553, -0.0033415776258, 0.00509796653348, 0.00366507106814, 0.99788990805987, -0.0648251389996],
      "ImagePositionPatient": [-883.00035376919, -898.06964187367, -14.223023072837],
      "ImageType": [
        "ORIGINAL",
        "PRIMARY",
        "M",
        "MB",
        "ND",
        "NORM",
        "MOSAIC"
],
      "ImagedNucleus": "1H",
      "ImagingFrequency": 123.252186,
      "InPlanePhaseEncodingDirection": "COL",
      "MRAcquisitionType": "2D",
      "MagneticFieldStrength": 3.0,
      "Manufacturer": "SIEMENS",
      "ManufacturerModelName": "Prisma",
      "Modality": "MR",
      "NumberOfAverages": 1.0,
      "NumberOfPhaseEncodingSteps": 82,
      "PercentPhaseFieldOfView": 100.0,
      "PercentSampling": 100.0,
      "PerformedProcedureStepStartTime": "140552.928000",
      "PhotometricInterpretation": "MONOCHROME2",
      "PixelBandwidth": 3050.0,
      "PixelRepresentation": 0,
      "PixelSpacing": [2.6829268932343, 2.6829268932343],
      "ProtocolName": "func_run-01_task-narratives_acq-ap-mb8",
      "RepetitionTime": 460.0,
      "Rows": 656,
      "SAR": 0.11722072643354,
      "SamplesPerPixel": 1,
      "ScanOptions": "FS",
      "ScanningSequence": "EP",
      "SequenceName": "epfid2d1_82",
      "SequenceVariant": [
        "SK",
        "SS"
],
      "SeriesDescription": "func_run-01_task-narratives_acq-ap-mb8",
      "SeriesNumber": 8,
      "SeriesTime": "141849.469000",
      "SliceLocation": -68.125375728079,
      "SliceThickness": 2.7000000476837,
      "SmallestImagePixelValue": 0,
      "SoftwareVersions": "syngo MR E11",
      "SpacingBetweenSlices": 2.7000000955671,
      "SpecificCharacterSet": "ISO_IR 100",
      "StudyID": "2",
      "StudyTime": "140552.872000",
      "TransmitCoilName": "Body",
      "VariableFlipAngleFlag": "N",
      "WindowCenterWidthExplanation": "Algo1"
    },
    "slices": {}
  },
  "time": {
    "samples": {
      "AcquisitionNumber": [1, 2, 3, 4, 5, 6, 7, 8, 9, 10, 11, 12, 13, 14, 15, 16, 17, 18, 19, 20, 21, 22, 23, 24, 25, 26, 27, 28, 29, 30, 31, 32, 33, 34, 35, 36, 37, 38, 39, 40, 41, 42, 43, 44, 45, 46, 47, 48, 49, 50, 51, 52, 53, 54, 55, 56, 57, 58, 59, 60, 61, 62, 63, 64, 65, 66, 67, 68, 69, 70, 71, 72, 73, 74, 75, 76, 77, 78, 79, 80, 81, 82, 83, 84, 85, 86, 87, 88, 89, 90, 91, 92, 93, 94, 95, 96, 97, 98, 99, 100, 101, 102, 103, 104, 105, 106, 107, 108, 109, 110, 111, 112, 113, 114, 115, 116, 117, 118, 119, 120, 121, 122, 123, 124, 125, 126, 127, 128, 129, 130, 131, 132, 133, 134, 135, 136, 137, 138, 139, 140, 141, 142, 143, 144, 145, 146, 147, 148, 149, 150, 151, 152, 153, 154, 155, 156, 157, 158, 159, 160, 161, 162, 163, 164, 165, 166, 167, 168, 169, 170, 171, 172, 173, 174, 175, 176, 177, 178, 179, 180, 181, 182, 183, 184, 185, 186, 187, 188, 189, 190, 191, 192, 193, 194, 195, 196, 197, 198, 199, 200, 201, 202, 203, 204, 205, 206, 207, 208, 209, 210, 211, 212, 213, 214, 215, 216, 217, 218, 219, 220, 221, 222, 223, 224, 225, 226, 227, 228, 229, 230, 231, 232, 233, 234, 235, 236, 237, 238, 239, 240, 241, 242, 243, 244, 245, 246, 247, 248, 249, 250, 251, 252, 253, 254, 255, 256, 257, 258, 259, 260, 261, 262, 263, 264, 265, 266, 267, 268, 269, 270, 271, 272, 273, 274, 275, 276, 277, 278, 279, 280, 281, 282, 283, 284, 285, 286, 287, 288, 289, 290, 291, 292, 293, 294, 295, 296, 297, 298, 299, 300, 301, 302, 303, 304, 305, 306, 307, 308, 309, 310, 311, 312, 313, 314, 315, 316, 317, 318, 319, 320, 321, 322, 323, 324, 325, 326, 327, 328, 329, 330, 331, 332, 333, 334, 335, 336, 337, 338, 339, 340, 341, 342, 343, 344, 345, 346, 347, 348, 349, 350, 351, 352, 353, 354, 355, 356, 357, 358, 359, 360, 361, 362, 363, 364, 365, 366, 367, 368, 369, 370, 371, 372, 373, 374, 375, 376, 377, 378, 379, 380, 381, 382, 383, 384, 385, 386, 387, 388, 389, 390, 391, 392, 393, 394, 395, 396, 397, 398, 399, 400, 401, 402, 403, 404, 405, 406, 407, 408, 409, 410, 411, 412, 413, 414, 415, 416, 417, 418, 419, 420, 421, 422, 423, 424, 425, 426, 427, 428, 429, 430, 431, 432, 433, 434, 435, 436, 437, 438, 439, 440, 441, 442, 443, 444, 445, 446, 447, 448, 449, 450, 451, 452, 453, 454, 455, 456, 457, 458, 459, 460, 461, 462, 463, 464, 465, 466, 467, 468, 469, 470, 471, 472, 473, 474, 475, 476, 477, 478, 479, 480, 481, 482, 483, 484, 485, 486, 487, 488, 489, 490, 491, 492, 493, 494, 495, 496, 497, 498, 499, 500, 501, 502, 503, 504, 505, 506, 507, 508, 509, 510, 511, 512, 513, 514, 515, 516, 517, 518, 519, 520, 521, 522, 523, 524, 525, 526, 527, 528, 529, 530, 531, 532, 533, 534, 535, 536, 537, 538, 539, 540, 541, 542, 543, 544, 545, 546, 547, 548, 549, 550, 551, 552, 553, 554, 555, 556, 557, 558, 559, 560, 561, 562, 563, 564, 565, 566, 567, 568, 569, 570, 571, 572, 573, 574, 575, 576, 577, 578, 579, 580, 581, 582, 583, 584, 585, 586, 587, 588, 589, 590, 591, 592, 593, 594, 595, 596, 597, 598, 599, 600, 601, 602, 603, 604, 605, 606, 607, 608, 609, 610, 611, 612, 613, 614, 615, 616, 617, 618, 619, 620, 621, 622, 623, 624, 625, 626, 627, 628, 629, 630, 631, 632, 633, 634, 635, 636, 637, 638, 639, 640, 641, 642, 643, 644, 645, 646, 647, 648, 649, 650, 651, 652, 653, 654, 655, 656, 657, 658, 659, 660, 661, 662, 663, 664, 665, 666, 667, 668, 669, 670, 671, 672, 673, 674, 675, 676, 677, 678, 679, 680, 681, 682, 683, 684, 685, 686, 687, 688, 689, 690, 691, 692, 693, 694, 695, 696, 697, 698, 699, 700, 701, 702, 703, 704, 705, 706, 707, 708, 709, 710, 711, 712, 713, 714, 715, 716, 717, 718, 719, 720, 721, 722, 723, 724, 725, 726, 727, 728, 729, 730, 731, 732, 733, 734, 735, 736, 737, 738, 739, 740, 741, 742, 743, 744, 745, 746, 747, 748, 749, 750, 751, 752, 753, 754, 755, 756, 757, 758, 759, 760, 761, 762, 763, 764, 765, 766, 767, 768, 769, 770, 771, 772, 773, 774, 775, 776, 777, 778, 779, 780, 781, 782, 783, 784, 785, 786, 787, 788, 789, 790, 791, 792, 793, 794, 795, 796, 797, 798, 799, 800, 801, 802, 803, 804, 805, 806, 807, 808, 809, 810, 811, 812, 813, 814, 815, 816, 817, 818, 819, 820, 821, 822, 823, 824, 825, 826, 827, 828, 829, 830, 831, 832, 833, 834, 835, 836, 837, 838, 839, 840, 841, 842, 843, 844, 845, 846, 847, 848, 849, 850, 851, 852, 853, 854, 855, 856, 857, 858, 859, 860, 861, 862, 863, 864, 865, 866, 867, 868, 869, 870, 871, 872, 873, 874, 875, 876, 877, 878, 879, 880, 881, 882, 883, 884, 885, 886, 887, 888, 889, 890, 891, 892, 893, 894, 895, 896, 897, 898, 899, 900, 901, 902, 903, 904, 905, 906, 907, 908, 909, 910, 911, 912, 913, 914, 915, 916, 917, 918, 919, 920, 921, 922, 923, 924, 925, 926, 927, 928, 929, 930, 931, 932, 933, 934, 935, 936, 937, 938, 939, 940, 941, 942, 943, 944, 945, 946, 947, 948, 949, 950, 951, 952, 953, 954, 955, 956, 957, 958, 959, 960, 961, 962, 963, 964, 965, 966, 967],
      "AcquisitionTime": ["141826.982500", "141827.442500", "141827.902500", "141828.362500", "141828.822500", "141829.282500", "141829.742500", "141830.202500", "141830.662500", "141831.122500", "141831.582500", "141832.042500", "141832.502500", "141832.962500", "141833.422500", "141833.882500", "141834.342500", "141834.802500", "141835.262500", "141835.722500", "141836.182500", "141836.642500", "141837.102500", "141837.562500", "141838.022500", "141838.482500", "141838.942500", "141839.402500", "141839.862500", "141840.322500", "141840.782500", "141841.242500", "141841.702500", "141842.162500", "141842.622500", "141843.082500", "141843.542500", "141844.002500", "141844.462500", "141844.922500", "141845.382500", "141845.842500", "141846.302500", "141846.762500", "141847.222500", "141847.682500", "141848.142500", "141848.602500", "141849.062500", "141849.522500", "141849.982500", "141850.442500", "141850.902500", "141851.362500", "141851.822500", "141852.282500", "141852.742500", "141853.202500", "141853.662500", "141854.122500", "141854.582500", "141855.042500", "141855.502500", "141855.962500", "141856.422500", "141856.882500", "141857.342500", "141857.802500", "141858.262500", "141858.722500", "141859.182500", "141859.642500", "141900.102500", "141900.562500", "141901.022500", "141901.482500", "141901.942500", "141902.402500", "141902.862500", "141903.322500", "141903.782500", "141904.242500", "141904.702500", "141905.162500", "141905.622500", "141906.082500", "141906.542500", "141907.002500", "141907.462500", "141907.922500", "141908.382500", "141908.842500", "141909.302500", "141909.762500", "141910.222500", "141910.682500", "141911.142500", "141911.602500", "141912.062500", "141912.522500", "141912.982500", "141913.442500", "141913.902500", "141914.362500", "141914.822500", "141915.282500", "141915.742500", "141916.202500", "141916.662500", "141917.122500", "141917.582500", "141918.042500", "141918.502500", "141918.962500", "141919.422500", "141919.882500", "141920.342500", "141920.802500", "141921.262500", "141921.722500", "141922.182500", "141922.642500", "141923.102500", "141923.562500", "141924.022500", "141924.482500", "141924.942500", "141925.402500", "141925.862500", "141926.322500", "141926.782500", "141927.242500", "141927.702500", "141928.162500", "141928.622500", "141929.082500", "141929.542500", "141930.002500", "141930.462500", "141930.922500", "141931.382500", "141931.842500", "141932.302500", "141932.762500", "141933.222500", "141933.682500", "141934.142500", "141934.602500", "141935.062500", "141935.522500", "141935.982500", "141936.442500", "141936.902500", "141937.362500", "141937.822500", "141938.282500", "141938.742500", "141939.202500", "141939.662500", "141940.122500", "141940.582500", "141941.042500", "141941.502500", "141941.962500", "141942.422500", "141942.882500", "141943.342500", "141943.802500", "141944.262500", "141944.722500", "141945.182500", "141945.642500", "141946.102500", "141946.562500", "141947.022500", "141947.482500", "141947.942500", "141948.402500", "141948.862500", "141949.322500", "141949.782500", "141950.242500", "141950.702500", "141951.162500", "141951.622500", "141952.082500", "141952.542500", "141953.002500", "141953.462500", "141953.922500", "141954.382500", "141954.842500", "141955.302500", "141955.762500", "141956.222500", "141956.682500", "141957.142500", "141957.602500", "141958.062500", "141958.522500", "141958.982500", "141959.442500", "141959.902500", "142000.362500", "142000.822500", "142001.282500", "142001.742500", "142002.202500", "142002.662500", "142003.122500", "142003.582500", "142004.042500", "142004.502500", "142004.962500", "142005.422500", "142005.882500", "142006.342500", "142006.802500", "142007.262500", "142007.722500", "142008.182500", "142008.642500", "142009.102500", "142009.562500", "142010.022500", "142010.482500", "142010.942500", "142011.402500", "142011.862500", "142012.322500", "142012.782500", "142013.242500", "142013.702500", "142014.162500", "142014.622500", "142015.082500", "142015.542500", "142016.002500", "142016.462500", "142016.922500", "142017.382500", "142017.842500", "142018.302500", "142018.762500", "142019.222500", "142019.682500", "142020.142500", "142020.602500", "142021.062500", "142021.522500", "142021.982500", "142022.442500", "142022.902500", "142023.362500", "142023.822500", "142024.282500", "142024.742500", "142025.202500", "142025.662500", "142026.122500", "142026.582500", "142027.042500", "142027.502500", "142027.962500", "142028.422500", "142028.882500", "142029.342500", "142029.802500", "142030.262500", "142030.722500", "142031.182500", "142031.642500", "142032.102500", "142032.562500", "142033.022500", "142033.482500", "142033.942500", "142034.402500", "142034.862500", "142035.322500", "142035.782500", "142036.242500", "142036.702500", "142037.162500", "142037.622500", "142038.082500", "142038.542500", "142039.002500", "142039.462500", "142039.922500", "142040.382500", "142040.842500", "142041.302500", "142041.762500", "142042.222500", "142042.682500", "142043.142500", "142043.602500", "142044.062500", "142044.522500", "142044.982500", "142045.442500", "142045.902500", "142046.362500", "142046.822500", "142047.282500", "142047.742500", "142048.202500", "142048.662500", "142049.122500", "142049.582500", "142050.042500", "142050.502500", "142050.962500", "142051.422500", "142051.882500", "142052.342500", "142052.802500", "142053.262500", "142053.722500", "142054.182500", "142054.642500", "142055.102500", "142055.562500", "142056.022500", "142056.482500", "142056.942500", "142057.402500", "142057.862500", "142058.322500", "142058.782500", "142059.242500", "142059.702500", "142100.162500", "142100.622500", "142101.082500", "142101.542500", "142102.002500", "142102.462500", "142102.922500", "142103.382500", "142103.842500", "142104.302500", "142104.762500", "142105.222500", "142105.682500", "142106.142500", "142106.602500", "142107.062500", "142107.522500", "142107.982500", "142108.442500", "142108.902500", "142109.362500", "142109.822500", "142110.282500", "142110.742500", "142111.202500", "142111.662500", "142112.122500", "142112.582500", "142113.042500", "142113.502500", "142113.962500", "142114.422500", "142114.882500", "142115.342500", "142115.802500", "142116.262500", "142116.722500", "142117.182500", "142117.642500", "142118.102500", "142118.562500", "142119.022500", "142119.482500", "142119.942500", "142120.402500", "142120.862500", "142121.322500", "142121.782500", "142122.242500", "142122.702500", "142123.162500", "142123.622500", "142124.082500", "142124.542500", "142125.002500", "142125.462500", "142125.922500", "142126.382500", "142126.842500", "142127.302500", "142127.762500", "142128.222500", "142128.682500", "142129.142500", "142129.602500", "142130.062500", "142130.522500", "142130.982500", "142131.442500", "142131.902500", "142132.362500", "142132.822500", "142133.282500", "142133.742500", "142134.202500", "142134.662500", "142135.122500", "142135.582500", "142136.042500", "142136.502500", "142136.962500", "142137.422500", "142137.882500", "142138.342500", "142138.802500", "142139.262500", "142139.722500", "142140.182500", "142140.642500", "142141.102500", "142141.562500", "142142.022500", "142142.482500", "142142.942500", "142143.402500", "142143.862500", "142144.322500", "142144.782500", "142145.242500", "142145.702500", "142146.162500", "142146.622500", "142147.082500", "142147.542500", "142148.002500", "142148.462500", "142148.922500", "142149.382500", "142149.842500", "142150.302500", "142150.762500", "142151.222500", "142151.682500", "142152.142500", "142152.602500", "142153.062500", "142153.522500", "142153.982500", "142154.442500", "142154.902500", "142155.362500", "142155.822500", "142156.282500", "142156.742500", "142157.202500", "142157.662500", "142158.122500", "142158.582500", "142159.042500", "142159.502500", "142159.962500", "142200.422500", "142200.882500", "142201.342500", "142201.802500", "142202.262500", "142202.722500", "142203.182500", "142203.642500", "142204.102500", "142204.562500", "142205.022500", "142205.482500", "142205.942500", "142206.402500", "142206.862500", "142207.322500", "142207.782500", "142208.242500", "142208.702500", "142209.162500", "142209.622500", "142210.082500", "142210.542500", "142211.002500", "142211.462500", "142211.922500", "142212.382500", "142212.842500", "142213.302500", "142213.762500", "142214.222500", "142214.682500", "142215.142500", "142215.602500", "142216.062500", "142216.522500", "142216.982500", "142217.442500", "142217.902500", "142218.362500", "142218.822500", "142219.282500", "142219.742500", "142220.202500", "142220.662500", "142221.122500", "142221.582500", "142222.042500", "142222.502500", "142222.962500", "142223.422500", "142223.882500", "142224.342500", "142224.802500", "142225.262500", "142225.722500", "142226.182500", "142226.642500", "142227.102500", "142227.562500", "142228.022500", "142228.482500", "142228.942500", "142229.402500", "142229.862500", "142230.322500", "142230.782500", "142231.242500", "142231.702500", "142232.162500", "142232.622500", "142233.082500", "142233.542500", "142234.002500", "142234.462500", "142234.922500", "142235.382500", "142235.842500", "142236.302500", "142236.762500", "142237.222500", "142237.682500", "142238.142500", "142238.602500", "142239.062500", "142239.522500", "142239.982500", "142240.442500", "142240.902500", "142241.362500", "142241.822500", "142242.282500", "142242.742500", "142243.202500", "142243.662500", "142244.122500", "142244.582500", "142245.042500", "142245.502500", "142245.962500", "142246.422500", "142246.882500", "142247.342500", "142247.802500", "142248.262500", "142248.722500", "142249.182500", "142249.642500", "142250.102500", "142250.562500", "142251.022500", "142251.482500", "142251.942500", "142252.402500", "142252.862500", "142253.322500", "142253.782500", "142254.242500", "142254.702500", "142255.162500", "142255.622500", "142256.082500", "142256.542500", "142257.002500", "142257.462500", "142257.922500", "142258.382500", "142258.842500", "142259.302500", "142259.762500", "142300.222500", "142300.682500", "142301.142500", "142301.602500", "142302.062500", "142302.522500", "142302.982500", "142303.442500", "142303.902500", "142304.362500", "142304.822500", "142305.282500", "142305.742500", "142306.202500", "142306.662500", "142307.122500", "142307.582500", "142308.042500", "142308.502500", "142308.962500", "142309.422500", "142309.882500", "142310.342500", "142310.802500", "142311.262500", "142311.722500", "142312.182500", "142312.642500", "142313.102500", "142313.562500", "142314.022500", "142314.482500", "142314.942500", "142315.402500", "142315.862500", "142316.322500", "142316.782500", "142317.242500", "142317.702500", "142318.162500", "142318.622500", "142319.082500", "142319.542500", "142320.002500", "142320.462500", "142320.922500", "142321.382500", "142321.842500", "142322.302500", "142322.762500", "142323.222500", "142323.682500", "142324.142500", "142324.602500", "142325.062500", "142325.522500", "142325.982500", "142326.442500", "142326.902500", "142327.362500", "142327.822500", "142328.282500", "142328.742500", "142329.202500", "142329.662500", "142330.122500", "142330.582500", "142331.042500", "142331.502500", "142331.962500", "142332.422500", "142332.882500", "142333.342500", "142333.802500", "142334.262500", "142334.722500", "142335.182500", "142335.642500", "142336.102500", "142336.562500", "142337.022500", "142337.482500", "142337.942500", "142338.402500", "142338.862500", "142339.322500", "142339.782500", "142340.242500", "142340.702500", "142341.162500", "142341.622500", "142342.082500", "142342.542500", "142343.002500", "142343.462500", "142343.922500", "142344.382500", "142344.842500", "142345.302500", "142345.762500", "142346.222500", "142346.682500", "142347.142500", "142347.602500", "142348.062500", "142348.522500", "142348.982500", "142349.442500", "142349.902500", "142350.362500", "142350.822500", "142351.282500", "142351.742500", "142352.202500", "142352.662500", "142353.122500", "142353.582500", "142354.042500", "142354.502500", "142354.962500", "142355.422500", "142355.882500", "142356.342500", "142356.802500", "142357.262500", "142357.722500", "142358.182500", "142358.642500", "142359.102500", "142359.562500", "142400.022500", "142400.482500", "142400.942500", "142401.402500", "142401.862500", "142402.322500", "142402.782500", "142403.242500", "142403.702500", "142404.162500", "142404.622500", "142405.082500", "142405.542500", "142406.002500", "142406.462500", "142406.922500", "142407.382500", "142407.842500", "142408.302500", "142408.762500", "142409.222500", "142409.682500", "142410.142500", "142410.602500", "142411.062500", "142411.522500", "142411.982500", "142412.442500", "142412.902500", "142413.362500", "142413.822500", "142414.282500", "142414.742500", "142415.202500", "142415.662500", "142416.122500", "142416.582500", "142417.042500", "142417.502500", "142417.962500", "142418.422500", "142418.882500", "142419.342500", "142419.802500", "142420.262500", "142420.722500", "142421.182500", "142421.642500", "142422.102500", "142422.562500", "142423.022500", "142423.482500", "142423.942500", "142424.402500", "142424.862500", "142425.322500", "142425.782500", "142426.242500", "142426.702500", "142427.162500", "142427.622500", "142428.082500", "142428.542500", "142429.002500", "142429.462500", "142429.922500", "142430.382500", "142430.842500", "142431.302500", "142431.762500", "142432.222500", "142432.682500", "142433.142500", "142433.602500", "142434.062500", "142434.522500", "142434.982500", "142435.442500", "142435.902500", "142436.362500", "142436.822500", "142437.282500", "142437.742500", "142438.202500", "142438.662500", "142439.122500", "142439.582500", "142440.042500", "142440.502500", "142440.962500", "142441.422500", "142441.882500", "142442.342500", "142442.802500", "142443.262500", "142443.722500", "142444.182500", "142444.642500", "142445.102500", "142445.562500", "142446.022500", "142446.482500", "142446.942500", "142447.402500", "142447.862500", "142448.322500", "142448.782500", "142449.242500", "142449.702500", "142450.162500", "142450.622500", "142451.082500", "142451.542500", "142452.002500", "142452.462500", "142452.922500", "142453.382500", "142453.842500", "142454.302500", "142454.762500", "142455.222500", "142455.682500", "142456.142500", "142456.602500", "142457.062500", "142457.522500", "142457.982500", "142458.442500", "142458.902500", "142459.362500", "142459.822500", "142500.282500", "142500.742500", "142501.202500", "142501.662500", "142502.122500", "142502.582500", "142503.042500", "142503.502500", "142503.962500", "142504.422500", "142504.882500", "142505.342500", "142505.802500", "142506.262500", "142506.722500", "142507.182500", "142507.642500", "142508.102500", "142508.562500", "142509.022500", "142509.482500", "142509.942500", "142510.402500", "142510.862500", "142511.322500", "142511.782500", "142512.242500", "142512.702500", "142513.162500", "142513.622500", "142514.082500", "142514.542500", "142515.002500", "142515.462500", "142515.922500", "142516.382500", "142516.842500", "142517.302500", "142517.762500", "142518.222500", "142518.682500", "142519.142500", "142519.602500", "142520.062500", "142520.522500", "142520.982500", "142521.442500", "142521.902500", "142522.362500", "142522.822500", "142523.282500", "142523.742500", "142524.202500", "142524.662500", "142525.122500", "142525.582500", "142526.042500", "142526.502500", "142526.962500", "142527.422500", "142527.882500", "142528.342500", "142528.802500", "142529.262500", "142529.722500", "142530.182500", "142530.642500", "142531.102500", "142531.562500", "142532.022500", "142532.482500", "142532.942500", "142533.402500", "142533.862500", "142534.322500", "142534.782500", "142535.242500", "142535.702500", "142536.162500", "142536.622500", "142537.082500", "142537.542500", "142538.002500", "142538.462500", "142538.922500", "142539.382500", "142539.842500", "142540.302500", "142540.762500", "142541.222500", "142541.682500", "142542.142500", "142542.602500", "142543.062500", "142543.522500", "142543.982500", "142544.442500", "142544.902500", "142545.362500", "142545.822500", "142546.282500", "142546.742500", "142547.202500", "142547.662500", "142548.122500", "142548.582500", "142549.042500", "142549.502500", "142549.962500", "142550.422500", "142550.882500", "142551.342500"],
