{
  "AcquisitionMatrixPE": 82,
  "AcquisitionNumber": 1,
  "AcquisitionTime": "15:10:10.130000",
  "BandwidthPerPixelPhaseEncode": 24.888,
  "BaseResolution": 82,
  "BodyPartExamined": "BRAIN",
  "ConsistencyInfo": "N4_VE11E_LATEST_20181129",
  "ConversionSoftware": "dcm2niix",
  "ConversionSoftwareVersion": "v1.0.20201102",
  "DerivedVendorReportedEchoSpacing": 0.00049,
  "DeviceSerialNumber": "66112",
  "DwellTime": 2e-06,
  "EchoTime": 0.0272,
  "EchoTrainLength": 82,
  "EffectiveEchoSpacing": 0.00049,
  "FlipAngle": 44,
  "ImageComments": "Unaliased MB8/PE3",
  "ImageOrientationPatientDICOM": [0.999981, -0.00334158, 0.00509797, 0.00366507, 0.99789, -0.0648251],
  "ImageType": [
    "ORIGINAL",
    "PRIMARY",
    "M",
    "MB",
    "ND",
    "NORM",
    "MOSAIC"
],
  "ImagingFrequency": 123.252,
  "InPlanePhaseEncodingDirectionDICOM": "COL",
  "InstitutionAddress": "Maynard 3,Hanover,NH,US,03755",
  "InstitutionName": "Dartmouth College - PBS",
  "InstitutionalDepartmentName": "Department",
  "MRAcquisitionType": "2D",
  "MagneticFieldStrength": 3,
  "Manufacturer": "Siemens",
  "ManufacturersModelName": "Prisma",
  "Modality": "MR",
  "MultibandAccelerationFactor": 8,
  "PartialFourier": 1,
  "PatientPosition": "HFS",
  "PercentPhaseFOV": 100,
  "PercentSampling": 100,
  "PhaseEncodingDirection": "j-",
  "PhaseEncodingSteps": 82,
  "PhaseResolution": 1,
  "PixelBandwidth": 3050,
  "ProcedureStepDescription": "Wager_Wager^1076_spacetop",
  "ProtocolName": "func_run-02_task-faces_acq-ap-mb8",
  "PulseSequenceDetails": "%CustomerSeq%\\cmrr_mbep2d_bold",
  "ReceiveCoilActiveElements": "HEA;HEP",
  "ReceiveCoilName": "Head_32",
  "ReconMatrixPE": 82,
  "RepetitionTime": 0.46,
  "SAR": 0.117183,
  "ScanOptions": "FS",
  "ScanningSequence": "EP",
  "SequenceName": "epfid2d1_82",
  "SequenceVariant": "SK\\SS",
  "SeriesDescription": "func_run-02_task-faces_acq-ap-mb8",
  "SeriesNumber": 18,
  "ShimSetting": [4144, -7727, -7297, 425, -132, -72, 56, 72],
  "SliceThickness": 2.7,
  "SliceTiming": [0, 0.25, 0.0625, 0.315, 0.125, 0.3775, 0.1875, 0, 0.25, 0.0625, 0.315, 0.125, 0.3775, 0.1875, 0, 0.25, 0.0625, 0.315, 0.125, 0.3775, 0.1875, 0, 0.25, 0.0625, 0.315, 0.125, 0.3775, 0.1875, 0, 0.25, 0.0625, 0.315, 0.125, 0.3775, 0.1875, 0, 0.25, 0.0625, 0.315, 0.125, 0.3775, 0.1875, 0, 0.25, 0.0625, 0.315, 0.125, 0.3775, 0.1875, 0, 0.25, 0.0625, 0.315, 0.125, 0.3775, 0.1875],
  "SoftwareVersions": "syngo MR E11",
  "SpacingBetweenSlices": 2.7,
  "StationName": "AWP66112",
  "TaskName": "faces",
  "TotalReadoutTime": 0.03969,
  "TxRefAmp": 285.472,
  "WipMemBlock": "b3acb5f0-32b4-4774-ad40-e89215213bcf||Sequence: R016 ve11e/master r/434b28f1; Aug  7 2019 18:53:46 by eja",
  "dcmmeta_affine": [
    [-2.6828770637512207, 0.009833117946982384, 0.013150596059858799, 109.39604949951172],
    [0.008965208195149899, 2.6772656440734863, -0.17507508397102356, -84.59111022949219],
    [0.013677471317350864, 0.1739211082458496, 2.6942858695983887, -74.3005599975586],
    [0.0, 0.0, 0.0, 1.0]
],
  "dcmmeta_reorient_transform": [
    [0.0, -1.0, 0.0, 81.0],
    [1.0, 0.0, 0.0, 0.0],
    [0.0, 0.0, 1.0, 0.0],
    [0.0, 0.0, 0.0, 1.0]
],
  "dcmmeta_shape": [82, 82, 56, 914],
  "dcmmeta_slice_dim": 2,
  "dcmmeta_version": 0.6,
  "global": {
    "const": {
      "AccessionNumber": "A003996",
      "AcquisitionMatrix": [82, 0, 0, 82],
      "AngioFlag": "N",
      "BitsAllocated": 16,
      "BitsStored": 16,
      "BodyPartExamined": "BRAIN",
      "Columns": 656,
      "EchoNumbers": 1,
      "EchoTime": 27.2,
      "EchoTrainLength": 82,
      "FlipAngle": 44.0,
      "HighBit": 15,
      "ImageOrientationPatient": [0.99998142212553, -0.0033415776258, 0.00509796653348, 0.00366507106814, 0.99788990805987, -0.0648251389996],
      "ImagePositionPatient": [-883.00035376919, -898.06964187367, -14.223023072837],
      "ImageType": [
        "ORIGINAL",
        "PRIMARY",
        "M",
        "MB",
        "ND",
        "NORM",
        "MOSAIC"
],
      "ImagedNucleus": "1H",
      "ImagingFrequency": 123.252196,
      "InPlanePhaseEncodingDirection": "COL",
      "MRAcquisitionType": "2D",
      "MagneticFieldStrength": 3.0,
      "Manufacturer": "SIEMENS",
      "ManufacturerModelName": "Prisma",
      "Modality": "MR",
      "NumberOfAverages": 1.0,
      "NumberOfPhaseEncodingSteps": 82,
      "PercentPhaseFieldOfView": 100.0,
      "PercentSampling": 100.0,
      "PerformedProcedureStepStartTime": "140552.928000",
      "PhotometricInterpretation": "MONOCHROME2",
      "PixelBandwidth": 3050.0,
      "PixelRepresentation": 0,
      "PixelSpacing": [2.6829268932343, 2.6829268932343],
      "ProtocolName": "func_run-02_task-faces_acq-ap-mb8",
      "RepetitionTime": 460.0,
      "Rows": 656,
      "SAR": 0.11718262013026,
      "SamplesPerPixel": 1,
      "ScanOptions": "FS",
      "ScanningSequence": "EP",
      "SequenceName": "epfid2d1_82",
      "SequenceVariant": [
        "SK",
        "SS"
],
      "SeriesDescription": "func_run-02_task-faces_acq-ap-mb8",
      "SeriesNumber": 18,
      "SeriesTime": "151029.637000",
      "SliceLocation": -68.125375728079,
      "SliceThickness": 2.7000000476837,
      "SmallestImagePixelValue": 0,
      "SoftwareVersions": "syngo MR E11",
      "SpacingBetweenSlices": 2.7000000955671,
      "SpecificCharacterSet": "ISO_IR 100",
      "StudyID": "2",
      "StudyTime": "140552.872000",
      "TransmitCoilName": "Body",
      "VariableFlipAngleFlag": "N",
      "WindowCenterWidthExplanation": "Algo1"
    },
    "slices": {}
  },
  "time": {
    "samples": {
      "AcquisitionNumber": [1, 2, 3, 4, 5, 6, 7, 8, 9, 10, 11, 12, 13, 14, 15, 16, 17, 18, 19, 20, 21, 22, 23, 24, 25, 26, 27, 28, 29, 30, 31, 32, 33, 34, 35, 36, 37, 38, 39, 40, 41, 42, 43, 44, 45, 46, 47, 48, 49, 50, 51, 52, 53, 54, 55, 56, 57, 58, 59, 60, 61, 62, 63, 64, 65, 66, 67, 68, 69, 70, 71, 72, 73, 74, 75, 76, 77, 78, 79, 80, 81, 82, 83, 84, 85, 86, 87, 88, 89, 90, 91, 92, 93, 94, 95, 96, 97, 98, 99, 100, 101, 102, 103, 104, 105, 106, 107, 108, 109, 110, 111, 112, 113, 114, 115, 116, 117, 118, 119, 120, 121, 122, 123, 124, 125, 126, 127, 128, 129, 130, 131, 132, 133, 134, 135, 136, 137, 138, 139, 140, 141, 142, 143, 144, 145, 146, 147, 148, 149, 150, 151, 152, 153, 154, 155, 156, 157, 158, 159, 160, 161, 162, 163, 164, 165, 166, 167, 168, 169, 170, 171, 172, 173, 174, 175, 176, 177, 178, 179, 180, 181, 182, 183, 184, 185, 186, 187, 188, 189, 190, 191, 192, 193, 194, 195, 196, 197, 198, 199, 200, 201, 202, 203, 204, 205, 206, 207, 208, 209, 210, 211, 212, 213, 214, 215, 216, 217, 218, 219, 220, 221, 222, 223, 224, 225, 226, 227, 228, 229, 230, 231, 232, 233, 234, 235, 236, 237, 238, 239, 240, 241, 242, 243, 244, 245, 246, 247, 248, 249, 250, 251, 252, 253, 254, 255, 256, 257, 258, 259, 260, 261, 262, 263, 264, 265, 266, 267, 268, 269, 270, 271, 272, 273, 274, 275, 276, 277, 278, 279, 280, 281, 282, 283, 284, 285, 286, 287, 288, 289, 290, 291, 292, 293, 294, 295, 296, 297, 298, 299, 300, 301, 302, 303, 304, 305, 306, 307, 308, 309, 310, 311, 312, 313, 314, 315, 316, 317, 318, 319, 320, 321, 322, 323, 324, 325, 326, 327, 328, 329, 330, 331, 332, 333, 334, 335, 336, 337, 338, 339, 340, 341, 342, 343, 344, 345, 346, 347, 348, 349, 350, 351, 352, 353, 354, 355, 356, 357, 358, 359, 360, 361, 362, 363, 364, 365, 366, 367, 368, 369, 370, 371, 372, 373, 374, 375, 376, 377, 378, 379, 380, 381, 382, 383, 384, 385, 386, 387, 388, 389, 390, 391, 392, 393, 394, 395, 396, 397, 398, 399, 400, 401, 402, 403, 404, 405, 406, 407, 408, 409, 410, 411, 412, 413, 414, 415, 416, 417, 418, 419, 420, 421, 422, 423, 424, 425, 426, 427, 428, 429, 430, 431, 432, 433, 434, 435, 436, 437, 438, 439, 440, 441, 442, 443, 444, 445, 446, 447, 448, 449, 450, 451, 452, 453, 454, 455, 456, 457, 458, 459, 460, 461, 462, 463, 464, 465, 466, 467, 468, 469, 470, 471, 472, 473, 474, 475, 476, 477, 478, 479, 480, 481, 482, 483, 484, 485, 486, 487, 488, 489, 490, 491, 492, 493, 494, 495, 496, 497, 498, 499, 500, 501, 502, 503, 504, 505, 506, 507, 508, 509, 510, 511, 512, 513, 514, 515, 516, 517, 518, 519, 520, 521, 522, 523, 524, 525, 526, 527, 528, 529, 530, 531, 532, 533, 534, 535, 536, 537, 538, 539, 540, 541, 542, 543, 544, 545, 546, 547, 548, 549, 550, 551, 552, 553, 554, 555, 556, 557, 558, 559, 560, 561, 562, 563, 564, 565, 566, 567, 568, 569, 570, 571, 572, 573, 574, 575, 576, 577, 578, 579, 580, 581, 582, 583, 584, 585, 586, 587, 588, 589, 590, 591, 592, 593, 594, 595, 596, 597, 598, 599, 600, 601, 602, 603, 604, 605, 606, 607, 608, 609, 610, 611, 612, 613, 614, 615, 616, 617, 618, 619, 620, 621, 622, 623, 624, 625, 626, 627, 628, 629, 630, 631, 632, 633, 634, 635, 636, 637, 638, 639, 640, 641, 642, 643, 644, 645, 646, 647, 648, 649, 650, 651, 652, 653, 654, 655, 656, 657, 658, 659, 660, 661, 662, 663, 664, 665, 666, 667, 668, 669, 670, 671, 672, 673, 674, 675, 676, 677, 678, 679, 680, 681, 682, 683, 684, 685, 686, 687, 688, 689, 690, 691, 692, 693, 694, 695, 696, 697, 698, 699, 700, 701, 702, 703, 704, 705, 706, 707, 708, 709, 710, 711, 712, 713, 714, 715, 716, 717, 718, 719, 720, 721, 722, 723, 724, 725, 726, 727, 728, 729, 730, 731, 732, 733, 734, 735, 736, 737, 738, 739, 740, 741, 742, 743, 744, 745, 746, 747, 748, 749, 750, 751, 752, 753, 754, 755, 756, 757, 758, 759, 760, 761, 762, 763, 764, 765, 766, 767, 768, 769, 770, 771, 772, 773, 774, 775, 776, 777, 778, 779, 780, 781, 782, 783, 784, 785, 786, 787, 788, 789, 790, 791, 792, 793, 794, 795, 796, 797, 798, 799, 800, 801, 802, 803, 804, 805, 806, 807, 808, 809, 810, 811, 812, 813, 814, 815, 816, 817, 818, 819, 820, 821, 822, 823, 824, 825, 826, 827, 828, 829, 830, 831, 832, 833, 834, 835, 836, 837, 838, 839, 840, 841, 842, 843, 844, 845, 846, 847, 848, 849, 850, 851, 852, 853, 854, 855, 856, 857, 858, 859, 860, 861, 862, 863, 864, 865, 866, 867, 868, 869, 870, 871, 872, 873, 874, 875, 876, 877, 878, 879, 880, 881, 882, 883, 884, 885, 886, 887, 888, 889, 890, 891, 892, 893, 894, 895, 896, 897, 898, 899, 900, 901, 902, 903, 904, 905, 906, 907, 908, 909, 910, 911, 912, 913, 914],
      "AcquisitionTime": ["151010.130000", "151010.590000", "151011.050000", "151011.510000", "151011.970000", "151012.430000", "151012.890000", "151013.350000", "151013.810000", "151014.270000", "151014.730000", "151015.190000", "151015.650000", "151016.110000", "151016.570000", "151017.030000", "151017.490000", "151017.950000", "151018.410000", "151018.870000", "151019.330000", "151019.790000", "151020.250000", "151020.710000", "151021.170000", "151021.630000", "151022.090000", "151022.550000", "151023.010000", "151023.470000", "151023.930000", "151024.390000", "151024.850000", "151025.310000", "151025.770000", "151026.230000", "151026.690000", "151027.150000", "151027.610000", "151028.070000", "151028.530000", "151028.990000", "151029.450000", "151029.910000", "151030.370000", "151030.830000", "151031.290000", "151031.750000", "151032.210000", "151032.670000", "151033.130000", "151033.590000", "151034.050000", "151034.510000", "151034.970000", "151035.430000", "151035.890000", "151036.350000", "151036.810000", "151037.270000", "151037.730000", "151038.190000", "151038.650000", "151039.110000", "151039.570000", "151040.030000", "151040.490000", "151040.950000", "151041.410000", "151041.870000", "151042.330000", "151042.790000", "151043.250000", "151043.710000", "151044.170000", "151044.630000", "151045.090000", "151045.550000", "151046.010000", "151046.470000", "151046.930000", "151047.390000", "151047.850000", "151048.310000", "151048.770000", "151049.230000", "151049.690000", "151050.150000", "151050.610000", "151051.070000", "151051.530000", "151051.990000", "151052.450000", "151052.910000", "151053.370000", "151053.830000", "151054.290000", "151054.750000", "151055.210000", "151055.670000", "151056.130000", "151056.590000", "151057.050000", "151057.510000", "151057.970000", "151058.430000", "151058.890000", "151059.350000", "151059.810000", "151100.270000", "151100.730000", "151101.190000", "151101.650000", "151102.110000", "151102.570000", "151103.030000", "151103.490000", "151103.950000", "151104.410000", "151104.870000", "151105.330000", "151105.790000", "151106.250000", "151106.710000", "151107.170000", "151107.630000", "151108.090000", "151108.550000", "151109.010000", "151109.470000", "151109.930000", "151110.390000", "151110.850000", "151111.310000", "151111.770000", "151112.230000", "151112.690000", "151113.150000", "151113.610000", "151114.070000", "151114.530000", "151114.990000", "151115.450000", "151115.910000", "151116.370000", "151116.830000", "151117.290000", "151117.750000", "151118.210000", "151118.670000", "151119.130000", "151119.590000", "151120.050000", "151120.510000", "151120.970000", "151121.430000", "151121.890000", "151122.350000", "151122.810000", "151123.270000", "151123.730000", "151124.190000", "151124.650000", "151125.110000", "151125.570000", "151126.030000", "151126.490000", "151126.950000", "151127.410000", "151127.870000", "151128.330000", "151128.790000", "151129.250000", "151129.710000", "151130.170000", "151130.630000", "151131.090000", "151131.550000", "151132.010000", "151132.470000", "151132.930000", "151133.390000", "151133.850000", "151134.310000", "151134.770000", "151135.230000", "151135.690000", "151136.150000", "151136.610000", "151137.070000", "151137.530000", "151137.990000", "151138.450000", "151138.910000", "151139.370000", "151139.830000", "151140.290000", "151140.750000", "151141.210000", "151141.670000", "151142.130000", "151142.590000", "151143.050000", "151143.510000", "151143.970000", "151144.430000", "151144.890000", "151145.350000", "151145.810000", "151146.270000", "151146.730000", "151147.190000", "151147.650000", "151148.110000", "151148.570000", "151149.030000", "151149.490000", "151149.950000", "151150.410000", "151150.870000", "151151.330000", "151151.790000", "151152.250000", "151152.710000", "151153.170000", "151153.630000", "151154.090000", "151154.550000", "151155.010000", "151155.470000", "151155.930000", "151156.390000", "151156.850000", "151157.310000", "151157.770000", "151158.230000", "151158.690000", "151159.150000", "151159.610000", "151200.070000", "151200.530000", "151200.990000", "151201.450000", "151201.910000", "151202.370000", "151202.830000", "151203.290000", "151203.750000", "151204.210000", "151204.670000", "151205.130000", "151205.590000", "151206.050000", "151206.510000", "151206.970000", "151207.430000", "151207.890000", "151208.350000", "151208.810000", "151209.270000", "151209.730000", "151210.190000", "151210.650000", "151211.110000", "151211.570000", "151212.030000", "151212.490000", "151212.950000", "151213.410000", "151213.870000", "151214.330000", "151214.790000", "151215.250000", "151215.710000", "151216.170000", "151216.630000", "151217.090000", "151217.550000", "151218.010000", "151218.470000", "151218.930000", "151219.390000", "151219.850000", "151220.310000", "151220.770000", "151221.230000", "151221.690000", "151222.150000", "151222.610000", "151223.070000", "151223.530000", "151223.990000", "151224.450000", "151224.910000", "151225.370000", "151225.830000", "151226.290000", "151226.750000", "151227.210000", "151227.670000", "151228.130000", "151228.590000", "151229.050000", "151229.510000", "151229.970000", "151230.430000", "151230.890000", "151231.350000", "151231.810000", "151232.270000", "151232.730000", "151233.190000", "151233.650000", "151234.110000", "151234.570000", "151235.030000", "151235.490000", "151235.950000", "151236.410000", "151236.870000", "151237.330000", "151237.790000", "151238.250000", "151238.710000", "151239.170000", "151239.630000", "151240.090000", "151240.550000", "151241.010000", "151241.470000", "151241.930000", "151242.390000", "151242.850000", "151243.310000", "151243.770000", "151244.230000", "151244.690000", "151245.150000", "151245.610000", "151246.070000", "151246.530000", "151246.990000", "151247.450000", "151247.910000", "151248.370000", "151248.830000", "151249.290000", "151249.750000", "151250.210000", "151250.670000", "151251.130000", "151251.590000", "151252.050000", "151252.510000", "151252.970000", "151253.430000", "151253.890000", "151254.350000", "151254.810000", "151255.270000", "151255.730000", "151256.190000", "151256.650000", "151257.110000", "151257.570000", "151258.030000", "151258.490000", "151258.950000", "151259.410000", "151259.870000", "151300.330000", "151300.790000", "151301.250000", "151301.710000", "151302.170000", "151302.630000", "151303.090000", "151303.550000", "151304.010000", "151304.470000", "151304.930000", "151305.390000", "151305.850000", "151306.310000", "151306.770000", "151307.230000", "151307.690000", "151308.150000", "151308.610000", "151309.070000", "151309.530000", "151309.990000", "151310.450000", "151310.910000", "151311.370000", "151311.830000", "151312.290000", "151312.750000", "151313.210000", "151313.670000", "151314.130000", "151314.590000", "151315.050000", "151315.510000", "151315.970000", "151316.430000", "151316.890000", "151317.350000", "151317.810000", "151318.270000", "151318.730000", "151319.190000", "151319.650000", "151320.110000", "151320.570000", "151321.030000", "151321.490000", "151321.950000", "151322.410000", "151322.870000", "151323.330000", "151323.790000", "151324.250000", "151324.710000", "151325.170000", "151325.630000", "151326.090000", "151326.550000", "151327.010000", "151327.470000", "151327.930000", "151328.390000", "151328.850000", "151329.310000", "151329.770000", "151330.230000", "151330.690000", "151331.150000", "151331.610000", "151332.070000", "151332.530000", "151332.990000", "151333.450000", "151333.910000", "151334.370000", "151334.830000", "151335.290000", "151335.750000", "151336.210000", "151336.670000", "151337.130000", "151337.590000", "151338.050000", "151338.510000", "151338.970000", "151339.430000", "151339.890000", "151340.350000", "151340.810000", "151341.270000", "151341.730000", "151342.190000", "151342.650000", "151343.110000", "151343.570000", "151344.030000", "151344.490000", "151344.950000", "151345.410000", "151345.870000", "151346.330000", "151346.790000", "151347.250000", "151347.710000", "151348.170000", "151348.630000", "151349.090000", "151349.550000", "151350.010000", "151350.470000", "151350.930000", "151351.390000", "151351.850000", "151352.310000", "151352.770000", "151353.230000", "151353.690000", "151354.150000", "151354.610000", "151355.070000", "151355.530000", "151355.990000", "151356.450000", "151356.910000", "151357.370000", "151357.830000", "151358.290000", "151358.750000", "151359.210000", "151359.670000", "151400.130000", "151400.590000", "151401.050000", "151401.510000", "151401.970000", "151402.430000", "151402.890000", "151403.350000", "151403.810000", "151404.270000", "151404.730000", "151405.190000", "151405.650000", "151406.110000", "151406.570000", "151407.030000", "151407.490000", "151407.950000", "151408.410000", "151408.870000", "151409.330000", "151409.790000", "151410.250000", "151410.710000", "151411.170000", "151411.630000", "151412.090000", "151412.550000", "151413.010000", "151413.470000", "151413.930000", "151414.390000", "151414.850000", "151415.310000", "151415.770000", "151416.230000", "151416.690000", "151417.150000", "151417.610000", "151418.070000", "151418.530000", "151418.990000", "151419.450000", "151419.910000", "151420.370000", "151420.830000", "151421.290000", "151421.750000", "151422.210000", "151422.670000", "151423.130000", "151423.590000", "151424.050000", "151424.510000", "151424.970000", "151425.430000", "151425.890000", "151426.350000", "151426.810000", "151427.270000", "151427.730000", "151428.190000", "151428.650000", "151429.110000", "151429.570000", "151430.030000", "151430.490000", "151430.950000", "151431.410000", "151431.870000", "151432.330000", "151432.790000", "151433.250000", "151433.710000", "151434.170000", "151434.630000", "151435.090000", "151435.550000", "151436.010000", "151436.470000", "151436.930000", "151437.390000", "151437.850000", "151438.310000", "151438.770000", "151439.230000", "151439.690000", "151440.150000", "151440.610000", "151441.070000", "151441.530000", "151441.990000", "151442.450000", "151442.910000", "151443.370000", "151443.830000", "151444.290000", "151444.750000", "151445.210000", "151445.670000", "151446.130000", "151446.590000", "151447.050000", "151447.510000", "151447.970000", "151448.430000", "151448.890000", "151449.350000", "151449.810000", "151450.270000", "151450.730000", "151451.190000", "151451.650000", "151452.110000", "151452.570000", "151453.030000", "151453.490000", "151453.950000", "151454.410000", "151454.870000", "151455.330000", "151455.790000", "151456.250000", "151456.710000", "151457.170000", "151457.630000", "151458.090000", "151458.550000", "151459.010000", "151459.470000", "151459.930000", "151500.390000", "151500.850000", "151501.310000", "151501.770000", "151502.230000", "151502.690000", "151503.150000", "151503.610000", "151504.070000", "151504.530000", "151504.990000", "151505.450000", "151505.910000", "151506.370000", "151506.830000", "151507.290000", "151507.750000", "151508.210000", "151508.670000", "151509.130000", "151509.590000", "151510.050000", "151510.510000", "151510.970000", "151511.430000", "151511.890000", "151512.350000", "151512.810000", "151513.270000", "151513.730000", "151514.190000", "151514.650000", "151515.110000", "151515.570000", "151516.030000", "151516.490000", "151516.950000", "151517.410000", "151517.870000", "151518.330000", "151518.790000", "151519.250000", "151519.710000", "151520.170000", "151520.630000", "151521.090000", "151521.550000", "151522.010000", "151522.470000", "151522.930000", "151523.390000", "151523.850000", "151524.310000", "151524.770000", "151525.230000", "151525.690000", "151526.150000", "151526.610000", "151527.070000", "151527.530000", "151527.990000", "151528.450000", "151528.910000", "151529.370000", "151529.830000", "151530.290000", "151530.750000", "151531.210000", "151531.670000", "151532.130000", "151532.590000", "151533.050000", "151533.510000", "151533.970000", "151534.430000", "151534.890000", "151535.350000", "151535.810000", "151536.270000", "151536.730000", "151537.190000", "151537.650000", "151538.110000", "151538.570000", "151539.030000", "151539.490000", "151539.950000", "151540.410000", "151540.870000", "151541.330000", "151541.790000", "151542.250000", "151542.710000", "151543.170000", "151543.630000", "151544.090000", "151544.550000", "151545.010000", "151545.470000", "151545.930000", "151546.390000", "151546.850000", "151547.310000", "151547.770000", "151548.230000", "151548.690000", "151549.150000", "151549.610000", "151550.070000", "151550.530000", "151550.990000", "151551.450000", "151551.910000", "151552.370000", "151552.830000", "151553.290000", "151553.750000", "151554.210000", "151554.670000", "151555.130000", "151555.590000", "151556.050000", "151556.510000", "151556.970000", "151557.430000", "151557.890000", "151558.350000", "151558.810000", "151559.270000", "151559.730000", "151600.190000", "151600.650000", "151601.110000", "151601.570000", "151602.030000", "151602.490000", "151602.950000", "151603.410000", "151603.870000", "151604.330000", "151604.790000", "151605.250000", "151605.710000", "151606.170000", "151606.630000", "151607.090000", "151607.550000", "151608.010000", "151608.470000", "151608.930000", "151609.390000", "151609.850000", "151610.310000", "151610.770000", "151611.230000", "151611.690000", "151612.150000", "151612.610000", "151613.070000", "151613.530000", "151613.990000", "151614.450000", "151614.910000", "151615.370000", "151615.830000", "151616.290000", "151616.750000", "151617.210000", "151617.670000", "151618.130000", "151618.590000", "151619.050000", "151619.510000", "151619.970000", "151620.430000", "151620.890000", "151621.350000", "151621.810000", "151622.270000", "151622.730000", "151623.190000", "151623.650000", "151624.110000", "151624.570000", "151625.030000", "151625.490000", "151625.950000", "151626.410000", "151626.870000", "151627.330000", "151627.790000", "151628.250000", "151628.710000", "151629.170000", "151629.630000", "151630.090000", "151630.550000", "151631.010000", "151631.470000", "151631.930000", "151632.390000", "151632.850000", "151633.310000", "151633.770000", "151634.230000", "151634.690000", "151635.150000", "151635.610000", "151636.070000", "151636.530000", "151636.990000", "151637.450000", "151637.910000", "151638.370000", "151638.830000", "151639.290000", "151639.750000", "151640.210000", "151640.670000", "151641.130000", "151641.590000", "151642.050000", "151642.510000", "151642.970000", "151643.430000", "151643.890000", "151644.350000", "151644.810000", "151645.270000", "151645.730000", "151646.190000", "151646.650000", "151647.110000", "151647.570000", "151648.030000", "151648.490000", "151648.950000", "151649.410000", "151649.870000", "151650.330000", "151650.790000", "151651.250000", "151651.710000", "151652.170000", "151652.630000", "151653.090000", "151653.550000", "151654.010000", "151654.470000", "151654.930000", "151655.390000", "151655.850000", "151656.310000", "151656.770000", "151657.230000", "151657.690000", "151658.150000", "151658.610000", "151659.070000", "151659.530000", "151659.990000", "151700.450000", "151700.910000", "151701.370000", "151701.830000", "151702.290000", "151702.750000", "151703.210000", "151703.670000", "151704.130000", "151704.590000", "151705.050000", "151705.510000", "151705.970000", "151706.430000", "151706.890000", "151707.350000", "151707.810000", "151708.270000", "151708.730000", "151709.190000", "151709.650000", "151710.110000"],
