{
  "AcquisitionMatrixPE": 82,
  "AcquisitionNumber": 1,
  "AcquisitionTime": "15:23:46.922500",
  "BandwidthPerPixelPhaseEncode": 24.888,
  "BaseResolution": 82,
  "BodyPartExamined": "BRAIN",
  "ConsistencyInfo": "N4_VE11E_LATEST_20181129",
  "ConversionSoftware": "dcm2niix",
  "ConversionSoftwareVersion": "v1.0.20201102",
  "DerivedVendorReportedEchoSpacing": 0.00049,
  "DeviceSerialNumber": "66112",
  "DwellTime": 2e-06,
  "EchoTime": 0.0272,
  "EchoTrainLength": 82,
  "EffectiveEchoSpacing": 0.00049,
  "FlipAngle": 44,
  "ImageComments": "Unaliased MB8/PE3",
  "ImageOrientationPatientDICOM": [0.999981, -0.00334158, 0.00509797, 0.00366507, 0.99789, -0.0648251],
  "ImageType": [
    "ORIGINAL",
    "PRIMARY",
    "M",
    "MB",
    "ND",
    "NORM",
    "MOSAIC"
],
  "ImagingFrequency": 123.252,
  "InPlanePhaseEncodingDirectionDICOM": "COL",
  "InstitutionAddress": "Maynard 3,Hanover,NH,US,03755",
  "InstitutionName": "Dartmouth College - PBS",
  "InstitutionalDepartmentName": "Department",
  "MRAcquisitionType": "2D",
  "MagneticFieldStrength": 3,
  "Manufacturer": "Siemens",
  "ManufacturersModelName": "Prisma",
  "Modality": "MR",
  "MultibandAccelerationFactor": 8,
  "PartialFourier": 1,
  "PatientPosition": "HFS",
  "PercentPhaseFOV": 100,
  "PercentSampling": 100,
  "PhaseEncodingDirection": "j-",
  "PhaseEncodingSteps": 82,
  "PhaseResolution": 1,
  "PixelBandwidth": 3050,
  "ProcedureStepDescription": "Wager_Wager^1076_spacetop",
  "ProtocolName": "func_run-03_task-faces_acq-ap-mb8",
  "PulseSequenceDetails": "%CustomerSeq%\\cmrr_mbep2d_bold",
  "ReceiveCoilActiveElements": "HEA;HEP",
  "ReceiveCoilName": "Head_32",
  "ReconMatrixPE": 82,
  "RepetitionTime": 0.46,
  "SAR": 0.117183,
  "ScanOptions": "FS",
  "ScanningSequence": "EP",
  "SequenceName": "epfid2d1_82",
  "SequenceVariant": "SK\\SS",
  "SeriesDescription": "func_run-03_task-faces_acq-ap-mb8",
  "SeriesNumber": 20,
  "ShimSetting": [4144, -7727, -7297, 425, -132, -72, 56, 72],
  "SliceThickness": 2.7,
  "SliceTiming": [0, 0.25, 0.0625, 0.315, 0.125, 0.3775, 0.1875, 0, 0.25, 0.0625, 0.315, 0.125, 0.3775, 0.1875, 0, 0.25, 0.0625, 0.315, 0.125, 0.3775, 0.1875, 0, 0.25, 0.0625, 0.315, 0.125, 0.3775, 0.1875, 0, 0.25, 0.0625, 0.315, 0.125, 0.3775, 0.1875, 0, 0.25, 0.0625, 0.315, 0.125, 0.3775, 0.1875, 0, 0.25, 0.0625, 0.315, 0.125, 0.3775, 0.1875, 0, 0.25, 0.0625, 0.315, 0.125, 0.3775, 0.1875],
  "SoftwareVersions": "syngo MR E11",
  "SpacingBetweenSlices": 2.7,
  "StationName": "AWP66112",
  "TaskName": "faces",
  "TotalReadoutTime": 0.03969,
  "TxRefAmp": 285.472,
  "WipMemBlock": "9edf7dfc-70f6-459f-b9f8-f502634f64de||Sequence: R016 ve11e/master r/434b28f1; Aug  7 2019 18:53:46 by eja",
  "dcmmeta_affine": [
    [-2.6828770637512207, 0.009833117946982384, 0.013150596059858799, 109.39604949951172],
    [0.008965208195149899, 2.6772656440734863, -0.17507508397102356, -84.59111022949219],
    [0.013677471317350864, 0.1739211082458496, 2.6942858695983887, -74.3005599975586],
    [0.0, 0.0, 0.0, 1.0]
],
  "dcmmeta_reorient_transform": [
    [0.0, -1.0, 0.0, 81.0],
    [1.0, 0.0, 0.0, 0.0],
    [0.0, 0.0, 1.0, 0.0],
    [0.0, 0.0, 0.0, 1.0]
],
  "dcmmeta_shape": [82, 82, 56, 914],
  "dcmmeta_slice_dim": 2,
  "dcmmeta_version": 0.6,
  "global": {
    "const": {
      "AccessionNumber": "A003996",
      "AcquisitionMatrix": [82, 0, 0, 82],
      "AngioFlag": "N",
      "BitsAllocated": 16,
      "BitsStored": 16,
      "BodyPartExamined": "BRAIN",
      "Columns": 656,
      "EchoNumbers": 1,
      "EchoTime": 27.2,
      "EchoTrainLength": 82,
      "FlipAngle": 44.0,
      "HighBit": 15,
      "ImageOrientationPatient": [0.99998142212553, -0.0033415776258, 0.00509796653348, 0.00366507106814, 0.99788990805987, -0.0648251389996],
      "ImagePositionPatient": [-883.00035376919, -898.06964187367, -14.223023072837],
      "ImageType": [
        "ORIGINAL",
        "PRIMARY",
        "M",
        "MB",
        "ND",
        "NORM",
        "MOSAIC"
],
      "ImagedNucleus": "1H",
      "ImagingFrequency": 123.2522,
      "InPlanePhaseEncodingDirection": "COL",
      "MRAcquisitionType": "2D",
      "MagneticFieldStrength": 3.0,
      "Manufacturer": "SIEMENS",
      "ManufacturerModelName": "Prisma",
      "Modality": "MR",
      "NumberOfAverages": 1.0,
      "NumberOfPhaseEncodingSteps": 82,
      "PercentPhaseFieldOfView": 100.0,
      "PercentSampling": 100.0,
      "PerformedProcedureStepStartTime": "140552.928000",
      "PhotometricInterpretation": "MONOCHROME2",
      "PixelBandwidth": 3050.0,
      "PixelRepresentation": 0,
      "PixelSpacing": [2.6829268932343, 2.6829268932343],
      "ProtocolName": "func_run-03_task-faces_acq-ap-mb8",
      "RepetitionTime": 460.0,
      "Rows": 656,
      "SAR": 0.11718262013026,
      "SamplesPerPixel": 1,
      "ScanOptions": "FS",
      "ScanningSequence": "EP",
      "SequenceName": "epfid2d1_82",
      "SequenceVariant": [
        "SK",
        "SS"
],
      "SeriesDescription": "func_run-03_task-faces_acq-ap-mb8",
      "SeriesNumber": 20,
      "SeriesTime": "152409.468000",
      "SliceLocation": -68.125375728079,
      "SliceThickness": 2.7000000476837,
      "SmallestImagePixelValue": 0,
      "SoftwareVersions": "syngo MR E11",
      "SpacingBetweenSlices": 2.7000000955671,
      "SpecificCharacterSet": "ISO_IR 100",
      "StudyID": "2",
      "StudyTime": "140552.872000",
      "TransmitCoilName": "Body",
      "VariableFlipAngleFlag": "N",
      "WindowCenterWidthExplanation": "Algo1"
    },
    "slices": {}
  },
  "time": {
    "samples": {
      "AcquisitionNumber": [1, 2, 3, 4, 5, 6, 7, 8, 9, 10, 11, 12, 13, 14, 15, 16, 17, 18, 19, 20, 21, 22, 23, 24, 25, 26, 27, 28, 29, 30, 31, 32, 33, 34, 35, 36, 37, 38, 39, 40, 41, 42, 43, 44, 45, 46, 47, 48, 49, 50, 51, 52, 53, 54, 55, 56, 57, 58, 59, 60, 61, 62, 63, 64, 65, 66, 67, 68, 69, 70, 71, 72, 73, 74, 75, 76, 77, 78, 79, 80, 81, 82, 83, 84, 85, 86, 87, 88, 89, 90, 91, 92, 93, 94, 95, 96, 97, 98, 99, 100, 101, 102, 103, 104, 105, 106, 107, 108, 109, 110, 111, 112, 113, 114, 115, 116, 117, 118, 119, 120, 121, 122, 123, 124, 125, 126, 127, 128, 129, 130, 131, 132, 133, 134, 135, 136, 137, 138, 139, 140, 141, 142, 143, 144, 145, 146, 147, 148, 149, 150, 151, 152, 153, 154, 155, 156, 157, 158, 159, 160, 161, 162, 163, 164, 165, 166, 167, 168, 169, 170, 171, 172, 173, 174, 175, 176, 177, 178, 179, 180, 181, 182, 183, 184, 185, 186, 187, 188, 189, 190, 191, 192, 193, 194, 195, 196, 197, 198, 199, 200, 201, 202, 203, 204, 205, 206, 207, 208, 209, 210, 211, 212, 213, 214, 215, 216, 217, 218, 219, 220, 221, 222, 223, 224, 225, 226, 227, 228, 229, 230, 231, 232, 233, 234, 235, 236, 237, 238, 239, 240, 241, 242, 243, 244, 245, 246, 247, 248, 249, 250, 251, 252, 253, 254, 255, 256, 257, 258, 259, 260, 261, 262, 263, 264, 265, 266, 267, 268, 269, 270, 271, 272, 273, 274, 275, 276, 277, 278, 279, 280, 281, 282, 283, 284, 285, 286, 287, 288, 289, 290, 291, 292, 293, 294, 295, 296, 297, 298, 299, 300, 301, 302, 303, 304, 305, 306, 307, 308, 309, 310, 311, 312, 313, 314, 315, 316, 317, 318, 319, 320, 321, 322, 323, 324, 325, 326, 327, 328, 329, 330, 331, 332, 333, 334, 335, 336, 337, 338, 339, 340, 341, 342, 343, 344, 345, 346, 347, 348, 349, 350, 351, 352, 353, 354, 355, 356, 357, 358, 359, 360, 361, 362, 363, 364, 365, 366, 367, 368, 369, 370, 371, 372, 373, 374, 375, 376, 377, 378, 379, 380, 381, 382, 383, 384, 385, 386, 387, 388, 389, 390, 391, 392, 393, 394, 395, 396, 397, 398, 399, 400, 401, 402, 403, 404, 405, 406, 407, 408, 409, 410, 411, 412, 413, 414, 415, 416, 417, 418, 419, 420, 421, 422, 423, 424, 425, 426, 427, 428, 429, 430, 431, 432, 433, 434, 435, 436, 437, 438, 439, 440, 441, 442, 443, 444, 445, 446, 447, 448, 449, 450, 451, 452, 453, 454, 455, 456, 457, 458, 459, 460, 461, 462, 463, 464, 465, 466, 467, 468, 469, 470, 471, 472, 473, 474, 475, 476, 477, 478, 479, 480, 481, 482, 483, 484, 485, 486, 487, 488, 489, 490, 491, 492, 493, 494, 495, 496, 497, 498, 499, 500, 501, 502, 503, 504, 505, 506, 507, 508, 509, 510, 511, 512, 513, 514, 515, 516, 517, 518, 519, 520, 521, 522, 523, 524, 525, 526, 527, 528, 529, 530, 531, 532, 533, 534, 535, 536, 537, 538, 539, 540, 541, 542, 543, 544, 545, 546, 547, 548, 549, 550, 551, 552, 553, 554, 555, 556, 557, 558, 559, 560, 561, 562, 563, 564, 565, 566, 567, 568, 569, 570, 571, 572, 573, 574, 575, 576, 577, 578, 579, 580, 581, 582, 583, 584, 585, 586, 587, 588, 589, 590, 591, 592, 593, 594, 595, 596, 597, 598, 599, 600, 601, 602, 603, 604, 605, 606, 607, 608, 609, 610, 611, 612, 613, 614, 615, 616, 617, 618, 619, 620, 621, 622, 623, 624, 625, 626, 627, 628, 629, 630, 631, 632, 633, 634, 635, 636, 637, 638, 639, 640, 641, 642, 643, 644, 645, 646, 647, 648, 649, 650, 651, 652, 653, 654, 655, 656, 657, 658, 659, 660, 661, 662, 663, 664, 665, 666, 667, 668, 669, 670, 671, 672, 673, 674, 675, 676, 677, 678, 679, 680, 681, 682, 683, 684, 685, 686, 687, 688, 689, 690, 691, 692, 693, 694, 695, 696, 697, 698, 699, 700, 701, 702, 703, 704, 705, 706, 707, 708, 709, 710, 711, 712, 713, 714, 715, 716, 717, 718, 719, 720, 721, 722, 723, 724, 725, 726, 727, 728, 729, 730, 731, 732, 733, 734, 735, 736, 737, 738, 739, 740, 741, 742, 743, 744, 745, 746, 747, 748, 749, 750, 751, 752, 753, 754, 755, 756, 757, 758, 759, 760, 761, 762, 763, 764, 765, 766, 767, 768, 769, 770, 771, 772, 773, 774, 775, 776, 777, 778, 779, 780, 781, 782, 783, 784, 785, 786, 787, 788, 789, 790, 791, 792, 793, 794, 795, 796, 797, 798, 799, 800, 801, 802, 803, 804, 805, 806, 807, 808, 809, 810, 811, 812, 813, 814, 815, 816, 817, 818, 819, 820, 821, 822, 823, 824, 825, 826, 827, 828, 829, 830, 831, 832, 833, 834, 835, 836, 837, 838, 839, 840, 841, 842, 843, 844, 845, 846, 847, 848, 849, 850, 851, 852, 853, 854, 855, 856, 857, 858, 859, 860, 861, 862, 863, 864, 865, 866, 867, 868, 869, 870, 871, 872, 873, 874, 875, 876, 877, 878, 879, 880, 881, 882, 883, 884, 885, 886, 887, 888, 889, 890, 891, 892, 893, 894, 895, 896, 897, 898, 899, 900, 901, 902, 903, 904, 905, 906, 907, 908, 909, 910, 911, 912, 913, 914],
      "AcquisitionTime": ["152346.922500", "152347.382500", "152347.842500", "152348.302500", "152348.762500", "152349.222500", "152349.682500", "152350.142500", "152350.602500", "152351.062500", "152351.522500", "152351.982500", "152352.442500", "152352.902500", "152353.362500", "152353.822500", "152354.282500", "152354.742500", "152355.202500", "152355.662500", "152356.122500", "152356.582500", "152357.042500", "152357.502500", "152357.962500", "152358.422500", "152358.882500", "152359.342500", "152359.802500", "152400.262500", "152400.722500", "152401.182500", "152401.642500", "152402.102500", "152402.562500", "152403.022500", "152403.482500", "152403.942500", "152404.402500", "152404.862500", "152405.322500", "152405.782500", "152406.242500", "152406.702500", "152407.162500", "152407.622500", "152408.082500", "152408.542500", "152409.002500", "152409.462500", "152409.922500", "152410.382500", "152410.842500", "152411.302500", "152411.762500", "152412.222500", "152412.682500", "152413.142500", "152413.602500", "152414.062500", "152414.522500", "152414.982500", "152415.442500", "152415.902500", "152416.362500", "152416.822500", "152417.282500", "152417.742500", "152418.202500", "152418.662500", "152419.122500", "152419.582500", "152420.042500", "152420.502500", "152420.962500", "152421.422500", "152421.882500", "152422.342500", "152422.802500", "152423.262500", "152423.722500", "152424.182500", "152424.642500", "152425.102500", "152425.562500", "152426.022500", "152426.482500", "152426.942500", "152427.402500", "152427.862500", "152428.322500", "152428.782500", "152429.242500", "152429.702500", "152430.162500", "152430.622500", "152431.082500", "152431.542500", "152432.002500", "152432.462500", "152432.922500", "152433.382500", "152433.842500", "152434.302500", "152434.762500", "152435.222500", "152435.682500", "152436.142500", "152436.602500", "152437.062500", "152437.522500", "152437.982500", "152438.442500", "152438.902500", "152439.362500", "152439.822500", "152440.282500", "152440.742500", "152441.202500", "152441.662500", "152442.122500", "152442.582500", "152443.042500", "152443.502500", "152443.962500", "152444.422500", "152444.882500", "152445.342500", "152445.802500", "152446.262500", "152446.722500", "152447.182500", "152447.642500", "152448.102500", "152448.562500", "152449.022500", "152449.482500", "152449.942500", "152450.402500", "152450.862500", "152451.322500", "152451.782500", "152452.242500", "152452.702500", "152453.162500", "152453.622500", "152454.082500", "152454.542500", "152455.002500", "152455.462500", "152455.922500", "152456.382500", "152456.842500", "152457.302500", "152457.762500", "152458.222500", "152458.682500", "152459.142500", "152459.602500", "152500.062500", "152500.522500", "152500.982500", "152501.442500", "152501.902500", "152502.362500", "152502.822500", "152503.282500", "152503.742500", "152504.202500", "152504.662500", "152505.122500", "152505.582500", "152506.042500", "152506.502500", "152506.962500", "152507.422500", "152507.882500", "152508.342500", "152508.802500", "152509.262500", "152509.722500", "152510.182500", "152510.642500", "152511.102500", "152511.562500", "152512.022500", "152512.482500", "152512.942500", "152513.402500", "152513.862500", "152514.322500", "152514.782500", "152515.242500", "152515.702500", "152516.162500", "152516.622500", "152517.082500", "152517.542500", "152518.002500", "152518.462500", "152518.922500", "152519.382500", "152519.842500", "152520.302500", "152520.762500", "152521.222500", "152521.682500", "152522.142500", "152522.602500", "152523.062500", "152523.522500", "152523.982500", "152524.442500", "152524.902500", "152525.362500", "152525.822500", "152526.282500", "152526.742500", "152527.202500", "152527.662500", "152528.122500", "152528.582500", "152529.042500", "152529.502500", "152529.962500", "152530.422500", "152530.882500", "152531.342500", "152531.802500", "152532.262500", "152532.722500", "152533.182500", "152533.642500", "152534.102500", "152534.562500", "152535.022500", "152535.482500", "152535.942500", "152536.402500", "152536.862500", "152537.322500", "152537.782500", "152538.242500", "152538.702500", "152539.162500", "152539.622500", "152540.082500", "152540.542500", "152541.002500", "152541.462500", "152541.922500", "152542.382500", "152542.842500", "152543.302500", "152543.762500", "152544.222500", "152544.682500", "152545.142500", "152545.602500", "152546.062500", "152546.522500", "152546.982500", "152547.442500", "152547.902500", "152548.362500", "152548.822500", "152549.282500", "152549.742500", "152550.202500", "152550.662500", "152551.122500", "152551.582500", "152552.042500", "152552.502500", "152552.962500", "152553.422500", "152553.882500", "152554.342500", "152554.802500", "152555.262500", "152555.722500", "152556.182500", "152556.642500", "152557.102500", "152557.562500", "152558.022500", "152558.482500", "152558.942500", "152559.402500", "152559.862500", "152600.322500", "152600.782500", "152601.242500", "152601.702500", "152602.162500", "152602.622500", "152603.082500", "152603.542500", "152604.002500", "152604.462500", "152604.922500", "152605.382500", "152605.842500", "152606.302500", "152606.762500", "152607.222500", "152607.682500", "152608.142500", "152608.602500", "152609.062500", "152609.522500", "152609.982500", "152610.442500", "152610.902500", "152611.362500", "152611.822500", "152612.282500", "152612.742500", "152613.202500", "152613.662500", "152614.122500", "152614.582500", "152615.042500", "152615.502500", "152615.962500", "152616.422500", "152616.882500", "152617.342500", "152617.802500", "152618.262500", "152618.722500", "152619.182500", "152619.642500", "152620.102500", "152620.562500", "152621.022500", "152621.482500", "152621.942500", "152622.402500", "152622.862500", "152623.322500", "152623.782500", "152624.242500", "152624.702500", "152625.162500", "152625.622500", "152626.082500", "152626.542500", "152627.002500", "152627.462500", "152627.922500", "152628.382500", "152628.842500", "152629.302500", "152629.762500", "152630.222500", "152630.682500", "152631.142500", "152631.602500", "152632.062500", "152632.522500", "152632.982500", "152633.442500", "152633.902500", "152634.362500", "152634.822500", "152635.282500", "152635.742500", "152636.202500", "152636.662500", "152637.122500", "152637.582500", "152638.042500", "152638.502500", "152638.962500", "152639.422500", "152639.882500", "152640.342500", "152640.802500", "152641.262500", "152641.722500", "152642.182500", "152642.642500", "152643.102500", "152643.562500", "152644.022500", "152644.482500", "152644.942500", "152645.402500", "152645.862500", "152646.322500", "152646.782500", "152647.242500", "152647.702500", "152648.162500", "152648.622500", "152649.082500", "152649.542500", "152650.002500", "152650.462500", "152650.922500", "152651.382500", "152651.842500", "152652.302500", "152652.762500", "152653.222500", "152653.682500", "152654.142500", "152654.602500", "152655.062500", "152655.522500", "152655.982500", "152656.442500", "152656.902500", "152657.362500", "152657.822500", "152658.282500", "152658.742500", "152659.202500", "152659.662500", "152700.122500", "152700.582500", "152701.042500", "152701.502500", "152701.962500", "152702.422500", "152702.882500", "152703.342500", "152703.802500", "152704.262500", "152704.722500", "152705.182500", "152705.642500", "152706.102500", "152706.562500", "152707.022500", "152707.482500", "152707.942500", "152708.402500", "152708.862500", "152709.322500", "152709.782500", "152710.242500", "152710.702500", "152711.162500", "152711.622500", "152712.082500", "152712.542500", "152713.002500", "152713.462500", "152713.922500", "152714.382500", "152714.842500", "152715.302500", "152715.762500", "152716.222500", "152716.682500", "152717.142500", "152717.602500", "152718.062500", "152718.522500", "152718.982500", "152719.442500", "152719.902500", "152720.362500", "152720.822500", "152721.282500", "152721.742500", "152722.202500", "152722.662500", "152723.122500", "152723.582500", "152724.042500", "152724.502500", "152724.962500", "152725.422500", "152725.882500", "152726.342500", "152726.802500", "152727.262500", "152727.722500", "152728.182500", "152728.642500", "152729.102500", "152729.562500", "152730.022500", "152730.482500", "152730.942500", "152731.402500", "152731.862500", "152732.322500", "152732.782500", "152733.242500", "152733.702500", "152734.162500", "152734.622500", "152735.082500", "152735.542500", "152736.002500", "152736.462500", "152736.922500", "152737.382500", "152737.842500", "152738.302500", "152738.762500", "152739.222500", "152739.682500", "152740.142500", "152740.602500", "152741.062500", "152741.522500", "152741.982500", "152742.442500", "152742.902500", "152743.362500", "152743.822500", "152744.282500", "152744.742500", "152745.202500", "152745.662500", "152746.122500", "152746.582500", "152747.042500", "152747.502500", "152747.962500", "152748.422500", "152748.882500", "152749.342500", "152749.802500", "152750.262500", "152750.722500", "152751.182500", "152751.642500", "152752.102500", "152752.562500", "152753.022500", "152753.482500", "152753.942500", "152754.402500", "152754.862500", "152755.322500", "152755.782500", "152756.242500", "152756.702500", "152757.162500", "152757.622500", "152758.082500", "152758.542500", "152759.002500", "152759.462500", "152759.922500", "152800.382500", "152800.842500", "152801.302500", "152801.762500", "152802.222500", "152802.682500", "152803.142500", "152803.602500", "152804.062500", "152804.522500", "152804.982500", "152805.442500", "152805.902500", "152806.362500", "152806.822500", "152807.282500", "152807.742500", "152808.202500", "152808.662500", "152809.122500", "152809.582500", "152810.042500", "152810.502500", "152810.962500", "152811.422500", "152811.882500", "152812.342500", "152812.802500", "152813.262500", "152813.722500", "152814.182500", "152814.642500", "152815.102500", "152815.562500", "152816.022500", "152816.482500", "152816.942500", "152817.402500", "152817.862500", "152818.322500", "152818.782500", "152819.242500", "152819.702500", "152820.162500", "152820.622500", "152821.082500", "152821.542500", "152822.002500", "152822.462500", "152822.922500", "152823.382500", "152823.842500", "152824.302500", "152824.762500", "152825.222500", "152825.682500", "152826.142500", "152826.602500", "152827.062500", "152827.522500", "152827.982500", "152828.442500", "152828.902500", "152829.362500", "152829.822500", "152830.282500", "152830.742500", "152831.202500", "152831.662500", "152832.122500", "152832.582500", "152833.042500", "152833.502500", "152833.962500", "152834.422500", "152834.882500", "152835.342500", "152835.802500", "152836.262500", "152836.722500", "152837.182500", "152837.642500", "152838.102500", "152838.562500", "152839.022500", "152839.482500", "152839.942500", "152840.402500", "152840.862500", "152841.322500", "152841.782500", "152842.242500", "152842.702500", "152843.162500", "152843.622500", "152844.082500", "152844.542500", "152845.002500", "152845.462500", "152845.922500", "152846.382500", "152846.842500", "152847.302500", "152847.762500", "152848.222500", "152848.682500", "152849.142500", "152849.602500", "152850.062500", "152850.522500", "152850.982500", "152851.442500", "152851.902500", "152852.362500", "152852.822500", "152853.282500", "152853.742500", "152854.202500", "152854.662500", "152855.122500", "152855.582500", "152856.042500", "152856.502500", "152856.962500", "152857.422500", "152857.882500", "152858.342500", "152858.802500", "152859.262500", "152859.722500", "152900.182500", "152900.642500", "152901.102500", "152901.562500", "152902.022500", "152902.482500", "152902.942500", "152903.402500", "152903.862500", "152904.322500", "152904.782500", "152905.242500", "152905.702500", "152906.162500", "152906.622500", "152907.082500", "152907.542500", "152908.002500", "152908.462500", "152908.922500", "152909.382500", "152909.842500", "152910.302500", "152910.762500", "152911.222500", "152911.682500", "152912.142500", "152912.602500", "152913.062500", "152913.522500", "152913.982500", "152914.442500", "152914.902500", "152915.362500", "152915.822500", "152916.282500", "152916.742500", "152917.202500", "152917.662500", "152918.122500", "152918.582500", "152919.042500", "152919.502500", "152919.962500", "152920.422500", "152920.882500", "152921.342500", "152921.802500", "152922.262500", "152922.722500", "152923.182500", "152923.642500", "152924.102500", "152924.562500", "152925.022500", "152925.482500", "152925.942500", "152926.402500", "152926.862500", "152927.322500", "152927.782500", "152928.242500", "152928.702500", "152929.162500", "152929.622500", "152930.082500", "152930.542500", "152931.002500", "152931.462500", "152931.922500", "152932.382500", "152932.842500", "152933.302500", "152933.762500", "152934.222500", "152934.682500", "152935.142500", "152935.602500", "152936.062500", "152936.522500", "152936.982500", "152937.442500", "152937.902500", "152938.362500", "152938.822500", "152939.282500", "152939.742500", "152940.202500", "152940.662500", "152941.122500", "152941.582500", "152942.042500", "152942.502500", "152942.962500", "152943.422500", "152943.882500", "152944.342500", "152944.802500", "152945.262500", "152945.722500", "152946.182500", "152946.642500", "152947.102500", "152947.562500", "152948.022500", "152948.482500", "152948.942500", "152949.402500", "152949.862500", "152950.322500", "152950.782500", "152951.242500", "152951.702500", "152952.162500", "152952.622500", "152953.082500", "152953.542500", "152954.002500", "152954.462500", "152954.922500", "152955.382500", "152955.842500", "152956.302500", "152956.762500", "152957.222500", "152957.682500", "152958.142500", "152958.602500", "152959.062500", "152959.522500", "152959.982500", "153000.442500", "153000.902500", "153001.362500", "153001.822500", "153002.282500", "153002.742500", "153003.202500", "153003.662500", "153004.122500", "153004.582500", "153005.042500", "153005.502500", "153005.962500", "153006.422500", "153006.882500", "153007.342500", "153007.802500", "153008.262500", "153008.722500", "153009.182500", "153009.642500", "153010.102500", "153010.562500", "153011.022500", "153011.482500", "153011.942500", "153012.402500", "153012.862500", "153013.322500", "153013.782500", "153014.242500", "153014.702500", "153015.162500", "153015.622500", "153016.082500", "153016.542500", "153017.002500", "153017.462500", "153017.922500", "153018.382500", "153018.842500", "153019.302500", "153019.762500", "153020.222500", "153020.682500", "153021.142500", "153021.602500", "153022.062500", "153022.522500", "153022.982500", "153023.442500", "153023.902500", "153024.362500", "153024.822500", "153025.282500", "153025.742500", "153026.202500", "153026.662500", "153027.122500", "153027.582500", "153028.042500", "153028.502500", "153028.962500", "153029.422500", "153029.882500", "153030.342500", "153030.802500", "153031.262500", "153031.722500", "153032.182500", "153032.642500", "153033.102500", "153033.562500", "153034.022500", "153034.482500", "153034.942500", "153035.402500", "153035.862500", "153036.322500", "153036.782500", "153037.242500", "153037.702500", "153038.162500", "153038.622500", "153039.082500", "153039.542500", "153040.002500", "153040.462500", "153040.922500", "153041.382500", "153041.842500", "153042.302500", "153042.762500", "153043.222500", "153043.682500", "153044.142500", "153044.602500", "153045.062500", "153045.522500", "153045.982500", "153046.442500", "153046.902500"],
