{
  "AcquisitionMatrixPE": 82,
  "AcquisitionNumber": 1,
  "AcquisitionTime": "19:40:35.332500",
  "BandwidthPerPixelPhaseEncode": 24.888,
  "BaseResolution": 82,
  "BodyPartExamined": "BRAIN",
  "ConsistencyInfo": "N4_VE11E_LATEST_20181129",
  "ConversionSoftware": "dcm2niix",
  "ConversionSoftwareVersion": "v1.0.20201102",
  "DerivedVendorReportedEchoSpacing": 0.00049,
  "DeviceSerialNumber": "66112",
  "DwellTime": 2e-06,
  "EchoTime": 0.0272,
  "EchoTrainLength": 82,
  "EffectiveEchoSpacing": 0.00049,
  "FlipAngle": 44,
  "ImageComments": "Unaliased MB8/PE3",
  "ImageOrientationPatientDICOM": [0.999891, -0.00966461, 0.0111419, 0.0113439, 0.986702, -0.162144],
  "ImageType": [
    "ORIGINAL",
    "PRIMARY",
    "M",
    "MB",
    "ND",
    "NORM",
    "MOSAIC"
],
  "ImagingFrequency": 123.259,
  "InPlanePhaseEncodingDirectionDICOM": "COL",
  "InstitutionAddress": "Maynard 3,Hanover,NH,US,03755",
  "InstitutionName": "Dartmouth College - PBS",
  "InstitutionalDepartmentName": "Department",
  "MRAcquisitionType": "2D",
  "MagneticFieldStrength": 3,
  "Manufacturer": "Siemens",
  "ManufacturersModelName": "Prisma",
  "Modality": "MR",
  "MultibandAccelerationFactor": 8,
  "PartialFourier": 1,
  "PatientPosition": "HFS",
  "PercentPhaseFOV": 100,
  "PercentSampling": 100,
  "PhaseEncodingDirection": "j-",
  "PhaseEncodingSteps": 82,
  "PhaseResolution": 1,
  "PixelBandwidth": 3050,
  "ProcedureStepDescription": "Wager_Wager^1076_spacetop",
  "ProtocolName": "func_run-05_task-social_acq-ap-mb8",
  "PulseSequenceDetails": "%CustomerSeq%\\cmrr_mbep2d_bold",
  "ReceiveCoilActiveElements": "HEA;HEP",
  "ReceiveCoilName": "Head_32",
  "ReconMatrixPE": 82,
  "RepetitionTime": 0.46,
  "SAR": 0.0935754,
  "ScanOptions": "FS",
  "ScanningSequence": "EP",
  "SequenceName": "epfid2d1_82",
  "SequenceVariant": "SK\\SS",
  "SeriesDescription": "func_run-05_task-social_acq-ap-mb8",
  "SeriesNumber": 16,
  "ShimSetting": [4228, -7734, -7282, 214, -123, -119, -114, 42],
  "SliceThickness": 2.7,
  "SliceTiming": [0, 0.2525, 0.065, 0.315, 0.1275, 0.3775, 0.19, 0, 0.2525, 0.065, 0.315, 0.1275, 0.3775, 0.19, 0, 0.2525, 0.065, 0.315, 0.1275, 0.3775, 0.19, 0, 0.2525, 0.065, 0.315, 0.1275, 0.3775, 0.19, 0, 0.2525, 0.065, 0.315, 0.1275, 0.3775, 0.19, 0, 0.2525, 0.065, 0.315, 0.1275, 0.3775, 0.19, 0, 0.2525, 0.065, 0.315, 0.1275, 0.3775, 0.19, 0, 0.2525, 0.065, 0.315, 0.1275, 0.3775, 0.19],
  "SoftwareVersions": "syngo MR E11",
  "SpacingBetweenSlices": 2.7,
  "StationName": "AWP66112",
  "TaskName": "social",
  "TotalReadoutTime": 0.03969,
  "TxRefAmp": 260.623,
  "WipMemBlock": "e79f7a3d-b72d-4c53-99bd-2b5c7dee2a62||Sequence: R016 ve11e/master r/434b28f1; Aug  7 2019 18:53:46 by eja",
  "dcmmeta_affine": [
    [-2.6826350688934326, 0.03043486922979355, 0.025451967492699623, 109.55797576904297],
    [0.02592943049967289, 2.647249221801758, -0.4380819499492645, -89.00827026367188],
    [0.02989283949136734, 0.4350200295448303, 2.6641013622283936, -102.42356872558594],
    [0.0, 0.0, 0.0, 1.0]
],
  "dcmmeta_reorient_transform": [
    [0.0, -1.0, 0.0, 81.0],
    [1.0, 0.0, 0.0, 0.0],
    [0.0, 0.0, 1.0, 0.0],
    [0.0, 0.0, 0.0, 1.0]
],
  "dcmmeta_shape": [82, 82, 56, 872],
  "dcmmeta_slice_dim": 2,
  "dcmmeta_version": 0.6,
  "global": {
    "const": {
      "AccessionNumber": "A004441",
      "AcquisitionMatrix": [82, 0, 0, 82],
      "AngioFlag": "N",
      "BitsAllocated": 16,
      "BitsStored": 16,
      "BodyPartExamined": "BRAIN",
      "Columns": 656,
      "EchoNumbers": 1,
      "EchoTime": 27.2,
      "EchoTrainLength": 82,
      "FlipAngle": 44.0,
      "HighBit": 15,
      "ImageOrientationPatient": [0.9998912210778, -0.0096646058571, 0.01114187619605, 0.01134390560179, 0.98670192921272, -0.1621438210158],
      "ImagePositionPatient": [-890.67426654069, -877.73766447525, 49.084549692519],
      "ImageType": [
        "ORIGINAL",
        "PRIMARY",
        "M",
        "MB",
        "ND",
        "NORM",
        "MOSAIC"
],
      "ImagedNucleus": "1H",
      "ImagingFrequency": 123.259106,
      "InPlanePhaseEncodingDirection": "COL",
      "MRAcquisitionType": "2D",
      "MagneticFieldStrength": 3.0,
      "Manufacturer": "SIEMENS",
      "ManufacturerModelName": "Prisma",
      "Modality": "MR",
      "NumberOfAverages": 1.0,
      "NumberOfPhaseEncodingSteps": 82,
      "PercentPhaseFieldOfView": 100.0,
      "PercentSampling": 100.0,
      "PerformedProcedureStepStartTime": "182815.717000",
      "PhotometricInterpretation": "MONOCHROME2",
      "PixelBandwidth": 3050.0,
      "PixelRepresentation": 0,
      "PixelSpacing": [2.6829268932343, 2.6829268932343],
      "ProtocolName": "func_run-05_task-social_acq-ap-mb8",
      "RepetitionTime": 460.0,
      "Rows": 656,
      "SAR": 0.0935753584373,
      "SamplesPerPixel": 1,
      "ScanOptions": "FS",
      "ScanningSequence": "EP",
      "SequenceName": "epfid2d1_82",
      "SequenceVariant": [
        "SK",
        "SS"
],
      "SeriesDescription": "func_run-05_task-social_acq-ap-mb8",
      "SeriesNumber": 16,
      "SeriesTime": "194053.677000",
      "SliceLocation": -85.587185187977,
      "SliceThickness": 2.7000000476837,
      "SmallestImagePixelValue": 0,
      "SoftwareVersions": "syngo MR E11",
      "SpacingBetweenSlices": 2.6999999879012,
      "SpecificCharacterSet": "ISO_IR 100",
      "StudyID": "1",
      "StudyTime": "182815.648000",
      "TransmitCoilName": "Body",
      "VariableFlipAngleFlag": "N",
      "WindowCenterWidthExplanation": "Algo1"
    },
    "slices": {}
  },
  "time": {
    "samples": {
      "AcquisitionNumber": [1, 2, 3, 4, 5, 6, 7, 8, 9, 10, 11, 12, 13, 14, 15, 16, 17, 18, 19, 20, 21, 22, 23, 24, 25, 26, 27, 28, 29, 30, 31, 32, 33, 34, 35, 36, 37, 38, 39, 40, 41, 42, 43, 44, 45, 46, 47, 48, 49, 50, 51, 52, 53, 54, 55, 56, 57, 58, 59, 60, 61, 62, 63, 64, 65, 66, 67, 68, 69, 70, 71, 72, 73, 74, 75, 76, 77, 78, 79, 80, 81, 82, 83, 84, 85, 86, 87, 88, 89, 90, 91, 92, 93, 94, 95, 96, 97, 98, 99, 100, 101, 102, 103, 104, 105, 106, 107, 108, 109, 110, 111, 112, 113, 114, 115, 116, 117, 118, 119, 120, 121, 122, 123, 124, 125, 126, 127, 128, 129, 130, 131, 132, 133, 134, 135, 136, 137, 138, 139, 140, 141, 142, 143, 144, 145, 146, 147, 148, 149, 150, 151, 152, 153, 154, 155, 156, 157, 158, 159, 160, 161, 162, 163, 164, 165, 166, 167, 168, 169, 170, 171, 172, 173, 174, 175, 176, 177, 178, 179, 180, 181, 182, 183, 184, 185, 186, 187, 188, 189, 190, 191, 192, 193, 194, 195, 196, 197, 198, 199, 200, 201, 202, 203, 204, 205, 206, 207, 208, 209, 210, 211, 212, 213, 214, 215, 216, 217, 218, 219, 220, 221, 222, 223, 224, 225, 226, 227, 228, 229, 230, 231, 232, 233, 234, 235, 236, 237, 238, 239, 240, 241, 242, 243, 244, 245, 246, 247, 248, 249, 250, 251, 252, 253, 254, 255, 256, 257, 258, 259, 260, 261, 262, 263, 264, 265, 266, 267, 268, 269, 270, 271, 272, 273, 274, 275, 276, 277, 278, 279, 280, 281, 282, 283, 284, 285, 286, 287, 288, 289, 290, 291, 292, 293, 294, 295, 296, 297, 298, 299, 300, 301, 302, 303, 304, 305, 306, 307, 308, 309, 310, 311, 312, 313, 314, 315, 316, 317, 318, 319, 320, 321, 322, 323, 324, 325, 326, 327, 328, 329, 330, 331, 332, 333, 334, 335, 336, 337, 338, 339, 340, 341, 342, 343, 344, 345, 346, 347, 348, 349, 350, 351, 352, 353, 354, 355, 356, 357, 358, 359, 360, 361, 362, 363, 364, 365, 366, 367, 368, 369, 370, 371, 372, 373, 374, 375, 376, 377, 378, 379, 380, 381, 382, 383, 384, 385, 386, 387, 388, 389, 390, 391, 392, 393, 394, 395, 396, 397, 398, 399, 400, 401, 402, 403, 404, 405, 406, 407, 408, 409, 410, 411, 412, 413, 414, 415, 416, 417, 418, 419, 420, 421, 422, 423, 424, 425, 426, 427, 428, 429, 430, 431, 432, 433, 434, 435, 436, 437, 438, 439, 440, 441, 442, 443, 444, 445, 446, 447, 448, 449, 450, 451, 452, 453, 454, 455, 456, 457, 458, 459, 460, 461, 462, 463, 464, 465, 466, 467, 468, 469, 470, 471, 472, 473, 474, 475, 476, 477, 478, 479, 480, 481, 482, 483, 484, 485, 486, 487, 488, 489, 490, 491, 492, 493, 494, 495, 496, 497, 498, 499, 500, 501, 502, 503, 504, 505, 506, 507, 508, 509, 510, 511, 512, 513, 514, 515, 516, 517, 518, 519, 520, 521, 522, 523, 524, 525, 526, 527, 528, 529, 530, 531, 532, 533, 534, 535, 536, 537, 538, 539, 540, 541, 542, 543, 544, 545, 546, 547, 548, 549, 550, 551, 552, 553, 554, 555, 556, 557, 558, 559, 560, 561, 562, 563, 564, 565, 566, 567, 568, 569, 570, 571, 572, 573, 574, 575, 576, 577, 578, 579, 580, 581, 582, 583, 584, 585, 586, 587, 588, 589, 590, 591, 592, 593, 594, 595, 596, 597, 598, 599, 600, 601, 602, 603, 604, 605, 606, 607, 608, 609, 610, 611, 612, 613, 614, 615, 616, 617, 618, 619, 620, 621, 622, 623, 624, 625, 626, 627, 628, 629, 630, 631, 632, 633, 634, 635, 636, 637, 638, 639, 640, 641, 642, 643, 644, 645, 646, 647, 648, 649, 650, 651, 652, 653, 654, 655, 656, 657, 658, 659, 660, 661, 662, 663, 664, 665, 666, 667, 668, 669, 670, 671, 672, 673, 674, 675, 676, 677, 678, 679, 680, 681, 682, 683, 684, 685, 686, 687, 688, 689, 690, 691, 692, 693, 694, 695, 696, 697, 698, 699, 700, 701, 702, 703, 704, 705, 706, 707, 708, 709, 710, 711, 712, 713, 714, 715, 716, 717, 718, 719, 720, 721, 722, 723, 724, 725, 726, 727, 728, 729, 730, 731, 732, 733, 734, 735, 736, 737, 738, 739, 740, 741, 742, 743, 744, 745, 746, 747, 748, 749, 750, 751, 752, 753, 754, 755, 756, 757, 758, 759, 760, 761, 762, 763, 764, 765, 766, 767, 768, 769, 770, 771, 772, 773, 774, 775, 776, 777, 778, 779, 780, 781, 782, 783, 784, 785, 786, 787, 788, 789, 790, 791, 792, 793, 794, 795, 796, 797, 798, 799, 800, 801, 802, 803, 804, 805, 806, 807, 808, 809, 810, 811, 812, 813, 814, 815, 816, 817, 818, 819, 820, 821, 822, 823, 824, 825, 826, 827, 828, 829, 830, 831, 832, 833, 834, 835, 836, 837, 838, 839, 840, 841, 842, 843, 844, 845, 846, 847, 848, 849, 850, 851, 852, 853, 854, 855, 856, 857, 858, 859, 860, 861, 862, 863, 864, 865, 866, 867, 868, 869, 870, 871, 872],
      "AcquisitionTime": ["194035.332500", "194035.792500", "194036.252500", "194036.712500", "194037.172500", "194037.632500", "194038.092500", "194038.552500", "194039.012500", "194039.472500", "194039.932500", "194040.392500", "194040.852500", "194041.312500", "194041.772500", "194042.232500", "194042.692500", "194043.152500", "194043.612500", "194044.072500", "194044.532500", "194044.992500", "194045.452500", "194045.912500", "194046.372500", "194046.832500", "194047.292500", "194047.752500", "194048.212500", "194048.672500", "194049.132500", "194049.592500", "194050.052500", "194050.512500", "194050.972500", "194051.432500", "194051.892500", "194052.352500", "194052.812500", "194053.272500", "194053.732500", "194054.192500", "194054.652500", "194055.112500", "194055.572500", "194056.032500", "194056.492500", "194056.952500", "194057.412500", "194057.872500", "194058.332500", "194058.792500", "194059.252500", "194059.712500", "194100.172500", "194100.632500", "194101.092500", "194101.552500", "194102.012500", "194102.472500", "194102.932500", "194103.392500", "194103.852500", "194104.312500", "194104.772500", "194105.232500", "194105.692500", "194106.152500", "194106.612500", "194107.072500", "194107.532500", "194107.992500", "194108.452500", "194108.912500", "194109.372500", "194109.832500", "194110.292500", "194110.752500", "194111.212500", "194111.672500", "194112.132500", "194112.592500", "194113.052500", "194113.512500", "194113.972500", "194114.432500", "194114.892500", "194115.352500", "194115.812500", "194116.272500", "194116.732500", "194117.192500", "194117.652500", "194118.112500", "194118.572500", "194119.032500", "194119.492500", "194119.952500", "194120.412500", "194120.872500", "194121.332500", "194121.792500", "194122.252500", "194122.712500", "194123.172500", "194123.632500", "194124.092500", "194124.552500", "194125.012500", "194125.472500", "194125.932500", "194126.392500", "194126.852500", "194127.312500", "194127.772500", "194128.232500", "194128.692500", "194129.152500", "194129.612500", "194130.072500", "194130.532500", "194130.992500", "194131.452500", "194131.912500", "194132.372500", "194132.832500", "194133.292500", "194133.752500", "194134.212500", "194134.672500", "194135.132500", "194135.592500", "194136.052500", "194136.512500", "194136.972500", "194137.432500", "194137.892500", "194138.352500", "194138.812500", "194139.272500", "194139.732500", "194140.192500", "194140.652500", "194141.112500", "194141.572500", "194142.032500", "194142.492500", "194142.952500", "194143.412500", "194143.872500", "194144.332500", "194144.792500", "194145.252500", "194145.712500", "194146.172500", "194146.632500", "194147.092500", "194147.552500", "194148.012500", "194148.472500", "194148.932500", "194149.392500", "194149.852500", "194150.312500", "194150.772500", "194151.232500", "194151.692500", "194152.152500", "194152.612500", "194153.072500", "194153.532500", "194153.992500", "194154.452500", "194154.912500", "194155.372500", "194155.832500", "194156.292500", "194156.752500", "194157.212500", "194157.672500", "194158.132500", "194158.592500", "194159.052500", "194159.512500", "194159.972500", "194200.432500", "194200.892500", "194201.352500", "194201.812500", "194202.272500", "194202.732500", "194203.192500", "194203.652500", "194204.112500", "194204.572500", "194205.032500", "194205.492500", "194205.952500", "194206.412500", "194206.872500", "194207.332500", "194207.792500", "194208.252500", "194208.712500", "194209.172500", "194209.632500", "194210.092500", "194210.552500", "194211.012500", "194211.472500", "194211.932500", "194212.392500", "194212.852500", "194213.312500", "194213.772500", "194214.232500", "194214.692500", "194215.152500", "194215.612500", "194216.072500", "194216.532500", "194216.992500", "194217.452500", "194217.912500", "194218.372500", "194218.832500", "194219.292500", "194219.752500", "194220.212500", "194220.672500", "194221.132500", "194221.592500", "194222.052500", "194222.512500", "194222.972500", "194223.432500", "194223.892500", "194224.352500", "194224.812500", "194225.272500", "194225.732500", "194226.192500", "194226.652500", "194227.112500", "194227.572500", "194228.032500", "194228.492500", "194228.952500", "194229.412500", "194229.872500", "194230.332500", "194230.792500", "194231.252500", "194231.712500", "194232.172500", "194232.632500", "194233.092500", "194233.552500", "194234.012500", "194234.472500", "194234.932500", "194235.392500", "194235.852500", "194236.312500", "194236.772500", "194237.232500", "194237.692500", "194238.152500", "194238.612500", "194239.072500", "194239.532500", "194239.992500", "194240.452500", "194240.912500", "194241.372500", "194241.832500", "194242.292500", "194242.752500", "194243.212500", "194243.672500", "194244.132500", "194244.592500", "194245.052500", "194245.512500", "194245.972500", "194246.432500", "194246.892500", "194247.352500", "194247.812500", "194248.272500", "194248.732500", "194249.192500", "194249.652500", "194250.112500", "194250.572500", "194251.032500", "194251.492500", "194251.952500", "194252.412500", "194252.872500", "194253.332500", "194253.792500", "194254.252500", "194254.712500", "194255.172500", "194255.632500", "194256.092500", "194256.552500", "194257.012500", "194257.472500", "194257.932500", "194258.392500", "194258.852500", "194259.312500", "194259.772500", "194300.232500", "194300.692500", "194301.152500", "194301.612500", "194302.072500", "194302.532500", "194302.992500", "194303.452500", "194303.912500", "194304.372500", "194304.832500", "194305.292500", "194305.752500", "194306.212500", "194306.672500", "194307.132500", "194307.592500", "194308.052500", "194308.512500", "194308.972500", "194309.432500", "194309.892500", "194310.352500", "194310.812500", "194311.272500", "194311.732500", "194312.192500", "194312.652500", "194313.112500", "194313.572500", "194314.032500", "194314.492500", "194314.952500", "194315.412500", "194315.872500", "194316.332500", "194316.792500", "194317.252500", "194317.712500", "194318.172500", "194318.632500", "194319.092500", "194319.552500", "194320.012500", "194320.472500", "194320.932500", "194321.392500", "194321.852500", "194322.312500", "194322.772500", "194323.232500", "194323.692500", "194324.152500", "194324.612500", "194325.072500", "194325.532500", "194325.992500", "194326.452500", "194326.912500", "194327.372500", "194327.832500", "194328.292500", "194328.752500", "194329.212500", "194329.672500", "194330.132500", "194330.592500", "194331.052500", "194331.512500", "194331.972500", "194332.432500", "194332.892500", "194333.352500", "194333.812500", "194334.272500", "194334.732500", "194335.192500", "194335.652500", "194336.112500", "194336.572500", "194337.032500", "194337.492500", "194337.952500", "194338.412500", "194338.872500", "194339.332500", "194339.792500", "194340.252500", "194340.712500", "194341.172500", "194341.632500", "194342.092500", "194342.552500", "194343.012500", "194343.472500", "194343.932500", "194344.392500", "194344.852500", "194345.312500", "194345.772500", "194346.232500", "194346.692500", "194347.152500", "194347.612500", "194348.072500", "194348.532500", "194348.992500", "194349.452500", "194349.912500", "194350.372500", "194350.832500", "194351.292500", "194351.752500", "194352.212500", "194352.672500", "194353.132500", "194353.592500", "194354.052500", "194354.512500", "194354.972500", "194355.432500", "194355.892500", "194356.352500", "194356.812500", "194357.272500", "194357.732500", "194358.192500", "194358.652500", "194359.112500", "194359.572500", "194400.032500", "194400.492500", "194400.952500", "194401.412500", "194401.872500", "194402.332500", "194402.792500", "194403.252500", "194403.712500", "194404.172500", "194404.632500", "194405.092500", "194405.552500", "194406.012500", "194406.472500", "194406.932500", "194407.392500", "194407.852500", "194408.312500", "194408.772500", "194409.232500", "194409.692500", "194410.152500", "194410.612500", "194411.072500", "194411.532500", "194411.992500", "194412.452500", "194412.912500", "194413.372500", "194413.832500", "194414.292500", "194414.752500", "194415.212500", "194415.672500", "194416.132500", "194416.592500", "194417.052500", "194417.512500", "194417.972500", "194418.432500", "194418.892500", "194419.352500", "194419.812500", "194420.272500", "194420.732500", "194421.192500", "194421.652500", "194422.112500", "194422.572500", "194423.032500", "194423.492500", "194423.952500", "194424.412500", "194424.872500", "194425.332500", "194425.792500", "194426.252500", "194426.712500", "194427.172500", "194427.632500", "194428.092500", "194428.552500", "194429.012500", "194429.472500", "194429.932500", "194430.392500", "194430.852500", "194431.312500", "194431.772500", "194432.232500", "194432.692500", "194433.152500", "194433.612500", "194434.072500", "194434.532500", "194434.992500", "194435.452500", "194435.912500", "194436.372500", "194436.832500", "194437.292500", "194437.752500", "194438.212500", "194438.672500", "194439.132500", "194439.592500", "194440.052500", "194440.512500", "194440.972500", "194441.432500", "194441.892500", "194442.352500", "194442.812500", "194443.272500", "194443.732500", "194444.192500", "194444.652500", "194445.112500", "194445.572500", "194446.032500", "194446.492500", "194446.952500", "194447.412500", "194447.872500", "194448.332500", "194448.792500", "194449.252500", "194449.712500", "194450.172500", "194450.632500", "194451.092500", "194451.552500", "194452.012500", "194452.472500", "194452.932500", "194453.392500", "194453.852500", "194454.312500", "194454.772500", "194455.232500", "194455.692500", "194456.152500", "194456.612500", "194457.072500", "194457.532500", "194457.992500", "194458.452500", "194458.912500", "194459.372500", "194459.832500", "194500.292500", "194500.752500", "194501.212500", "194501.672500", "194502.132500", "194502.592500", "194503.052500", "194503.512500", "194503.972500", "194504.432500", "194504.892500", "194505.352500", "194505.812500", "194506.272500", "194506.732500", "194507.192500", "194507.652500", "194508.112500", "194508.572500", "194509.032500", "194509.492500", "194509.952500", "194510.412500", "194510.872500", "194511.332500", "194511.792500", "194512.252500", "194512.712500", "194513.172500", "194513.632500", "194514.092500", "194514.552500", "194515.012500", "194515.472500", "194515.932500", "194516.392500", "194516.852500", "194517.312500", "194517.772500", "194518.232500", "194518.692500", "194519.152500", "194519.612500", "194520.072500", "194520.532500", "194520.992500", "194521.452500", "194521.912500", "194522.372500", "194522.832500", "194523.292500", "194523.752500", "194524.212500", "194524.672500", "194525.132500", "194525.592500", "194526.052500", "194526.512500", "194526.972500", "194527.432500", "194527.892500", "194528.352500", "194528.812500", "194529.272500", "194529.732500", "194530.192500", "194530.652500", "194531.112500", "194531.572500", "194532.032500", "194532.492500", "194532.952500", "194533.412500", "194533.872500", "194534.332500", "194534.792500", "194535.252500", "194535.712500", "194536.172500", "194536.632500", "194537.092500", "194537.552500", "194538.012500", "194538.472500", "194538.932500", "194539.392500", "194539.852500", "194540.312500", "194540.772500", "194541.232500", "194541.692500", "194542.152500", "194542.612500", "194543.072500", "194543.532500", "194543.992500", "194544.452500", "194544.912500", "194545.372500", "194545.832500", "194546.292500", "194546.752500", "194547.212500", "194547.672500", "194548.132500", "194548.592500", "194549.052500", "194549.512500", "194549.972500", "194550.432500", "194550.892500", "194551.352500", "194551.812500", "194552.272500", "194552.732500", "194553.192500", "194553.652500", "194554.112500", "194554.572500", "194555.032500", "194555.492500", "194555.952500", "194556.412500", "194556.872500", "194557.332500", "194557.792500", "194558.252500", "194558.712500", "194559.172500", "194559.632500", "194600.092500", "194600.552500", "194601.012500", "194601.472500", "194601.932500", "194602.392500", "194602.852500", "194603.312500", "194603.772500", "194604.232500", "194604.692500", "194605.152500", "194605.612500", "194606.072500", "194606.532500", "194606.992500", "194607.452500", "194607.912500", "194608.372500", "194608.832500", "194609.292500", "194609.752500", "194610.212500", "194610.672500", "194611.132500", "194611.592500", "194612.052500", "194612.512500", "194612.972500", "194613.432500", "194613.892500", "194614.352500", "194614.812500", "194615.272500", "194615.732500", "194616.192500", "194616.652500", "194617.112500", "194617.572500", "194618.032500", "194618.492500", "194618.952500", "194619.412500", "194619.872500", "194620.332500", "194620.792500", "194621.252500", "194621.712500", "194622.172500", "194622.632500", "194623.092500", "194623.552500", "194624.012500", "194624.472500", "194624.932500", "194625.392500", "194625.852500", "194626.312500", "194626.772500", "194627.232500", "194627.692500", "194628.152500", "194628.612500", "194629.072500", "194629.532500", "194629.992500", "194630.452500", "194630.912500", "194631.372500", "194631.832500", "194632.292500", "194632.752500", "194633.212500", "194633.672500", "194634.132500", "194634.592500", "194635.052500", "194635.512500", "194635.972500", "194636.432500", "194636.892500", "194637.352500", "194637.812500", "194638.272500", "194638.732500", "194639.192500", "194639.652500", "194640.112500", "194640.572500", "194641.032500", "194641.492500", "194641.952500", "194642.412500", "194642.872500", "194643.332500", "194643.792500", "194644.252500", "194644.712500", "194645.172500", "194645.632500", "194646.092500", "194646.552500", "194647.012500", "194647.472500", "194647.932500", "194648.392500", "194648.852500", "194649.312500", "194649.772500", "194650.232500", "194650.692500", "194651.152500", "194651.612500", "194652.072500", "194652.532500", "194652.992500", "194653.452500", "194653.912500", "194654.372500", "194654.832500", "194655.292500", "194655.752500", "194656.212500", "194656.672500", "194657.132500", "194657.592500", "194658.052500", "194658.512500", "194658.972500", "194659.432500", "194659.892500", "194700.352500", "194700.812500", "194701.272500", "194701.732500", "194702.192500", "194702.652500", "194703.112500", "194703.572500", "194704.032500", "194704.492500", "194704.952500", "194705.412500", "194705.872500", "194706.332500", "194706.792500", "194707.252500", "194707.712500", "194708.172500", "194708.632500", "194709.092500", "194709.552500", "194710.012500", "194710.472500", "194710.932500", "194711.392500", "194711.852500", "194712.312500", "194712.772500", "194713.232500", "194713.692500", "194714.152500", "194714.612500", "194715.072500", "194715.532500", "194715.992500"],
