{
  "AcquisitionMatrixPE": 82,
  "AcquisitionNumber": 1,
  "AcquisitionTime": "11:57:23.885000",
  "BandwidthPerPixelPhaseEncode": 24.888,
  "BaseResolution": 82,
  "BodyPartExamined": "BRAIN",
  "ConsistencyInfo": "N4_VE11E_LATEST_20181129",
  "ConversionSoftware": "dcm2niix",
  "ConversionSoftwareVersion": "v1.0.20201102",
  "DerivedVendorReportedEchoSpacing": 0.00049,
  "DeviceSerialNumber": "66112",
  "DwellTime": 2e-06,
  "EchoTime": 0.0272,
  "EchoTrainLength": 82,
  "EffectiveEchoSpacing": 0.00049,
  "FlipAngle": 44,
  "ImageComments": "Unaliased MB8/PE3",
  "ImageOrientationPatientDICOM": [0.9971, -0.0419354, 0.0635028, 0.0440575, 0.998504, -0.0323933],
  "ImageType": [
    "ORIGINAL",
    "PRIMARY",
    "M",
    "MB",
    "ND",
    "NORM",
    "MOSAIC"
],
  "ImagingFrequency": 123.252,
  "InPlanePhaseEncodingDirectionDICOM": "COL",
  "InstitutionAddress": "Maynard 3,Hanover,NH,US,03755",
  "InstitutionName": "Dartmouth College - PBS",
  "InstitutionalDepartmentName": "Department",
  "MRAcquisitionType": "2D",
  "MagneticFieldStrength": 3,
  "Manufacturer": "Siemens",
  "ManufacturersModelName": "Prisma",
  "Modality": "MR",
  "MultibandAccelerationFactor": 8,
  "PartialFourier": 1,
  "PatientPosition": "HFS",
  "PercentPhaseFOV": 100,
  "PercentSampling": 100,
  "PhaseEncodingDirection": "j-",
  "PhaseEncodingSteps": 82,
  "PhaseResolution": 1,
  "PixelBandwidth": 3050,
  "ProcedureStepDescription": "Wager_Wager^1076_spacetop",
  "ProtocolName": "func_run-02_task-alignvideo_acq-ap-mb8",
  "PulseSequenceDetails": "%CustomerSeq%\\cmrr_mbep2d_bold",
  "ReceiveCoilActiveElements": "HEA;HEP",
  "ReceiveCoilName": "Head_32",
  "ReconMatrixPE": 82,
  "RepetitionTime": 0.46,
  "SAR": 0.0868157,
  "ScanOptions": "FS",
  "ScanningSequence": "EP",
  "SequenceName": "epfid2d1_82",
  "SequenceVariant": "SK\\SS",
  "SeriesDescription": "func_run-02_task-alignvideo_acq-ap-mb8",
  "SeriesNumber": 32,
  "ShimSetting": [4148, -7740, -7196, 552, -68, -60, -8, 100],
  "SliceThickness": 2.7,
  "SliceTiming": [0, 0.2525, 0.065, 0.315, 0.1275, 0.3775, 0.19, 0, 0.2525, 0.065, 0.315, 0.1275, 0.3775, 0.19, 0, 0.2525, 0.065, 0.315, 0.1275, 0.3775, 0.19, 0, 0.2525, 0.065, 0.315, 0.1275, 0.3775, 0.19, 0, 0.2525, 0.065, 0.315, 0.1275, 0.3775, 0.19, 0, 0.2525, 0.065, 0.315, 0.1275, 0.3775, 0.19, 0, 0.2525, 0.065, 0.315, 0.1275, 0.3775, 0.19, 0, 0.2525, 0.065, 0.315, 0.1275, 0.3775, 0.19],
  "SoftwareVersions": "syngo MR E11",
  "SpacingBetweenSlices": 2.7,
  "StationName": "AWP66112",
  "TaskName": "alignvideo",
  "TotalReadoutTime": 0.03969,
  "TxRefAmp": 254.263,
  "WipMemBlock": "fd0ae1e2-5b5e-4646-a4df-837f320b63e6||Sequence: R016 ve11e/master r/434b28f1; Aug  7 2019 18:53:46 by eja",
  "dcmmeta_affine": [
    [-2.67514705657959, 0.11820297688245773, 0.167533278465271, 106.00003051757812],
    [0.11250961571931839, 2.678912401199341, -0.0947621688246727, -103.25582885742188],
    [0.17037338018417358, 0.0869087502360344, 2.6931307315826416, -66.87921142578125],
    [0.0, 0.0, 0.0, 1.0]
],
  "dcmmeta_reorient_transform": [
    [0.0, -1.0, 0.0, 81.0],
    [1.0, 0.0, 0.0, 0.0],
    [0.0, 0.0, 1.0, 0.0],
    [0.0, 0.0, 0.0, 1.0]
],
  "dcmmeta_shape": [82, 82, 56, 926],
  "dcmmeta_slice_dim": 2,
  "dcmmeta_version": 0.6,
  "global": {
    "const": {
      "AccessionNumber": "A004184",
      "AcquisitionMatrix": [82, 0, 0, 82],
      "AngioFlag": "N",
      "BitsAllocated": 16,
      "BitsStored": 16,
      "BodyPartExamined": "BRAIN",
      "Columns": 656,
      "EchoNumbers": 1,
      "EchoTime": 27.2,
      "EchoTrainLength": 82,
      "FlipAngle": 44.0,
      "HighBit": 15,
      "ImageOrientationPatient": [0.99710020359035, -0.0419354006142, 0.06350280446888, 0.04405747272149, 0.99850368844068, -0.0323932596038],
      "ImagePositionPatient": [-917.26590186144, -850.29367842036, -83.793953082],
      "ImageType": [
        "ORIGINAL",
        "PRIMARY",
        "M",
        "MB",
        "ND",
        "NORM",
        "MOSAIC"
],
      "ImagedNucleus": "1H",
      "ImagingFrequency": 123.25217,
      "InPlanePhaseEncodingDirection": "COL",
      "MRAcquisitionType": "2D",
      "MagneticFieldStrength": 3.0,
      "Manufacturer": "SIEMENS",
      "ManufacturerModelName": "Prisma",
      "Modality": "MR",
      "NumberOfAverages": 1.0,
      "NumberOfPhaseEncodingSteps": 82,
      "PercentPhaseFieldOfView": 100.0,
      "PercentSampling": 100.0,
      "PerformedProcedureStepStartTime": "102701.679000",
      "PhotometricInterpretation": "MONOCHROME2",
      "PixelBandwidth": 3050.0,
      "PixelRepresentation": 0,
      "PixelSpacing": [2.6829268932343, 2.6829268932343],
      "ProtocolName": "func_run-02_task-alignvideo_acq-ap-mb8",
      "RepetitionTime": 460.0,
      "Rows": 656,
      "SAR": 0.08681573647472,
      "SamplesPerPixel": 1,
      "ScanOptions": "FS",
      "ScanningSequence": "EP",
      "SequenceName": "epfid2d1_82",
      "SequenceVariant": [
        "SK",
        "SS"
],
      "SeriesDescription": "func_run-02_task-alignvideo_acq-ap-mb8",
      "SeriesNumber": 32,
      "SeriesTime": "115747.668000",
      "SliceLocation": -56.507843348614,
      "SliceThickness": 2.7000000476837,
      "SmallestImagePixelValue": 0,
      "SoftwareVersions": "syngo MR E11",
      "SpacingBetweenSlices": 2.7000000438499,
      "SpecificCharacterSet": "ISO_IR 100",
      "StudyID": "1",
      "StudyTime": "102701.555000",
      "TransmitCoilName": "Body",
      "VariableFlipAngleFlag": "N",
      "WindowCenterWidthExplanation": "Algo1"
    },
    "slices": {}
  },
  "time": {
    "samples": {
      "AcquisitionNumber": [1, 2, 3, 4, 5, 6, 7, 8, 9, 10, 11, 12, 13, 14, 15, 16, 17, 18, 19, 20, 21, 22, 23, 24, 25, 26, 27, 28, 29, 30, 31, 32, 33, 34, 35, 36, 37, 38, 39, 40, 41, 42, 43, 44, 45, 46, 47, 48, 49, 50, 51, 52, 53, 54, 55, 56, 57, 58, 59, 60, 61, 62, 63, 64, 65, 66, 67, 68, 69, 70, 71, 72, 73, 74, 75, 76, 77, 78, 79, 80, 81, 82, 83, 84, 85, 86, 87, 88, 89, 90, 91, 92, 93, 94, 95, 96, 97, 98, 99, 100, 101, 102, 103, 104, 105, 106, 107, 108, 109, 110, 111, 112, 113, 114, 115, 116, 117, 118, 119, 120, 121, 122, 123, 124, 125, 126, 127, 128, 129, 130, 131, 132, 133, 134, 135, 136, 137, 138, 139, 140, 141, 142, 143, 144, 145, 146, 147, 148, 149, 150, 151, 152, 153, 154, 155, 156, 157, 158, 159, 160, 161, 162, 163, 164, 165, 166, 167, 168, 169, 170, 171, 172, 173, 174, 175, 176, 177, 178, 179, 180, 181, 182, 183, 184, 185, 186, 187, 188, 189, 190, 191, 192, 193, 194, 195, 196, 197, 198, 199, 200, 201, 202, 203, 204, 205, 206, 207, 208, 209, 210, 211, 212, 213, 214, 215, 216, 217, 218, 219, 220, 221, 222, 223, 224, 225, 226, 227, 228, 229, 230, 231, 232, 233, 234, 235, 236, 237, 238, 239, 240, 241, 242, 243, 244, 245, 246, 247, 248, 249, 250, 251, 252, 253, 254, 255, 256, 257, 258, 259, 260, 261, 262, 263, 264, 265, 266, 267, 268, 269, 270, 271, 272, 273, 274, 275, 276, 277, 278, 279, 280, 281, 282, 283, 284, 285, 286, 287, 288, 289, 290, 291, 292, 293, 294, 295, 296, 297, 298, 299, 300, 301, 302, 303, 304, 305, 306, 307, 308, 309, 310, 311, 312, 313, 314, 315, 316, 317, 318, 319, 320, 321, 322, 323, 324, 325, 326, 327, 328, 329, 330, 331, 332, 333, 334, 335, 336, 337, 338, 339, 340, 341, 342, 343, 344, 345, 346, 347, 348, 349, 350, 351, 352, 353, 354, 355, 356, 357, 358, 359, 360, 361, 362, 363, 364, 365, 366, 367, 368, 369, 370, 371, 372, 373, 374, 375, 376, 377, 378, 379, 380, 381, 382, 383, 384, 385, 386, 387, 388, 389, 390, 391, 392, 393, 394, 395, 396, 397, 398, 399, 400, 401, 402, 403, 404, 405, 406, 407, 408, 409, 410, 411, 412, 413, 414, 415, 416, 417, 418, 419, 420, 421, 422, 423, 424, 425, 426, 427, 428, 429, 430, 431, 432, 433, 434, 435, 436, 437, 438, 439, 440, 441, 442, 443, 444, 445, 446, 447, 448, 449, 450, 451, 452, 453, 454, 455, 456, 457, 458, 459, 460, 461, 462, 463, 464, 465, 466, 467, 468, 469, 470, 471, 472, 473, 474, 475, 476, 477, 478, 479, 480, 481, 482, 483, 484, 485, 486, 487, 488, 489, 490, 491, 492, 493, 494, 495, 496, 497, 498, 499, 500, 501, 502, 503, 504, 505, 506, 507, 508, 509, 510, 511, 512, 513, 514, 515, 516, 517, 518, 519, 520, 521, 522, 523, 524, 525, 526, 527, 528, 529, 530, 531, 532, 533, 534, 535, 536, 537, 538, 539, 540, 541, 542, 543, 544, 545, 546, 547, 548, 549, 550, 551, 552, 553, 554, 555, 556, 557, 558, 559, 560, 561, 562, 563, 564, 565, 566, 567, 568, 569, 570, 571, 572, 573, 574, 575, 576, 577, 578, 579, 580, 581, 582, 583, 584, 585, 586, 587, 588, 589, 590, 591, 592, 593, 594, 595, 596, 597, 598, 599, 600, 601, 602, 603, 604, 605, 606, 607, 608, 609, 610, 611, 612, 613, 614, 615, 616, 617, 618, 619, 620, 621, 622, 623, 624, 625, 626, 627, 628, 629, 630, 631, 632, 633, 634, 635, 636, 637, 638, 639, 640, 641, 642, 643, 644, 645, 646, 647, 648, 649, 650, 651, 652, 653, 654, 655, 656, 657, 658, 659, 660, 661, 662, 663, 664, 665, 666, 667, 668, 669, 670, 671, 672, 673, 674, 675, 676, 677, 678, 679, 680, 681, 682, 683, 684, 685, 686, 687, 688, 689, 690, 691, 692, 693, 694, 695, 696, 697, 698, 699, 700, 701, 702, 703, 704, 705, 706, 707, 708, 709, 710, 711, 712, 713, 714, 715, 716, 717, 718, 719, 720, 721, 722, 723, 724, 725, 726, 727, 728, 729, 730, 731, 732, 733, 734, 735, 736, 737, 738, 739, 740, 741, 742, 743, 744, 745, 746, 747, 748, 749, 750, 751, 752, 753, 754, 755, 756, 757, 758, 759, 760, 761, 762, 763, 764, 765, 766, 767, 768, 769, 770, 771, 772, 773, 774, 775, 776, 777, 778, 779, 780, 781, 782, 783, 784, 785, 786, 787, 788, 789, 790, 791, 792, 793, 794, 795, 796, 797, 798, 799, 800, 801, 802, 803, 804, 805, 806, 807, 808, 809, 810, 811, 812, 813, 814, 815, 816, 817, 818, 819, 820, 821, 822, 823, 824, 825, 826, 827, 828, 829, 830, 831, 832, 833, 834, 835, 836, 837, 838, 839, 840, 841, 842, 843, 844, 845, 846, 847, 848, 849, 850, 851, 852, 853, 854, 855, 856, 857, 858, 859, 860, 861, 862, 863, 864, 865, 866, 867, 868, 869, 870, 871, 872, 873, 874, 875, 876, 877, 878, 879, 880, 881, 882, 883, 884, 885, 886, 887, 888, 889, 890, 891, 892, 893, 894, 895, 896, 897, 898, 899, 900, 901, 902, 903, 904, 905, 906, 907, 908, 909, 910, 911, 912, 913, 914, 915, 916, 917, 918, 919, 920, 921, 922, 923, 924, 925, 926],
      "AcquisitionTime": ["115723.885000", "115724.345000", "115724.805000", "115725.265000", "115725.725000", "115726.185000", "115726.645000", "115727.105000", "115727.565000", "115728.025000", "115728.485000", "115728.945000", "115729.405000", "115729.865000", "115730.325000", "115730.785000", "115731.245000", "115731.705000", "115732.165000", "115732.625000", "115733.085000", "115733.545000", "115734.005000", "115734.465000", "115734.925000", "115735.385000", "115735.845000", "115736.305000", "115736.765000", "115737.225000", "115737.685000", "115738.145000", "115738.605000", "115739.065000", "115739.525000", "115739.985000", "115740.445000", "115740.905000", "115741.365000", "115741.825000", "115742.285000", "115742.745000", "115743.205000", "115743.665000", "115744.125000", "115744.585000", "115745.045000", "115745.505000", "115745.965000", "115746.425000", "115746.885000", "115747.345000", "115747.805000", "115748.265000", "115748.725000", "115749.185000", "115749.645000", "115750.105000", "115750.565000", "115751.025000", "115751.485000", "115751.945000", "115752.405000", "115752.865000", "115753.325000", "115753.785000", "115754.245000", "115754.705000", "115755.165000", "115755.625000", "115756.085000", "115756.545000", "115757.005000", "115757.465000", "115757.925000", "115758.385000", "115758.845000", "115759.305000", "115759.765000", "115800.225000", "115800.685000", "115801.145000", "115801.605000", "115802.065000", "115802.525000", "115802.985000", "115803.445000", "115803.905000", "115804.365000", "115804.825000", "115805.285000", "115805.745000", "115806.205000", "115806.665000", "115807.125000", "115807.585000", "115808.045000", "115808.505000", "115808.965000", "115809.425000", "115809.885000", "115810.345000", "115810.805000", "115811.265000", "115811.725000", "115812.185000", "115812.645000", "115813.105000", "115813.565000", "115814.025000", "115814.485000", "115814.945000", "115815.405000", "115815.865000", "115816.325000", "115816.785000", "115817.245000", "115817.705000", "115818.165000", "115818.625000", "115819.085000", "115819.545000", "115820.005000", "115820.465000", "115820.925000", "115821.385000", "115821.845000", "115822.305000", "115822.765000", "115823.225000", "115823.685000", "115824.145000", "115824.605000", "115825.065000", "115825.525000", "115825.985000", "115826.445000", "115826.905000", "115827.365000", "115827.825000", "115828.285000", "115828.745000", "115829.205000", "115829.665000", "115830.125000", "115830.585000", "115831.045000", "115831.505000", "115831.965000", "115832.425000", "115832.885000", "115833.345000", "115833.805000", "115834.265000", "115834.725000", "115835.185000", "115835.645000", "115836.105000", "115836.565000", "115837.025000", "115837.485000", "115837.945000", "115838.405000", "115838.865000", "115839.325000", "115839.785000", "115840.245000", "115840.705000", "115841.165000", "115841.625000", "115842.085000", "115842.545000", "115843.005000", "115843.465000", "115843.925000", "115844.385000", "115844.845000", "115845.305000", "115845.765000", "115846.225000", "115846.685000", "115847.145000", "115847.605000", "115848.065000", "115848.525000", "115848.985000", "115849.445000", "115849.905000", "115850.365000", "115850.825000", "115851.285000", "115851.745000", "115852.205000", "115852.665000", "115853.125000", "115853.585000", "115854.045000", "115854.505000", "115854.965000", "115855.425000", "115855.885000", "115856.345000", "115856.805000", "115857.265000", "115857.725000", "115858.185000", "115858.645000", "115859.105000", "115859.565000", "115900.025000", "115900.485000", "115900.945000", "115901.405000", "115901.865000", "115902.325000", "115902.785000", "115903.245000", "115903.705000", "115904.165000", "115904.625000", "115905.085000", "115905.545000", "115906.005000", "115906.465000", "115906.925000", "115907.385000", "115907.845000", "115908.305000", "115908.765000", "115909.225000", "115909.685000", "115910.145000", "115910.605000", "115911.065000", "115911.525000", "115911.985000", "115912.445000", "115912.905000", "115913.365000", "115913.825000", "115914.285000", "115914.745000", "115915.205000", "115915.665000", "115916.125000", "115916.585000", "115917.045000", "115917.505000", "115917.965000", "115918.425000", "115918.885000", "115919.345000", "115919.805000", "115920.265000", "115920.725000", "115921.185000", "115921.645000", "115922.105000", "115922.565000", "115923.025000", "115923.485000", "115923.945000", "115924.405000", "115924.865000", "115925.325000", "115925.785000", "115926.245000", "115926.705000", "115927.165000", "115927.625000", "115928.085000", "115928.545000", "115929.005000", "115929.465000", "115929.925000", "115930.385000", "115930.845000", "115931.305000", "115931.765000", "115932.225000", "115932.685000", "115933.145000", "115933.605000", "115934.065000", "115934.525000", "115934.985000", "115935.445000", "115935.905000", "115936.365000", "115936.825000", "115937.285000", "115937.745000", "115938.205000", "115938.665000", "115939.125000", "115939.585000", "115940.045000", "115940.505000", "115940.965000", "115941.425000", "115941.885000", "115942.345000", "115942.805000", "115943.265000", "115943.725000", "115944.185000", "115944.645000", "115945.105000", "115945.565000", "115946.025000", "115946.485000", "115946.945000", "115947.405000", "115947.865000", "115948.325000", "115948.785000", "115949.245000", "115949.705000", "115950.165000", "115950.625000", "115951.085000", "115951.545000", "115952.005000", "115952.465000", "115952.925000", "115953.385000", "115953.845000", "115954.305000", "115954.765000", "115955.225000", "115955.685000", "115956.145000", "115956.605000", "115957.065000", "115957.525000", "115957.985000", "115958.445000", "115958.905000", "115959.365000", "115959.825000", "120000.285000", "120000.745000", "120001.205000", "120001.665000", "120002.125000", "120002.585000", "120003.045000", "120003.505000", "120003.965000", "120004.425000", "120004.885000", "120005.345000", "120005.805000", "120006.265000", "120006.725000", "120007.185000", "120007.645000", "120008.105000", "120008.565000", "120009.025000", "120009.485000", "120009.945000", "120010.405000", "120010.865000", "120011.325000", "120011.785000", "120012.245000", "120012.705000", "120013.165000", "120013.625000", "120014.085000", "120014.545000", "120015.005000", "120015.465000", "120015.925000", "120016.385000", "120016.845000", "120017.305000", "120017.765000", "120018.225000", "120018.685000", "120019.145000", "120019.605000", "120020.065000", "120020.525000", "120020.985000", "120021.445000", "120021.905000", "120022.365000", "120022.825000", "120023.285000", "120023.745000", "120024.205000", "120024.665000", "120025.125000", "120025.585000", "120026.045000", "120026.505000", "120026.965000", "120027.425000", "120027.885000", "120028.345000", "120028.805000", "120029.265000", "120029.725000", "120030.185000", "120030.645000", "120031.105000", "120031.565000", "120032.025000", "120032.485000", "120032.945000", "120033.405000", "120033.865000", "120034.325000", "120034.785000", "120035.245000", "120035.705000", "120036.165000", "120036.625000", "120037.085000", "120037.545000", "120038.005000", "120038.465000", "120038.925000", "120039.385000", "120039.845000", "120040.305000", "120040.765000", "120041.225000", "120041.685000", "120042.145000", "120042.605000", "120043.065000", "120043.525000", "120043.985000", "120044.445000", "120044.905000", "120045.365000", "120045.825000", "120046.285000", "120046.745000", "120047.205000", "120047.665000", "120048.125000", "120048.585000", "120049.045000", "120049.505000", "120049.965000", "120050.425000", "120050.885000", "120051.345000", "120051.805000", "120052.265000", "120052.725000", "120053.185000", "120053.645000", "120054.105000", "120054.565000", "120055.025000", "120055.485000", "120055.945000", "120056.405000", "120056.865000", "120057.325000", "120057.785000", "120058.245000", "120058.705000", "120059.165000", "120059.625000", "120100.085000", "120100.545000", "120101.005000", "120101.465000", "120101.925000", "120102.385000", "120102.845000", "120103.305000", "120103.765000", "120104.225000", "120104.685000", "120105.145000", "120105.605000", "120106.065000", "120106.525000", "120106.985000", "120107.445000", "120107.905000", "120108.365000", "120108.825000", "120109.285000", "120109.745000", "120110.205000", "120110.665000", "120111.125000", "120111.585000", "120112.045000", "120112.505000", "120112.965000", "120113.425000", "120113.885000", "120114.345000", "120114.805000", "120115.265000", "120115.725000", "120116.185000", "120116.645000", "120117.105000", "120117.565000", "120118.025000", "120118.485000", "120118.945000", "120119.405000", "120119.865000", "120120.325000", "120120.785000", "120121.245000", "120121.705000", "120122.165000", "120122.625000", "120123.085000", "120123.545000", "120124.005000", "120124.465000", "120124.925000", "120125.385000", "120125.845000", "120126.305000", "120126.765000", "120127.225000", "120127.685000", "120128.145000", "120128.605000", "120129.065000", "120129.525000", "120129.985000", "120130.445000", "120130.905000", "120131.365000", "120131.825000", "120132.285000", "120132.745000", "120133.205000", "120133.665000", "120134.125000", "120134.585000", "120135.045000", "120135.505000", "120135.965000", "120136.425000", "120136.885000", "120137.345000", "120137.805000", "120138.265000", "120138.725000", "120139.185000", "120139.645000", "120140.105000", "120140.565000", "120141.025000", "120141.485000", "120141.945000", "120142.405000", "120142.865000", "120143.325000", "120143.785000", "120144.245000", "120144.705000", "120145.165000", "120145.625000", "120146.085000", "120146.545000", "120147.005000", "120147.465000", "120147.925000", "120148.385000", "120148.845000", "120149.305000", "120149.765000", "120150.225000", "120150.685000", "120151.145000", "120151.605000", "120152.065000", "120152.525000", "120152.985000", "120153.445000", "120153.905000", "120154.365000", "120154.825000", "120155.285000", "120155.745000", "120156.205000", "120156.665000", "120157.125000", "120157.585000", "120158.045000", "120158.505000", "120158.965000", "120159.425000", "120159.885000", "120200.345000", "120200.805000", "120201.265000", "120201.725000", "120202.185000", "120202.645000", "120203.105000", "120203.565000", "120204.025000", "120204.485000", "120204.945000", "120205.405000", "120205.865000", "120206.325000", "120206.785000", "120207.245000", "120207.705000", "120208.165000", "120208.625000", "120209.085000", "120209.545000", "120210.005000", "120210.465000", "120210.925000", "120211.385000", "120211.845000", "120212.305000", "120212.765000", "120213.225000", "120213.685000", "120214.145000", "120214.605000", "120215.065000", "120215.525000", "120215.985000", "120216.445000", "120216.905000", "120217.365000", "120217.825000", "120218.285000", "120218.745000", "120219.205000", "120219.665000", "120220.125000", "120220.585000", "120221.045000", "120221.505000", "120221.965000", "120222.425000", "120222.885000", "120223.345000", "120223.805000", "120224.265000", "120224.725000", "120225.185000", "120225.645000", "120226.105000", "120226.565000", "120227.025000", "120227.485000", "120227.945000", "120228.405000", "120228.865000", "120229.325000", "120229.785000", "120230.245000", "120230.705000", "120231.165000", "120231.625000", "120232.085000", "120232.545000", "120233.005000", "120233.465000", "120233.925000", "120234.385000", "120234.845000", "120235.305000", "120235.765000", "120236.225000", "120236.685000", "120237.145000", "120237.605000", "120238.065000", "120238.525000", "120238.985000", "120239.445000", "120239.905000", "120240.365000", "120240.825000", "120241.285000", "120241.745000", "120242.205000", "120242.665000", "120243.125000", "120243.585000", "120244.045000", "120244.505000", "120244.965000", "120245.425000", "120245.885000", "120246.345000", "120246.805000", "120247.265000", "120247.725000", "120248.185000", "120248.645000", "120249.105000", "120249.565000", "120250.025000", "120250.485000", "120250.945000", "120251.405000", "120251.865000", "120252.325000", "120252.785000", "120253.245000", "120253.705000", "120254.165000", "120254.625000", "120255.085000", "120255.545000", "120256.005000", "120256.465000", "120256.925000", "120257.385000", "120257.845000", "120258.305000", "120258.765000", "120259.225000", "120259.685000", "120300.145000", "120300.605000", "120301.065000", "120301.525000", "120301.985000", "120302.445000", "120302.905000", "120303.365000", "120303.825000", "120304.285000", "120304.745000", "120305.205000", "120305.665000", "120306.125000", "120306.585000", "120307.045000", "120307.505000", "120307.965000", "120308.425000", "120308.885000", "120309.345000", "120309.805000", "120310.265000", "120310.725000", "120311.185000", "120311.645000", "120312.105000", "120312.565000", "120313.025000", "120313.485000", "120313.945000", "120314.405000", "120314.865000", "120315.325000", "120315.785000", "120316.245000", "120316.705000", "120317.165000", "120317.625000", "120318.085000", "120318.545000", "120319.005000", "120319.465000", "120319.925000", "120320.385000", "120320.845000", "120321.305000", "120321.765000", "120322.225000", "120322.685000", "120323.145000", "120323.605000", "120324.065000", "120324.525000", "120324.985000", "120325.445000", "120325.905000", "120326.365000", "120326.825000", "120327.285000", "120327.745000", "120328.205000", "120328.665000", "120329.125000", "120329.585000", "120330.045000", "120330.505000", "120330.965000", "120331.425000", "120331.885000", "120332.345000", "120332.805000", "120333.265000", "120333.725000", "120334.185000", "120334.645000", "120335.105000", "120335.565000", "120336.025000", "120336.485000", "120336.945000", "120337.405000", "120337.865000", "120338.325000", "120338.785000", "120339.245000", "120339.705000", "120340.165000", "120340.625000", "120341.085000", "120341.545000", "120342.005000", "120342.465000", "120342.925000", "120343.385000", "120343.845000", "120344.305000", "120344.765000", "120345.225000", "120345.685000", "120346.145000", "120346.605000", "120347.065000", "120347.525000", "120347.985000", "120348.445000", "120348.905000", "120349.365000", "120349.825000", "120350.285000", "120350.745000", "120351.205000", "120351.665000", "120352.125000", "120352.585000", "120353.045000", "120353.505000", "120353.965000", "120354.425000", "120354.885000", "120355.345000", "120355.805000", "120356.265000", "120356.725000", "120357.185000", "120357.645000", "120358.105000", "120358.565000", "120359.025000", "120359.485000", "120359.945000", "120400.405000", "120400.865000", "120401.325000", "120401.785000", "120402.245000", "120402.705000", "120403.165000", "120403.625000", "120404.085000", "120404.545000", "120405.005000", "120405.465000", "120405.925000", "120406.385000", "120406.845000", "120407.305000", "120407.765000", "120408.225000", "120408.685000", "120409.145000", "120409.605000", "120410.065000", "120410.525000", "120410.985000", "120411.445000", "120411.905000", "120412.365000", "120412.825000", "120413.285000", "120413.745000", "120414.205000", "120414.665000", "120415.125000", "120415.585000", "120416.045000", "120416.505000", "120416.965000", "120417.425000", "120417.885000", "120418.345000", "120418.805000", "120419.265000", "120419.725000", "120420.185000", "120420.645000", "120421.105000", "120421.565000", "120422.025000", "120422.485000", "120422.945000", "120423.405000", "120423.865000", "120424.325000", "120424.785000", "120425.245000", "120425.705000", "120426.165000", "120426.625000", "120427.085000", "120427.545000", "120428.005000", "120428.465000", "120428.925000", "120429.385000"],
