{
  "AcquisitionMatrixPE": 82,
  "AcquisitionNumber": 1,
  "AcquisitionTime": "11:37:38.115000",
  "BandwidthPerPixelPhaseEncode": 24.888,
  "BaseResolution": 82,
  "BodyPartExamined": "BRAIN",
  "ConsistencyInfo": "N4_VE11E_LATEST_20181129",
  "ConversionSoftware": "dcm2niix",
  "ConversionSoftwareVersion": "v1.0.20201102",
  "DerivedVendorReportedEchoSpacing": 0.00049,
  "DeviceSerialNumber": "66112",
  "DwellTime": 2e-06,
  "EchoTime": 0.0272,
  "EchoTrainLength": 82,
  "EffectiveEchoSpacing": 0.00049,
  "FlipAngle": 44,
  "ImageComments": "Unaliased MB8/PE3",
  "ImageOrientationPatientDICOM": [0.998911, 0.00540873, 0.0463371, -0.00453293, 0.99981, -0.0189849],
  "ImageType": [
    "ORIGINAL",
    "PRIMARY",
    "M",
    "MB",
    "ND",
    "NORM",
    "MOSAIC"
],
  "ImagingFrequency": 123.252,
  "InPlanePhaseEncodingDirectionDICOM": "COL",
  "InstitutionAddress": "Maynard 3,Hanover,NH,US,03755",
  "InstitutionName": "Dartmouth College - PBS",
  "InstitutionalDepartmentName": "Department",
  "MRAcquisitionType": "2D",
  "MagneticFieldStrength": 3,
  "Manufacturer": "Siemens",
  "ManufacturersModelName": "Prisma",
  "Modality": "MR",
  "MultibandAccelerationFactor": 8,
  "PartialFourier": 1,
  "PatientPosition": "HFS",
  "PercentPhaseFOV": 100,
  "PercentSampling": 100,
  "PhaseEncodingDirection": "j-",
  "PhaseEncodingSteps": 82,
  "PhaseResolution": 1,
  "PixelBandwidth": 3050,
  "ProcedureStepDescription": "Wager_Wager^1076_spacetop",
  "ProtocolName": "func_run-06_task-social_acq-ap-mb8",
  "PulseSequenceDetails": "%CustomerSeq%\\cmrr_mbep2d_bold",
  "ReceiveCoilActiveElements": "HEA;HEP",
  "ReceiveCoilName": "Head_32",
  "ReconMatrixPE": 82,
  "RepetitionTime": 0.46,
  "SAR": 0.0867843,
  "ScanOptions": "FS",
  "ScanningSequence": "EP",
  "SequenceName": "epfid2d1_82",
  "SequenceVariant": "SK\\SS",
  "SeriesDescription": "func_run-06_task-social_acq-ap-mb8",
  "SeriesNumber": 22,
  "ShimSetting": [4148, -7742, -7199, 544, -73, -73, -5, 97],
  "SliceThickness": 2.7,
  "SliceTiming": [0, 0.2525, 0.0625, 0.315, 0.1275, 0.3775, 0.19, 0, 0.2525, 0.0625, 0.315, 0.1275, 0.3775, 0.19, 0, 0.2525, 0.0625, 0.315, 0.1275, 0.3775, 0.19, 0, 0.2525, 0.0625, 0.315, 0.1275, 0.3775, 0.19, 0, 0.2525, 0.0625, 0.315, 0.1275, 0.3775, 0.19, 0, 0.2525, 0.0625, 0.315, 0.1275, 0.3775, 0.19, 0, 0.2525, 0.0625, 0.315, 0.1275, 0.3775, 0.19, 0, 0.2525, 0.0625, 0.315, 0.1275, 0.3775, 0.19],
  "SoftwareVersions": "syngo MR E11",
  "SpacingBetweenSlices": 2.7,
  "StationName": "AWP66112",
  "TaskName": "social",
  "TotalReadoutTime": 0.03969,
  "TxRefAmp": 254.263,
  "WipMemBlock": "7afdc337-e7f6-4e9a-9225-29f65c10f935||Sequence: R016 ve11e/master r/434b28f1; Aug  7 2019 18:53:46 by eja",
  "dcmmeta_affine": [
    [-2.6800057888031006, -0.012161508202552795, 0.12536349892616272, 111.87700653076172],
    [-0.014511214569211006, 2.682415723800659, -0.05063629522919655, -96.40975189208984],
    [0.12431897968053818, 0.05093508958816528, 2.696612596511841, -66.36515045166016],
    [0.0, 0.0, 0.0, 1.0]
],
  "dcmmeta_reorient_transform": [
    [0.0, -1.0, 0.0, 81.0],
    [1.0, 0.0, 0.0, 0.0],
    [0.0, 0.0, 1.0, 0.0],
    [0.0, 0.0, 0.0, 1.0]
],
  "dcmmeta_shape": [82, 82, 56, 872],
  "dcmmeta_slice_dim": 2,
  "dcmmeta_version": 0.6,
  "global": {
    "const": {
      "AccessionNumber": "A004184",
      "AcquisitionMatrix": [82, 0, 0, 82],
      "AngioFlag": "N",
      "BitsAllocated": 16,
      "BitsStored": 16,
      "BodyPartExamined": "BRAIN",
      "Columns": 656,
      "EchoNumbers": 1,
      "EchoTime": 27.2,
      "EchoTrainLength": 82,
      "FlipAngle": 44.0,
      "HighBit": 15,
      "ImageOrientationPatient": [0.99891121798682, 0.00540872535074, 0.04633707230891, -0.0045329258041, 0.99980949499672, -0.0189848965776],
      "ImagePositionPatient": [-876.5632279183, -894.88397565801, -83.300586146395],
      "ImageType": [
        "ORIGINAL",
        "PRIMARY",
        "M",
        "MB",
        "ND",
        "NORM",
        "MOSAIC"
],
      "ImagedNucleus": "1H",
      "ImagingFrequency": 123.252168,
      "InPlanePhaseEncodingDirection": "COL",
      "MRAcquisitionType": "2D",
      "MagneticFieldStrength": 3.0,
      "Manufacturer": "SIEMENS",
      "ManufacturerModelName": "Prisma",
      "Modality": "MR",
      "NumberOfAverages": 1.0,
      "NumberOfPhaseEncodingSteps": 82,
      "PercentPhaseFieldOfView": 100.0,
      "PercentSampling": 100.0,
      "PerformedProcedureStepStartTime": "102701.679000",
      "PhotometricInterpretation": "MONOCHROME2",
      "PixelBandwidth": 3050.0,
      "PixelRepresentation": 0,
      "PixelSpacing": [2.6829268932343, 2.6829268932343],
      "ProtocolName": "func_run-06_task-social_acq-ap-mb8",
      "RepetitionTime": 460.0,
      "Rows": 656,
      "SAR": 0.08678429338272,
      "SamplesPerPixel": 1,
      "ScanOptions": "FS",
      "ScanningSequence": "EP",
      "SequenceName": "epfid2d1_82",
      "SequenceVariant": [
        "SK",
        "SS"
],
      "SeriesDescription": "func_run-06_task-social_acq-ap-mb8",
      "SeriesNumber": 22,
      "SeriesTime": "113807.498000",
      "SliceLocation": -59.279253842283,
      "SliceThickness": 2.7000000476837,
      "SmallestImagePixelValue": 0,
      "SoftwareVersions": "syngo MR E11",
      "SpacingBetweenSlices": 2.6999999363509,
      "SpecificCharacterSet": "ISO_IR 100",
      "StudyID": "1",
      "StudyTime": "102701.555000",
      "TransmitCoilName": "Body",
      "VariableFlipAngleFlag": "N",
      "WindowCenterWidthExplanation": "Algo1"
    },
    "slices": {}
  },
  "time": {
    "samples": {
      "AcquisitionNumber": [1, 2, 3, 4, 5, 6, 7, 8, 9, 10, 11, 12, 13, 14, 15, 16, 17, 18, 19, 20, 21, 22, 23, 24, 25, 26, 27, 28, 29, 30, 31, 32, 33, 34, 35, 36, 37, 38, 39, 40, 41, 42, 43, 44, 45, 46, 47, 48, 49, 50, 51, 52, 53, 54, 55, 56, 57, 58, 59, 60, 61, 62, 63, 64, 65, 66, 67, 68, 69, 70, 71, 72, 73, 74, 75, 76, 77, 78, 79, 80, 81, 82, 83, 84, 85, 86, 87, 88, 89, 90, 91, 92, 93, 94, 95, 96, 97, 98, 99, 100, 101, 102, 103, 104, 105, 106, 107, 108, 109, 110, 111, 112, 113, 114, 115, 116, 117, 118, 119, 120, 121, 122, 123, 124, 125, 126, 127, 128, 129, 130, 131, 132, 133, 134, 135, 136, 137, 138, 139, 140, 141, 142, 143, 144, 145, 146, 147, 148, 149, 150, 151, 152, 153, 154, 155, 156, 157, 158, 159, 160, 161, 162, 163, 164, 165, 166, 167, 168, 169, 170, 171, 172, 173, 174, 175, 176, 177, 178, 179, 180, 181, 182, 183, 184, 185, 186, 187, 188, 189, 190, 191, 192, 193, 194, 195, 196, 197, 198, 199, 200, 201, 202, 203, 204, 205, 206, 207, 208, 209, 210, 211, 212, 213, 214, 215, 216, 217, 218, 219, 220, 221, 222, 223, 224, 225, 226, 227, 228, 229, 230, 231, 232, 233, 234, 235, 236, 237, 238, 239, 240, 241, 242, 243, 244, 245, 246, 247, 248, 249, 250, 251, 252, 253, 254, 255, 256, 257, 258, 259, 260, 261, 262, 263, 264, 265, 266, 267, 268, 269, 270, 271, 272, 273, 274, 275, 276, 277, 278, 279, 280, 281, 282, 283, 284, 285, 286, 287, 288, 289, 290, 291, 292, 293, 294, 295, 296, 297, 298, 299, 300, 301, 302, 303, 304, 305, 306, 307, 308, 309, 310, 311, 312, 313, 314, 315, 316, 317, 318, 319, 320, 321, 322, 323, 324, 325, 326, 327, 328, 329, 330, 331, 332, 333, 334, 335, 336, 337, 338, 339, 340, 341, 342, 343, 344, 345, 346, 347, 348, 349, 350, 351, 352, 353, 354, 355, 356, 357, 358, 359, 360, 361, 362, 363, 364, 365, 366, 367, 368, 369, 370, 371, 372, 373, 374, 375, 376, 377, 378, 379, 380, 381, 382, 383, 384, 385, 386, 387, 388, 389, 390, 391, 392, 393, 394, 395, 396, 397, 398, 399, 400, 401, 402, 403, 404, 405, 406, 407, 408, 409, 410, 411, 412, 413, 414, 415, 416, 417, 418, 419, 420, 421, 422, 423, 424, 425, 426, 427, 428, 429, 430, 431, 432, 433, 434, 435, 436, 437, 438, 439, 440, 441, 442, 443, 444, 445, 446, 447, 448, 449, 450, 451, 452, 453, 454, 455, 456, 457, 458, 459, 460, 461, 462, 463, 464, 465, 466, 467, 468, 469, 470, 471, 472, 473, 474, 475, 476, 477, 478, 479, 480, 481, 482, 483, 484, 485, 486, 487, 488, 489, 490, 491, 492, 493, 494, 495, 496, 497, 498, 499, 500, 501, 502, 503, 504, 505, 506, 507, 508, 509, 510, 511, 512, 513, 514, 515, 516, 517, 518, 519, 520, 521, 522, 523, 524, 525, 526, 527, 528, 529, 530, 531, 532, 533, 534, 535, 536, 537, 538, 539, 540, 541, 542, 543, 544, 545, 546, 547, 548, 549, 550, 551, 552, 553, 554, 555, 556, 557, 558, 559, 560, 561, 562, 563, 564, 565, 566, 567, 568, 569, 570, 571, 572, 573, 574, 575, 576, 577, 578, 579, 580, 581, 582, 583, 584, 585, 586, 587, 588, 589, 590, 591, 592, 593, 594, 595, 596, 597, 598, 599, 600, 601, 602, 603, 604, 605, 606, 607, 608, 609, 610, 611, 612, 613, 614, 615, 616, 617, 618, 619, 620, 621, 622, 623, 624, 625, 626, 627, 628, 629, 630, 631, 632, 633, 634, 635, 636, 637, 638, 639, 640, 641, 642, 643, 644, 645, 646, 647, 648, 649, 650, 651, 652, 653, 654, 655, 656, 657, 658, 659, 660, 661, 662, 663, 664, 665, 666, 667, 668, 669, 670, 671, 672, 673, 674, 675, 676, 677, 678, 679, 680, 681, 682, 683, 684, 685, 686, 687, 688, 689, 690, 691, 692, 693, 694, 695, 696, 697, 698, 699, 700, 701, 702, 703, 704, 705, 706, 707, 708, 709, 710, 711, 712, 713, 714, 715, 716, 717, 718, 719, 720, 721, 722, 723, 724, 725, 726, 727, 728, 729, 730, 731, 732, 733, 734, 735, 736, 737, 738, 739, 740, 741, 742, 743, 744, 745, 746, 747, 748, 749, 750, 751, 752, 753, 754, 755, 756, 757, 758, 759, 760, 761, 762, 763, 764, 765, 766, 767, 768, 769, 770, 771, 772, 773, 774, 775, 776, 777, 778, 779, 780, 781, 782, 783, 784, 785, 786, 787, 788, 789, 790, 791, 792, 793, 794, 795, 796, 797, 798, 799, 800, 801, 802, 803, 804, 805, 806, 807, 808, 809, 810, 811, 812, 813, 814, 815, 816, 817, 818, 819, 820, 821, 822, 823, 824, 825, 826, 827, 828, 829, 830, 831, 832, 833, 834, 835, 836, 837, 838, 839, 840, 841, 842, 843, 844, 845, 846, 847, 848, 849, 850, 851, 852, 853, 854, 855, 856, 857, 858, 859, 860, 861, 862, 863, 864, 865, 866, 867, 868, 869, 870, 871, 872],
      "AcquisitionTime": ["113738.115000", "113738.575000", "113739.035000", "113739.495000", "113739.955000", "113740.415000", "113740.875000", "113741.335000", "113741.795000", "113742.255000", "113742.715000", "113743.175000", "113743.635000", "113744.095000", "113744.555000", "113745.015000", "113745.475000", "113745.935000", "113746.395000", "113746.855000", "113747.315000", "113747.775000", "113748.235000", "113748.695000", "113749.155000", "113749.615000", "113750.075000", "113750.535000", "113750.995000", "113751.455000", "113751.915000", "113752.375000", "113752.835000", "113753.295000", "113753.755000", "113754.215000", "113754.675000", "113755.135000", "113755.595000", "113756.055000", "113756.515000", "113756.975000", "113757.435000", "113757.895000", "113758.355000", "113758.815000", "113759.275000", "113759.735000", "113800.195000", "113800.655000", "113801.115000", "113801.575000", "113802.035000", "113802.495000", "113802.955000", "113803.415000", "113803.875000", "113804.335000", "113804.795000", "113805.255000", "113805.715000", "113806.175000", "113806.635000", "113807.095000", "113807.555000", "113808.015000", "113808.475000", "113808.935000", "113809.395000", "113809.855000", "113810.315000", "113810.775000", "113811.235000", "113811.695000", "113812.155000", "113812.615000", "113813.075000", "113813.535000", "113813.995000", "113814.455000", "113814.915000", "113815.375000", "113815.835000", "113816.295000", "113816.755000", "113817.215000", "113817.675000", "113818.135000", "113818.595000", "113819.055000", "113819.515000", "113819.975000", "113820.435000", "113820.895000", "113821.355000", "113821.815000", "113822.275000", "113822.735000", "113823.195000", "113823.655000", "113824.115000", "113824.575000", "113825.035000", "113825.495000", "113825.955000", "113826.415000", "113826.875000", "113827.335000", "113827.795000", "113828.255000", "113828.715000", "113829.175000", "113829.635000", "113830.095000", "113830.555000", "113831.015000", "113831.475000", "113831.935000", "113832.395000", "113832.855000", "113833.315000", "113833.775000", "113834.235000", "113834.695000", "113835.155000", "113835.615000", "113836.075000", "113836.535000", "113836.995000", "113837.455000", "113837.915000", "113838.375000", "113838.835000", "113839.295000", "113839.755000", "113840.215000", "113840.675000", "113841.135000", "113841.595000", "113842.055000", "113842.515000", "113842.975000", "113843.435000", "113843.895000", "113844.355000", "113844.815000", "113845.275000", "113845.735000", "113846.195000", "113846.655000", "113847.115000", "113847.575000", "113848.035000", "113848.495000", "113848.955000", "113849.415000", "113849.875000", "113850.335000", "113850.795000", "113851.255000", "113851.715000", "113852.175000", "113852.635000", "113853.095000", "113853.555000", "113854.015000", "113854.475000", "113854.935000", "113855.395000", "113855.855000", "113856.315000", "113856.775000", "113857.235000", "113857.695000", "113858.155000", "113858.615000", "113859.075000", "113859.535000", "113859.995000", "113900.455000", "113900.915000", "113901.375000", "113901.835000", "113902.295000", "113902.755000", "113903.215000", "113903.675000", "113904.135000", "113904.595000", "113905.055000", "113905.515000", "113905.975000", "113906.435000", "113906.895000", "113907.355000", "113907.815000", "113908.275000", "113908.735000", "113909.195000", "113909.655000", "113910.115000", "113910.575000", "113911.035000", "113911.495000", "113911.955000", "113912.415000", "113912.875000", "113913.335000", "113913.795000", "113914.255000", "113914.715000", "113915.175000", "113915.635000", "113916.095000", "113916.555000", "113917.015000", "113917.475000", "113917.935000", "113918.395000", "113918.855000", "113919.315000", "113919.775000", "113920.235000", "113920.695000", "113921.155000", "113921.615000", "113922.075000", "113922.535000", "113922.995000", "113923.455000", "113923.915000", "113924.375000", "113924.835000", "113925.295000", "113925.755000", "113926.215000", "113926.675000", "113927.135000", "113927.595000", "113928.055000", "113928.515000", "113928.975000", "113929.435000", "113929.895000", "113930.355000", "113930.815000", "113931.275000", "113931.735000", "113932.195000", "113932.655000", "113933.115000", "113933.575000", "113934.035000", "113934.495000", "113934.955000", "113935.415000", "113935.875000", "113936.335000", "113936.795000", "113937.255000", "113937.715000", "113938.175000", "113938.635000", "113939.095000", "113939.555000", "113940.015000", "113940.475000", "113940.935000", "113941.395000", "113941.855000", "113942.315000", "113942.775000", "113943.235000", "113943.695000", "113944.155000", "113944.615000", "113945.075000", "113945.535000", "113945.995000", "113946.455000", "113946.915000", "113947.375000", "113947.835000", "113948.295000", "113948.755000", "113949.215000", "113949.675000", "113950.135000", "113950.595000", "113951.055000", "113951.515000", "113951.975000", "113952.435000", "113952.895000", "113953.355000", "113953.815000", "113954.275000", "113954.735000", "113955.195000", "113955.655000", "113956.115000", "113956.575000", "113957.035000", "113957.495000", "113957.955000", "113958.415000", "113958.875000", "113959.335000", "113959.795000", "114000.255000", "114000.715000", "114001.175000", "114001.635000", "114002.095000", "114002.555000", "114003.015000", "114003.475000", "114003.935000", "114004.395000", "114004.855000", "114005.315000", "114005.775000", "114006.235000", "114006.695000", "114007.155000", "114007.615000", "114008.075000", "114008.535000", "114008.995000", "114009.455000", "114009.915000", "114010.375000", "114010.835000", "114011.295000", "114011.755000", "114012.215000", "114012.675000", "114013.135000", "114013.595000", "114014.055000", "114014.515000", "114014.975000", "114015.435000", "114015.895000", "114016.355000", "114016.815000", "114017.275000", "114017.735000", "114018.195000", "114018.655000", "114019.115000", "114019.575000", "114020.035000", "114020.495000", "114020.955000", "114021.415000", "114021.875000", "114022.335000", "114022.795000", "114023.255000", "114023.715000", "114024.175000", "114024.635000", "114025.095000", "114025.555000", "114026.015000", "114026.475000", "114026.935000", "114027.395000", "114027.855000", "114028.315000", "114028.775000", "114029.235000", "114029.695000", "114030.155000", "114030.615000", "114031.075000", "114031.535000", "114031.995000", "114032.455000", "114032.915000", "114033.375000", "114033.835000", "114034.295000", "114034.755000", "114035.215000", "114035.675000", "114036.135000", "114036.595000", "114037.055000", "114037.515000", "114037.975000", "114038.435000", "114038.895000", "114039.355000", "114039.815000", "114040.275000", "114040.735000", "114041.195000", "114041.655000", "114042.115000", "114042.575000", "114043.035000", "114043.495000", "114043.955000", "114044.415000", "114044.875000", "114045.335000", "114045.795000", "114046.255000", "114046.715000", "114047.175000", "114047.635000", "114048.095000", "114048.555000", "114049.015000", "114049.475000", "114049.935000", "114050.395000", "114050.855000", "114051.315000", "114051.775000", "114052.235000", "114052.695000", "114053.155000", "114053.615000", "114054.075000", "114054.535000", "114054.995000", "114055.455000", "114055.915000", "114056.375000", "114056.835000", "114057.295000", "114057.755000", "114058.215000", "114058.675000", "114059.135000", "114059.595000", "114100.055000", "114100.515000", "114100.975000", "114101.435000", "114101.895000", "114102.355000", "114102.815000", "114103.275000", "114103.735000", "114104.195000", "114104.655000", "114105.115000", "114105.575000", "114106.035000", "114106.495000", "114106.955000", "114107.415000", "114107.875000", "114108.335000", "114108.795000", "114109.255000", "114109.715000", "114110.175000", "114110.635000", "114111.095000", "114111.555000", "114112.015000", "114112.475000", "114112.935000", "114113.395000", "114113.855000", "114114.315000", "114114.775000", "114115.235000", "114115.695000", "114116.155000", "114116.615000", "114117.075000", "114117.535000", "114117.995000", "114118.455000", "114118.915000", "114119.375000", "114119.835000", "114120.295000", "114120.755000", "114121.215000", "114121.675000", "114122.135000", "114122.595000", "114123.055000", "114123.515000", "114123.975000", "114124.435000", "114124.895000", "114125.355000", "114125.815000", "114126.275000", "114126.735000", "114127.195000", "114127.655000", "114128.115000", "114128.575000", "114129.035000", "114129.495000", "114129.955000", "114130.415000", "114130.875000", "114131.335000", "114131.795000", "114132.255000", "114132.715000", "114133.175000", "114133.635000", "114134.095000", "114134.555000", "114135.015000", "114135.475000", "114135.935000", "114136.395000", "114136.855000", "114137.315000", "114137.775000", "114138.235000", "114138.695000", "114139.155000", "114139.615000", "114140.075000", "114140.535000", "114140.995000", "114141.455000", "114141.915000", "114142.375000", "114142.835000", "114143.295000", "114143.755000", "114144.215000", "114144.675000", "114145.135000", "114145.595000", "114146.055000", "114146.515000", "114146.975000", "114147.435000", "114147.895000", "114148.355000", "114148.815000", "114149.275000", "114149.735000", "114150.195000", "114150.655000", "114151.115000", "114151.575000", "114152.035000", "114152.495000", "114152.955000", "114153.415000", "114153.875000", "114154.335000", "114154.795000", "114155.255000", "114155.715000", "114156.175000", "114156.635000", "114157.095000", "114157.555000", "114158.015000", "114158.475000", "114158.935000", "114159.395000", "114159.855000", "114200.315000", "114200.775000", "114201.235000", "114201.695000", "114202.155000", "114202.615000", "114203.075000", "114203.535000", "114203.995000", "114204.455000", "114204.915000", "114205.375000", "114205.835000", "114206.295000", "114206.755000", "114207.215000", "114207.675000", "114208.135000", "114208.595000", "114209.055000", "114209.515000", "114209.975000", "114210.435000", "114210.895000", "114211.355000", "114211.815000", "114212.275000", "114212.735000", "114213.195000", "114213.655000", "114214.115000", "114214.575000", "114215.035000", "114215.495000", "114215.955000", "114216.415000", "114216.875000", "114217.335000", "114217.795000", "114218.255000", "114218.715000", "114219.175000", "114219.635000", "114220.095000", "114220.555000", "114221.015000", "114221.475000", "114221.935000", "114222.395000", "114222.855000", "114223.315000", "114223.775000", "114224.235000", "114224.695000", "114225.155000", "114225.615000", "114226.075000", "114226.535000", "114226.995000", "114227.455000", "114227.915000", "114228.375000", "114228.835000", "114229.295000", "114229.755000", "114230.215000", "114230.675000", "114231.135000", "114231.595000", "114232.055000", "114232.515000", "114232.975000", "114233.435000", "114233.895000", "114234.355000", "114234.815000", "114235.275000", "114235.735000", "114236.195000", "114236.655000", "114237.115000", "114237.575000", "114238.035000", "114238.495000", "114238.955000", "114239.415000", "114239.875000", "114240.335000", "114240.795000", "114241.255000", "114241.715000", "114242.175000", "114242.635000", "114243.095000", "114243.555000", "114244.015000", "114244.475000", "114244.935000", "114245.395000", "114245.855000", "114246.315000", "114246.775000", "114247.235000", "114247.695000", "114248.155000", "114248.615000", "114249.075000", "114249.535000", "114249.995000", "114250.455000", "114250.915000", "114251.375000", "114251.835000", "114252.295000", "114252.755000", "114253.215000", "114253.675000", "114254.135000", "114254.595000", "114255.055000", "114255.515000", "114255.975000", "114256.435000", "114256.895000", "114257.355000", "114257.815000", "114258.275000", "114258.735000", "114259.195000", "114259.655000", "114300.115000", "114300.575000", "114301.035000", "114301.495000", "114301.955000", "114302.415000", "114302.875000", "114303.335000", "114303.795000", "114304.255000", "114304.715000", "114305.175000", "114305.635000", "114306.095000", "114306.555000", "114307.015000", "114307.475000", "114307.935000", "114308.395000", "114308.855000", "114309.315000", "114309.775000", "114310.235000", "114310.695000", "114311.155000", "114311.615000", "114312.075000", "114312.535000", "114312.995000", "114313.455000", "114313.915000", "114314.375000", "114314.835000", "114315.295000", "114315.755000", "114316.215000", "114316.675000", "114317.135000", "114317.595000", "114318.055000", "114318.515000", "114318.975000", "114319.435000", "114319.895000", "114320.355000", "114320.815000", "114321.275000", "114321.735000", "114322.195000", "114322.655000", "114323.115000", "114323.575000", "114324.035000", "114324.495000", "114324.955000", "114325.415000", "114325.875000", "114326.335000", "114326.795000", "114327.255000", "114327.715000", "114328.175000", "114328.635000", "114329.095000", "114329.555000", "114330.015000", "114330.475000", "114330.935000", "114331.395000", "114331.855000", "114332.315000", "114332.775000", "114333.235000", "114333.695000", "114334.155000", "114334.615000", "114335.075000", "114335.535000", "114335.995000", "114336.455000", "114336.915000", "114337.375000", "114337.835000", "114338.295000", "114338.755000", "114339.215000", "114339.675000", "114340.135000", "114340.595000", "114341.055000", "114341.515000", "114341.975000", "114342.435000", "114342.895000", "114343.355000", "114343.815000", "114344.275000", "114344.735000", "114345.195000", "114345.655000", "114346.115000", "114346.575000", "114347.035000", "114347.495000", "114347.955000", "114348.415000", "114348.875000", "114349.335000", "114349.795000", "114350.255000", "114350.715000", "114351.175000", "114351.635000", "114352.095000", "114352.555000", "114353.015000", "114353.475000", "114353.935000", "114354.395000", "114354.855000", "114355.315000", "114355.775000", "114356.235000", "114356.695000", "114357.155000", "114357.615000", "114358.075000", "114358.535000", "114358.995000", "114359.455000", "114359.915000", "114400.375000", "114400.835000", "114401.295000", "114401.755000", "114402.215000", "114402.675000", "114403.135000", "114403.595000", "114404.055000", "114404.515000", "114404.975000", "114405.435000", "114405.895000", "114406.355000", "114406.815000", "114407.275000", "114407.735000", "114408.195000", "114408.655000", "114409.115000", "114409.575000", "114410.035000", "114410.495000", "114410.955000", "114411.415000", "114411.875000", "114412.335000", "114412.795000", "114413.255000", "114413.715000", "114414.175000", "114414.635000", "114415.095000", "114415.555000", "114416.015000", "114416.475000", "114416.935000", "114417.395000", "114417.855000", "114418.315000", "114418.775000"],
