{
  "AcquisitionMatrixPE": 82,
  "AcquisitionNumber": 1,
  "AcquisitionTime": "11:00:18.560000",
  "BandwidthPerPixelPhaseEncode": 24.888,
  "BaseResolution": 82,
  "BodyPartExamined": "BRAIN",
  "ConsistencyInfo": "N4_VE11E_LATEST_20181129",
  "ConversionSoftware": "dcm2niix",
  "ConversionSoftwareVersion": "v1.0.20201102",
  "DerivedVendorReportedEchoSpacing": 0.00049,
  "DeviceSerialNumber": "66112",
  "DwellTime": 2e-06,
  "EchoTime": 0.0272,
  "EchoTrainLength": 82,
  "EffectiveEchoSpacing": 0.00049,
  "FlipAngle": 44,
  "ImageComments": "Unaliased MB8/PE3",
  "ImageOrientationPatientDICOM": [0.998911, 0.00540873, 0.0463371, -0.00453293, 0.99981, -0.0189849],
  "ImageType": [
    "ORIGINAL",
    "PRIMARY",
    "M",
    "MB",
    "ND",
    "NORM",
    "MOSAIC"
],
  "ImagingFrequency": 123.252,
  "InPlanePhaseEncodingDirectionDICOM": "COL",
  "InstitutionAddress": "Maynard 3,Hanover,NH,US,03755",
  "InstitutionName": "Dartmouth College - PBS",
  "InstitutionalDepartmentName": "Department",
  "MRAcquisitionType": "2D",
  "MagneticFieldStrength": 3,
  "Manufacturer": "Siemens",
  "ManufacturersModelName": "Prisma",
  "Modality": "MR",
  "MultibandAccelerationFactor": 8,
  "PartialFourier": 1,
  "PatientPosition": "HFS",
  "PercentPhaseFOV": 100,
  "PercentSampling": 100,
  "PhaseEncodingDirection": "j-",
  "PhaseEncodingSteps": 82,
  "PhaseResolution": 1,
  "PixelBandwidth": 3050,
  "ProcedureStepDescription": "Wager_Wager^1076_spacetop",
  "ProtocolName": "func_run-01_task-social_acq-ap-mb8",
  "PulseSequenceDetails": "%CustomerSeq%\\cmrr_mbep2d_bold",
  "ReceiveCoilActiveElements": "HEA;HEP",
  "ReceiveCoilName": "Head_32",
  "ReconMatrixPE": 82,
  "RepetitionTime": 0.46,
  "SAR": 0.0867843,
  "ScanOptions": "FS",
  "ScanningSequence": "EP",
  "SequenceName": "epfid2d1_82",
  "SequenceVariant": "SK\\SS",
  "SeriesDescription": "func_run-01_task-social_acq-ap-mb8",
  "SeriesNumber": 12,
  "ShimSetting": [4148, -7742, -7199, 544, -73, -73, -5, 97],
  "SliceThickness": 2.7,
  "SliceTiming": [0, 0.25, 0.0625, 0.3125, 0.125, 0.375, 0.1875, 0, 0.25, 0.0625, 0.3125, 0.125, 0.375, 0.1875, 0, 0.25, 0.0625, 0.3125, 0.125, 0.375, 0.1875, 0, 0.25, 0.0625, 0.3125, 0.125, 0.375, 0.1875, 0, 0.25, 0.0625, 0.3125, 0.125, 0.375, 0.1875, 0, 0.25, 0.0625, 0.3125, 0.125, 0.375, 0.1875, 0, 0.25, 0.0625, 0.3125, 0.125, 0.375, 0.1875, 0, 0.25, 0.0625, 0.3125, 0.125, 0.375, 0.1875],
  "SoftwareVersions": "syngo MR E11",
  "SpacingBetweenSlices": 2.7,
  "StationName": "AWP66112",
  "TaskName": "social",
  "TotalReadoutTime": 0.03969,
  "TxRefAmp": 254.263,
  "WipMemBlock": "2e765e35-631a-4188-8766-d706e6c948d3||Sequence: R016 ve11e/master r/434b28f1; Aug  7 2019 18:53:46 by eja",
  "dcmmeta_affine": [
    [-2.6800057888031006, -0.012161508202552795, 0.12536349892616272, 111.87700653076172],
    [-0.014511214569211006, 2.682415723800659, -0.05063629522919655, -96.40975189208984],
    [0.12431897968053818, 0.05093508958816528, 2.696612596511841, -66.36515045166016],
    [0.0, 0.0, 0.0, 1.0]
],
  "dcmmeta_reorient_transform": [
    [0.0, -1.0, 0.0, 81.0],
    [1.0, 0.0, 0.0, 0.0],
    [0.0, 0.0, 1.0, 0.0],
    [0.0, 0.0, 0.0, 1.0]
],
  "dcmmeta_shape": [82, 82, 56, 872],
  "dcmmeta_slice_dim": 2,
  "dcmmeta_version": 0.6,
  "global": {
    "const": {
      "AccessionNumber": "A004184",
      "AcquisitionMatrix": [82, 0, 0, 82],
      "AngioFlag": "N",
      "BitsAllocated": 16,
      "BitsStored": 16,
      "BodyPartExamined": "BRAIN",
      "Columns": 656,
      "EchoNumbers": 1,
      "EchoTime": 27.2,
      "EchoTrainLength": 82,
      "FlipAngle": 44.0,
      "HighBit": 15,
      "ImageOrientationPatient": [0.99891121798682, 0.00540872535074, 0.04633707230891, -0.0045329258041, 0.99980949499672, -0.0189848965776],
      "ImagePositionPatient": [-876.5632279183, -894.88397565801, -83.300586146395],
      "ImageType": [
        "ORIGINAL",
        "PRIMARY",
        "M",
        "MB",
        "ND",
        "NORM",
        "MOSAIC"
],
      "ImagedNucleus": "1H",
      "ImagingFrequency": 123.252158,
      "InPlanePhaseEncodingDirection": "COL",
      "MRAcquisitionType": "2D",
      "MagneticFieldStrength": 3.0,
      "Manufacturer": "SIEMENS",
      "ManufacturerModelName": "Prisma",
      "Modality": "MR",
      "NumberOfAverages": 1.0,
      "NumberOfPhaseEncodingSteps": 82,
      "PercentPhaseFieldOfView": 100.0,
      "PercentSampling": 100.0,
      "PerformedProcedureStepStartTime": "102701.679000",
      "PhotometricInterpretation": "MONOCHROME2",
      "PixelBandwidth": 3050.0,
      "PixelRepresentation": 0,
      "PixelSpacing": [2.6829268932343, 2.6829268932343],
      "ProtocolName": "func_run-01_task-social_acq-ap-mb8",
      "RepetitionTime": 460.0,
      "Rows": 656,
      "SAR": 0.08678429338272,
      "SamplesPerPixel": 1,
      "ScanOptions": "FS",
      "ScanningSequence": "EP",
      "SequenceName": "epfid2d1_82",
      "SequenceVariant": [
        "SK",
        "SS"
],
      "SeriesDescription": "func_run-01_task-social_acq-ap-mb8",
      "SeriesNumber": 12,
      "SeriesTime": "110047.609000",
      "SliceLocation": -59.279253842283,
      "SliceThickness": 2.7000000476837,
      "SmallestImagePixelValue": 0,
      "SoftwareVersions": "syngo MR E11",
      "SpacingBetweenSlices": 2.6999999363509,
      "SpecificCharacterSet": "ISO_IR 100",
      "StudyID": "1",
      "StudyTime": "102701.555000",
      "TransmitCoilName": "Body",
      "VariableFlipAngleFlag": "N",
      "WindowCenterWidthExplanation": "Algo1"
    },
    "slices": {}
  },
  "time": {
    "samples": {
      "AcquisitionNumber": [1, 2, 3, 4, 5, 6, 7, 8, 9, 10, 11, 12, 13, 14, 15, 16, 17, 18, 19, 20, 21, 22, 23, 24, 25, 26, 27, 28, 29, 30, 31, 32, 33, 34, 35, 36, 37, 38, 39, 40, 41, 42, 43, 44, 45, 46, 47, 48, 49, 50, 51, 52, 53, 54, 55, 56, 57, 58, 59, 60, 61, 62, 63, 64, 65, 66, 67, 68, 69, 70, 71, 72, 73, 74, 75, 76, 77, 78, 79, 80, 81, 82, 83, 84, 85, 86, 87, 88, 89, 90, 91, 92, 93, 94, 95, 96, 97, 98, 99, 100, 101, 102, 103, 104, 105, 106, 107, 108, 109, 110, 111, 112, 113, 114, 115, 116, 117, 118, 119, 120, 121, 122, 123, 124, 125, 126, 127, 128, 129, 130, 131, 132, 133, 134, 135, 136, 137, 138, 139, 140, 141, 142, 143, 144, 145, 146, 147, 148, 149, 150, 151, 152, 153, 154, 155, 156, 157, 158, 159, 160, 161, 162, 163, 164, 165, 166, 167, 168, 169, 170, 171, 172, 173, 174, 175, 176, 177, 178, 179, 180, 181, 182, 183, 184, 185, 186, 187, 188, 189, 190, 191, 192, 193, 194, 195, 196, 197, 198, 199, 200, 201, 202, 203, 204, 205, 206, 207, 208, 209, 210, 211, 212, 213, 214, 215, 216, 217, 218, 219, 220, 221, 222, 223, 224, 225, 226, 227, 228, 229, 230, 231, 232, 233, 234, 235, 236, 237, 238, 239, 240, 241, 242, 243, 244, 245, 246, 247, 248, 249, 250, 251, 252, 253, 254, 255, 256, 257, 258, 259, 260, 261, 262, 263, 264, 265, 266, 267, 268, 269, 270, 271, 272, 273, 274, 275, 276, 277, 278, 279, 280, 281, 282, 283, 284, 285, 286, 287, 288, 289, 290, 291, 292, 293, 294, 295, 296, 297, 298, 299, 300, 301, 302, 303, 304, 305, 306, 307, 308, 309, 310, 311, 312, 313, 314, 315, 316, 317, 318, 319, 320, 321, 322, 323, 324, 325, 326, 327, 328, 329, 330, 331, 332, 333, 334, 335, 336, 337, 338, 339, 340, 341, 342, 343, 344, 345, 346, 347, 348, 349, 350, 351, 352, 353, 354, 355, 356, 357, 358, 359, 360, 361, 362, 363, 364, 365, 366, 367, 368, 369, 370, 371, 372, 373, 374, 375, 376, 377, 378, 379, 380, 381, 382, 383, 384, 385, 386, 387, 388, 389, 390, 391, 392, 393, 394, 395, 396, 397, 398, 399, 400, 401, 402, 403, 404, 405, 406, 407, 408, 409, 410, 411, 412, 413, 414, 415, 416, 417, 418, 419, 420, 421, 422, 423, 424, 425, 426, 427, 428, 429, 430, 431, 432, 433, 434, 435, 436, 437, 438, 439, 440, 441, 442, 443, 444, 445, 446, 447, 448, 449, 450, 451, 452, 453, 454, 455, 456, 457, 458, 459, 460, 461, 462, 463, 464, 465, 466, 467, 468, 469, 470, 471, 472, 473, 474, 475, 476, 477, 478, 479, 480, 481, 482, 483, 484, 485, 486, 487, 488, 489, 490, 491, 492, 493, 494, 495, 496, 497, 498, 499, 500, 501, 502, 503, 504, 505, 506, 507, 508, 509, 510, 511, 512, 513, 514, 515, 516, 517, 518, 519, 520, 521, 522, 523, 524, 525, 526, 527, 528, 529, 530, 531, 532, 533, 534, 535, 536, 537, 538, 539, 540, 541, 542, 543, 544, 545, 546, 547, 548, 549, 550, 551, 552, 553, 554, 555, 556, 557, 558, 559, 560, 561, 562, 563, 564, 565, 566, 567, 568, 569, 570, 571, 572, 573, 574, 575, 576, 577, 578, 579, 580, 581, 582, 583, 584, 585, 586, 587, 588, 589, 590, 591, 592, 593, 594, 595, 596, 597, 598, 599, 600, 601, 602, 603, 604, 605, 606, 607, 608, 609, 610, 611, 612, 613, 614, 615, 616, 617, 618, 619, 620, 621, 622, 623, 624, 625, 626, 627, 628, 629, 630, 631, 632, 633, 634, 635, 636, 637, 638, 639, 640, 641, 642, 643, 644, 645, 646, 647, 648, 649, 650, 651, 652, 653, 654, 655, 656, 657, 658, 659, 660, 661, 662, 663, 664, 665, 666, 667, 668, 669, 670, 671, 672, 673, 674, 675, 676, 677, 678, 679, 680, 681, 682, 683, 684, 685, 686, 687, 688, 689, 690, 691, 692, 693, 694, 695, 696, 697, 698, 699, 700, 701, 702, 703, 704, 705, 706, 707, 708, 709, 710, 711, 712, 713, 714, 715, 716, 717, 718, 719, 720, 721, 722, 723, 724, 725, 726, 727, 728, 729, 730, 731, 732, 733, 734, 735, 736, 737, 738, 739, 740, 741, 742, 743, 744, 745, 746, 747, 748, 749, 750, 751, 752, 753, 754, 755, 756, 757, 758, 759, 760, 761, 762, 763, 764, 765, 766, 767, 768, 769, 770, 771, 772, 773, 774, 775, 776, 777, 778, 779, 780, 781, 782, 783, 784, 785, 786, 787, 788, 789, 790, 791, 792, 793, 794, 795, 796, 797, 798, 799, 800, 801, 802, 803, 804, 805, 806, 807, 808, 809, 810, 811, 812, 813, 814, 815, 816, 817, 818, 819, 820, 821, 822, 823, 824, 825, 826, 827, 828, 829, 830, 831, 832, 833, 834, 835, 836, 837, 838, 839, 840, 841, 842, 843, 844, 845, 846, 847, 848, 849, 850, 851, 852, 853, 854, 855, 856, 857, 858, 859, 860, 861, 862, 863, 864, 865, 866, 867, 868, 869, 870, 871, 872],
      "AcquisitionTime": ["110018.560000", "110019.020000", "110019.480000", "110019.940000", "110020.400000", "110020.860000", "110021.320000", "110021.780000", "110022.240000", "110022.700000", "110023.160000", "110023.620000", "110024.080000", "110024.540000", "110025.000000", "110025.460000", "110025.920000", "110026.380000", "110026.840000", "110027.300000", "110027.760000", "110028.220000", "110028.680000", "110029.140000", "110029.600000", "110030.060000", "110030.520000", "110030.980000", "110031.440000", "110031.900000", "110032.360000", "110032.820000", "110033.280000", "110033.740000", "110034.200000", "110034.660000", "110035.120000", "110035.580000", "110036.040000", "110036.500000", "110036.960000", "110037.420000", "110037.880000", "110038.340000", "110038.800000", "110039.260000", "110039.720000", "110040.180000", "110040.640000", "110041.100000", "110041.560000", "110042.020000", "110042.480000", "110042.940000", "110043.400000", "110043.860000", "110044.320000", "110044.780000", "110045.240000", "110045.700000", "110046.160000", "110046.620000", "110047.080000", "110047.540000", "110048.000000", "110048.460000", "110048.920000", "110049.380000", "110049.840000", "110050.300000", "110050.760000", "110051.220000", "110051.680000", "110052.140000", "110052.600000", "110053.060000", "110053.520000", "110053.980000", "110054.440000", "110054.900000", "110055.360000", "110055.820000", "110056.280000", "110056.740000", "110057.200000", "110057.660000", "110058.120000", "110058.580000", "110059.040000", "110059.500000", "110059.960000", "110100.420000", "110100.880000", "110101.340000", "110101.800000", "110102.260000", "110102.720000", "110103.180000", "110103.640000", "110104.100000", "110104.560000", "110105.020000", "110105.480000", "110105.940000", "110106.400000", "110106.860000", "110107.320000", "110107.780000", "110108.240000", "110108.700000", "110109.160000", "110109.620000", "110110.080000", "110110.540000", "110111.000000", "110111.460000", "110111.920000", "110112.380000", "110112.840000", "110113.300000", "110113.760000", "110114.220000", "110114.680000", "110115.140000", "110115.600000", "110116.060000", "110116.520000", "110116.980000", "110117.440000", "110117.900000", "110118.360000", "110118.820000", "110119.280000", "110119.740000", "110120.200000", "110120.660000", "110121.120000", "110121.580000", "110122.040000", "110122.500000", "110122.960000", "110123.420000", "110123.880000", "110124.340000", "110124.800000", "110125.260000", "110125.720000", "110126.180000", "110126.640000", "110127.100000", "110127.560000", "110128.020000", "110128.480000", "110128.940000", "110129.400000", "110129.860000", "110130.320000", "110130.780000", "110131.240000", "110131.700000", "110132.160000", "110132.620000", "110133.080000", "110133.540000", "110134.000000", "110134.460000", "110134.920000", "110135.380000", "110135.840000", "110136.300000", "110136.760000", "110137.220000", "110137.680000", "110138.140000", "110138.600000", "110139.060000", "110139.520000", "110139.980000", "110140.440000", "110140.900000", "110141.360000", "110141.820000", "110142.280000", "110142.740000", "110143.200000", "110143.660000", "110144.120000", "110144.580000", "110145.040000", "110145.500000", "110145.960000", "110146.420000", "110146.880000", "110147.340000", "110147.800000", "110148.260000", "110148.720000", "110149.180000", "110149.640000", "110150.100000", "110150.560000", "110151.020000", "110151.480000", "110151.940000", "110152.400000", "110152.860000", "110153.320000", "110153.780000", "110154.240000", "110154.700000", "110155.160000", "110155.620000", "110156.080000", "110156.540000", "110157.000000", "110157.460000", "110157.920000", "110158.380000", "110158.840000", "110159.300000", "110159.760000", "110200.220000", "110200.680000", "110201.140000", "110201.600000", "110202.060000", "110202.520000", "110202.980000", "110203.440000", "110203.900000", "110204.360000", "110204.820000", "110205.280000", "110205.740000", "110206.200000", "110206.660000", "110207.120000", "110207.580000", "110208.040000", "110208.500000", "110208.960000", "110209.420000", "110209.880000", "110210.340000", "110210.800000", "110211.260000", "110211.720000", "110212.180000", "110212.640000", "110213.100000", "110213.560000", "110214.020000", "110214.480000", "110214.940000", "110215.400000", "110215.860000", "110216.320000", "110216.780000", "110217.240000", "110217.700000", "110218.160000", "110218.620000", "110219.080000", "110219.540000", "110220.000000", "110220.460000", "110220.920000", "110221.380000", "110221.840000", "110222.300000", "110222.760000", "110223.220000", "110223.680000", "110224.140000", "110224.600000", "110225.060000", "110225.520000", "110225.980000", "110226.440000", "110226.900000", "110227.360000", "110227.820000", "110228.280000", "110228.740000", "110229.200000", "110229.660000", "110230.120000", "110230.580000", "110231.040000", "110231.500000", "110231.960000", "110232.420000", "110232.880000", "110233.340000", "110233.800000", "110234.260000", "110234.720000", "110235.180000", "110235.640000", "110236.100000", "110236.560000", "110237.020000", "110237.480000", "110237.940000", "110238.400000", "110238.860000", "110239.320000", "110239.780000", "110240.240000", "110240.700000", "110241.160000", "110241.620000", "110242.080000", "110242.540000", "110243.000000", "110243.460000", "110243.920000", "110244.380000", "110244.840000", "110245.300000", "110245.760000", "110246.220000", "110246.680000", "110247.140000", "110247.600000", "110248.060000", "110248.520000", "110248.980000", "110249.440000", "110249.900000", "110250.360000", "110250.820000", "110251.280000", "110251.740000", "110252.200000", "110252.660000", "110253.120000", "110253.580000", "110254.040000", "110254.500000", "110254.960000", "110255.420000", "110255.880000", "110256.340000", "110256.800000", "110257.260000", "110257.720000", "110258.180000", "110258.640000", "110259.100000", "110259.560000", "110300.020000", "110300.480000", "110300.940000", "110301.400000", "110301.860000", "110302.320000", "110302.780000", "110303.240000", "110303.700000", "110304.160000", "110304.620000", "110305.080000", "110305.540000", "110306.000000", "110306.460000", "110306.920000", "110307.380000", "110307.840000", "110308.300000", "110308.760000", "110309.220000", "110309.680000", "110310.140000", "110310.600000", "110311.060000", "110311.520000", "110311.980000", "110312.440000", "110312.900000", "110313.360000", "110313.820000", "110314.280000", "110314.740000", "110315.200000", "110315.660000", "110316.120000", "110316.580000", "110317.040000", "110317.500000", "110317.960000", "110318.420000", "110318.880000", "110319.340000", "110319.800000", "110320.260000", "110320.720000", "110321.180000", "110321.640000", "110322.100000", "110322.560000", "110323.020000", "110323.480000", "110323.940000", "110324.400000", "110324.860000", "110325.320000", "110325.780000", "110326.240000", "110326.700000", "110327.160000", "110327.620000", "110328.080000", "110328.540000", "110329.000000", "110329.460000", "110329.920000", "110330.380000", "110330.840000", "110331.300000", "110331.760000", "110332.220000", "110332.680000", "110333.140000", "110333.600000", "110334.060000", "110334.520000", "110334.980000", "110335.440000", "110335.900000", "110336.360000", "110336.820000", "110337.280000", "110337.740000", "110338.200000", "110338.660000", "110339.120000", "110339.580000", "110340.040000", "110340.500000", "110340.960000", "110341.420000", "110341.880000", "110342.340000", "110342.800000", "110343.260000", "110343.720000", "110344.180000", "110344.640000", "110345.100000", "110345.560000", "110346.020000", "110346.480000", "110346.940000", "110347.400000", "110347.860000", "110348.320000", "110348.780000", "110349.240000", "110349.700000", "110350.160000", "110350.620000", "110351.080000", "110351.540000", "110352.000000", "110352.460000", "110352.920000", "110353.380000", "110353.840000", "110354.300000", "110354.760000", "110355.220000", "110355.680000", "110356.140000", "110356.600000", "110357.060000", "110357.520000", "110357.980000", "110358.440000", "110358.900000", "110359.360000", "110359.820000", "110400.280000", "110400.740000", "110401.200000", "110401.660000", "110402.120000", "110402.580000", "110403.040000", "110403.500000", "110403.960000", "110404.420000", "110404.880000", "110405.340000", "110405.800000", "110406.260000", "110406.720000", "110407.180000", "110407.640000", "110408.100000", "110408.560000", "110409.020000", "110409.480000", "110409.940000", "110410.400000", "110410.860000", "110411.320000", "110411.780000", "110412.240000", "110412.700000", "110413.160000", "110413.620000", "110414.080000", "110414.540000", "110415.000000", "110415.460000", "110415.920000", "110416.380000", "110416.840000", "110417.300000", "110417.760000", "110418.220000", "110418.680000", "110419.140000", "110419.600000", "110420.060000", "110420.520000", "110420.980000", "110421.440000", "110421.900000", "110422.360000", "110422.820000", "110423.280000", "110423.740000", "110424.200000", "110424.660000", "110425.120000", "110425.580000", "110426.040000", "110426.500000", "110426.960000", "110427.420000", "110427.880000", "110428.340000", "110428.800000", "110429.260000", "110429.720000", "110430.180000", "110430.640000", "110431.100000", "110431.560000", "110432.020000", "110432.480000", "110432.940000", "110433.400000", "110433.860000", "110434.320000", "110434.780000", "110435.240000", "110435.700000", "110436.160000", "110436.620000", "110437.080000", "110437.540000", "110438.000000", "110438.460000", "110438.920000", "110439.380000", "110439.840000", "110440.300000", "110440.760000", "110441.220000", "110441.680000", "110442.140000", "110442.600000", "110443.060000", "110443.520000", "110443.980000", "110444.440000", "110444.900000", "110445.360000", "110445.820000", "110446.280000", "110446.740000", "110447.200000", "110447.660000", "110448.120000", "110448.580000", "110449.040000", "110449.500000", "110449.960000", "110450.420000", "110450.880000", "110451.340000", "110451.800000", "110452.260000", "110452.720000", "110453.180000", "110453.640000", "110454.100000", "110454.560000", "110455.020000", "110455.480000", "110455.940000", "110456.400000", "110456.860000", "110457.320000", "110457.780000", "110458.240000", "110458.700000", "110459.160000", "110459.620000", "110500.080000", "110500.540000", "110501.000000", "110501.460000", "110501.920000", "110502.380000", "110502.840000", "110503.300000", "110503.760000", "110504.220000", "110504.680000", "110505.140000", "110505.600000", "110506.060000", "110506.520000", "110506.980000", "110507.440000", "110507.900000", "110508.360000", "110508.820000", "110509.280000", "110509.740000", "110510.200000", "110510.660000", "110511.120000", "110511.580000", "110512.040000", "110512.500000", "110512.960000", "110513.420000", "110513.880000", "110514.340000", "110514.800000", "110515.260000", "110515.720000", "110516.180000", "110516.640000", "110517.100000", "110517.560000", "110518.020000", "110518.480000", "110518.940000", "110519.400000", "110519.860000", "110520.320000", "110520.780000", "110521.240000", "110521.700000", "110522.160000", "110522.620000", "110523.080000", "110523.540000", "110524.000000", "110524.460000", "110524.920000", "110525.380000", "110525.840000", "110526.300000", "110526.760000", "110527.220000", "110527.680000", "110528.140000", "110528.600000", "110529.060000", "110529.520000", "110529.980000", "110530.440000", "110530.900000", "110531.360000", "110531.820000", "110532.280000", "110532.740000", "110533.200000", "110533.660000", "110534.120000", "110534.580000", "110535.040000", "110535.500000", "110535.960000", "110536.420000", "110536.880000", "110537.340000", "110537.800000", "110538.260000", "110538.720000", "110539.180000", "110539.640000", "110540.100000", "110540.560000", "110541.020000", "110541.480000", "110541.940000", "110542.400000", "110542.860000", "110543.320000", "110543.780000", "110544.240000", "110544.700000", "110545.160000", "110545.620000", "110546.080000", "110546.540000", "110547.000000", "110547.460000", "110547.920000", "110548.380000", "110548.840000", "110549.300000", "110549.760000", "110550.220000", "110550.680000", "110551.140000", "110551.600000", "110552.060000", "110552.520000", "110552.980000", "110553.440000", "110553.900000", "110554.360000", "110554.820000", "110555.280000", "110555.740000", "110556.200000", "110556.660000", "110557.120000", "110557.580000", "110558.040000", "110558.500000", "110558.960000", "110559.420000", "110559.880000", "110600.340000", "110600.800000", "110601.260000", "110601.720000", "110602.180000", "110602.640000", "110603.100000", "110603.560000", "110604.020000", "110604.480000", "110604.940000", "110605.400000", "110605.860000", "110606.320000", "110606.780000", "110607.240000", "110607.700000", "110608.160000", "110608.620000", "110609.080000", "110609.540000", "110610.000000", "110610.460000", "110610.920000", "110611.380000", "110611.840000", "110612.300000", "110612.760000", "110613.220000", "110613.680000", "110614.140000", "110614.600000", "110615.060000", "110615.520000", "110615.980000", "110616.440000", "110616.900000", "110617.360000", "110617.820000", "110618.280000", "110618.740000", "110619.200000", "110619.660000", "110620.120000", "110620.580000", "110621.040000", "110621.500000", "110621.960000", "110622.420000", "110622.880000", "110623.340000", "110623.800000", "110624.260000", "110624.720000", "110625.180000", "110625.640000", "110626.100000", "110626.560000", "110627.020000", "110627.480000", "110627.940000", "110628.400000", "110628.860000", "110629.320000", "110629.780000", "110630.240000", "110630.700000", "110631.160000", "110631.620000", "110632.080000", "110632.540000", "110633.000000", "110633.460000", "110633.920000", "110634.380000", "110634.840000", "110635.300000", "110635.760000", "110636.220000", "110636.680000", "110637.140000", "110637.600000", "110638.060000", "110638.520000", "110638.980000", "110639.440000", "110639.900000", "110640.360000", "110640.820000", "110641.280000", "110641.740000", "110642.200000", "110642.660000", "110643.120000", "110643.580000", "110644.040000", "110644.500000", "110644.960000", "110645.420000", "110645.880000", "110646.340000", "110646.800000", "110647.260000", "110647.720000", "110648.180000", "110648.640000", "110649.100000", "110649.560000", "110650.020000", "110650.480000", "110650.940000", "110651.400000", "110651.860000", "110652.320000", "110652.780000", "110653.240000", "110653.700000", "110654.160000", "110654.620000", "110655.080000", "110655.540000", "110656.000000", "110656.460000", "110656.920000", "110657.380000", "110657.840000", "110658.300000", "110658.760000", "110659.220000"],
