{
  "AcquisitionMatrixPE": 82,
  "AcquisitionNumber": 1,
  "AcquisitionTime": "18:16:43.942500",
  "BandwidthPerPixelPhaseEncode": 24.888,
  "BaseResolution": 82,
  "BodyPartExamined": "BRAIN",
  "ConsistencyInfo": "N4_VE11E_LATEST_20181129",
  "ConversionSoftware": "dcm2niix",
  "ConversionSoftwareVersion": "v1.0.20201102",
  "DerivedVendorReportedEchoSpacing": 0.00049,
  "DeviceSerialNumber": "66112",
  "DwellTime": 2e-06,
  "EchoTime": 0.0272,
  "EchoTrainLength": 82,
  "EffectiveEchoSpacing": 0.00049,
  "FlipAngle": 44,
  "ImageComments": "Unaliased MB8/PE3",
  "ImageOrientationPatientDICOM": [0.992429, -0.0638596, 0.104911, 0.0735761, 0.993082, -0.0915183],
  "ImageType": [
    "ORIGINAL",
    "PRIMARY",
    "M",
    "MB",
    "ND",
    "NORM",
    "MOSAIC"
],
  "ImagingFrequency": 123.259,
  "InPlanePhaseEncodingDirectionDICOM": "COL",
  "InstitutionAddress": "Maynard 3,Hanover,NH,US,03755",
  "InstitutionName": "Dartmouth College - PBS",
  "InstitutionalDepartmentName": "Department",
  "MRAcquisitionType": "2D",
  "MagneticFieldStrength": 3,
  "Manufacturer": "Siemens",
  "ManufacturersModelName": "Prisma",
  "Modality": "MR",
  "MultibandAccelerationFactor": 8,
  "PartialFourier": 1,
  "PatientPosition": "HFS",
  "PercentPhaseFOV": 100,
  "PercentSampling": 100,
  "PhaseEncodingDirection": "j-",
  "PhaseEncodingSteps": 82,
  "PhaseResolution": 1,
  "PixelBandwidth": 3050,
  "ProcedureStepDescription": "Wager_Wager^1076_spacetop",
  "ProtocolName": "func_run-01_task-alignvideo_acq-ap-mb8",
  "PulseSequenceDetails": "%CustomerSeq%\\cmrr_mbep2d_bold",
  "ReceiveCoilActiveElements": "HEA;HEP",
  "ReceiveCoilName": "Head_32",
  "ReconMatrixPE": 82,
  "RepetitionTime": 0.46,
  "SAR": 0.0850829,
  "ScanOptions": "FS",
  "ScanningSequence": "EP",
  "SequenceName": "epfid2d1_82",
  "SequenceVariant": "SK\\SS",
  "SeriesDescription": "func_run-01_task-alignvideo_acq-ap-mb8",
  "SeriesNumber": 24,
  "ShimSetting": [4265, -7768, -7211, 196, -79, -142, -115, 30],
  "SliceThickness": 2.7,
  "SliceTiming": [0, 0.25, 0.0625, 0.315, 0.125, 0.3775, 0.1875, 0, 0.25, 0.0625, 0.315, 0.125, 0.3775, 0.1875, 0, 0.25, 0.0625, 0.315, 0.125, 0.3775, 0.1875, 0, 0.25, 0.0625, 0.315, 0.125, 0.3775, 0.1875, 0, 0.25, 0.0625, 0.315, 0.125, 0.3775, 0.1875, 0, 0.25, 0.0625, 0.315, 0.125, 0.3775, 0.1875, 0, 0.25, 0.0625, 0.315, 0.125, 0.3775, 0.1875, 0, 0.25, 0.0625, 0.315, 0.125, 0.3775, 0.1875],
  "SoftwareVersions": "syngo MR E11",
  "SpacingBetweenSlices": 2.7,
  "StationName": "AWP66112",
  "TaskName": "alignvideo",
  "TotalReadoutTime": 0.03969,
  "TxRefAmp": 235.904,
  "WipMemBlock": "6586e22d-d363-4f9e-9884-f3d3c284341e||Sequence: R016 ve11e/master r/434b28f1; Aug  7 2019 18:53:46 by eja",
  "dcmmeta_affine": [
    [-2.6626148223876953, 0.19739916920661926, 0.2655199468135834, 93.17306518554688],
    [0.1713305562734604, 2.664365291595459, -0.2660696506500244, -89.47603607177734],
    [0.28146815299987793, 0.24553678929805756, 2.673706293106079, -84.56039428710938],
    [0.0, 0.0, 0.0, 1.0]
],
  "dcmmeta_reorient_transform": [
    [0.0, -1.0, 0.0, 81.0],
    [1.0, 0.0, 0.0, 0.0],
    [0.0, 0.0, 1.0, 0.0],
    [0.0, 0.0, 0.0, 1.0]
],
  "dcmmeta_shape": [82, 82, 56, 1073],
  "dcmmeta_slice_dim": 2,
  "dcmmeta_version": 0.6,
  "global": {
    "const": {
      "AccessionNumber": "A004354",
      "AcquisitionMatrix": [82, 0, 0, 82],
      "AngioFlag": "N",
      "BitsAllocated": 16,
      "BitsStored": 16,
      "BodyPartExamined": "BRAIN",
      "Columns": 656,
      "EchoNumbers": 1,
      "EchoTime": 27.2,
      "EchoTrainLength": 82,
      "FlipAngle": 44.0,
      "HighBit": 15,
      "ImageOrientationPatient": [0.99242917509402, -0.0638595707744, 0.10491085569528, 0.07357605191114, 0.99308155410975, -0.0915182575891],
      "ImagePositionPatient": [-929.98644040567, -841.83848990724, -74.98421326851],
      "ImageType": [
        "ORIGINAL",
        "PRIMARY",
        "M",
        "MB",
        "ND",
        "NORM",
        "MOSAIC"
],
      "ImagedNucleus": "1H",
      "ImagingFrequency": 123.259104,
      "InPlanePhaseEncodingDirection": "COL",
      "MRAcquisitionType": "2D",
      "MagneticFieldStrength": 3.0,
      "Manufacturer": "SIEMENS",
      "ManufacturerModelName": "Prisma",
      "Modality": "MR",
      "NumberOfAverages": 1.0,
      "NumberOfPhaseEncodingSteps": 82,
      "PercentPhaseFieldOfView": 100.0,
      "PercentSampling": 100.0,
      "PerformedProcedureStepStartTime": "172533.920000",
      "PhotometricInterpretation": "MONOCHROME2",
      "PixelBandwidth": 3050.0,
      "PixelRepresentation": 0,
      "PixelSpacing": [2.6829268932343, 2.6829268932343],
      "ProtocolName": "func_run-01_task-alignvideo_acq-ap-mb8",
      "RepetitionTime": 460.0,
      "Rows": 656,
      "SAR": 0.08508294593696,
      "SamplesPerPixel": 1,
      "ScanOptions": "FS",
      "ScanningSequence": "EP",
      "SequenceName": "epfid2d1_82",
      "SequenceVariant": [
        "SK",
        "SS"
],
      "SeriesDescription": "func_run-01_task-alignvideo_acq-ap-mb8",
      "SeriesNumber": 24,
      "SeriesTime": "181711.805000",
      "SliceLocation": -65.756852729522,
      "SliceThickness": 2.7000000476837,
      "SmallestImagePixelValue": 0,
      "SoftwareVersions": "syngo MR E11",
      "SpacingBetweenSlices": 2.6999999702702,
      "SpecificCharacterSet": "ISO_IR 100",
      "StudyID": "1",
      "StudyTime": "172533.858000",
      "TransmitCoilName": "Body",
      "VariableFlipAngleFlag": "N",
      "WindowCenterWidthExplanation": "Algo1"
    },
    "slices": {}
  },
  "time": {
    "samples": {
      "AcquisitionNumber": [1, 2, 3, 4, 5, 6, 7, 8, 9, 10, 11, 12, 13, 14, 15, 16, 17, 18, 19, 20, 21, 22, 23, 24, 25, 26, 27, 28, 29, 30, 31, 32, 33, 34, 35, 36, 37, 38, 39, 40, 41, 42, 43, 44, 45, 46, 47, 48, 49, 50, 51, 52, 53, 54, 55, 56, 57, 58, 59, 60, 61, 62, 63, 64, 65, 66, 67, 68, 69, 70, 71, 72, 73, 74, 75, 76, 77, 78, 79, 80, 81, 82, 83, 84, 85, 86, 87, 88, 89, 90, 91, 92, 93, 94, 95, 96, 97, 98, 99, 100, 101, 102, 103, 104, 105, 106, 107, 108, 109, 110, 111, 112, 113, 114, 115, 116, 117, 118, 119, 120, 121, 122, 123, 124, 125, 126, 127, 128, 129, 130, 131, 132, 133, 134, 135, 136, 137, 138, 139, 140, 141, 142, 143, 144, 145, 146, 147, 148, 149, 150, 151, 152, 153, 154, 155, 156, 157, 158, 159, 160, 161, 162, 163, 164, 165, 166, 167, 168, 169, 170, 171, 172, 173, 174, 175, 176, 177, 178, 179, 180, 181, 182, 183, 184, 185, 186, 187, 188, 189, 190, 191, 192, 193, 194, 195, 196, 197, 198, 199, 200, 201, 202, 203, 204, 205, 206, 207, 208, 209, 210, 211, 212, 213, 214, 215, 216, 217, 218, 219, 220, 221, 222, 223, 224, 225, 226, 227, 228, 229, 230, 231, 232, 233, 234, 235, 236, 237, 238, 239, 240, 241, 242, 243, 244, 245, 246, 247, 248, 249, 250, 251, 252, 253, 254, 255, 256, 257, 258, 259, 260, 261, 262, 263, 264, 265, 266, 267, 268, 269, 270, 271, 272, 273, 274, 275, 276, 277, 278, 279, 280, 281, 282, 283, 284, 285, 286, 287, 288, 289, 290, 291, 292, 293, 294, 295, 296, 297, 298, 299, 300, 301, 302, 303, 304, 305, 306, 307, 308, 309, 310, 311, 312, 313, 314, 315, 316, 317, 318, 319, 320, 321, 322, 323, 324, 325, 326, 327, 328, 329, 330, 331, 332, 333, 334, 335, 336, 337, 338, 339, 340, 341, 342, 343, 344, 345, 346, 347, 348, 349, 350, 351, 352, 353, 354, 355, 356, 357, 358, 359, 360, 361, 362, 363, 364, 365, 366, 367, 368, 369, 370, 371, 372, 373, 374, 375, 376, 377, 378, 379, 380, 381, 382, 383, 384, 385, 386, 387, 388, 389, 390, 391, 392, 393, 394, 395, 396, 397, 398, 399, 400, 401, 402, 403, 404, 405, 406, 407, 408, 409, 410, 411, 412, 413, 414, 415, 416, 417, 418, 419, 420, 421, 422, 423, 424, 425, 426, 427, 428, 429, 430, 431, 432, 433, 434, 435, 436, 437, 438, 439, 440, 441, 442, 443, 444, 445, 446, 447, 448, 449, 450, 451, 452, 453, 454, 455, 456, 457, 458, 459, 460, 461, 462, 463, 464, 465, 466, 467, 468, 469, 470, 471, 472, 473, 474, 475, 476, 477, 478, 479, 480, 481, 482, 483, 484, 485, 486, 487, 488, 489, 490, 491, 492, 493, 494, 495, 496, 497, 498, 499, 500, 501, 502, 503, 504, 505, 506, 507, 508, 509, 510, 511, 512, 513, 514, 515, 516, 517, 518, 519, 520, 521, 522, 523, 524, 525, 526, 527, 528, 529, 530, 531, 532, 533, 534, 535, 536, 537, 538, 539, 540, 541, 542, 543, 544, 545, 546, 547, 548, 549, 550, 551, 552, 553, 554, 555, 556, 557, 558, 559, 560, 561, 562, 563, 564, 565, 566, 567, 568, 569, 570, 571, 572, 573, 574, 575, 576, 577, 578, 579, 580, 581, 582, 583, 584, 585, 586, 587, 588, 589, 590, 591, 592, 593, 594, 595, 596, 597, 598, 599, 600, 601, 602, 603, 604, 605, 606, 607, 608, 609, 610, 611, 612, 613, 614, 615, 616, 617, 618, 619, 620, 621, 622, 623, 624, 625, 626, 627, 628, 629, 630, 631, 632, 633, 634, 635, 636, 637, 638, 639, 640, 641, 642, 643, 644, 645, 646, 647, 648, 649, 650, 651, 652, 653, 654, 655, 656, 657, 658, 659, 660, 661, 662, 663, 664, 665, 666, 667, 668, 669, 670, 671, 672, 673, 674, 675, 676, 677, 678, 679, 680, 681, 682, 683, 684, 685, 686, 687, 688, 689, 690, 691, 692, 693, 694, 695, 696, 697, 698, 699, 700, 701, 702, 703, 704, 705, 706, 707, 708, 709, 710, 711, 712, 713, 714, 715, 716, 717, 718, 719, 720, 721, 722, 723, 724, 725, 726, 727, 728, 729, 730, 731, 732, 733, 734, 735, 736, 737, 738, 739, 740, 741, 742, 743, 744, 745, 746, 747, 748, 749, 750, 751, 752, 753, 754, 755, 756, 757, 758, 759, 760, 761, 762, 763, 764, 765, 766, 767, 768, 769, 770, 771, 772, 773, 774, 775, 776, 777, 778, 779, 780, 781, 782, 783, 784, 785, 786, 787, 788, 789, 790, 791, 792, 793, 794, 795, 796, 797, 798, 799, 800, 801, 802, 803, 804, 805, 806, 807, 808, 809, 810, 811, 812, 813, 814, 815, 816, 817, 818, 819, 820, 821, 822, 823, 824, 825, 826, 827, 828, 829, 830, 831, 832, 833, 834, 835, 836, 837, 838, 839, 840, 841, 842, 843, 844, 845, 846, 847, 848, 849, 850, 851, 852, 853, 854, 855, 856, 857, 858, 859, 860, 861, 862, 863, 864, 865, 866, 867, 868, 869, 870, 871, 872, 873, 874, 875, 876, 877, 878, 879, 880, 881, 882, 883, 884, 885, 886, 887, 888, 889, 890, 891, 892, 893, 894, 895, 896, 897, 898, 899, 900, 901, 902, 903, 904, 905, 906, 907, 908, 909, 910, 911, 912, 913, 914, 915, 916, 917, 918, 919, 920, 921, 922, 923, 924, 925, 926, 927, 928, 929, 930, 931, 932, 933, 934, 935, 936, 937, 938, 939, 940, 941, 942, 943, 944, 945, 946, 947, 948, 949, 950, 951, 952, 953, 954, 955, 956, 957, 958, 959, 960, 961, 962, 963, 964, 965, 966, 967, 968, 969, 970, 971, 972, 973, 974, 975, 976, 977, 978, 979, 980, 981, 982, 983, 984, 985, 986, 987, 988, 989, 990, 991, 992, 993, 994, 995, 996, 997, 998, 999, 1000, 1001, 1002, 1003, 1004, 1005, 1006, 1007, 1008, 1009, 1010, 1011, 1012, 1013, 1014, 1015, 1016, 1017, 1018, 1019, 1020, 1021, 1022, 1023, 1024, 1025, 1026, 1027, 1028, 1029, 1030, 1031, 1032, 1033, 1034, 1035, 1036, 1037, 1038, 1039, 1040, 1041, 1042, 1043, 1044, 1045, 1046, 1047, 1048, 1049, 1050, 1051, 1052, 1053, 1054, 1055, 1056, 1057, 1058, 1059, 1060, 1061, 1062, 1063, 1064, 1065, 1066, 1067, 1068, 1069, 1070, 1071, 1072, 1073],
      "AcquisitionTime": ["181643.942500", "181644.402500", "181644.862500", "181645.322500", "181645.782500", "181646.242500", "181646.702500", "181647.162500", "181647.622500", "181648.082500", "181648.542500", "181649.002500", "181649.462500", "181649.922500", "181650.382500", "181650.842500", "181651.302500", "181651.762500", "181652.222500", "181652.682500", "181653.142500", "181653.602500", "181654.062500", "181654.522500", "181654.982500", "181655.442500", "181655.902500", "181656.362500", "181656.822500", "181657.282500", "181657.742500", "181658.202500", "181658.662500", "181659.122500", "181659.582500", "181700.042500", "181700.502500", "181700.962500", "181701.422500", "181701.882500", "181702.342500", "181702.802500", "181703.262500", "181703.722500", "181704.182500", "181704.642500", "181705.102500", "181705.562500", "181706.022500", "181706.482500", "181706.942500", "181707.402500", "181707.862500", "181708.322500", "181708.782500", "181709.242500", "181709.702500", "181710.162500", "181710.622500", "181711.082500", "181711.542500", "181712.002500", "181712.462500", "181712.922500", "181713.382500", "181713.842500", "181714.302500", "181714.762500", "181715.222500", "181715.682500", "181716.142500", "181716.602500", "181717.062500", "181717.522500", "181717.982500", "181718.442500", "181718.902500", "181719.362500", "181719.822500", "181720.282500", "181720.742500", "181721.202500", "181721.662500", "181722.122500", "181722.582500", "181723.042500", "181723.502500", "181723.962500", "181724.422500", "181724.882500", "181725.342500", "181725.802500", "181726.262500", "181726.722500", "181727.182500", "181727.642500", "181728.102500", "181728.562500", "181729.022500", "181729.482500", "181729.942500", "181730.402500", "181730.862500", "181731.322500", "181731.782500", "181732.242500", "181732.702500", "181733.162500", "181733.622500", "181734.082500", "181734.542500", "181735.002500", "181735.462500", "181735.922500", "181736.382500", "181736.842500", "181737.302500", "181737.762500", "181738.222500", "181738.682500", "181739.142500", "181739.602500", "181740.062500", "181740.522500", "181740.982500", "181741.442500", "181741.902500", "181742.362500", "181742.822500", "181743.282500", "181743.742500", "181744.202500", "181744.662500", "181745.122500", "181745.582500", "181746.042500", "181746.502500", "181746.962500", "181747.422500", "181747.882500", "181748.342500", "181748.802500", "181749.262500", "181749.722500", "181750.182500", "181750.642500", "181751.102500", "181751.562500", "181752.022500", "181752.482500", "181752.942500", "181753.402500", "181753.862500", "181754.322500", "181754.782500", "181755.242500", "181755.702500", "181756.162500", "181756.622500", "181757.082500", "181757.542500", "181758.002500", "181758.462500", "181758.922500", "181759.382500", "181759.842500", "181800.302500", "181800.762500", "181801.222500", "181801.682500", "181802.142500", "181802.602500", "181803.062500", "181803.522500", "181803.982500", "181804.442500", "181804.902500", "181805.362500", "181805.822500", "181806.282500", "181806.742500", "181807.202500", "181807.662500", "181808.122500", "181808.582500", "181809.042500", "181809.502500", "181809.962500", "181810.422500", "181810.882500", "181811.342500", "181811.802500", "181812.262500", "181812.722500", "181813.182500", "181813.642500", "181814.102500", "181814.562500", "181815.022500", "181815.482500", "181815.942500", "181816.402500", "181816.862500", "181817.322500", "181817.782500", "181818.242500", "181818.702500", "181819.162500", "181819.622500", "181820.082500", "181820.542500", "181821.002500", "181821.462500", "181821.922500", "181822.382500", "181822.842500", "181823.302500", "181823.762500", "181824.222500", "181824.682500", "181825.142500", "181825.602500", "181826.062500", "181826.522500", "181826.982500", "181827.442500", "181827.902500", "181828.362500", "181828.822500", "181829.282500", "181829.742500", "181830.202500", "181830.662500", "181831.122500", "181831.582500", "181832.042500", "181832.502500", "181832.962500", "181833.422500", "181833.882500", "181834.342500", "181834.802500", "181835.262500", "181835.722500", "181836.182500", "181836.642500", "181837.102500", "181837.562500", "181838.022500", "181838.482500", "181838.942500", "181839.402500", "181839.862500", "181840.322500", "181840.782500", "181841.242500", "181841.702500", "181842.162500", "181842.622500", "181843.082500", "181843.542500", "181844.002500", "181844.462500", "181844.922500", "181845.382500", "181845.842500", "181846.302500", "181846.762500", "181847.222500", "181847.682500", "181848.142500", "181848.602500", "181849.062500", "181849.522500", "181849.982500", "181850.442500", "181850.902500", "181851.362500", "181851.822500", "181852.282500", "181852.742500", "181853.202500", "181853.662500", "181854.122500", "181854.582500", "181855.042500", "181855.502500", "181855.962500", "181856.422500", "181856.882500", "181857.342500", "181857.802500", "181858.262500", "181858.722500", "181859.182500", "181859.642500", "181900.102500", "181900.562500", "181901.022500", "181901.482500", "181901.942500", "181902.402500", "181902.862500", "181903.322500", "181903.782500", "181904.242500", "181904.702500", "181905.162500", "181905.622500", "181906.082500", "181906.542500", "181907.002500", "181907.462500", "181907.922500", "181908.382500", "181908.842500", "181909.302500", "181909.762500", "181910.222500", "181910.682500", "181911.142500", "181911.602500", "181912.062500", "181912.522500", "181912.982500", "181913.442500", "181913.902500", "181914.362500", "181914.822500", "181915.282500", "181915.742500", "181916.202500", "181916.662500", "181917.122500", "181917.582500", "181918.042500", "181918.502500", "181918.962500", "181919.422500", "181919.882500", "181920.342500", "181920.802500", "181921.262500", "181921.722500", "181922.182500", "181922.642500", "181923.102500", "181923.562500", "181924.022500", "181924.482500", "181924.942500", "181925.402500", "181925.862500", "181926.322500", "181926.782500", "181927.242500", "181927.702500", "181928.162500", "181928.622500", "181929.082500", "181929.542500", "181930.002500", "181930.462500", "181930.922500", "181931.382500", "181931.842500", "181932.302500", "181932.762500", "181933.222500", "181933.682500", "181934.142500", "181934.602500", "181935.062500", "181935.522500", "181935.982500", "181936.442500", "181936.902500", "181937.362500", "181937.822500", "181938.282500", "181938.742500", "181939.202500", "181939.662500", "181940.122500", "181940.582500", "181941.042500", "181941.502500", "181941.962500", "181942.422500", "181942.882500", "181943.342500", "181943.802500", "181944.262500", "181944.722500", "181945.182500", "181945.642500", "181946.102500", "181946.562500", "181947.022500", "181947.482500", "181947.942500", "181948.402500", "181948.862500", "181949.322500", "181949.782500", "181950.242500", "181950.702500", "181951.162500", "181951.622500", "181952.082500", "181952.542500", "181953.002500", "181953.462500", "181953.922500", "181954.382500", "181954.842500", "181955.302500", "181955.762500", "181956.222500", "181956.682500", "181957.142500", "181957.602500", "181958.062500", "181958.522500", "181958.982500", "181959.442500", "181959.902500", "182000.362500", "182000.822500", "182001.282500", "182001.742500", "182002.202500", "182002.662500", "182003.122500", "182003.582500", "182004.042500", "182004.502500", "182004.962500", "182005.422500", "182005.882500", "182006.342500", "182006.802500", "182007.262500", "182007.722500", "182008.182500", "182008.642500", "182009.102500", "182009.562500", "182010.022500", "182010.482500", "182010.942500", "182011.402500", "182011.862500", "182012.322500", "182012.782500", "182013.242500", "182013.702500", "182014.162500", "182014.622500", "182015.082500", "182015.542500", "182016.002500", "182016.462500", "182016.922500", "182017.382500", "182017.842500", "182018.302500", "182018.762500", "182019.222500", "182019.682500", "182020.142500", "182020.602500", "182021.062500", "182021.522500", "182021.982500", "182022.442500", "182022.902500", "182023.362500", "182023.822500", "182024.282500", "182024.742500", "182025.202500", "182025.662500", "182026.122500", "182026.582500", "182027.042500", "182027.502500", "182027.962500", "182028.422500", "182028.882500", "182029.342500", "182029.802500", "182030.262500", "182030.722500", "182031.182500", "182031.642500", "182032.102500", "182032.562500", "182033.022500", "182033.482500", "182033.942500", "182034.402500", "182034.862500", "182035.322500", "182035.782500", "182036.242500", "182036.702500", "182037.162500", "182037.622500", "182038.082500", "182038.542500", "182039.002500", "182039.462500", "182039.922500", "182040.382500", "182040.842500", "182041.302500", "182041.762500", "182042.222500", "182042.682500", "182043.142500", "182043.602500", "182044.062500", "182044.522500", "182044.982500", "182045.442500", "182045.902500", "182046.362500", "182046.822500", "182047.282500", "182047.742500", "182048.202500", "182048.662500", "182049.122500", "182049.582500", "182050.042500", "182050.502500", "182050.962500", "182051.422500", "182051.882500", "182052.342500", "182052.802500", "182053.262500", "182053.722500", "182054.182500", "182054.642500", "182055.102500", "182055.562500", "182056.022500", "182056.482500", "182056.942500", "182057.402500", "182057.862500", "182058.322500", "182058.782500", "182059.242500", "182059.702500", "182100.162500", "182100.622500", "182101.082500", "182101.542500", "182102.002500", "182102.462500", "182102.922500", "182103.382500", "182103.842500", "182104.302500", "182104.762500", "182105.222500", "182105.682500", "182106.142500", "182106.602500", "182107.062500", "182107.522500", "182107.982500", "182108.442500", "182108.902500", "182109.362500", "182109.822500", "182110.282500", "182110.742500", "182111.202500", "182111.662500", "182112.122500", "182112.582500", "182113.042500", "182113.502500", "182113.962500", "182114.422500", "182114.882500", "182115.342500", "182115.802500", "182116.262500", "182116.722500", "182117.182500", "182117.642500", "182118.102500", "182118.562500", "182119.022500", "182119.482500", "182119.942500", "182120.402500", "182120.862500", "182121.322500", "182121.782500", "182122.242500", "182122.702500", "182123.162500", "182123.622500", "182124.082500", "182124.542500", "182125.002500", "182125.462500", "182125.922500", "182126.382500", "182126.842500", "182127.302500", "182127.762500", "182128.222500", "182128.682500", "182129.142500", "182129.602500", "182130.062500", "182130.522500", "182130.982500", "182131.442500", "182131.902500", "182132.362500", "182132.822500", "182133.282500", "182133.742500", "182134.202500", "182134.662500", "182135.122500", "182135.582500", "182136.042500", "182136.502500", "182136.962500", "182137.422500", "182137.882500", "182138.342500", "182138.802500", "182139.262500", "182139.722500", "182140.182500", "182140.642500", "182141.102500", "182141.562500", "182142.022500", "182142.482500", "182142.942500", "182143.402500", "182143.862500", "182144.322500", "182144.782500", "182145.242500", "182145.702500", "182146.162500", "182146.622500", "182147.082500", "182147.542500", "182148.002500", "182148.462500", "182148.922500", "182149.382500", "182149.842500", "182150.302500", "182150.762500", "182151.222500", "182151.682500", "182152.142500", "182152.602500", "182153.062500", "182153.522500", "182153.982500", "182154.442500", "182154.902500", "182155.362500", "182155.822500", "182156.282500", "182156.742500", "182157.202500", "182157.662500", "182158.122500", "182158.582500", "182159.042500", "182159.502500", "182159.962500", "182200.422500", "182200.882500", "182201.342500", "182201.802500", "182202.262500", "182202.722500", "182203.182500", "182203.642500", "182204.102500", "182204.562500", "182205.022500", "182205.482500", "182205.942500", "182206.402500", "182206.862500", "182207.322500", "182207.782500", "182208.242500", "182208.702500", "182209.162500", "182209.622500", "182210.082500", "182210.542500", "182211.002500", "182211.462500", "182211.922500", "182212.382500", "182212.842500", "182213.302500", "182213.762500", "182214.222500", "182214.682500", "182215.142500", "182215.602500", "182216.062500", "182216.522500", "182216.982500", "182217.442500", "182217.902500", "182218.362500", "182218.822500", "182219.282500", "182219.742500", "182220.202500", "182220.662500", "182221.122500", "182221.582500", "182222.042500", "182222.502500", "182222.962500", "182223.422500", "182223.882500", "182224.342500", "182224.802500", "182225.262500", "182225.722500", "182226.182500", "182226.642500", "182227.102500", "182227.562500", "182228.022500", "182228.482500", "182228.942500", "182229.402500", "182229.862500", "182230.322500", "182230.782500", "182231.242500", "182231.702500", "182232.162500", "182232.622500", "182233.082500", "182233.542500", "182234.002500", "182234.462500", "182234.922500", "182235.382500", "182235.842500", "182236.302500", "182236.762500", "182237.222500", "182237.682500", "182238.142500", "182238.602500", "182239.062500", "182239.522500", "182239.982500", "182240.442500", "182240.902500", "182241.362500", "182241.822500", "182242.282500", "182242.742500", "182243.202500", "182243.662500", "182244.122500", "182244.582500", "182245.042500", "182245.502500", "182245.962500", "182246.422500", "182246.882500", "182247.342500", "182247.802500", "182248.262500", "182248.722500", "182249.182500", "182249.642500", "182250.102500", "182250.562500", "182251.022500", "182251.482500", "182251.942500", "182252.402500", "182252.862500", "182253.322500", "182253.782500", "182254.242500", "182254.702500", "182255.162500", "182255.622500", "182256.082500", "182256.542500", "182257.002500", "182257.462500", "182257.922500", "182258.382500", "182258.842500", "182259.302500", "182259.762500", "182300.222500", "182300.682500", "182301.142500", "182301.602500", "182302.062500", "182302.522500", "182302.982500", "182303.442500", "182303.902500", "182304.362500", "182304.822500", "182305.282500", "182305.742500", "182306.202500", "182306.662500", "182307.122500", "182307.582500", "182308.042500", "182308.502500", "182308.962500", "182309.422500", "182309.882500", "182310.342500", "182310.802500", "182311.262500", "182311.722500", "182312.182500", "182312.642500", "182313.102500", "182313.562500", "182314.022500", "182314.482500", "182314.942500", "182315.402500", "182315.862500", "182316.322500", "182316.782500", "182317.242500", "182317.702500", "182318.162500", "182318.622500", "182319.082500", "182319.542500", "182320.002500", "182320.462500", "182320.922500", "182321.382500", "182321.842500", "182322.302500", "182322.762500", "182323.222500", "182323.682500", "182324.142500", "182324.602500", "182325.062500", "182325.522500", "182325.982500", "182326.442500", "182326.902500", "182327.362500", "182327.822500", "182328.282500", "182328.742500", "182329.202500", "182329.662500", "182330.122500", "182330.582500", "182331.042500", "182331.502500", "182331.962500", "182332.422500", "182332.882500", "182333.342500", "182333.802500", "182334.262500", "182334.722500", "182335.182500", "182335.642500", "182336.102500", "182336.562500", "182337.022500", "182337.482500", "182337.942500", "182338.402500", "182338.862500", "182339.322500", "182339.782500", "182340.242500", "182340.702500", "182341.162500", "182341.622500", "182342.082500", "182342.542500", "182343.002500", "182343.462500", "182343.922500", "182344.382500", "182344.842500", "182345.302500", "182345.762500", "182346.222500", "182346.682500", "182347.142500", "182347.602500", "182348.062500", "182348.522500", "182348.982500", "182349.442500", "182349.902500", "182350.362500", "182350.822500", "182351.282500", "182351.742500", "182352.202500", "182352.662500", "182353.122500", "182353.582500", "182354.042500", "182354.502500", "182354.962500", "182355.422500", "182355.882500", "182356.342500", "182356.802500", "182357.262500", "182357.722500", "182358.182500", "182358.642500", "182359.102500", "182359.562500", "182400.022500", "182400.482500", "182400.942500", "182401.402500", "182401.862500", "182402.322500", "182402.782500", "182403.242500", "182403.702500", "182404.162500", "182404.622500", "182405.082500", "182405.542500", "182406.002500", "182406.462500", "182406.922500", "182407.382500", "182407.842500", "182408.302500", "182408.762500", "182409.222500", "182409.682500", "182410.142500", "182410.602500", "182411.062500", "182411.522500", "182411.982500", "182412.442500", "182412.902500", "182413.362500", "182413.822500", "182414.282500", "182414.742500", "182415.202500", "182415.662500", "182416.122500", "182416.582500", "182417.042500", "182417.502500", "182417.962500", "182418.422500", "182418.882500", "182419.342500", "182419.802500", "182420.262500", "182420.722500", "182421.182500", "182421.642500", "182422.102500", "182422.562500", "182423.022500", "182423.482500", "182423.942500", "182424.402500", "182424.862500", "182425.322500", "182425.782500", "182426.242500", "182426.702500", "182427.162500", "182427.622500", "182428.082500", "182428.542500", "182429.002500", "182429.462500", "182429.922500", "182430.382500", "182430.842500", "182431.302500", "182431.762500", "182432.222500", "182432.682500", "182433.142500", "182433.602500", "182434.062500", "182434.522500", "182434.982500", "182435.442500", "182435.902500", "182436.362500", "182436.822500", "182437.282500", "182437.742500", "182438.202500", "182438.662500", "182439.122500", "182439.582500", "182440.042500", "182440.502500", "182440.962500", "182441.422500", "182441.882500", "182442.342500", "182442.802500", "182443.262500", "182443.722500", "182444.182500", "182444.642500", "182445.102500", "182445.562500", "182446.022500", "182446.482500", "182446.942500", "182447.402500", "182447.862500", "182448.322500", "182448.782500", "182449.242500", "182449.702500", "182450.162500", "182450.622500", "182451.082500", "182451.542500", "182452.002500", "182452.462500", "182452.922500", "182453.382500", "182453.842500", "182454.302500", "182454.762500", "182455.222500", "182455.682500", "182456.142500", "182456.602500", "182457.062500"],
