{
  "AcquisitionMatrixPE": 82,
  "AcquisitionNumber": 1,
  "AcquisitionTime": "18:04:42.570000",
  "BandwidthPerPixelPhaseEncode": 24.888,
  "BaseResolution": 82,
  "BodyPartExamined": "BRAIN",
  "ConsistencyInfo": "N4_VE11E_LATEST_20181129",
  "ConversionSoftware": "dcm2niix",
  "ConversionSoftwareVersion": "v1.0.20201102",
  "DerivedVendorReportedEchoSpacing": 0.00049,
  "DeviceSerialNumber": "66112",
  "DwellTime": 2e-06,
  "EchoTime": 0.0272,
  "EchoTrainLength": 82,
  "EffectiveEchoSpacing": 0.00049,
  "FlipAngle": 44,
  "ImageComments": "Unaliased MB8/PE3",
  "ImageOrientationPatientDICOM": [0.991259, -0.0467068, 0.123387, 0.0576764, 0.994548, -0.086882],
  "ImageType": [
    "ORIGINAL",
    "PRIMARY",
    "M",
    "MB",
    "ND",
    "NORM",
    "MOSAIC"
],
  "ImagingFrequency": 123.259,
  "InPlanePhaseEncodingDirectionDICOM": "COL",
  "InstitutionAddress": "Maynard 3,Hanover,NH,US,03755",
  "InstitutionName": "Dartmouth College - PBS",
  "InstitutionalDepartmentName": "Department",
  "MRAcquisitionType": "2D",
  "MagneticFieldStrength": 3,
  "Manufacturer": "Siemens",
  "ManufacturersModelName": "Prisma",
  "Modality": "MR",
  "MultibandAccelerationFactor": 8,
  "PartialFourier": 1,
  "PatientPosition": "HFS",
  "PercentPhaseFOV": 100,
  "PercentSampling": 100,
  "PhaseEncodingDirection": "j-",
  "PhaseEncodingSteps": 82,
  "PhaseResolution": 1,
  "PixelBandwidth": 3050,
  "ProcedureStepDescription": "Wager_Wager^1076_spacetop",
  "ProtocolName": "func_run-03_task-social_acq-ap-mb8",
  "PulseSequenceDetails": "%CustomerSeq%\\cmrr_mbep2d_bold",
  "ReceiveCoilActiveElements": "HEA;HEP",
  "ReceiveCoilName": "Head_32",
  "ReconMatrixPE": 82,
  "RepetitionTime": 0.46,
  "SAR": 0.0849838,
  "ScanOptions": "FS",
  "ScanningSequence": "EP",
  "SequenceName": "epfid2d1_82",
  "SequenceVariant": "SK\\SS",
  "SeriesDescription": "func_run-03_task-social_acq-ap-mb8",
  "SeriesNumber": 16,
  "ShimSetting": [4266, -7770, -7212, 189, -81, -155, -116, 29],
  "SliceThickness": 2.7,
  "SliceTiming": [0, 0.2525, 0.065, 0.315, 0.1275, 0.3775, 0.19, 0, 0.2525, 0.065, 0.315, 0.1275, 0.3775, 0.19, 0, 0.2525, 0.065, 0.315, 0.1275, 0.3775, 0.19, 0, 0.2525, 0.065, 0.315, 0.1275, 0.3775, 0.19, 0, 0.2525, 0.065, 0.315, 0.1275, 0.3775, 0.19, 0, 0.2525, 0.065, 0.315, 0.1275, 0.3775, 0.19, 0, 0.2525, 0.065, 0.315, 0.1275, 0.3775, 0.19, 0, 0.2525, 0.065, 0.315, 0.1275, 0.3775, 0.19],
  "SoftwareVersions": "syngo MR E11",
  "SpacingBetweenSlices": 2.7,
  "StationName": "AWP66112",
  "TaskName": "social",
  "TotalReadoutTime": 0.03969,
  "TxRefAmp": 235.904,
  "WipMemBlock": "fbd11fbf-62c3-4254-9bc6-5f864aa09909||Sequence: R016 ve11e/master r/434b28f1; Aug  7 2019 18:53:46 by eja",
  "dcmmeta_affine": [
    [-2.659475088119507, 0.15474151074886322, 0.32037174701690674, 93.01963806152344],
    [0.12531089782714844, 2.6682984828948975, -0.25174540281295776, -87.71002197265625],
    [0.33103811740875244, 0.23309797048568726, 2.6690797805786133, -88.02088928222656],
    [0.0, 0.0, 0.0, 1.0]
],
  "dcmmeta_reorient_transform": [
    [0.0, -1.0, 0.0, 81.0],
    [1.0, 0.0, 0.0, 0.0],
    [0.0, 0.0, 1.0, 0.0],
    [0.0, 0.0, 0.0, 1.0]
],
  "dcmmeta_shape": [82, 82, 56, 872],
  "dcmmeta_slice_dim": 2,
  "dcmmeta_version": 0.6,
  "global": {
    "const": {
      "AccessionNumber": "A004354",
      "AcquisitionMatrix": [82, 0, 0, 82],
      "AngioFlag": "N",
      "BitsAllocated": 16,
      "BitsStored": 16,
      "BodyPartExamined": "BRAIN",
      "Columns": 656,
      "EchoNumbers": 1,
      "EchoTime": 27.2,
      "EchoTrainLength": 82,
      "FlipAngle": 44.0,
      "HighBit": 15,
      "ImageOrientationPatient": [0.9912588672854, -0.0467067896819, 0.12338692728842, 0.05767638205703, 0.99454761519444, -0.0868819662754],
      "ImagePositionPatient": [-913.23386452611, -858.25961430631, -97.24877136463],
      "ImageType": [
        "ORIGINAL",
        "PRIMARY",
        "M",
        "MB",
        "ND",
        "NORM",
        "MOSAIC"
],
      "ImagedNucleus": "1H",
      "ImagingFrequency": 123.259109,
      "InPlanePhaseEncodingDirection": "COL",
      "MRAcquisitionType": "2D",
      "MagneticFieldStrength": 3.0,
      "Manufacturer": "SIEMENS",
      "ManufacturerModelName": "Prisma",
      "Modality": "MR",
      "NumberOfAverages": 1.0,
      "NumberOfPhaseEncodingSteps": 82,
      "PercentPhaseFieldOfView": 100.0,
      "PercentSampling": 100.0,
      "PerformedProcedureStepStartTime": "172533.920000",
      "PhotometricInterpretation": "MONOCHROME2",
      "PixelBandwidth": 3050.0,
      "PixelRepresentation": 0,
      "PixelSpacing": [2.6829268932343, 2.6829268932343],
      "ProtocolName": "func_run-03_task-social_acq-ap-mb8",
      "RepetitionTime": 460.0,
      "Rows": 656,
      "SAR": 0.08498383908238,
      "SamplesPerPixel": 1,
      "ScanOptions": "FS",
      "ScanningSequence": "EP",
      "SequenceName": "epfid2d1_82",
      "SequenceVariant": [
        "SK",
        "SS"
],
      "SeriesDescription": "func_run-03_task-social_acq-ap-mb8",
      "SeriesNumber": 16,
      "SeriesTime": "180511.908000",
      "SliceLocation": -67.797518377434,
      "SliceThickness": 2.7000000476837,
      "SmallestImagePixelValue": 0,
      "SoftwareVersions": "syngo MR E11",
      "SpacingBetweenSlices": 2.7000000720527,
      "SpecificCharacterSet": "ISO_IR 100",
      "StudyID": "1",
      "StudyTime": "172533.858000",
      "TransmitCoilName": "Body",
      "VariableFlipAngleFlag": "N",
      "WindowCenterWidthExplanation": "Algo1"
    },
    "slices": {}
  },
  "time": {
    "samples": {
      "AcquisitionNumber": [1, 2, 3, 4, 5, 6, 7, 8, 9, 10, 11, 12, 13, 14, 15, 16, 17, 18, 19, 20, 21, 22, 23, 24, 25, 26, 27, 28, 29, 30, 31, 32, 33, 34, 35, 36, 37, 38, 39, 40, 41, 42, 43, 44, 45, 46, 47, 48, 49, 50, 51, 52, 53, 54, 55, 56, 57, 58, 59, 60, 61, 62, 63, 64, 65, 66, 67, 68, 69, 70, 71, 72, 73, 74, 75, 76, 77, 78, 79, 80, 81, 82, 83, 84, 85, 86, 87, 88, 89, 90, 91, 92, 93, 94, 95, 96, 97, 98, 99, 100, 101, 102, 103, 104, 105, 106, 107, 108, 109, 110, 111, 112, 113, 114, 115, 116, 117, 118, 119, 120, 121, 122, 123, 124, 125, 126, 127, 128, 129, 130, 131, 132, 133, 134, 135, 136, 137, 138, 139, 140, 141, 142, 143, 144, 145, 146, 147, 148, 149, 150, 151, 152, 153, 154, 155, 156, 157, 158, 159, 160, 161, 162, 163, 164, 165, 166, 167, 168, 169, 170, 171, 172, 173, 174, 175, 176, 177, 178, 179, 180, 181, 182, 183, 184, 185, 186, 187, 188, 189, 190, 191, 192, 193, 194, 195, 196, 197, 198, 199, 200, 201, 202, 203, 204, 205, 206, 207, 208, 209, 210, 211, 212, 213, 214, 215, 216, 217, 218, 219, 220, 221, 222, 223, 224, 225, 226, 227, 228, 229, 230, 231, 232, 233, 234, 235, 236, 237, 238, 239, 240, 241, 242, 243, 244, 245, 246, 247, 248, 249, 250, 251, 252, 253, 254, 255, 256, 257, 258, 259, 260, 261, 262, 263, 264, 265, 266, 267, 268, 269, 270, 271, 272, 273, 274, 275, 276, 277, 278, 279, 280, 281, 282, 283, 284, 285, 286, 287, 288, 289, 290, 291, 292, 293, 294, 295, 296, 297, 298, 299, 300, 301, 302, 303, 304, 305, 306, 307, 308, 309, 310, 311, 312, 313, 314, 315, 316, 317, 318, 319, 320, 321, 322, 323, 324, 325, 326, 327, 328, 329, 330, 331, 332, 333, 334, 335, 336, 337, 338, 339, 340, 341, 342, 343, 344, 345, 346, 347, 348, 349, 350, 351, 352, 353, 354, 355, 356, 357, 358, 359, 360, 361, 362, 363, 364, 365, 366, 367, 368, 369, 370, 371, 372, 373, 374, 375, 376, 377, 378, 379, 380, 381, 382, 383, 384, 385, 386, 387, 388, 389, 390, 391, 392, 393, 394, 395, 396, 397, 398, 399, 400, 401, 402, 403, 404, 405, 406, 407, 408, 409, 410, 411, 412, 413, 414, 415, 416, 417, 418, 419, 420, 421, 422, 423, 424, 425, 426, 427, 428, 429, 430, 431, 432, 433, 434, 435, 436, 437, 438, 439, 440, 441, 442, 443, 444, 445, 446, 447, 448, 449, 450, 451, 452, 453, 454, 455, 456, 457, 458, 459, 460, 461, 462, 463, 464, 465, 466, 467, 468, 469, 470, 471, 472, 473, 474, 475, 476, 477, 478, 479, 480, 481, 482, 483, 484, 485, 486, 487, 488, 489, 490, 491, 492, 493, 494, 495, 496, 497, 498, 499, 500, 501, 502, 503, 504, 505, 506, 507, 508, 509, 510, 511, 512, 513, 514, 515, 516, 517, 518, 519, 520, 521, 522, 523, 524, 525, 526, 527, 528, 529, 530, 531, 532, 533, 534, 535, 536, 537, 538, 539, 540, 541, 542, 543, 544, 545, 546, 547, 548, 549, 550, 551, 552, 553, 554, 555, 556, 557, 558, 559, 560, 561, 562, 563, 564, 565, 566, 567, 568, 569, 570, 571, 572, 573, 574, 575, 576, 577, 578, 579, 580, 581, 582, 583, 584, 585, 586, 587, 588, 589, 590, 591, 592, 593, 594, 595, 596, 597, 598, 599, 600, 601, 602, 603, 604, 605, 606, 607, 608, 609, 610, 611, 612, 613, 614, 615, 616, 617, 618, 619, 620, 621, 622, 623, 624, 625, 626, 627, 628, 629, 630, 631, 632, 633, 634, 635, 636, 637, 638, 639, 640, 641, 642, 643, 644, 645, 646, 647, 648, 649, 650, 651, 652, 653, 654, 655, 656, 657, 658, 659, 660, 661, 662, 663, 664, 665, 666, 667, 668, 669, 670, 671, 672, 673, 674, 675, 676, 677, 678, 679, 680, 681, 682, 683, 684, 685, 686, 687, 688, 689, 690, 691, 692, 693, 694, 695, 696, 697, 698, 699, 700, 701, 702, 703, 704, 705, 706, 707, 708, 709, 710, 711, 712, 713, 714, 715, 716, 717, 718, 719, 720, 721, 722, 723, 724, 725, 726, 727, 728, 729, 730, 731, 732, 733, 734, 735, 736, 737, 738, 739, 740, 741, 742, 743, 744, 745, 746, 747, 748, 749, 750, 751, 752, 753, 754, 755, 756, 757, 758, 759, 760, 761, 762, 763, 764, 765, 766, 767, 768, 769, 770, 771, 772, 773, 774, 775, 776, 777, 778, 779, 780, 781, 782, 783, 784, 785, 786, 787, 788, 789, 790, 791, 792, 793, 794, 795, 796, 797, 798, 799, 800, 801, 802, 803, 804, 805, 806, 807, 808, 809, 810, 811, 812, 813, 814, 815, 816, 817, 818, 819, 820, 821, 822, 823, 824, 825, 826, 827, 828, 829, 830, 831, 832, 833, 834, 835, 836, 837, 838, 839, 840, 841, 842, 843, 844, 845, 846, 847, 848, 849, 850, 851, 852, 853, 854, 855, 856, 857, 858, 859, 860, 861, 862, 863, 864, 865, 866, 867, 868, 869, 870, 871, 872],
      "AcquisitionTime": ["180442.570000", "180443.030000", "180443.490000", "180443.950000", "180444.410000", "180444.870000", "180445.330000", "180445.790000", "180446.250000", "180446.710000", "180447.170000", "180447.630000", "180448.090000", "180448.550000", "180449.010000", "180449.470000", "180449.930000", "180450.390000", "180450.850000", "180451.310000", "180451.770000", "180452.230000", "180452.690000", "180453.150000", "180453.610000", "180454.070000", "180454.530000", "180454.990000", "180455.450000", "180455.910000", "180456.370000", "180456.830000", "180457.290000", "180457.750000", "180458.210000", "180458.670000", "180459.130000", "180459.590000", "180500.050000", "180500.510000", "180500.970000", "180501.430000", "180501.890000", "180502.350000", "180502.810000", "180503.270000", "180503.730000", "180504.190000", "180504.650000", "180505.110000", "180505.570000", "180506.030000", "180506.490000", "180506.950000", "180507.410000", "180507.870000", "180508.330000", "180508.790000", "180509.250000", "180509.710000", "180510.170000", "180510.630000", "180511.090000", "180511.550000", "180512.010000", "180512.470000", "180512.930000", "180513.390000", "180513.850000", "180514.310000", "180514.770000", "180515.230000", "180515.690000", "180516.150000", "180516.610000", "180517.070000", "180517.530000", "180517.990000", "180518.450000", "180518.910000", "180519.370000", "180519.830000", "180520.290000", "180520.750000", "180521.210000", "180521.670000", "180522.130000", "180522.590000", "180523.050000", "180523.510000", "180523.970000", "180524.430000", "180524.890000", "180525.350000", "180525.810000", "180526.270000", "180526.730000", "180527.190000", "180527.650000", "180528.110000", "180528.570000", "180529.030000", "180529.490000", "180529.950000", "180530.410000", "180530.870000", "180531.330000", "180531.790000", "180532.250000", "180532.710000", "180533.170000", "180533.630000", "180534.090000", "180534.550000", "180535.010000", "180535.470000", "180535.930000", "180536.390000", "180536.850000", "180537.310000", "180537.770000", "180538.230000", "180538.690000", "180539.150000", "180539.610000", "180540.070000", "180540.530000", "180540.990000", "180541.450000", "180541.910000", "180542.370000", "180542.830000", "180543.290000", "180543.750000", "180544.210000", "180544.670000", "180545.130000", "180545.590000", "180546.050000", "180546.510000", "180546.970000", "180547.430000", "180547.890000", "180548.350000", "180548.810000", "180549.270000", "180549.730000", "180550.190000", "180550.650000", "180551.110000", "180551.570000", "180552.030000", "180552.490000", "180552.950000", "180553.410000", "180553.870000", "180554.330000", "180554.790000", "180555.250000", "180555.710000", "180556.170000", "180556.630000", "180557.090000", "180557.550000", "180558.010000", "180558.470000", "180558.930000", "180559.390000", "180559.850000", "180600.310000", "180600.770000", "180601.230000", "180601.690000", "180602.150000", "180602.610000", "180603.070000", "180603.530000", "180603.990000", "180604.450000", "180604.910000", "180605.370000", "180605.830000", "180606.290000", "180606.750000", "180607.210000", "180607.670000", "180608.130000", "180608.590000", "180609.050000", "180609.510000", "180609.970000", "180610.430000", "180610.890000", "180611.350000", "180611.810000", "180612.270000", "180612.730000", "180613.190000", "180613.650000", "180614.110000", "180614.570000", "180615.030000", "180615.490000", "180615.950000", "180616.410000", "180616.870000", "180617.330000", "180617.790000", "180618.250000", "180618.710000", "180619.170000", "180619.630000", "180620.090000", "180620.550000", "180621.010000", "180621.470000", "180621.930000", "180622.390000", "180622.850000", "180623.310000", "180623.770000", "180624.230000", "180624.690000", "180625.150000", "180625.610000", "180626.070000", "180626.530000", "180626.990000", "180627.450000", "180627.910000", "180628.370000", "180628.830000", "180629.290000", "180629.750000", "180630.210000", "180630.670000", "180631.130000", "180631.590000", "180632.050000", "180632.510000", "180632.970000", "180633.430000", "180633.890000", "180634.350000", "180634.810000", "180635.270000", "180635.730000", "180636.190000", "180636.650000", "180637.110000", "180637.570000", "180638.030000", "180638.490000", "180638.950000", "180639.410000", "180639.870000", "180640.330000", "180640.790000", "180641.250000", "180641.710000", "180642.170000", "180642.630000", "180643.090000", "180643.550000", "180644.010000", "180644.470000", "180644.930000", "180645.390000", "180645.850000", "180646.310000", "180646.770000", "180647.230000", "180647.690000", "180648.150000", "180648.610000", "180649.070000", "180649.530000", "180649.990000", "180650.450000", "180650.910000", "180651.370000", "180651.830000", "180652.290000", "180652.750000", "180653.210000", "180653.670000", "180654.130000", "180654.590000", "180655.050000", "180655.510000", "180655.970000", "180656.430000", "180656.890000", "180657.350000", "180657.810000", "180658.270000", "180658.730000", "180659.190000", "180659.650000", "180700.110000", "180700.570000", "180701.030000", "180701.490000", "180701.950000", "180702.410000", "180702.870000", "180703.330000", "180703.790000", "180704.250000", "180704.710000", "180705.170000", "180705.630000", "180706.090000", "180706.550000", "180707.010000", "180707.470000", "180707.930000", "180708.390000", "180708.850000", "180709.310000", "180709.770000", "180710.230000", "180710.690000", "180711.150000", "180711.610000", "180712.070000", "180712.530000", "180712.990000", "180713.450000", "180713.910000", "180714.370000", "180714.830000", "180715.290000", "180715.750000", "180716.210000", "180716.670000", "180717.130000", "180717.590000", "180718.050000", "180718.510000", "180718.970000", "180719.430000", "180719.890000", "180720.350000", "180720.810000", "180721.270000", "180721.730000", "180722.190000", "180722.650000", "180723.110000", "180723.570000", "180724.030000", "180724.490000", "180724.950000", "180725.410000", "180725.870000", "180726.330000", "180726.790000", "180727.250000", "180727.710000", "180728.170000", "180728.630000", "180729.090000", "180729.550000", "180730.010000", "180730.470000", "180730.930000", "180731.390000", "180731.850000", "180732.310000", "180732.770000", "180733.230000", "180733.690000", "180734.150000", "180734.610000", "180735.070000", "180735.530000", "180735.990000", "180736.450000", "180736.910000", "180737.370000", "180737.830000", "180738.290000", "180738.750000", "180739.210000", "180739.670000", "180740.130000", "180740.590000", "180741.050000", "180741.510000", "180741.970000", "180742.430000", "180742.890000", "180743.350000", "180743.810000", "180744.270000", "180744.730000", "180745.190000", "180745.650000", "180746.110000", "180746.570000", "180747.030000", "180747.490000", "180747.950000", "180748.410000", "180748.870000", "180749.330000", "180749.790000", "180750.250000", "180750.710000", "180751.170000", "180751.630000", "180752.090000", "180752.550000", "180753.010000", "180753.470000", "180753.930000", "180754.390000", "180754.850000", "180755.310000", "180755.770000", "180756.230000", "180756.690000", "180757.150000", "180757.610000", "180758.070000", "180758.530000", "180758.990000", "180759.450000", "180759.910000", "180800.370000", "180800.830000", "180801.290000", "180801.750000", "180802.210000", "180802.670000", "180803.130000", "180803.590000", "180804.050000", "180804.510000", "180804.970000", "180805.430000", "180805.890000", "180806.350000", "180806.810000", "180807.270000", "180807.730000", "180808.190000", "180808.650000", "180809.110000", "180809.570000", "180810.030000", "180810.490000", "180810.950000", "180811.410000", "180811.870000", "180812.330000", "180812.790000", "180813.250000", "180813.710000", "180814.170000", "180814.630000", "180815.090000", "180815.550000", "180816.010000", "180816.470000", "180816.930000", "180817.390000", "180817.850000", "180818.310000", "180818.770000", "180819.230000", "180819.690000", "180820.150000", "180820.610000", "180821.070000", "180821.530000", "180821.990000", "180822.450000", "180822.910000", "180823.370000", "180823.830000", "180824.290000", "180824.750000", "180825.210000", "180825.670000", "180826.130000", "180826.590000", "180827.050000", "180827.510000", "180827.970000", "180828.430000", "180828.890000", "180829.350000", "180829.810000", "180830.270000", "180830.730000", "180831.190000", "180831.650000", "180832.110000", "180832.570000", "180833.030000", "180833.490000", "180833.950000", "180834.410000", "180834.870000", "180835.330000", "180835.790000", "180836.250000", "180836.710000", "180837.170000", "180837.630000", "180838.090000", "180838.550000", "180839.010000", "180839.470000", "180839.930000", "180840.390000", "180840.850000", "180841.310000", "180841.770000", "180842.230000", "180842.690000", "180843.150000", "180843.610000", "180844.070000", "180844.530000", "180844.990000", "180845.450000", "180845.910000", "180846.370000", "180846.830000", "180847.290000", "180847.750000", "180848.210000", "180848.670000", "180849.130000", "180849.590000", "180850.050000", "180850.510000", "180850.970000", "180851.430000", "180851.890000", "180852.350000", "180852.810000", "180853.270000", "180853.730000", "180854.190000", "180854.650000", "180855.110000", "180855.570000", "180856.030000", "180856.490000", "180856.950000", "180857.410000", "180857.870000", "180858.330000", "180858.790000", "180859.250000", "180859.710000", "180900.170000", "180900.630000", "180901.090000", "180901.550000", "180902.010000", "180902.470000", "180902.930000", "180903.390000", "180903.850000", "180904.310000", "180904.770000", "180905.230000", "180905.690000", "180906.150000", "180906.610000", "180907.070000", "180907.530000", "180907.990000", "180908.450000", "180908.910000", "180909.370000", "180909.830000", "180910.290000", "180910.750000", "180911.210000", "180911.670000", "180912.130000", "180912.590000", "180913.050000", "180913.510000", "180913.970000", "180914.430000", "180914.890000", "180915.350000", "180915.810000", "180916.270000", "180916.730000", "180917.190000", "180917.650000", "180918.110000", "180918.570000", "180919.030000", "180919.490000", "180919.950000", "180920.410000", "180920.870000", "180921.330000", "180921.790000", "180922.250000", "180922.710000", "180923.170000", "180923.630000", "180924.090000", "180924.550000", "180925.010000", "180925.470000", "180925.930000", "180926.390000", "180926.850000", "180927.310000", "180927.770000", "180928.230000", "180928.690000", "180929.150000", "180929.610000", "180930.070000", "180930.530000", "180930.990000", "180931.450000", "180931.910000", "180932.370000", "180932.830000", "180933.290000", "180933.750000", "180934.210000", "180934.670000", "180935.130000", "180935.590000", "180936.050000", "180936.510000", "180936.970000", "180937.430000", "180937.890000", "180938.350000", "180938.810000", "180939.270000", "180939.730000", "180940.190000", "180940.650000", "180941.110000", "180941.570000", "180942.030000", "180942.490000", "180942.950000", "180943.410000", "180943.870000", "180944.330000", "180944.790000", "180945.250000", "180945.710000", "180946.170000", "180946.630000", "180947.090000", "180947.550000", "180948.010000", "180948.470000", "180948.930000", "180949.390000", "180949.850000", "180950.310000", "180950.770000", "180951.230000", "180951.690000", "180952.150000", "180952.610000", "180953.070000", "180953.530000", "180953.990000", "180954.450000", "180954.910000", "180955.370000", "180955.830000", "180956.290000", "180956.750000", "180957.210000", "180957.670000", "180958.130000", "180958.590000", "180959.050000", "180959.510000", "180959.970000", "181000.430000", "181000.890000", "181001.350000", "181001.810000", "181002.270000", "181002.730000", "181003.190000", "181003.650000", "181004.110000", "181004.570000", "181005.030000", "181005.490000", "181005.950000", "181006.410000", "181006.870000", "181007.330000", "181007.790000", "181008.250000", "181008.710000", "181009.170000", "181009.630000", "181010.090000", "181010.550000", "181011.010000", "181011.470000", "181011.930000", "181012.390000", "181012.850000", "181013.310000", "181013.770000", "181014.230000", "181014.690000", "181015.150000", "181015.610000", "181016.070000", "181016.530000", "181016.990000", "181017.450000", "181017.910000", "181018.370000", "181018.830000", "181019.290000", "181019.750000", "181020.210000", "181020.670000", "181021.130000", "181021.590000", "181022.050000", "181022.510000", "181022.970000", "181023.430000", "181023.890000", "181024.350000", "181024.810000", "181025.270000", "181025.730000", "181026.190000", "181026.650000", "181027.110000", "181027.570000", "181028.030000", "181028.490000", "181028.950000", "181029.410000", "181029.870000", "181030.330000", "181030.790000", "181031.250000", "181031.710000", "181032.170000", "181032.630000", "181033.090000", "181033.550000", "181034.010000", "181034.470000", "181034.930000", "181035.390000", "181035.850000", "181036.310000", "181036.770000", "181037.230000", "181037.690000", "181038.150000", "181038.610000", "181039.070000", "181039.530000", "181039.990000", "181040.450000", "181040.910000", "181041.370000", "181041.830000", "181042.290000", "181042.750000", "181043.210000", "181043.670000", "181044.130000", "181044.590000", "181045.050000", "181045.510000", "181045.970000", "181046.430000", "181046.890000", "181047.350000", "181047.810000", "181048.270000", "181048.730000", "181049.190000", "181049.650000", "181050.110000", "181050.570000", "181051.030000", "181051.490000", "181051.950000", "181052.410000", "181052.870000", "181053.330000", "181053.790000", "181054.250000", "181054.710000", "181055.170000", "181055.630000", "181056.090000", "181056.550000", "181057.010000", "181057.470000", "181057.930000", "181058.390000", "181058.850000", "181059.310000", "181059.770000", "181100.230000", "181100.690000", "181101.150000", "181101.610000", "181102.070000", "181102.530000", "181102.990000", "181103.450000", "181103.910000", "181104.370000", "181104.830000", "181105.290000", "181105.750000", "181106.210000", "181106.670000", "181107.130000", "181107.590000", "181108.050000", "181108.510000", "181108.970000", "181109.430000", "181109.890000", "181110.350000", "181110.810000", "181111.270000", "181111.730000", "181112.190000", "181112.650000", "181113.110000", "181113.570000", "181114.030000", "181114.490000", "181114.950000", "181115.410000", "181115.870000", "181116.330000", "181116.790000", "181117.250000", "181117.710000", "181118.170000", "181118.630000", "181119.090000", "181119.550000", "181120.010000", "181120.470000", "181120.930000", "181121.390000", "181121.850000", "181122.310000", "181122.770000", "181123.230000"],
