{
  "AcquisitionMatrixPE": 82,
  "AcquisitionNumber": 1,
  "AcquisitionTime": "17:57:46.107500",
  "BandwidthPerPixelPhaseEncode": 24.888,
  "BaseResolution": 82,
  "BodyPartExamined": "BRAIN",
  "ConsistencyInfo": "N4_VE11E_LATEST_20181129",
  "ConversionSoftware": "dcm2niix",
  "ConversionSoftwareVersion": "v1.0.20201102",
  "DerivedVendorReportedEchoSpacing": 0.00049,
  "DeviceSerialNumber": "66112",
  "DwellTime": 2e-06,
  "EchoTime": 0.0272,
  "EchoTrainLength": 82,
  "EffectiveEchoSpacing": 0.00049,
  "FlipAngle": 44,
  "ImageComments": "Unaliased MB8/PE3",
  "ImageOrientationPatientDICOM": [0.991259, -0.0467068, 0.123387, 0.0576764, 0.994548, -0.086882],
  "ImageType": [
    "ORIGINAL",
    "PRIMARY",
    "M",
    "MB",
    "ND",
    "NORM",
    "MOSAIC"
],
  "ImagingFrequency": 123.259,
  "InPlanePhaseEncodingDirectionDICOM": "COL",
  "InstitutionAddress": "Maynard 3,Hanover,NH,US,03755",
  "InstitutionName": "Dartmouth College - PBS",
  "InstitutionalDepartmentName": "Department",
  "MRAcquisitionType": "2D",
  "MagneticFieldStrength": 3,
  "Manufacturer": "Siemens",
  "ManufacturersModelName": "Prisma",
  "Modality": "MR",
  "MultibandAccelerationFactor": 8,
  "PartialFourier": 1,
  "PatientPosition": "HFS",
  "PercentPhaseFOV": 100,
  "PercentSampling": 100,
  "PhaseEncodingDirection": "j-",
  "PhaseEncodingSteps": 82,
  "PhaseResolution": 1,
  "PixelBandwidth": 3050,
  "ProcedureStepDescription": "Wager_Wager^1076_spacetop",
  "ProtocolName": "func_run-02_task-social_acq-ap-mb8",
  "PulseSequenceDetails": "%CustomerSeq%\\cmrr_mbep2d_bold",
  "ReceiveCoilActiveElements": "HEA;HEP",
  "ReceiveCoilName": "Head_32",
  "ReconMatrixPE": 82,
  "RepetitionTime": 0.46,
  "SAR": 0.0849838,
  "ScanOptions": "FS",
  "ScanningSequence": "EP",
  "SequenceName": "epfid2d1_82",
  "SequenceVariant": "SK\\SS",
  "SeriesDescription": "func_run-02_task-social_acq-ap-mb8",
  "SeriesNumber": 14,
  "ShimSetting": [4266, -7770, -7212, 189, -81, -155, -116, 29],
  "SliceThickness": 2.7,
  "SliceTiming": [0, 0.2525, 0.065, 0.315, 0.1275, 0.3775, 0.19, 0, 0.2525, 0.065, 0.315, 0.1275, 0.3775, 0.19, 0, 0.2525, 0.065, 0.315, 0.1275, 0.3775, 0.19, 0, 0.2525, 0.065, 0.315, 0.1275, 0.3775, 0.19, 0, 0.2525, 0.065, 0.315, 0.1275, 0.3775, 0.19, 0, 0.2525, 0.065, 0.315, 0.1275, 0.3775, 0.19, 0, 0.2525, 0.065, 0.315, 0.1275, 0.3775, 0.19, 0, 0.2525, 0.065, 0.315, 0.1275, 0.3775, 0.19],
  "SoftwareVersions": "syngo MR E11",
  "SpacingBetweenSlices": 2.7,
  "StationName": "AWP66112",
  "TaskName": "social",
  "TotalReadoutTime": 0.03969,
  "TxRefAmp": 235.904,
  "WipMemBlock": "a3219f90-1f59-458c-8857-954d3598124c||Sequence: R016 ve11e/master r/434b28f1; Aug  7 2019 18:53:46 by eja",
  "dcmmeta_affine": [
    [-2.659475088119507, 0.15474151074886322, 0.32037174701690674, 93.01963806152344],
    [0.12531089782714844, 2.6682984828948975, -0.25174540281295776, -87.71002197265625],
    [0.33103811740875244, 0.23309797048568726, 2.6690797805786133, -88.02088928222656],
    [0.0, 0.0, 0.0, 1.0]
],
  "dcmmeta_reorient_transform": [
    [0.0, -1.0, 0.0, 81.0],
    [1.0, 0.0, 0.0, 0.0],
    [0.0, 0.0, 1.0, 0.0],
    [0.0, 0.0, 0.0, 1.0]
],
  "dcmmeta_shape": [82, 82, 56, 872],
  "dcmmeta_slice_dim": 2,
  "dcmmeta_version": 0.6,
  "global": {
    "const": {
      "AccessionNumber": "A004354",
      "AcquisitionMatrix": [82, 0, 0, 82],
      "AngioFlag": "N",
      "BitsAllocated": 16,
      "BitsStored": 16,
      "BodyPartExamined": "BRAIN",
      "Columns": 656,
      "EchoNumbers": 1,
      "EchoTime": 27.2,
      "EchoTrainLength": 82,
      "FlipAngle": 44.0,
      "HighBit": 15,
      "ImageOrientationPatient": [0.9912588672854, -0.0467067896819, 0.12338692728842, 0.05767638205703, 0.99454761519444, -0.0868819662754],
      "ImagePositionPatient": [-913.23386452611, -858.25961430631, -97.24877136463],
      "ImageType": [
        "ORIGINAL",
        "PRIMARY",
        "M",
        "MB",
        "ND",
        "NORM",
        "MOSAIC"
],
      "ImagedNucleus": "1H",
      "ImagingFrequency": 123.259106,
      "InPlanePhaseEncodingDirection": "COL",
      "MRAcquisitionType": "2D",
      "MagneticFieldStrength": 3.0,
      "Manufacturer": "SIEMENS",
      "ManufacturerModelName": "Prisma",
      "Modality": "MR",
      "NumberOfAverages": 1.0,
      "NumberOfPhaseEncodingSteps": 82,
      "PercentPhaseFieldOfView": 100.0,
      "PercentSampling": 100.0,
      "PerformedProcedureStepStartTime": "172533.920000",
      "PhotometricInterpretation": "MONOCHROME2",
      "PixelBandwidth": 3050.0,
      "PixelRepresentation": 0,
      "PixelSpacing": [2.6829268932343, 2.6829268932343],
      "ProtocolName": "func_run-02_task-social_acq-ap-mb8",
      "RepetitionTime": 460.0,
      "Rows": 656,
      "SAR": 0.08498383908238,
      "SamplesPerPixel": 1,
      "ScanOptions": "FS",
      "ScanningSequence": "EP",
      "SequenceName": "epfid2d1_82",
      "SequenceVariant": [
        "SK",
        "SS"
],
      "SeriesDescription": "func_run-02_task-social_acq-ap-mb8",
      "SeriesNumber": 14,
      "SeriesTime": "175811.799000",
      "SliceLocation": -67.797518377434,
      "SliceThickness": 2.7000000476837,
      "SmallestImagePixelValue": 0,
      "SoftwareVersions": "syngo MR E11",
      "SpacingBetweenSlices": 2.7000000720527,
      "SpecificCharacterSet": "ISO_IR 100",
      "StudyID": "1",
      "StudyTime": "172533.858000",
      "TransmitCoilName": "Body",
      "VariableFlipAngleFlag": "N",
      "WindowCenterWidthExplanation": "Algo1"
    },
    "slices": {}
  },
  "time": {
    "samples": {
      "AcquisitionNumber": [1, 2, 3, 4, 5, 6, 7, 8, 9, 10, 11, 12, 13, 14, 15, 16, 17, 18, 19, 20, 21, 22, 23, 24, 25, 26, 27, 28, 29, 30, 31, 32, 33, 34, 35, 36, 37, 38, 39, 40, 41, 42, 43, 44, 45, 46, 47, 48, 49, 50, 51, 52, 53, 54, 55, 56, 57, 58, 59, 60, 61, 62, 63, 64, 65, 66, 67, 68, 69, 70, 71, 72, 73, 74, 75, 76, 77, 78, 79, 80, 81, 82, 83, 84, 85, 86, 87, 88, 89, 90, 91, 92, 93, 94, 95, 96, 97, 98, 99, 100, 101, 102, 103, 104, 105, 106, 107, 108, 109, 110, 111, 112, 113, 114, 115, 116, 117, 118, 119, 120, 121, 122, 123, 124, 125, 126, 127, 128, 129, 130, 131, 132, 133, 134, 135, 136, 137, 138, 139, 140, 141, 142, 143, 144, 145, 146, 147, 148, 149, 150, 151, 152, 153, 154, 155, 156, 157, 158, 159, 160, 161, 162, 163, 164, 165, 166, 167, 168, 169, 170, 171, 172, 173, 174, 175, 176, 177, 178, 179, 180, 181, 182, 183, 184, 185, 186, 187, 188, 189, 190, 191, 192, 193, 194, 195, 196, 197, 198, 199, 200, 201, 202, 203, 204, 205, 206, 207, 208, 209, 210, 211, 212, 213, 214, 215, 216, 217, 218, 219, 220, 221, 222, 223, 224, 225, 226, 227, 228, 229, 230, 231, 232, 233, 234, 235, 236, 237, 238, 239, 240, 241, 242, 243, 244, 245, 246, 247, 248, 249, 250, 251, 252, 253, 254, 255, 256, 257, 258, 259, 260, 261, 262, 263, 264, 265, 266, 267, 268, 269, 270, 271, 272, 273, 274, 275, 276, 277, 278, 279, 280, 281, 282, 283, 284, 285, 286, 287, 288, 289, 290, 291, 292, 293, 294, 295, 296, 297, 298, 299, 300, 301, 302, 303, 304, 305, 306, 307, 308, 309, 310, 311, 312, 313, 314, 315, 316, 317, 318, 319, 320, 321, 322, 323, 324, 325, 326, 327, 328, 329, 330, 331, 332, 333, 334, 335, 336, 337, 338, 339, 340, 341, 342, 343, 344, 345, 346, 347, 348, 349, 350, 351, 352, 353, 354, 355, 356, 357, 358, 359, 360, 361, 362, 363, 364, 365, 366, 367, 368, 369, 370, 371, 372, 373, 374, 375, 376, 377, 378, 379, 380, 381, 382, 383, 384, 385, 386, 387, 388, 389, 390, 391, 392, 393, 394, 395, 396, 397, 398, 399, 400, 401, 402, 403, 404, 405, 406, 407, 408, 409, 410, 411, 412, 413, 414, 415, 416, 417, 418, 419, 420, 421, 422, 423, 424, 425, 426, 427, 428, 429, 430, 431, 432, 433, 434, 435, 436, 437, 438, 439, 440, 441, 442, 443, 444, 445, 446, 447, 448, 449, 450, 451, 452, 453, 454, 455, 456, 457, 458, 459, 460, 461, 462, 463, 464, 465, 466, 467, 468, 469, 470, 471, 472, 473, 474, 475, 476, 477, 478, 479, 480, 481, 482, 483, 484, 485, 486, 487, 488, 489, 490, 491, 492, 493, 494, 495, 496, 497, 498, 499, 500, 501, 502, 503, 504, 505, 506, 507, 508, 509, 510, 511, 512, 513, 514, 515, 516, 517, 518, 519, 520, 521, 522, 523, 524, 525, 526, 527, 528, 529, 530, 531, 532, 533, 534, 535, 536, 537, 538, 539, 540, 541, 542, 543, 544, 545, 546, 547, 548, 549, 550, 551, 552, 553, 554, 555, 556, 557, 558, 559, 560, 561, 562, 563, 564, 565, 566, 567, 568, 569, 570, 571, 572, 573, 574, 575, 576, 577, 578, 579, 580, 581, 582, 583, 584, 585, 586, 587, 588, 589, 590, 591, 592, 593, 594, 595, 596, 597, 598, 599, 600, 601, 602, 603, 604, 605, 606, 607, 608, 609, 610, 611, 612, 613, 614, 615, 616, 617, 618, 619, 620, 621, 622, 623, 624, 625, 626, 627, 628, 629, 630, 631, 632, 633, 634, 635, 636, 637, 638, 639, 640, 641, 642, 643, 644, 645, 646, 647, 648, 649, 650, 651, 652, 653, 654, 655, 656, 657, 658, 659, 660, 661, 662, 663, 664, 665, 666, 667, 668, 669, 670, 671, 672, 673, 674, 675, 676, 677, 678, 679, 680, 681, 682, 683, 684, 685, 686, 687, 688, 689, 690, 691, 692, 693, 694, 695, 696, 697, 698, 699, 700, 701, 702, 703, 704, 705, 706, 707, 708, 709, 710, 711, 712, 713, 714, 715, 716, 717, 718, 719, 720, 721, 722, 723, 724, 725, 726, 727, 728, 729, 730, 731, 732, 733, 734, 735, 736, 737, 738, 739, 740, 741, 742, 743, 744, 745, 746, 747, 748, 749, 750, 751, 752, 753, 754, 755, 756, 757, 758, 759, 760, 761, 762, 763, 764, 765, 766, 767, 768, 769, 770, 771, 772, 773, 774, 775, 776, 777, 778, 779, 780, 781, 782, 783, 784, 785, 786, 787, 788, 789, 790, 791, 792, 793, 794, 795, 796, 797, 798, 799, 800, 801, 802, 803, 804, 805, 806, 807, 808, 809, 810, 811, 812, 813, 814, 815, 816, 817, 818, 819, 820, 821, 822, 823, 824, 825, 826, 827, 828, 829, 830, 831, 832, 833, 834, 835, 836, 837, 838, 839, 840, 841, 842, 843, 844, 845, 846, 847, 848, 849, 850, 851, 852, 853, 854, 855, 856, 857, 858, 859, 860, 861, 862, 863, 864, 865, 866, 867, 868, 869, 870, 871, 872],
      "AcquisitionTime": ["175746.107500", "175746.567500", "175747.027500", "175747.487500", "175747.947500", "175748.407500", "175748.867500", "175749.327500", "175749.787500", "175750.247500", "175750.707500", "175751.167500", "175751.627500", "175752.087500", "175752.547500", "175753.007500", "175753.467500", "175753.927500", "175754.387500", "175754.847500", "175755.307500", "175755.767500", "175756.227500", "175756.687500", "175757.147500", "175757.607500", "175758.067500", "175758.527500", "175758.987500", "175759.447500", "175759.907500", "175800.367500", "175800.827500", "175801.287500", "175801.747500", "175802.207500", "175802.667500", "175803.127500", "175803.587500", "175804.047500", "175804.507500", "175804.967500", "175805.427500", "175805.887500", "175806.347500", "175806.807500", "175807.267500", "175807.727500", "175808.187500", "175808.647500", "175809.107500", "175809.567500", "175810.027500", "175810.487500", "175810.947500", "175811.407500", "175811.867500", "175812.327500", "175812.787500", "175813.247500", "175813.707500", "175814.167500", "175814.627500", "175815.087500", "175815.547500", "175816.007500", "175816.467500", "175816.927500", "175817.387500", "175817.847500", "175818.307500", "175818.767500", "175819.227500", "175819.687500", "175820.147500", "175820.607500", "175821.067500", "175821.527500", "175821.987500", "175822.447500", "175822.907500", "175823.367500", "175823.827500", "175824.287500", "175824.747500", "175825.207500", "175825.667500", "175826.127500", "175826.587500", "175827.047500", "175827.507500", "175827.967500", "175828.427500", "175828.887500", "175829.347500", "175829.807500", "175830.267500", "175830.727500", "175831.187500", "175831.647500", "175832.107500", "175832.567500", "175833.027500", "175833.487500", "175833.947500", "175834.407500", "175834.867500", "175835.327500", "175835.787500", "175836.247500", "175836.707500", "175837.167500", "175837.627500", "175838.087500", "175838.547500", "175839.007500", "175839.467500", "175839.927500", "175840.387500", "175840.847500", "175841.307500", "175841.767500", "175842.227500", "175842.687500", "175843.147500", "175843.607500", "175844.067500", "175844.527500", "175844.987500", "175845.447500", "175845.907500", "175846.367500", "175846.827500", "175847.287500", "175847.747500", "175848.207500", "175848.667500", "175849.127500", "175849.587500", "175850.047500", "175850.507500", "175850.967500", "175851.427500", "175851.887500", "175852.347500", "175852.807500", "175853.267500", "175853.727500", "175854.187500", "175854.647500", "175855.107500", "175855.567500", "175856.027500", "175856.487500", "175856.947500", "175857.407500", "175857.867500", "175858.327500", "175858.787500", "175859.247500", "175859.707500", "175900.167500", "175900.627500", "175901.087500", "175901.547500", "175902.007500", "175902.467500", "175902.927500", "175903.387500", "175903.847500", "175904.307500", "175904.767500", "175905.227500", "175905.687500", "175906.147500", "175906.607500", "175907.067500", "175907.527500", "175907.987500", "175908.447500", "175908.907500", "175909.367500", "175909.827500", "175910.287500", "175910.747500", "175911.207500", "175911.667500", "175912.127500", "175912.587500", "175913.047500", "175913.507500", "175913.967500", "175914.427500", "175914.887500", "175915.347500", "175915.807500", "175916.267500", "175916.727500", "175917.187500", "175917.647500", "175918.107500", "175918.567500", "175919.027500", "175919.487500", "175919.947500", "175920.407500", "175920.867500", "175921.327500", "175921.787500", "175922.247500", "175922.707500", "175923.167500", "175923.627500", "175924.087500", "175924.547500", "175925.007500", "175925.467500", "175925.927500", "175926.387500", "175926.847500", "175927.307500", "175927.767500", "175928.227500", "175928.687500", "175929.147500", "175929.607500", "175930.067500", "175930.527500", "175930.987500", "175931.447500", "175931.907500", "175932.367500", "175932.827500", "175933.287500", "175933.747500", "175934.207500", "175934.667500", "175935.127500", "175935.587500", "175936.047500", "175936.507500", "175936.967500", "175937.427500", "175937.887500", "175938.347500", "175938.807500", "175939.267500", "175939.727500", "175940.187500", "175940.647500", "175941.107500", "175941.567500", "175942.027500", "175942.487500", "175942.947500", "175943.407500", "175943.867500", "175944.327500", "175944.787500", "175945.247500", "175945.707500", "175946.167500", "175946.627500", "175947.087500", "175947.547500", "175948.007500", "175948.467500", "175948.927500", "175949.387500", "175949.847500", "175950.307500", "175950.767500", "175951.227500", "175951.687500", "175952.147500", "175952.607500", "175953.067500", "175953.527500", "175953.987500", "175954.447500", "175954.907500", "175955.367500", "175955.827500", "175956.287500", "175956.747500", "175957.207500", "175957.667500", "175958.127500", "175958.587500", "175959.047500", "175959.507500", "175959.967500", "180000.427500", "180000.887500", "180001.347500", "180001.807500", "180002.267500", "180002.727500", "180003.187500", "180003.647500", "180004.107500", "180004.567500", "180005.027500", "180005.487500", "180005.947500", "180006.407500", "180006.867500", "180007.327500", "180007.787500", "180008.247500", "180008.707500", "180009.167500", "180009.627500", "180010.087500", "180010.547500", "180011.007500", "180011.467500", "180011.927500", "180012.387500", "180012.847500", "180013.307500", "180013.767500", "180014.227500", "180014.687500", "180015.147500", "180015.607500", "180016.067500", "180016.527500", "180016.987500", "180017.447500", "180017.907500", "180018.367500", "180018.827500", "180019.287500", "180019.747500", "180020.207500", "180020.667500", "180021.127500", "180021.587500", "180022.047500", "180022.507500", "180022.967500", "180023.427500", "180023.887500", "180024.347500", "180024.807500", "180025.267500", "180025.727500", "180026.187500", "180026.647500", "180027.107500", "180027.567500", "180028.027500", "180028.487500", "180028.947500", "180029.407500", "180029.867500", "180030.327500", "180030.787500", "180031.247500", "180031.707500", "180032.167500", "180032.627500", "180033.087500", "180033.547500", "180034.007500", "180034.467500", "180034.927500", "180035.387500", "180035.847500", "180036.307500", "180036.767500", "180037.227500", "180037.687500", "180038.147500", "180038.607500", "180039.067500", "180039.527500", "180039.987500", "180040.447500", "180040.907500", "180041.367500", "180041.827500", "180042.287500", "180042.747500", "180043.207500", "180043.667500", "180044.127500", "180044.587500", "180045.047500", "180045.507500", "180045.967500", "180046.427500", "180046.887500", "180047.347500", "180047.807500", "180048.267500", "180048.727500", "180049.187500", "180049.647500", "180050.107500", "180050.567500", "180051.027500", "180051.487500", "180051.947500", "180052.407500", "180052.867500", "180053.327500", "180053.787500", "180054.247500", "180054.707500", "180055.167500", "180055.627500", "180056.087500", "180056.547500", "180057.007500", "180057.467500", "180057.927500", "180058.387500", "180058.847500", "180059.307500", "180059.767500", "180100.227500", "180100.687500", "180101.147500", "180101.607500", "180102.067500", "180102.527500", "180102.987500", "180103.447500", "180103.907500", "180104.367500", "180104.827500", "180105.287500", "180105.747500", "180106.207500", "180106.667500", "180107.127500", "180107.587500", "180108.047500", "180108.507500", "180108.967500", "180109.427500", "180109.887500", "180110.347500", "180110.807500", "180111.267500", "180111.727500", "180112.187500", "180112.647500", "180113.107500", "180113.567500", "180114.027500", "180114.487500", "180114.947500", "180115.407500", "180115.867500", "180116.327500", "180116.787500", "180117.247500", "180117.707500", "180118.167500", "180118.627500", "180119.087500", "180119.547500", "180120.007500", "180120.467500", "180120.927500", "180121.387500", "180121.847500", "180122.307500", "180122.767500", "180123.227500", "180123.687500", "180124.147500", "180124.607500", "180125.067500", "180125.527500", "180125.987500", "180126.447500", "180126.907500", "180127.367500", "180127.827500", "180128.287500", "180128.747500", "180129.207500", "180129.667500", "180130.127500", "180130.587500", "180131.047500", "180131.507500", "180131.967500", "180132.427500", "180132.887500", "180133.347500", "180133.807500", "180134.267500", "180134.727500", "180135.187500", "180135.647500", "180136.107500", "180136.567500", "180137.027500", "180137.487500", "180137.947500", "180138.407500", "180138.867500", "180139.327500", "180139.787500", "180140.247500", "180140.707500", "180141.167500", "180141.627500", "180142.087500", "180142.547500", "180143.007500", "180143.467500", "180143.927500", "180144.387500", "180144.847500", "180145.307500", "180145.767500", "180146.227500", "180146.687500", "180147.147500", "180147.607500", "180148.067500", "180148.527500", "180148.987500", "180149.447500", "180149.907500", "180150.367500", "180150.827500", "180151.287500", "180151.747500", "180152.207500", "180152.667500", "180153.127500", "180153.587500", "180154.047500", "180154.507500", "180154.967500", "180155.427500", "180155.887500", "180156.347500", "180156.807500", "180157.267500", "180157.727500", "180158.187500", "180158.647500", "180159.107500", "180159.567500", "180200.027500", "180200.487500", "180200.947500", "180201.407500", "180201.867500", "180202.327500", "180202.787500", "180203.247500", "180203.707500", "180204.167500", "180204.627500", "180205.087500", "180205.547500", "180206.007500", "180206.467500", "180206.927500", "180207.387500", "180207.847500", "180208.307500", "180208.767500", "180209.227500", "180209.687500", "180210.147500", "180210.607500", "180211.067500", "180211.527500", "180211.987500", "180212.447500", "180212.907500", "180213.367500", "180213.827500", "180214.287500", "180214.747500", "180215.207500", "180215.667500", "180216.127500", "180216.587500", "180217.047500", "180217.507500", "180217.967500", "180218.427500", "180218.887500", "180219.347500", "180219.807500", "180220.267500", "180220.727500", "180221.187500", "180221.647500", "180222.107500", "180222.567500", "180223.027500", "180223.487500", "180223.947500", "180224.407500", "180224.867500", "180225.327500", "180225.787500", "180226.247500", "180226.707500", "180227.167500", "180227.627500", "180228.087500", "180228.547500", "180229.007500", "180229.467500", "180229.927500", "180230.387500", "180230.847500", "180231.307500", "180231.767500", "180232.227500", "180232.687500", "180233.147500", "180233.607500", "180234.067500", "180234.527500", "180234.987500", "180235.447500", "180235.907500", "180236.367500", "180236.827500", "180237.287500", "180237.747500", "180238.207500", "180238.667500", "180239.127500", "180239.587500", "180240.047500", "180240.507500", "180240.967500", "180241.427500", "180241.887500", "180242.347500", "180242.807500", "180243.267500", "180243.727500", "180244.187500", "180244.647500", "180245.107500", "180245.567500", "180246.027500", "180246.487500", "180246.947500", "180247.407500", "180247.867500", "180248.327500", "180248.787500", "180249.247500", "180249.707500", "180250.167500", "180250.627500", "180251.087500", "180251.547500", "180252.007500", "180252.467500", "180252.927500", "180253.387500", "180253.847500", "180254.307500", "180254.767500", "180255.227500", "180255.687500", "180256.147500", "180256.607500", "180257.067500", "180257.527500", "180257.987500", "180258.447500", "180258.907500", "180259.367500", "180259.827500", "180300.287500", "180300.747500", "180301.207500", "180301.667500", "180302.127500", "180302.587500", "180303.047500", "180303.507500", "180303.967500", "180304.427500", "180304.887500", "180305.347500", "180305.807500", "180306.267500", "180306.727500", "180307.187500", "180307.647500", "180308.107500", "180308.567500", "180309.027500", "180309.487500", "180309.947500", "180310.407500", "180310.867500", "180311.327500", "180311.787500", "180312.247500", "180312.707500", "180313.167500", "180313.627500", "180314.087500", "180314.547500", "180315.007500", "180315.467500", "180315.927500", "180316.387500", "180316.847500", "180317.307500", "180317.767500", "180318.227500", "180318.687500", "180319.147500", "180319.607500", "180320.067500", "180320.527500", "180320.987500", "180321.447500", "180321.907500", "180322.367500", "180322.827500", "180323.287500", "180323.747500", "180324.207500", "180324.667500", "180325.127500", "180325.587500", "180326.047500", "180326.507500", "180326.967500", "180327.427500", "180327.887500", "180328.347500", "180328.807500", "180329.267500", "180329.727500", "180330.187500", "180330.647500", "180331.107500", "180331.567500", "180332.027500", "180332.487500", "180332.947500", "180333.407500", "180333.867500", "180334.327500", "180334.787500", "180335.247500", "180335.707500", "180336.167500", "180336.627500", "180337.087500", "180337.547500", "180338.007500", "180338.467500", "180338.927500", "180339.387500", "180339.847500", "180340.307500", "180340.767500", "180341.227500", "180341.687500", "180342.147500", "180342.607500", "180343.067500", "180343.527500", "180343.987500", "180344.447500", "180344.907500", "180345.367500", "180345.827500", "180346.287500", "180346.747500", "180347.207500", "180347.667500", "180348.127500", "180348.587500", "180349.047500", "180349.507500", "180349.967500", "180350.427500", "180350.887500", "180351.347500", "180351.807500", "180352.267500", "180352.727500", "180353.187500", "180353.647500", "180354.107500", "180354.567500", "180355.027500", "180355.487500", "180355.947500", "180356.407500", "180356.867500", "180357.327500", "180357.787500", "180358.247500", "180358.707500", "180359.167500", "180359.627500", "180400.087500", "180400.547500", "180401.007500", "180401.467500", "180401.927500", "180402.387500", "180402.847500", "180403.307500", "180403.767500", "180404.227500", "180404.687500", "180405.147500", "180405.607500", "180406.067500", "180406.527500", "180406.987500", "180407.447500", "180407.907500", "180408.367500", "180408.827500", "180409.287500", "180409.747500", "180410.207500", "180410.667500", "180411.127500", "180411.587500", "180412.047500", "180412.507500", "180412.967500", "180413.427500", "180413.887500", "180414.347500", "180414.807500", "180415.267500", "180415.727500", "180416.187500", "180416.647500", "180417.107500", "180417.567500", "180418.027500", "180418.487500", "180418.947500", "180419.407500", "180419.867500", "180420.327500", "180420.787500", "180421.247500", "180421.707500", "180422.167500", "180422.627500", "180423.087500", "180423.547500", "180424.007500", "180424.467500", "180424.927500", "180425.387500", "180425.847500", "180426.307500", "180426.767500"],
