{
  "AcquisitionMatrixPE": 82,
  "AcquisitionNumber": 1,
  "AcquisitionTime": "18:37:9.735000",
  "BandwidthPerPixelPhaseEncode": 24.888,
  "BaseResolution": 82,
  "BodyPartExamined": "BRAIN",
  "ConsistencyInfo": "N4_VE11E_LATEST_20181129",
  "ConversionSoftware": "dcm2niix",
  "ConversionSoftwareVersion": "v1.0.20201102",
  "DerivedVendorReportedEchoSpacing": 0.00049,
  "DeviceSerialNumber": "66112",
  "DwellTime": 2e-06,
  "EchoTime": 0.0272,
  "EchoTrainLength": 82,
  "EffectiveEchoSpacing": 0.00049,
  "FlipAngle": 44,
  "ImageComments": "Unaliased MB8/PE3",
  "ImageOrientationPatientDICOM": [0.992429, -0.0638596, 0.104911, 0.0735761, 0.993082, -0.0915183],
  "ImageType": [
    "ORIGINAL",
    "PRIMARY",
    "M",
    "MB",
    "ND",
    "NORM",
    "MOSAIC"
],
  "ImagingFrequency": 123.259,
  "InPlanePhaseEncodingDirectionDICOM": "COL",
  "InstitutionAddress": "Maynard 3,Hanover,NH,US,03755",
  "InstitutionName": "Dartmouth College - PBS",
  "InstitutionalDepartmentName": "Department",
  "MRAcquisitionType": "2D",
  "MagneticFieldStrength": 3,
  "Manufacturer": "Siemens",
  "ManufacturersModelName": "Prisma",
  "Modality": "MR",
  "MultibandAccelerationFactor": 8,
  "PartialFourier": 1,
  "PatientPosition": "HFS",
  "PercentPhaseFOV": 100,
  "PercentSampling": 100,
  "PhaseEncodingDirection": "j-",
  "PhaseEncodingSteps": 82,
  "PhaseResolution": 1,
  "PixelBandwidth": 3050,
  "ProcedureStepDescription": "Wager_Wager^1076_spacetop",
  "ProtocolName": "func_run-03_task-alignvideo_acq-ap-mb8",
  "PulseSequenceDetails": "%CustomerSeq%\\cmrr_mbep2d_bold",
  "ReceiveCoilActiveElements": "HEA;HEP",
  "ReceiveCoilName": "Head_32",
  "ReconMatrixPE": 82,
  "RepetitionTime": 0.46,
  "SAR": 0.0850588,
  "ScanOptions": "FS",
  "ScanningSequence": "EP",
  "SequenceName": "epfid2d1_82",
  "SequenceVariant": "SK\\SS",
  "SeriesDescription": "func_run-03_task-alignvideo_acq-ap-mb8",
  "SeriesNumber": 28,
  "ShimSetting": [4265, -7768, -7211, 196, -79, -142, -115, 30],
  "SliceThickness": 2.7,
  "SliceTiming": [0, 0.2525, 0.0625, 0.315, 0.1275, 0.3775, 0.19, 0, 0.2525, 0.0625, 0.315, 0.1275, 0.3775, 0.19, 0, 0.2525, 0.0625, 0.315, 0.1275, 0.3775, 0.19, 0, 0.2525, 0.0625, 0.315, 0.1275, 0.3775, 0.19, 0, 0.2525, 0.0625, 0.315, 0.1275, 0.3775, 0.19, 0, 0.2525, 0.0625, 0.315, 0.1275, 0.3775, 0.19, 0, 0.2525, 0.0625, 0.315, 0.1275, 0.3775, 0.19, 0, 0.2525, 0.0625, 0.315, 0.1275, 0.3775, 0.19],
  "SoftwareVersions": "syngo MR E11",
  "SpacingBetweenSlices": 2.7,
  "StationName": "AWP66112",
  "TaskName": "alignvideo",
  "TotalReadoutTime": 0.03969,
  "TxRefAmp": 235.904,
  "WipMemBlock": "74f94b1a-d7c2-42ac-b20c-dae29821b0d4||Sequence: R016 ve11e/master r/434b28f1; Aug  7 2019 18:53:46 by eja",
  "dcmmeta_affine": [
    [-2.6626148223876953, 0.19739916920661926, 0.2655199468135834, 93.17306518554688],
    [0.1713305562734604, 2.664365291595459, -0.2660696506500244, -89.47603607177734],
    [0.28146815299987793, 0.24553678929805756, 2.673706293106079, -84.56039428710938],
    [0.0, 0.0, 0.0, 1.0]
],
  "dcmmeta_reorient_transform": [
    [0.0, -1.0, 0.0, 81.0],
    [1.0, 0.0, 0.0, 0.0],
    [0.0, 0.0, 1.0, 0.0],
    [0.0, 0.0, 0.0, 1.0]
],
  "dcmmeta_shape": [82, 82, 56, 1016],
  "dcmmeta_slice_dim": 2,
  "dcmmeta_version": 0.6,
  "global": {
    "const": {
      "AccessionNumber": "A004354",
      "AcquisitionMatrix": [82, 0, 0, 82],
      "AngioFlag": "N",
      "BitsAllocated": 16,
      "BitsStored": 16,
      "BodyPartExamined": "BRAIN",
      "Columns": 656,
      "EchoNumbers": 1,
      "EchoTime": 27.2,
      "EchoTrainLength": 82,
      "FlipAngle": 44.0,
      "HighBit": 15,
      "ImageOrientationPatient": [0.99242917509402, -0.0638595707744, 0.10491085569528, 0.07357605191114, 0.99308155410975, -0.0915182575891],
      "ImagePositionPatient": [-929.98644040567, -841.83848990724, -74.98421326851],
      "ImageType": [
        "ORIGINAL",
        "PRIMARY",
        "M",
        "MB",
        "ND",
        "NORM",
        "MOSAIC"
],
      "ImagedNucleus": "1H",
      "ImagingFrequency": 123.259112,
      "InPlanePhaseEncodingDirection": "COL",
      "MRAcquisitionType": "2D",
      "MagneticFieldStrength": 3.0,
      "Manufacturer": "SIEMENS",
      "ManufacturerModelName": "Prisma",
      "Modality": "MR",
      "NumberOfAverages": 1.0,
      "NumberOfPhaseEncodingSteps": 82,
      "PercentPhaseFieldOfView": 100.0,
      "PercentSampling": 100.0,
      "PerformedProcedureStepStartTime": "172533.920000",
      "PhotometricInterpretation": "MONOCHROME2",
      "PixelBandwidth": 3050.0,
      "PixelRepresentation": 0,
      "PixelSpacing": [2.6829268932343, 2.6829268932343],
      "ProtocolName": "func_run-03_task-alignvideo_acq-ap-mb8",
      "RepetitionTime": 460.0,
      "Rows": 656,
      "SAR": 0.0850587673722,
      "SamplesPerPixel": 1,
      "ScanOptions": "FS",
      "ScanningSequence": "EP",
      "SequenceName": "epfid2d1_82",
      "SequenceVariant": [
        "SK",
        "SS"
],
      "SeriesDescription": "func_run-03_task-alignvideo_acq-ap-mb8",
      "SeriesNumber": 28,
      "SeriesTime": "183731.729000",
      "SliceLocation": -65.756852729522,
      "SliceThickness": 2.7000000476837,
      "SmallestImagePixelValue": 0,
      "SoftwareVersions": "syngo MR E11",
      "SpacingBetweenSlices": 2.6999999702702,
      "SpecificCharacterSet": "ISO_IR 100",
      "StudyID": "1",
      "StudyTime": "172533.858000",
      "TransmitCoilName": "Body",
      "VariableFlipAngleFlag": "N",
      "WindowCenterWidthExplanation": "Algo1"
    },
    "slices": {}
  },
  "time": {
    "samples": {
      "AcquisitionNumber": [1, 2, 3, 4, 5, 6, 7, 8, 9, 10, 11, 12, 13, 14, 15, 16, 17, 18, 19, 20, 21, 22, 23, 24, 25, 26, 27, 28, 29, 30, 31, 32, 33, 34, 35, 36, 37, 38, 39, 40, 41, 42, 43, 44, 45, 46, 47, 48, 49, 50, 51, 52, 53, 54, 55, 56, 57, 58, 59, 60, 61, 62, 63, 64, 65, 66, 67, 68, 69, 70, 71, 72, 73, 74, 75, 76, 77, 78, 79, 80, 81, 82, 83, 84, 85, 86, 87, 88, 89, 90, 91, 92, 93, 94, 95, 96, 97, 98, 99, 100, 101, 102, 103, 104, 105, 106, 107, 108, 109, 110, 111, 112, 113, 114, 115, 116, 117, 118, 119, 120, 121, 122, 123, 124, 125, 126, 127, 128, 129, 130, 131, 132, 133, 134, 135, 136, 137, 138, 139, 140, 141, 142, 143, 144, 145, 146, 147, 148, 149, 150, 151, 152, 153, 154, 155, 156, 157, 158, 159, 160, 161, 162, 163, 164, 165, 166, 167, 168, 169, 170, 171, 172, 173, 174, 175, 176, 177, 178, 179, 180, 181, 182, 183, 184, 185, 186, 187, 188, 189, 190, 191, 192, 193, 194, 195, 196, 197, 198, 199, 200, 201, 202, 203, 204, 205, 206, 207, 208, 209, 210, 211, 212, 213, 214, 215, 216, 217, 218, 219, 220, 221, 222, 223, 224, 225, 226, 227, 228, 229, 230, 231, 232, 233, 234, 235, 236, 237, 238, 239, 240, 241, 242, 243, 244, 245, 246, 247, 248, 249, 250, 251, 252, 253, 254, 255, 256, 257, 258, 259, 260, 261, 262, 263, 264, 265, 266, 267, 268, 269, 270, 271, 272, 273, 274, 275, 276, 277, 278, 279, 280, 281, 282, 283, 284, 285, 286, 287, 288, 289, 290, 291, 292, 293, 294, 295, 296, 297, 298, 299, 300, 301, 302, 303, 304, 305, 306, 307, 308, 309, 310, 311, 312, 313, 314, 315, 316, 317, 318, 319, 320, 321, 322, 323, 324, 325, 326, 327, 328, 329, 330, 331, 332, 333, 334, 335, 336, 337, 338, 339, 340, 341, 342, 343, 344, 345, 346, 347, 348, 349, 350, 351, 352, 353, 354, 355, 356, 357, 358, 359, 360, 361, 362, 363, 364, 365, 366, 367, 368, 369, 370, 371, 372, 373, 374, 375, 376, 377, 378, 379, 380, 381, 382, 383, 384, 385, 386, 387, 388, 389, 390, 391, 392, 393, 394, 395, 396, 397, 398, 399, 400, 401, 402, 403, 404, 405, 406, 407, 408, 409, 410, 411, 412, 413, 414, 415, 416, 417, 418, 419, 420, 421, 422, 423, 424, 425, 426, 427, 428, 429, 430, 431, 432, 433, 434, 435, 436, 437, 438, 439, 440, 441, 442, 443, 444, 445, 446, 447, 448, 449, 450, 451, 452, 453, 454, 455, 456, 457, 458, 459, 460, 461, 462, 463, 464, 465, 466, 467, 468, 469, 470, 471, 472, 473, 474, 475, 476, 477, 478, 479, 480, 481, 482, 483, 484, 485, 486, 487, 488, 489, 490, 491, 492, 493, 494, 495, 496, 497, 498, 499, 500, 501, 502, 503, 504, 505, 506, 507, 508, 509, 510, 511, 512, 513, 514, 515, 516, 517, 518, 519, 520, 521, 522, 523, 524, 525, 526, 527, 528, 529, 530, 531, 532, 533, 534, 535, 536, 537, 538, 539, 540, 541, 542, 543, 544, 545, 546, 547, 548, 549, 550, 551, 552, 553, 554, 555, 556, 557, 558, 559, 560, 561, 562, 563, 564, 565, 566, 567, 568, 569, 570, 571, 572, 573, 574, 575, 576, 577, 578, 579, 580, 581, 582, 583, 584, 585, 586, 587, 588, 589, 590, 591, 592, 593, 594, 595, 596, 597, 598, 599, 600, 601, 602, 603, 604, 605, 606, 607, 608, 609, 610, 611, 612, 613, 614, 615, 616, 617, 618, 619, 620, 621, 622, 623, 624, 625, 626, 627, 628, 629, 630, 631, 632, 633, 634, 635, 636, 637, 638, 639, 640, 641, 642, 643, 644, 645, 646, 647, 648, 649, 650, 651, 652, 653, 654, 655, 656, 657, 658, 659, 660, 661, 662, 663, 664, 665, 666, 667, 668, 669, 670, 671, 672, 673, 674, 675, 676, 677, 678, 679, 680, 681, 682, 683, 684, 685, 686, 687, 688, 689, 690, 691, 692, 693, 694, 695, 696, 697, 698, 699, 700, 701, 702, 703, 704, 705, 706, 707, 708, 709, 710, 711, 712, 713, 714, 715, 716, 717, 718, 719, 720, 721, 722, 723, 724, 725, 726, 727, 728, 729, 730, 731, 732, 733, 734, 735, 736, 737, 738, 739, 740, 741, 742, 743, 744, 745, 746, 747, 748, 749, 750, 751, 752, 753, 754, 755, 756, 757, 758, 759, 760, 761, 762, 763, 764, 765, 766, 767, 768, 769, 770, 771, 772, 773, 774, 775, 776, 777, 778, 779, 780, 781, 782, 783, 784, 785, 786, 787, 788, 789, 790, 791, 792, 793, 794, 795, 796, 797, 798, 799, 800, 801, 802, 803, 804, 805, 806, 807, 808, 809, 810, 811, 812, 813, 814, 815, 816, 817, 818, 819, 820, 821, 822, 823, 824, 825, 826, 827, 828, 829, 830, 831, 832, 833, 834, 835, 836, 837, 838, 839, 840, 841, 842, 843, 844, 845, 846, 847, 848, 849, 850, 851, 852, 853, 854, 855, 856, 857, 858, 859, 860, 861, 862, 863, 864, 865, 866, 867, 868, 869, 870, 871, 872, 873, 874, 875, 876, 877, 878, 879, 880, 881, 882, 883, 884, 885, 886, 887, 888, 889, 890, 891, 892, 893, 894, 895, 896, 897, 898, 899, 900, 901, 902, 903, 904, 905, 906, 907, 908, 909, 910, 911, 912, 913, 914, 915, 916, 917, 918, 919, 920, 921, 922, 923, 924, 925, 926, 927, 928, 929, 930, 931, 932, 933, 934, 935, 936, 937, 938, 939, 940, 941, 942, 943, 944, 945, 946, 947, 948, 949, 950, 951, 952, 953, 954, 955, 956, 957, 958, 959, 960, 961, 962, 963, 964, 965, 966, 967, 968, 969, 970, 971, 972, 973, 974, 975, 976, 977, 978, 979, 980, 981, 982, 983, 984, 985, 986, 987, 988, 989, 990, 991, 992, 993, 994, 995, 996, 997, 998, 999, 1000, 1001, 1002, 1003, 1004, 1005, 1006, 1007, 1008, 1009, 1010, 1011, 1012, 1013, 1014, 1015, 1016],
      "AcquisitionTime": ["183709.735000", "183710.195000", "183710.655000", "183711.115000", "183711.575000", "183712.035000", "183712.495000", "183712.955000", "183713.415000", "183713.875000", "183714.335000", "183714.795000", "183715.255000", "183715.715000", "183716.175000", "183716.635000", "183717.095000", "183717.555000", "183718.015000", "183718.475000", "183718.935000", "183719.395000", "183719.855000", "183720.315000", "183720.775000", "183721.235000", "183721.695000", "183722.155000", "183722.615000", "183723.075000", "183723.535000", "183723.995000", "183724.455000", "183724.915000", "183725.375000", "183725.835000", "183726.295000", "183726.755000", "183727.215000", "183727.675000", "183728.135000", "183728.595000", "183729.055000", "183729.515000", "183729.975000", "183730.435000", "183730.895000", "183731.355000", "183731.815000", "183732.275000", "183732.735000", "183733.195000", "183733.655000", "183734.115000", "183734.575000", "183735.035000", "183735.495000", "183735.955000", "183736.415000", "183736.875000", "183737.335000", "183737.795000", "183738.255000", "183738.715000", "183739.175000", "183739.635000", "183740.095000", "183740.555000", "183741.015000", "183741.475000", "183741.935000", "183742.395000", "183742.855000", "183743.315000", "183743.775000", "183744.235000", "183744.695000", "183745.155000", "183745.615000", "183746.075000", "183746.535000", "183746.995000", "183747.455000", "183747.915000", "183748.375000", "183748.835000", "183749.295000", "183749.755000", "183750.215000", "183750.675000", "183751.135000", "183751.595000", "183752.055000", "183752.515000", "183752.975000", "183753.435000", "183753.895000", "183754.355000", "183754.815000", "183755.275000", "183755.735000", "183756.195000", "183756.655000", "183757.115000", "183757.575000", "183758.035000", "183758.495000", "183758.955000", "183759.415000", "183759.875000", "183800.335000", "183800.795000", "183801.255000", "183801.715000", "183802.175000", "183802.635000", "183803.095000", "183803.555000", "183804.015000", "183804.475000", "183804.935000", "183805.395000", "183805.855000", "183806.315000", "183806.775000", "183807.235000", "183807.695000", "183808.155000", "183808.615000", "183809.075000", "183809.535000", "183809.995000", "183810.455000", "183810.915000", "183811.375000", "183811.835000", "183812.295000", "183812.755000", "183813.215000", "183813.675000", "183814.135000", "183814.595000", "183815.055000", "183815.515000", "183815.975000", "183816.435000", "183816.895000", "183817.355000", "183817.815000", "183818.275000", "183818.735000", "183819.195000", "183819.655000", "183820.115000", "183820.575000", "183821.035000", "183821.495000", "183821.955000", "183822.415000", "183822.875000", "183823.335000", "183823.795000", "183824.255000", "183824.715000", "183825.175000", "183825.635000", "183826.095000", "183826.555000", "183827.015000", "183827.475000", "183827.935000", "183828.395000", "183828.855000", "183829.315000", "183829.775000", "183830.235000", "183830.695000", "183831.155000", "183831.615000", "183832.075000", "183832.535000", "183832.995000", "183833.455000", "183833.915000", "183834.375000", "183834.835000", "183835.295000", "183835.755000", "183836.215000", "183836.675000", "183837.135000", "183837.595000", "183838.055000", "183838.515000", "183838.975000", "183839.435000", "183839.895000", "183840.355000", "183840.815000", "183841.275000", "183841.735000", "183842.195000", "183842.655000", "183843.115000", "183843.575000", "183844.035000", "183844.495000", "183844.955000", "183845.415000", "183845.875000", "183846.335000", "183846.795000", "183847.255000", "183847.715000", "183848.175000", "183848.635000", "183849.095000", "183849.555000", "183850.015000", "183850.475000", "183850.935000", "183851.395000", "183851.855000", "183852.315000", "183852.775000", "183853.235000", "183853.695000", "183854.155000", "183854.615000", "183855.075000", "183855.535000", "183855.995000", "183856.455000", "183856.915000", "183857.375000", "183857.835000", "183858.295000", "183858.755000", "183859.215000", "183859.675000", "183900.135000", "183900.595000", "183901.055000", "183901.515000", "183901.975000", "183902.435000", "183902.895000", "183903.355000", "183903.815000", "183904.275000", "183904.735000", "183905.195000", "183905.655000", "183906.115000", "183906.575000", "183907.035000", "183907.495000", "183907.955000", "183908.415000", "183908.875000", "183909.335000", "183909.795000", "183910.255000", "183910.715000", "183911.175000", "183911.635000", "183912.095000", "183912.555000", "183913.015000", "183913.475000", "183913.935000", "183914.395000", "183914.855000", "183915.315000", "183915.775000", "183916.235000", "183916.695000", "183917.155000", "183917.615000", "183918.075000", "183918.535000", "183918.995000", "183919.455000", "183919.915000", "183920.375000", "183920.835000", "183921.295000", "183921.755000", "183922.215000", "183922.675000", "183923.135000", "183923.595000", "183924.055000", "183924.515000", "183924.975000", "183925.435000", "183925.895000", "183926.355000", "183926.815000", "183927.275000", "183927.735000", "183928.195000", "183928.655000", "183929.115000", "183929.575000", "183930.035000", "183930.495000", "183930.955000", "183931.415000", "183931.875000", "183932.335000", "183932.795000", "183933.255000", "183933.715000", "183934.175000", "183934.635000", "183935.095000", "183935.555000", "183936.015000", "183936.475000", "183936.935000", "183937.395000", "183937.855000", "183938.315000", "183938.775000", "183939.235000", "183939.695000", "183940.155000", "183940.615000", "183941.075000", "183941.535000", "183941.995000", "183942.455000", "183942.915000", "183943.375000", "183943.835000", "183944.295000", "183944.755000", "183945.215000", "183945.675000", "183946.135000", "183946.595000", "183947.055000", "183947.515000", "183947.975000", "183948.435000", "183948.895000", "183949.355000", "183949.815000", "183950.275000", "183950.735000", "183951.195000", "183951.655000", "183952.115000", "183952.575000", "183953.035000", "183953.495000", "183953.955000", "183954.415000", "183954.875000", "183955.335000", "183955.795000", "183956.255000", "183956.715000", "183957.175000", "183957.635000", "183958.095000", "183958.555000", "183959.015000", "183959.475000", "183959.935000", "184000.395000", "184000.855000", "184001.315000", "184001.775000", "184002.235000", "184002.695000", "184003.155000", "184003.615000", "184004.075000", "184004.535000", "184004.995000", "184005.455000", "184005.915000", "184006.375000", "184006.835000", "184007.295000", "184007.755000", "184008.215000", "184008.675000", "184009.135000", "184009.595000", "184010.055000", "184010.515000", "184010.975000", "184011.435000", "184011.895000", "184012.355000", "184012.815000", "184013.275000", "184013.735000", "184014.195000", "184014.655000", "184015.115000", "184015.575000", "184016.035000", "184016.495000", "184016.955000", "184017.415000", "184017.875000", "184018.335000", "184018.795000", "184019.255000", "184019.715000", "184020.175000", "184020.635000", "184021.095000", "184021.555000", "184022.015000", "184022.475000", "184022.935000", "184023.395000", "184023.855000", "184024.315000", "184024.775000", "184025.235000", "184025.695000", "184026.155000", "184026.615000", "184027.075000", "184027.535000", "184027.995000", "184028.455000", "184028.915000", "184029.375000", "184029.835000", "184030.295000", "184030.755000", "184031.215000", "184031.675000", "184032.135000", "184032.595000", "184033.055000", "184033.515000", "184033.975000", "184034.435000", "184034.895000", "184035.355000", "184035.815000", "184036.275000", "184036.735000", "184037.195000", "184037.655000", "184038.115000", "184038.575000", "184039.035000", "184039.495000", "184039.955000", "184040.415000", "184040.875000", "184041.335000", "184041.795000", "184042.255000", "184042.715000", "184043.175000", "184043.635000", "184044.095000", "184044.555000", "184045.015000", "184045.475000", "184045.935000", "184046.395000", "184046.855000", "184047.315000", "184047.775000", "184048.235000", "184048.695000", "184049.155000", "184049.615000", "184050.075000", "184050.535000", "184050.995000", "184051.455000", "184051.915000", "184052.375000", "184052.835000", "184053.295000", "184053.755000", "184054.215000", "184054.675000", "184055.135000", "184055.595000", "184056.055000", "184056.515000", "184056.975000", "184057.435000", "184057.895000", "184058.355000", "184058.815000", "184059.275000", "184059.735000", "184100.195000", "184100.655000", "184101.115000", "184101.575000", "184102.035000", "184102.495000", "184102.955000", "184103.415000", "184103.875000", "184104.335000", "184104.795000", "184105.255000", "184105.715000", "184106.175000", "184106.635000", "184107.095000", "184107.555000", "184108.015000", "184108.475000", "184108.935000", "184109.395000", "184109.855000", "184110.315000", "184110.775000", "184111.235000", "184111.695000", "184112.155000", "184112.615000", "184113.075000", "184113.535000", "184113.995000", "184114.455000", "184114.915000", "184115.375000", "184115.835000", "184116.295000", "184116.755000", "184117.215000", "184117.675000", "184118.135000", "184118.595000", "184119.055000", "184119.515000", "184119.975000", "184120.435000", "184120.895000", "184121.355000", "184121.815000", "184122.275000", "184122.735000", "184123.195000", "184123.655000", "184124.115000", "184124.575000", "184125.035000", "184125.495000", "184125.955000", "184126.415000", "184126.875000", "184127.335000", "184127.795000", "184128.255000", "184128.715000", "184129.175000", "184129.635000", "184130.095000", "184130.555000", "184131.015000", "184131.475000", "184131.935000", "184132.395000", "184132.855000", "184133.315000", "184133.775000", "184134.235000", "184134.695000", "184135.155000", "184135.615000", "184136.075000", "184136.535000", "184136.995000", "184137.455000", "184137.915000", "184138.375000", "184138.835000", "184139.295000", "184139.755000", "184140.215000", "184140.675000", "184141.135000", "184141.595000", "184142.055000", "184142.515000", "184142.975000", "184143.435000", "184143.895000", "184144.355000", "184144.815000", "184145.275000", "184145.735000", "184146.195000", "184146.655000", "184147.115000", "184147.575000", "184148.035000", "184148.495000", "184148.955000", "184149.415000", "184149.875000", "184150.335000", "184150.795000", "184151.255000", "184151.715000", "184152.175000", "184152.635000", "184153.095000", "184153.555000", "184154.015000", "184154.475000", "184154.935000", "184155.395000", "184155.855000", "184156.315000", "184156.775000", "184157.235000", "184157.695000", "184158.155000", "184158.615000", "184159.075000", "184159.535000", "184159.995000", "184200.455000", "184200.915000", "184201.375000", "184201.835000", "184202.295000", "184202.755000", "184203.215000", "184203.675000", "184204.135000", "184204.595000", "184205.055000", "184205.515000", "184205.975000", "184206.435000", "184206.895000", "184207.355000", "184207.815000", "184208.275000", "184208.735000", "184209.195000", "184209.655000", "184210.115000", "184210.575000", "184211.035000", "184211.495000", "184211.955000", "184212.415000", "184212.875000", "184213.335000", "184213.795000", "184214.255000", "184214.715000", "184215.175000", "184215.635000", "184216.095000", "184216.555000", "184217.015000", "184217.475000", "184217.935000", "184218.395000", "184218.855000", "184219.315000", "184219.775000", "184220.235000", "184220.695000", "184221.155000", "184221.615000", "184222.075000", "184222.535000", "184222.995000", "184223.455000", "184223.915000", "184224.375000", "184224.835000", "184225.295000", "184225.755000", "184226.215000", "184226.675000", "184227.135000", "184227.595000", "184228.055000", "184228.515000", "184228.975000", "184229.435000", "184229.895000", "184230.355000", "184230.815000", "184231.275000", "184231.735000", "184232.195000", "184232.655000", "184233.115000", "184233.575000", "184234.035000", "184234.495000", "184234.955000", "184235.415000", "184235.875000", "184236.335000", "184236.795000", "184237.255000", "184237.715000", "184238.175000", "184238.635000", "184239.095000", "184239.555000", "184240.015000", "184240.475000", "184240.935000", "184241.395000", "184241.855000", "184242.315000", "184242.775000", "184243.235000", "184243.695000", "184244.155000", "184244.615000", "184245.075000", "184245.535000", "184245.995000", "184246.455000", "184246.915000", "184247.375000", "184247.835000", "184248.295000", "184248.755000", "184249.215000", "184249.675000", "184250.135000", "184250.595000", "184251.055000", "184251.515000", "184251.975000", "184252.435000", "184252.895000", "184253.355000", "184253.815000", "184254.275000", "184254.735000", "184255.195000", "184255.655000", "184256.115000", "184256.575000", "184257.035000", "184257.495000", "184257.955000", "184258.415000", "184258.875000", "184259.335000", "184259.795000", "184300.255000", "184300.715000", "184301.175000", "184301.635000", "184302.095000", "184302.555000", "184303.015000", "184303.475000", "184303.935000", "184304.395000", "184304.855000", "184305.315000", "184305.775000", "184306.235000", "184306.695000", "184307.155000", "184307.615000", "184308.075000", "184308.535000", "184308.995000", "184309.455000", "184309.915000", "184310.375000", "184310.835000", "184311.295000", "184311.755000", "184312.215000", "184312.675000", "184313.135000", "184313.595000", "184314.055000", "184314.515000", "184314.975000", "184315.435000", "184315.895000", "184316.355000", "184316.815000", "184317.275000", "184317.735000", "184318.195000", "184318.655000", "184319.115000", "184319.575000", "184320.035000", "184320.495000", "184320.955000", "184321.415000", "184321.875000", "184322.335000", "184322.795000", "184323.255000", "184323.715000", "184324.175000", "184324.635000", "184325.095000", "184325.555000", "184326.015000", "184326.475000", "184326.935000", "184327.395000", "184327.855000", "184328.315000", "184328.775000", "184329.235000", "184329.695000", "184330.155000", "184330.615000", "184331.075000", "184331.535000", "184331.995000", "184332.455000", "184332.915000", "184333.375000", "184333.835000", "184334.295000", "184334.755000", "184335.215000", "184335.675000", "184336.135000", "184336.595000", "184337.055000", "184337.515000", "184337.975000", "184338.435000", "184338.895000", "184339.355000", "184339.815000", "184340.275000", "184340.735000", "184341.195000", "184341.655000", "184342.115000", "184342.575000", "184343.035000", "184343.495000", "184343.955000", "184344.415000", "184344.875000", "184345.335000", "184345.795000", "184346.255000", "184346.715000", "184347.175000", "184347.635000", "184348.095000", "184348.555000", "184349.015000", "184349.475000", "184349.935000", "184350.395000", "184350.855000", "184351.315000", "184351.775000", "184352.235000", "184352.695000", "184353.155000", "184353.615000", "184354.075000", "184354.535000", "184354.995000", "184355.455000", "184355.915000", "184356.375000", "184356.835000", "184357.295000", "184357.755000", "184358.215000", "184358.675000", "184359.135000", "184359.595000", "184400.055000", "184400.515000", "184400.975000", "184401.435000", "184401.895000", "184402.355000", "184402.815000", "184403.275000", "184403.735000", "184404.195000", "184404.655000", "184405.115000", "184405.575000", "184406.035000", "184406.495000", "184406.955000", "184407.415000", "184407.875000", "184408.335000", "184408.795000", "184409.255000", "184409.715000", "184410.175000", "184410.635000", "184411.095000", "184411.555000", "184412.015000", "184412.475000", "184412.935000", "184413.395000", "184413.855000", "184414.315000", "184414.775000", "184415.235000", "184415.695000", "184416.155000", "184416.615000", "184417.075000", "184417.535000", "184417.995000", "184418.455000", "184418.915000", "184419.375000", "184419.835000", "184420.295000", "184420.755000", "184421.215000", "184421.675000", "184422.135000", "184422.595000", "184423.055000", "184423.515000", "184423.975000", "184424.435000", "184424.895000", "184425.355000", "184425.815000", "184426.275000", "184426.735000", "184427.195000", "184427.655000", "184428.115000", "184428.575000", "184429.035000", "184429.495000", "184429.955000", "184430.415000", "184430.875000", "184431.335000", "184431.795000", "184432.255000", "184432.715000", "184433.175000", "184433.635000", "184434.095000", "184434.555000", "184435.015000", "184435.475000", "184435.935000", "184436.395000", "184436.855000", "184437.315000", "184437.775000", "184438.235000", "184438.695000", "184439.155000", "184439.615000", "184440.075000", "184440.535000", "184440.995000", "184441.455000", "184441.915000", "184442.375000", "184442.835000", "184443.295000", "184443.755000", "184444.215000", "184444.675000", "184445.135000", "184445.595000", "184446.055000", "184446.515000", "184446.975000", "184447.435000", "184447.895000", "184448.355000", "184448.815000", "184449.275000", "184449.735000", "184450.195000", "184450.655000", "184451.115000", "184451.575000", "184452.035000", "184452.495000", "184452.955000", "184453.415000", "184453.875000", "184454.335000", "184454.795000", "184455.255000", "184455.715000", "184456.175000", "184456.635000"],
