{
  "AcquisitionMatrixPE": 140,
  "AcquisitionNumber": 1,
  "AcquisitionTime": "12:53:56.467500",
  "BandwidthPerPixelPhaseEncode": 10.352,
  "BaseResolution": 140,
  "BodyPartExamined": "BRAIN",
  "ConsistencyInfo": "N4_VE11C_LATEST_20160120",
  "ConversionSoftware": "dcm2niix",
  "ConversionSoftwareVersion": "v1.0.20201102",
  "DerivedVendorReportedEchoSpacing": 0.000689998,
  "DeviceSerialNumber": "66112",
  "DiffusionScheme": "Monopolar",
  "DwellTime": 2.1e-06,
  "EchoTime": 0.088,
  "EchoTrainLength": 105,
  "EffectiveEchoSpacing": 0.000689998,
  "FlipAngle": 90,
  "ImageComments": "Unaliased MB3/PE3",
  "ImageOrientationPatientDICOM": [0.99929, -0.0015927, 0.0376351, -0.00872071, 0.962181, 0.272272],
  "ImageType": [
    "ORIGINAL",
    "PRIMARY",
    "DIFFUSION",
    "NONE",
    "MB",
    "ND"
],
  "ImagingFrequency": 123.252,
  "InPlanePhaseEncodingDirectionDICOM": "COL",
  "InstitutionAddress": "Maynard 3,Hanover,NH,US,03755",
  "InstitutionName": "Dartmouth College - PBS",
  "InstitutionalDepartmentName": "Department",
  "IntendedFor": [
    "ses-01/dwi/sub-0038_ses-01_acq-96dirX6b0Xmb_dwi.nii.gz"
],
  "MRAcquisitionType": "2D",
  "MagneticFieldStrength": 3,
  "Manufacturer": "Siemens",
  "ManufacturersModelName": "Prisma",
  "Modality": "MR",
  "MultibandAccelerationFactor": 3,
  "PartialFourier": 0.75,
  "PatientPosition": "HFS",
  "PercentPhaseFOV": 100,
  "PercentSampling": 100,
  "PhaseEncodingDirection": "j",
  "PhaseEncodingSteps": 105,
  "PhaseResolution": 1,
  "PixelBandwidth": 1700,
  "ProcedureStepDescription": "Wager_Wager^1076_spacetop",
  "ProtocolName": "dwi_acq-discorr-PA",
  "PulseSequenceDetails": "%CustomerSeq%\\cmrr_mbep2d_diff",
  "ReceiveCoilActiveElements": "HEA;HEP",
  "ReceiveCoilName": "Head_32",
  "ReconMatrixPE": 140,
  "RepetitionTime": 4.1,
  "SAR": 0.161121,
  "ScanOptions": "PFP\\FS",
  "ScanningSequence": "EP",
  "SequenceName": "ep_b0",
  "SequenceVariant": "SK\\SS",
  "SeriesDescription": "dwi_acq-discorr-PA",
  "SeriesNumber": 6,
  "ShimSetting": [4147, -7748, -7169, 523, -111, -55, -70, 57],
  "SliceThickness": 1.7,
  "SliceTiming": [0, 2.11719, 0.14844, 2.26562, 0.30469, 2.41406, 0.45312, 2.57031, 0.60156, 2.71875, 0.75, 2.875, 0.90625, 3.02344, 1.05469, 3.17188, 1.21094, 3.32031, 1.35938, 3.47656, 1.50781, 3.625, 1.66406, 3.77344, 1.8125, 3.92969, 1.96094, 0, 2.11719, 0.14844, 2.26562, 0.30469, 2.41406, 0.45312, 2.57031, 0.60156, 2.71875, 0.75, 2.875, 0.90625, 3.02344, 1.05469, 3.17188, 1.21094, 3.32031, 1.35938, 3.47656, 1.50781, 3.625, 1.66406, 3.77344, 1.8125, 3.92969, 1.96094, 0, 2.11719, 0.14844, 2.26562, 0.30469, 2.41406, 0.45312, 2.57031, 0.60156, 2.71875, 0.75, 2.875, 0.90625, 3.02344, 1.05469, 3.17188, 1.21094, 3.32031, 1.35938, 3.47656, 1.50781, 3.625, 1.66406, 3.77344, 1.8125, 3.92969, 1.96094],
  "SoftwareVersions": "syngo MR E11",
  "SpacingBetweenSlices": 1.7,
  "StationName": "AWP66112",
  "TotalReadoutTime": 0.0959097,
  "TxRefAmp": 256.254,
  "WipMemBlock": "9a0d4211-797d-4e9e-bbcf-f61fac4d4234||Sequence: R016 ve11c/master r/e634e98; Dec 19 2017 11:11:25 by eja",
  "dcmmeta_affine": [
    [-1.7130690813064575, -0.014949791133403778, 0.06229734420776367, 120.70127868652344],
    [0.002730336971580982, 1.649452805519104, 0.4630889892578125, -107.6396713256836],
    [0.06451727449893951, -0.466752290725708, 1.634521484375, 2.2118847370147705],
    [0.0, 0.0, 0.0, 1.0]
],
  "dcmmeta_reorient_transform": [
    [0.0, -1.0, 0.0, 139.0],
    [1.0, 0.0, 0.0, 0.0],
    [0.0, 0.0, -1.0, 80.0],
    [0.0, 0.0, 0.0, 1.0]
],
  "dcmmeta_shape": [140, 140, 81],
  "dcmmeta_slice_dim": 2,
  "dcmmeta_version": 0.6,
  "global": {
    "const": {
      "AccessionNumber": "A003802",
      "AcquisitionMatrix": [140, 0, 0, 140],
      "AcquisitionNumber": 1,
      "AngioFlag": "N",
      "BitsAllocated": 16,
      "BitsStored": 16,
      "BodyPartExamined": "BRAIN",
      "Columns": 140,
      "EchoNumbers": 1,
      "EchoTime": 88.0,
      "EchoTrainLength": 105,
      "FlipAngle": 90.0,
      "HighBit": 15,
      "ImageOrientationPatient": [0.99929028025063, -0.0015926964976, 0.03763507824479, -0.0087207115692, 0.96218076124767, 0.27227216507491],
      "ImageType": [
        "ORIGINAL",
        "PRIMARY",
        "DIFFUSION",
        "NONE",
        "MB",
        "ND"
],
      "ImagedNucleus": "1H",
      "ImagingFrequency": 123.252133,
      "InPlanePhaseEncodingDirection": "COL",
      "MRAcquisitionType": "2D",
      "MagneticFieldStrength": 3.0,
      "Manufacturer": "SIEMENS",
      "ManufacturerModelName": "Prisma",
      "Modality": "MR",
      "NumberOfAverages": 1.0,
      "NumberOfPhaseEncodingSteps": 105,
      "PercentPhaseFieldOfView": 100.0,
      "PercentSampling": 100.0,
      "PerformedProcedureStepStartTime": "123643.179000",
      "PhotometricInterpretation": "MONOCHROME2",
      "PixelBandwidth": 1700.0,
      "PixelRepresentation": 0,
      "PixelSpacing": [1.7142857313156, 1.7142857313156],
      "ProtocolName": "dwi_acq-discorr-PA",
      "RepetitionTime": 4100.0,
      "Rows": 140,
      "SAR": 0.16112068987646,
      "SamplesPerPixel": 1,
      "ScanOptions": [
        "PFP",
        "FS"
],
      "ScanningSequence": "EP",
      "SequenceName": "ep_b0",
      "SequenceVariant": [
        "SK",
        "SS"
],
      "SeriesDescription": "dwi_acq-discorr-PA",
      "SeriesNumber": 6,
      "SeriesTime": "125401.045000",
      "SliceThickness": 1.7000000476837,
      "SmallestImagePixelValue": 0,
      "SoftwareVersions": "syngo MR E11",
      "SpacingBetweenSlices": 1.7,
      "SpecificCharacterSet": "ISO_IR 100",
      "StudyID": "1",
      "StudyTime": "123643.061000",
      "TransmitCoilName": "Body",
      "VariableFlipAngleFlag": "N",
      "WindowCenterWidthExplanation": "Algo1",
      "dBdt": 0.0},
    "slices": {
      "AcquisitionTime": ["125356.467500", "125358.582500", "125356.620000", "125358.735000", "125356.770000", "125358.885000", "125356.922500", "125359.037500", "125357.072500", "125359.187500", "125357.222500", "125359.340000", "125357.375000", "125359.490000", "125357.525000", "125359.642500", "125357.677500", "125359.792500", "125357.827500", "125359.942500", "125357.980000", "125400.095000", "125358.130000", "125400.245000", "125358.282500", "125400.397500", "125358.432500", "125356.467500", "125358.582500", "125356.620000", "125358.735000", "125356.770000", "125358.885000", "125356.922500", "125359.037500", "125357.072500", "125359.187500", "125357.222500", "125359.340000", "125357.375000", "125359.490000", "125357.525000", "125359.642500", "125357.677500", "125359.792500", "125357.827500", "125359.942500", "125357.980000", "125400.095000", "125358.130000", "125400.245000", "125358.282500", "125400.397500", "125358.432500", "125356.467500", "125358.582500", "125356.620000", "125358.735000", "125356.770000", "125358.885000", "125356.922500", "125359.037500", "125357.072500", "125359.187500", "125357.222500", "125359.340000", "125357.375000", "125359.490000", "125357.525000", "125359.642500", "125357.677500", "125359.792500", "125357.827500", "125359.942500", "125357.980000", "125400.095000", "125358.130000", "125400.245000", "125358.282500", "125400.397500", "125358.432500"],
      "ContentTime": ["125401.048000", "125401.166000", "125401.058000", "125401.172000", "125401.079000", "125401.179000", "125401.086000", "125401.185000", "125401.093000", "125401.192000", "125401.101000", "125401.198000", "125401.108000", "125401.205000", "125401.120000", "125401.212000", "125401.127000", "125401.219000", "125401.133000", "125401.225000", "125401.140000", "125401.231000", "125401.146000", "125401.238000", "125401.153000", "125401.244000", "125401.160000", "125401.051000", "125401.168000", "125401.061000", "125401.175000", "125401.081000", "125401.181000", "125401.088000", "125401.187000", "125401.096000", "125401.194000", "125401.103000", "125401.200000", "125401.110000", "125401.207000", "125401.122000", "125401.214000", "125401.129000", "125401.221000", "125401.135000", "125401.227000", "125401.142000", "125401.234000", "125401.148000", "125401.240000", "125401.155000", "125401.246000", "125401.162000", "125401.054000", "125401.170000", "125401.074000", "125401.177000", "125401.084000", "125401.183000", "125401.091000", "125401.190000", "125401.098000", "125401.196000", "125401.106000", "125401.203000", "125401.113000", "125401.210000", "125401.124000", "125401.216000", "125401.131000", "125401.223000", "125401.137000", "125401.229000", "125401.144000", "125401.236000", "125401.150000", "125401.242000", "125401.158000", "125401.249000", "125401.164000"],
      "CsaImage.ICE_Dims": [
        "X_1_1_1_1_1_1_1_1_1_1_1_123",
        "X_1_1_1_1_1_1_42_1_1_2_1_123",
        "X_1_1_1_1_1_1_2_1_1_3_1_123",
        "X_1_1_1_1_1_1_43_1_1_4_1_123",
        "X_1_1_1_1_1_1_3_1_1_5_1_123",
        "X_1_1_1_1_1_1_44_1_1_6_1_123",
        "X_1_1_1_1_1_1_4_1_1_7_1_123",
        "X_1_1_1_1_1_1_45_1_1_8_1_123",
        "X_1_1_1_1_1_1_5_1_1_9_1_123",
        "X_1_1_1_1_1_1_46_1_1_10_1_123",
        "X_1_1_1_1_1_1_6_1_1_11_1_123",
        "X_1_1_1_1_1_1_47_1_1_12_1_123",
        "X_1_1_1_1_1_1_7_1_1_13_1_123",
        "X_1_1_1_1_1_1_48_1_1_14_1_123",
        "X_1_1_1_1_1_1_8_1_1_15_1_123",
        "X_1_1_1_1_1_1_49_1_1_16_1_123",
        "X_1_1_1_1_1_1_9_1_1_17_1_123",
        "X_1_1_1_1_1_1_50_1_1_18_1_123",
        "X_1_1_1_1_1_1_10_1_1_19_1_123",
        "X_1_1_1_1_1_1_51_1_1_20_1_123",
        "X_1_1_1_1_1_1_11_1_1_21_1_123",
        "X_1_1_1_1_1_1_52_1_1_22_1_123",
        "X_1_1_1_1_1_1_12_1_1_23_1_123",
        "X_1_1_1_1_1_1_53_1_1_24_1_123",
        "X_1_1_1_1_1_1_13_1_1_25_1_123",
        "X_1_1_1_1_1_1_54_1_1_26_1_123",
        "X_1_1_1_1_1_1_14_1_1_27_1_123",
        "X_1_1_1_1_1_1_55_1_1_28_1_123",
        "X_1_1_1_1_1_1_15_1_1_29_1_123",
        "X_1_1_1_1_1_1_56_1_1_30_1_123",
        "X_1_1_1_1_1_1_16_1_1_31_1_123",
        "X_1_1_1_1_1_1_57_1_1_32_1_123",
        "X_1_1_1_1_1_1_17_1_1_33_1_123",
        "X_1_1_1_1_1_1_58_1_1_34_1_123",
        "X_1_1_1_1_1_1_18_1_1_35_1_123",
        "X_1_1_1_1_1_1_59_1_1_36_1_123",
        "X_1_1_1_1_1_1_19_1_1_37_1_123",
        "X_1_1_1_1_1_1_60_1_1_38_1_123",
        "X_1_1_1_1_1_1_20_1_1_39_1_123",
        "X_1_1_1_1_1_1_61_1_1_40_1_123",
        "X_1_1_1_1_1_1_21_1_1_41_1_123",
        "X_1_1_1_1_1_1_62_1_1_42_1_123",
        "X_1_1_1_1_1_1_22_1_1_43_1_123",
        "X_1_1_1_1_1_1_63_1_1_44_1_123",
        "X_1_1_1_1_1_1_23_1_1_45_1_123",
        "X_1_1_1_1_1_1_64_1_1_46_1_123",
        "X_1_1_1_1_1_1_24_1_1_47_1_123",
        "X_1_1_1_1_1_1_65_1_1_48_1_123",
        "X_1_1_1_1_1_1_25_1_1_49_1_123",
        "X_1_1_1_1_1_1_66_1_1_50_1_123",
        "X_1_1_1_1_1_1_26_1_1_51_1_123",
        "X_1_1_1_1_1_1_67_1_1_52_1_123",
        "X_1_1_1_1_1_1_27_1_1_53_1_123",
        "X_1_1_1_1_1_1_68_1_1_54_1_123",
        "X_1_1_1_1_1_1_28_1_1_55_1_123",
        "X_1_1_1_1_1_1_69_1_1_56_1_123",
        "X_1_1_1_1_1_1_29_1_1_57_1_123",
        "X_1_1_1_1_1_1_70_1_1_58_1_123",
        "X_1_1_1_1_1_1_30_1_1_59_1_123",
        "X_1_1_1_1_1_1_71_1_1_60_1_123",
        "X_1_1_1_1_1_1_31_1_1_61_1_123",
        "X_1_1_1_1_1_1_72_1_1_62_1_123",
        "X_1_1_1_1_1_1_32_1_1_63_1_123",
        "X_1_1_1_1_1_1_73_1_1_64_1_123",
        "X_1_1_1_1_1_1_33_1_1_65_1_123",
        "X_1_1_1_1_1_1_74_1_1_66_1_123",
        "X_1_1_1_1_1_1_34_1_1_67_1_123",
        "X_1_1_1_1_1_1_75_1_1_68_1_123",
        "X_1_1_1_1_1_1_35_1_1_69_1_123",
        "X_1_1_1_1_1_1_76_1_1_70_1_123",
        "X_1_1_1_1_1_1_36_1_1_71_1_123",
        "X_1_1_1_1_1_1_77_1_1_72_1_123",
        "X_1_1_1_1_1_1_37_1_1_73_1_123",
        "X_1_1_1_1_1_1_78_1_1_74_1_123",
        "X_1_1_1_1_1_1_38_1_1_75_1_123",
        "X_1_1_1_1_1_1_79_1_1_76_1_123",
        "X_1_1_1_1_1_1_39_1_1_77_1_123",
        "X_1_1_1_1_1_1_80_1_1_78_1_123",
        "X_1_1_1_1_1_1_40_1_1_79_1_123",
        "X_1_1_1_1_1_1_81_1_1_80_1_123",
        "X_1_1_1_1_1_1_41_1_1_81_1_123"
],
      "CsaImage.ProtocolSliceNumber": [0, 1, 2, 3, 4, 5, 6, 7, 8, 9, 10, 11, 12, 13, 14, 15, 16, 17, 18, 19, 20, 21, 22, 23, 24, 25, 26, 27, 28, 29, 30, 31, 32, 33, 34, 35, 36, 37, 38, 39, 40, 41, 42, 43, 44, 45, 46, 47, 48, 49, 50, 51, 52, 53, 54, 55, 56, 57, 58, 59, 60, 61, 62, 63, 64, 65, 66, 67, 68, 69, 70, 71, 72, 73, 74, 75, 76, 77, 78, 79, 80],
      "CsaImage.RFSWDDataType": [
        "predicted",
        "predicted",
        "predicted",
        "predicted",
        "predicted",
        "predicted",
        "predicted",
        "predicted",
        "predicted",
        "predicted",
        "predicted",
        "predicted",
        "predicted",
        "predicted",
        "predicted",
        "predicted",
        "predicted",
        "predicted",
        "predicted",
        "predicted",
        "predicted",
        "predicted",
        "predicted",
        "predicted",
        "predicted",
        "measured",
        "predicted",
        "predicted",
        "predicted",
        "predicted",
        "predicted",
        "predicted",
        "predicted",
        "predicted",
        "predicted",
        "predicted",
        "predicted",
        "predicted",
        "predicted",
        "predicted",
        "predicted",
        "predicted",
        "predicted",
        "predicted",
        "predicted",
        "predicted",
        "predicted",
        "predicted",
        "predicted",
        "predicted",
        "predicted",
        "predicted",
        "measured",
        "predicted",
        "predicted",
        "predicted",
        "predicted",
        "predicted",
        "predicted",
        "predicted",
        "predicted",
        "predicted",
        "predicted",
        "predicted",
        "predicted",
        "predicted",
        "predicted",
        "predicted",
        "predicted",
        "predicted",
        "predicted",
        "predicted",
        "predicted",
        "predicted",
        "predicted",
        "predicted",
        "predicted",
        "predicted",
        "predicted",
        "measured",
        "predicted"
],
      "CsaImage.SlicePosition_PCS": [
        [-118.62327207, -121.63401324, -62.66678438],
        [-118.68556925, -122.09710557, -61.03226099],
        [-118.74786643, -122.56019742, -59.3977395],
        [-118.81016361, -123.02328975, -57.76321611],
        [-118.8724608, -123.4863816, -56.12869272],
        [-118.93475798, -123.9494744, -54.49417123],
        [-118.99705516, -124.41256625, -52.85964784],
        [-119.05935234, -124.8756581, -51.2251254],
        [-119.12164952, -125.33874995, -49.59060201],
        [-119.18394672, -125.80184276, -47.95607957],
        [-119.24624391, -126.26493461, -46.32155714],
        [-119.30854108, -126.72802646, -44.68703374],
        [-119.37083827, -127.19111926, -43.05251131],
        [-119.43313544, -127.65421111, -41.41798839],
        [-119.49543266, -128.11730296, -39.78346548],
        [-119.55772983, -128.58039481, -38.14894274],
        [-119.620027, -129.04348762, -36.51442],
        [-119.68232416, -129.50657947, -34.87989721],
        [-119.74462139, -129.96967132, -33.24537429],
        [-119.80691855, -130.43276412, -31.61085138],
        [-119.86921572, -130.89585597, -29.97632894],
        [-119.93151294, -131.35894782, -28.3418065],
        [-119.99381005, -131.82204063, -26.70728311],
        [-120.05610727, -132.28513152, -25.07276067],
        [-120.1184045, -132.74822433, -23.43823728],
        [-120.1807016, -133.21131713, -21.80371484],
        [-120.24299883, -133.67440803, -20.16919145],
        [-120.30529605, -134.13750083, -18.53466997],
        [-120.36759316, -134.60059363, -16.90014658],
        [-120.42989038, -135.06368453, -15.26562318],
        [-120.49218761, -135.52677733, -13.6311017],
        [-120.55448471, -135.98986823, -11.99657831],
        [-120.61678194, -136.45296104, -10.36205492],
        [-120.67907916, -136.91605384, -8.72753343],
        [-120.74137627, -137.37914474, -7.09301004],
        [-120.8036735, -137.84223754, -5.45848665],
        [-120.86597072, -138.30533034, -3.82396326],
        [-120.92826783, -138.76842124, -2.18944177],
        [-120.99056493, -139.23151404, -0.55492029],
        [-121.05286228, -139.69460685, 1.07960501],
        [-121.11515938, -140.15769775, 2.7141265],
        [-121.17745649, -140.62079055, 4.34864798],
        [-121.23975383, -141.08388145, 5.98317328],
        [-121.30205094, -141.54697425, 7.61769476],
        [-121.36434804, -142.01006705, 9.25221625],
        [-121.42664539, -142.47315795, 10.88674155],
        [-121.48894249, -142.93625075, 12.52126303],
        [-121.5512396, -143.39934356, 14.15578833],
        [-121.61353694, -143.86243445, 15.79030981],
        [-121.67583405, -144.32552726, 17.4248313],
        [-121.73813116, -144.78862006, 19.0593566],
        [-121.8004285, -145.25171096, 20.69387808],
        [-121.86272561, -145.71480376, 22.32839957],
        [-121.92502271, -146.17789657, 23.96292487],
        [-121.98732006, -146.64098746, 25.59744635],
        [-122.04961716, -147.10408027, 27.23196783],
        [-122.11191427, -147.56717307, 28.86648932],
        [-122.17421161, -148.03026588, 30.5010108],
        [-122.23650872, -148.49335486, 32.13553992],
        [-122.29880582, -148.95644767, 33.7700614],
        [-122.36110317, -149.41954047, 35.40458289],
        [-122.42340027, -149.88263328, 37.03910437],
        [-122.48569738, -150.34572608, 38.67362585],
        [-122.54799472, -150.80881507, 40.30814734],
        [-122.61029183, -151.27190787, 41.94267645],
        [-122.67258893, -151.73500068, 43.57719794],
        [-122.73488628, -152.19809348, 45.21171942],
        [-122.79718338, -152.66118629, 46.84624091],
        [-122.85948049, -153.12427909, 48.48076239],
        [-122.9217776, -153.58736808, 50.1152915],
        [-122.98407494, -154.05046088, 51.74981299],
        [-123.04637228, -154.51355369, 53.38433447],
        [-123.10866915, -154.97664649, 55.01885596],
        [-123.1709665, -155.43973929, 56.65337744],
        [-123.23326384, -155.9028321, 58.28789893],
        [-123.29556071, -156.36592109, 59.92242804],
        [-123.35785805, -156.82901389, 61.55694952],
        [-123.4201554, -157.2921067, 63.19147101],
        [-123.48245226, -157.7551995, 64.82599249],
        [-123.54474961, -158.2182923, 66.46051398],
        [-123.60704695, -158.68138129, 68.09503546]
],
      "CsaImage.TimeAfterStart": [16.4, 18.515, 16.5525, 18.6675, 16.7025, 18.8175, 16.8525, 18.97, 17.005, 19.12, 17.155, 19.2725, 17.3075, 19.4225, 17.4575, 19.5725, 17.61, 19.725, 17.76, 19.875, 17.9125, 20.0275, 18.0625, 20.1775, 18.2125, 20.33, 18.365, 16.4, 18.515, 16.5525, 18.6675, 16.7025, 18.8175, 16.8525, 18.97, 17.005, 19.12, 17.155, 19.2725, 17.3075, 19.4225, 17.4575, 19.5725, 17.61, 19.725, 17.76, 19.875, 17.9125, 20.0275, 18.0625, 20.1775, 18.2125, 20.33, 18.365, 16.4, 18.515, 16.5525, 18.6675, 16.7025, 18.8175, 16.8525, 18.97, 17.005, 19.12, 17.155, 19.2725, 17.3075, 19.4225, 17.4575, 19.5725, 17.61, 19.725, 17.76, 19.875, 17.9125, 20.0275, 18.0625, 20.1775, 18.2125, 20.33, 18.365],
      "ImagePositionPatient": [
        [-118.62327206593, -121.63401324342, -62.666784377983],
        [-118.68556924622, -122.09710557054, -61.032260986259],
        [-118.74786643397, -122.56019742082, -59.397739501884],
        [-118.81016361426, -123.02328974794, -57.763216110161],
        [-118.87246079968, -123.48638159822, -56.128692718437],
        [-118.9347579823, -123.94947440218, -54.494171234062],
        [-118.9970551626, -124.41256625246, -52.859647842338],
        [-119.05935234289, -124.87565810274, -51.225125404289],
        [-119.12164952319, -125.33874995302, -49.590602012565],
        [-119.18394671839, -125.80184275697, -47.956079574516],
        [-119.24624391358, -126.26493460725, -46.321557136467],
        [-119.30854107898, -126.72802645754, -44.687033744743],
        [-119.37083827417, -127.19111926149, -43.052511306694],
        [-119.43313543957, -127.65421111177, -41.417988391807],
        [-119.49543266456, -128.11730296205, -39.783465476921],
        [-119.55772982996, -128.58039481233, -38.148942740848],
        [-119.62002699535, -129.04348761629, -36.514420004776],
        [-119.68232416075, -129.50657946657, -34.879897209099],
        [-119.74462138574, -129.96967131685, -33.245374294212],
        [-119.80691855114, -130.4327641208, -31.610851379326],
        [-119.86921571653, -130.89585597108, -29.976328941276],
        [-119.93151294153, -131.35894782137, -28.341806503227],
        [-119.99381004732, -131.82204062532, -26.707283111503],
        [-120.05610727232, -132.28513152193, -25.072760673454],
        [-120.11840449732, -132.74822432588, -23.43823728173],
        [-120.18070160311, -133.21131712984, -21.803714843681],
        [-120.2429988281, -133.67440802644, -20.169191451957],
        [-120.3052960531, -134.1375008304, -18.534669967582],
        [-120.36759315889, -134.60059363435, -16.900146575859],
        [-120.42989038389, -135.06368453096, -15.265623184135],
        [-120.49218760889, -135.52677733492, -13.63110169976],
        [-120.55448471468, -135.98986823152, -11.996578308037],
        [-120.61678193968, -136.45296103548, -10.362054916313],
        [-120.67907916468, -136.91605383943, -8.727533431938],
        [-120.74137627046, -137.37914473604, -7.0930100402143],
        [-120.80367349546, -137.84223753999, -5.4584866484907],
        [-120.86597072046, -138.30533034395, -3.8239632567671],
        [-120.92826782625, -138.76842124056, -2.1894417723921],
        [-120.99056493204, -139.23151404451, -0.5549202880171],
        [-121.05286227625, -139.69460684847, 1.0796050110552],
        [-121.11515938204, -140.15769774507, 2.7141264954302],
        [-121.17745648783, -140.62079054903, 4.3486479798052],
        [-121.23975383203, -141.08388144563, 5.9831732788775],
        [-121.30205093782, -141.54697424959, 7.6176947632525],
        [-121.36434804361, -142.01006705354, 9.2522162476275],
        [-121.42664538782, -142.47315795015, 10.8867415467],
        [-121.48894249361, -142.9362507541, 12.521263031075],
        [-121.5512395994, -143.39934355806, 14.155788330147],
        [-121.61353694361, -143.86243445467, 15.790309814522],
        [-121.67583404939, -144.32552725862, 17.424831298897],
        [-121.73813115518, -144.78862006258, 19.059356597969],
        [-121.80042849939, -145.25171095918, 20.693878082344],
        [-121.86272560518, -145.71480376314, 22.328399566719],
        [-121.92502271097, -146.17789656709, 23.962924865792],
        [-121.98732005518, -146.6409874637, 25.597446350167],
        [-122.04961716097, -147.10408026765, 27.231967834542],
        [-122.11191426676, -147.56717307161, 28.866489318917],
        [-122.17421161096, -148.03026587556, 30.501010803292],
        [-122.23650871675, -148.49335486482, 32.135539917061],
        [-122.29880582254, -148.95644766878, 33.770061401436],
        [-122.36110316675, -149.41954047273, 35.404582885811],
        [-122.42340027254, -149.88263327669, 37.039104370186],
        [-122.48569737833, -150.34572608064, 38.673625854561],
        [-122.54799472254, -150.8088150699, 40.308147338936],
        [-122.61029182833, -151.27190787386, 41.942676452706],
        [-122.67258893411, -151.73500067781, 43.577197937081],
        [-122.73488627832, -152.19809348177, 45.211719421456],
        [-122.79718338411, -152.66118628572, 46.846240905831],
        [-122.8594804899, -153.12427908968, 48.480762390206],
        [-122.92177759569, -153.58736807893, 50.115291503975],
        [-122.9840749399, -154.05046088289, 51.74981298835],
        [-123.04637228411, -154.51355368684, 53.384334472725],
        [-123.10866915148, -154.9766464908, 55.0188559571],
        [-123.17096649568, -155.43973929475, 56.653377441475],
        [-123.23326383989, -155.90283209871, 58.28789892585],
        [-123.29556070726, -156.36592108797, 59.92242803962],
        [-123.35785805147, -156.82901389192, 61.556949523995],
        [-123.42015539568, -157.29210669588, 63.19147100837],
        [-123.48245226305, -157.75519949983, 64.825992492745],
        [-123.54474960726, -158.21829230379, 66.46051397712],
        [-123.60704695146, -158.68138129305, 68.095035461495]
],
      "InstanceCreationTime": ["125401.048000", "125401.166000", "125401.058000", "125401.172000", "125401.079000", "125401.179000", "125401.086000", "125401.185000", "125401.093000", "125401.192000", "125401.101000", "125401.198000", "125401.108000", "125401.205000", "125401.120000", "125401.212000", "125401.127000", "125401.219000", "125401.133000", "125401.225000", "125401.140000", "125401.231000", "125401.146000", "125401.238000", "125401.153000", "125401.244000", "125401.160000", "125401.051000", "125401.168000", "125401.061000", "125401.175000", "125401.081000", "125401.181000", "125401.088000", "125401.187000", "125401.096000", "125401.194000", "125401.103000", "125401.200000", "125401.110000", "125401.207000", "125401.122000", "125401.214000", "125401.129000", "125401.221000", "125401.135000", "125401.227000", "125401.142000", "125401.234000", "125401.148000", "125401.240000", "125401.155000", "125401.246000", "125401.162000", "125401.054000", "125401.170000", "125401.074000", "125401.177000", "125401.084000", "125401.183000", "125401.091000", "125401.190000", "125401.098000", "125401.196000", "125401.106000", "125401.203000", "125401.113000", "125401.210000", "125401.124000", "125401.216000", "125401.131000", "125401.223000", "125401.137000", "125401.229000", "125401.144000", "125401.236000", "125401.150000", "125401.242000", "125401.158000", "125401.249000", "125401.164000"],
      "InstanceNumber": [1, 2, 3, 4, 5, 6, 7, 8, 9, 10, 11, 12, 13, 14, 15, 16, 17, 18, 19, 20, 21, 22, 23, 24, 25, 26, 27, 28, 29, 30, 31, 32, 33, 34, 35, 36, 37, 38, 39, 40, 41, 42, 43, 44, 45, 46, 47, 48, 49, 50, 51, 52, 53, 54, 55, 56, 57, 58, 59, 60, 61, 62, 63, 64, 65, 66, 67, 68, 69, 70, 71, 72, 73, 74, 75, 76, 77, 78, 79, 80, 81],
      "LargestImagePixelValue": [20215, 23051, 36963, 23610, 26048, 26807, 29635, 35397, 28061, 31064, 32403, 38710, 41297, 45892, 34187, 33994, 29509, 31867, 33121, 36190, 26169, 29385, 27035, 30800, 28757, 42346, 59019, 48285, 64620, 65535, 65535, 65535, 65535, 65535, 65535, 65535, 65535, 65535, 65535, 65535, 50801, 39962, 36830, 33829, 33610, 35436, 35174, 30577, 33500, 35764, 44586, 37108, 42018, 36495, 26842, 26931, 26173, 26167, 32988, 36043, 37891, 43351, 40569, 32462, 48071, 35120, 47080, 36482, 37269, 38143, 34992, 33959, 31172, 29631, 31117, 30902, 47250, 41732, 15586, 5295, 4938],
      "SliceLocation": [-22.77214060021, -21.072139964857, -19.37214129301, -17.672140657658, -15.972140152011, -14.272141220564, -12.572140715105, -10.872141126589, -9.1721406211299, -7.4721407722798, -5.7721411832174, -4.0721406783045, -2.3721408294544, -0.6721407830128, 1.0278592656131, 2.7278591401279, 4.4278592744305, 6.1278592062543, 7.8278592548801, 9.5278595611094, 11.22785914908, 12.927858739234, 14.627859501751, 16.327858832117, 18.027859599002, 19.727859444576, 21.427859691885, 23.127858624885, 24.827859387401, 26.527859634711, 28.227858567711, 29.927858810652, 31.627859577536, 33.327858510536, 35.027858753477, 36.727859520362, 38.427860287247, 40.127858696302, 41.827857624934, 43.527860230072, 45.227858639128, 46.927857567759, 48.627859653322, 50.327858581953, 52.027857510584, 53.727859596148, 55.427858524779, 57.12786112118, 58.827859538973, 60.527858467604, 62.227861064006, 63.927859481798, 65.62785841043, 67.327861006831, 69.027859424624, 70.727858353255, 72.427857281886, 74.127856219254, 75.827861444275, 77.527860372907, 79.227859310275, 80.927858238906, 82.627857167537, 84.327855065754, 86.027861329926, 87.727860258557, 89.427859195926, 91.127858124557, 92.827857053188, 94.527862278209, 96.227861215577, 97.927860152945, 99.62785907284, 101.32785801021, 103.02785694758, 104.72786216386, 106.42786110123, 108.1278600386, 109.82785895849, 111.52785789586, 113.22785579408],
      "WindowCenter": [3042.0, 3682.0, 5787.0, 5207.0, 5613.0, 5794.0, 6095.0, 6595.0, 6443.0, 6283.0, 6395.0, 6845.0, 7258.0, 7594.0, 7246.0, 7403.0, 7417.0, 7760.0, 7774.0, 7725.0, 7353.0, 7495.0, 7609.0, 7752.0, 7699.0, 7841.0, 8278.0, 8219.0, 8426.0, 8584.0, 8650.0, 8717.0, 8818.0, 8929.0, 9038.0, 9236.0, 9346.0, 9200.0, 8973.0, 8750.0, 8238.0, 8107.0, 8253.0, 8381.0, 8396.0, 8474.0, 8395.0, 8429.0, 8475.0, 8789.0, 8881.0, 8765.0, 8840.0, 8947.0, 8345.0, 8283.0, 8437.0, 8423.0, 8674.0, 8692.0, 8924.0, 8750.0, 8826.0, 8722.0, 8716.0, 8516.0, 8547.0, 8383.0, 8333.0, 8270.0, 8261.0, 7973.0, 8148.0, 7982.0, 8536.0, 8574.0, 9184.0, 7030.0, 2885.0, 1389.0, 1394.0],
      "WindowWidth": [8348.0, 9261.0, 12524.0, 11500.0, 12221.0, 12382.0, 13003.0, 13977.0, 13865.0, 13888.0, 14452.0, 15968.0, 16496.0, 17005.0, 15923.0, 16012.0, 16125.0, 16700.0, 16536.0, 16491.0, 15702.0, 15903.0, 16241.0, 16643.0, 16523.0, 16902.0, 18223.0, 18555.0, 19421.0, 20123.0, 20246.0, 20352.0, 20988.0, 21567.0, 22029.0, 22344.0, 22523.0, 22160.0, 21378.0, 20438.0, 18082.0, 17380.0, 17666.0, 17892.0, 17984.0, 18175.0, 17947.0, 18066.0, 18158.0, 18736.0, 18976.0, 18743.0, 19049.0, 19165.0, 17815.0, 17639.0, 17894.0, 17922.0, 18479.0, 18614.0, 19268.0, 18880.0, 19057.0, 18795.0, 18865.0, 18362.0, 18229.0, 17828.0, 17756.0, 17662.0, 17591.0, 16868.0, 17154.0, 16842.0, 17957.0, 17911.0, 19503.0, 14553.0, 7050.0, 3791.0, 3819.0]
    }
  }
}