{
  "AcquisitionMatrixPE": 82,
  "AcquisitionNumber": 1,
  "AcquisitionTime": "18:57:4.095000",
  "BandwidthPerPixelPhaseEncode": 24.888,
  "BaseResolution": 82,
  "BodyPartExamined": "BRAIN",
  "ConsistencyInfo": "N4_VE11E_LATEST_20181129",
  "ConversionSoftware": "dcm2niix",
  "ConversionSoftwareVersion": "v1.0.20201102",
  "DerivedVendorReportedEchoSpacing": 0.00049,
  "DeviceSerialNumber": "66112",
  "DwellTime": 2e-06,
  "EchoTime": 0.0272,
  "EchoTrainLength": 82,
  "EffectiveEchoSpacing": 0.00049,
  "FlipAngle": 44,
  "ImageComments": "Unaliased MB8/PE3",
  "ImageOrientationPatientDICOM": [0.997542, -0.0577526, -0.0396806, 0.0634592, 0.984731, 0.162105],
  "ImageType": [
    "ORIGINAL",
    "PRIMARY",
    "M",
    "MB",
    "ND",
    "NORM",
    "MOSAIC"
],
  "ImagingFrequency": 123.259,
  "InPlanePhaseEncodingDirectionDICOM": "COL",
  "InstitutionAddress": "Maynard 3,Hanover,NH,US,03755",
  "InstitutionName": "Dartmouth College - PBS",
  "InstitutionalDepartmentName": "Department",
  "MRAcquisitionType": "2D",
  "MagneticFieldStrength": 3,
  "Manufacturer": "Siemens",
  "ManufacturersModelName": "Prisma",
  "Modality": "MR",
  "MultibandAccelerationFactor": 8,
  "PartialFourier": 1,
  "PatientPosition": "HFS",
  "PercentPhaseFOV": 100,
  "PercentSampling": 100,
  "PhaseEncodingDirection": "j-",
  "PhaseEncodingSteps": 82,
  "PhaseResolution": 1,
  "PixelBandwidth": 3050,
  "ProcedureStepDescription": "Wager_Wager^1076_spacetop",
  "ProtocolName": "func_run-02_task-alignvideo_acq-ap-mb8",
  "PulseSequenceDetails": "%CustomerSeq%\\cmrr_mbep2d_bold",
  "ReceiveCoilActiveElements": "HEA;HEP",
  "ReceiveCoilName": "Head_32",
  "ReconMatrixPE": 82,
  "RepetitionTime": 0.46,
  "SAR": 0.0882006,
  "ScanOptions": "FS",
  "ScanningSequence": "EP",
  "SequenceName": "epfid2d1_82",
  "SequenceVariant": "SK\\SS",
  "SeriesDescription": "func_run-02_task-alignvideo_acq-ap-mb8",
  "SeriesNumber": 32,
  "ShimSetting": [4223, -7823, -7221, 243, -116, 94, -34, 89],
  "SliceThickness": 2.7,
  "SliceTiming": [0, 0.2525, 0.065, 0.315, 0.1275, 0.3775, 0.19, 0, 0.2525, 0.065, 0.315, 0.1275, 0.3775, 0.19, 0, 0.2525, 0.065, 0.315, 0.1275, 0.3775, 0.19, 0, 0.2525, 0.065, 0.315, 0.1275, 0.3775, 0.19, 0, 0.2525, 0.065, 0.315, 0.1275, 0.3775, 0.19, 0, 0.2525, 0.065, 0.315, 0.1275, 0.3775, 0.19, 0, 0.2525, 0.065, 0.315, 0.1275, 0.3775, 0.19, 0, 0.2525, 0.065, 0.315, 0.1275, 0.3775, 0.19],
  "SoftwareVersions": "syngo MR E11",
  "SpacingBetweenSlices": 2.7,
  "StationName": "AWP66112",
  "TaskName": "alignvideo",
  "TotalReadoutTime": 0.03969,
  "TxRefAmp": 245.19,
  "WipMemBlock": "f01901d7-884d-4b87-8a0e-deeaf65689fc||Sequence: R016 ve11e/master r/434b28f1; Aug  7 2019 18:53:46 by eja",
  "dcmmeta_affine": [
    [-2.6763322353363037, 0.17025645077228546, -0.08022439479827881, 104.37065124511719],
    [0.15494608879089355, 2.641960859298706, 0.44340771436691284, -107.15530395507812],
    [-0.10646027326583862, -0.43491700291633606, 2.66213321685791, -38.309051513671875],
    [0.0, 0.0, 0.0, 1.0]
],
  "dcmmeta_reorient_transform": [
    [0.0, -1.0, 0.0, 81.0],
    [1.0, 0.0, 0.0, 0.0],
    [0.0, 0.0, 1.0, 0.0],
    [0.0, 0.0, 0.0, 1.0]
],
  "dcmmeta_shape": [82, 82, 56, 926],
  "dcmmeta_slice_dim": 2,
  "dcmmeta_version": 0.6,
  "global": {
    "const": {
      "AccessionNumber": "A004334",
      "AcquisitionMatrix": [82, 0, 0, 82],
      "AngioFlag": "N",
      "BitsAllocated": 16,
      "BitsStored": 16,
      "BodyPartExamined": "BRAIN",
      "Columns": 656,
      "EchoNumbers": 1,
      "EchoTime": 27.2,
      "EchoTrainLength": 82,
      "FlipAngle": 44.0,
      "HighBit": 15,
      "ImageOrientationPatient": [0.99754201919613, -0.0577526294502, -0.0396806467903, 0.06345922309305, 0.98473080415597, 0.1621054297387],
      "ImagePositionPatient": [-935.132400599, -820.61673014772, -167.80441398012],
      "ImageType": [
        "ORIGINAL",
        "PRIMARY",
        "M",
        "MB",
        "ND",
        "NORM",
        "MOSAIC"
],
      "ImagedNucleus": "1H",
      "ImagingFrequency": 123.259111,
      "InPlanePhaseEncodingDirection": "COL",
      "MRAcquisitionType": "2D",
      "MagneticFieldStrength": 3.0,
      "Manufacturer": "SIEMENS",
      "ManufacturerModelName": "Prisma",
      "Modality": "MR",
      "NumberOfAverages": 1.0,
      "NumberOfPhaseEncodingSteps": 82,
      "PercentPhaseFieldOfView": 100.0,
      "PercentSampling": 100.0,
      "PerformedProcedureStepStartTime": "172402.341000",
      "PhotometricInterpretation": "MONOCHROME2",
      "PixelBandwidth": 3050.0,
      "PixelRepresentation": 0,
      "PixelSpacing": [2.6829268932343, 2.6829268932343],
      "ProtocolName": "func_run-02_task-alignvideo_acq-ap-mb8",
      "RepetitionTime": 460.0,
      "Rows": 656,
      "SAR": 0.08820063514282,
      "SamplesPerPixel": 1,
      "ScanOptions": "FS",
      "ScanningSequence": "EP",
      "SequenceName": "epfid2d1_82",
      "SequenceVariant": [
        "SK",
        "SS"
],
      "SeriesDescription": "func_run-02_task-alignvideo_acq-ap-mb8",
      "SeriesNumber": 32,
      "SeriesTime": "185717.531000",
      "SliceLocation": -58.47050354517,
      "SliceThickness": 2.7000000476837,
      "SmallestImagePixelValue": 0,
      "SoftwareVersions": "syngo MR E11",
      "SpacingBetweenSlices": 2.6999999489454,
      "SpecificCharacterSet": "ISO_IR 100",
      "StudyID": "2",
      "StudyTime": "172402.287000",
      "TransmitCoilName": "Body",
      "VariableFlipAngleFlag": "N",
      "WindowCenterWidthExplanation": "Algo1"
    },
    "slices": {}
  },
  "time": {
    "samples": {
      "AcquisitionNumber": [1, 2, 3, 4, 5, 6, 7, 8, 9, 10, 11, 12, 13, 14, 15, 16, 17, 18, 19, 20, 21, 22, 23, 24, 25, 26, 27, 28, 29, 30, 31, 32, 33, 34, 35, 36, 37, 38, 39, 40, 41, 42, 43, 44, 45, 46, 47, 48, 49, 50, 51, 52, 53, 54, 55, 56, 57, 58, 59, 60, 61, 62, 63, 64, 65, 66, 67, 68, 69, 70, 71, 72, 73, 74, 75, 76, 77, 78, 79, 80, 81, 82, 83, 84, 85, 86, 87, 88, 89, 90, 91, 92, 93, 94, 95, 96, 97, 98, 99, 100, 101, 102, 103, 104, 105, 106, 107, 108, 109, 110, 111, 112, 113, 114, 115, 116, 117, 118, 119, 120, 121, 122, 123, 124, 125, 126, 127, 128, 129, 130, 131, 132, 133, 134, 135, 136, 137, 138, 139, 140, 141, 142, 143, 144, 145, 146, 147, 148, 149, 150, 151, 152, 153, 154, 155, 156, 157, 158, 159, 160, 161, 162, 163, 164, 165, 166, 167, 168, 169, 170, 171, 172, 173, 174, 175, 176, 177, 178, 179, 180, 181, 182, 183, 184, 185, 186, 187, 188, 189, 190, 191, 192, 193, 194, 195, 196, 197, 198, 199, 200, 201, 202, 203, 204, 205, 206, 207, 208, 209, 210, 211, 212, 213, 214, 215, 216, 217, 218, 219, 220, 221, 222, 223, 224, 225, 226, 227, 228, 229, 230, 231, 232, 233, 234, 235, 236, 237, 238, 239, 240, 241, 242, 243, 244, 245, 246, 247, 248, 249, 250, 251, 252, 253, 254, 255, 256, 257, 258, 259, 260, 261, 262, 263, 264, 265, 266, 267, 268, 269, 270, 271, 272, 273, 274, 275, 276, 277, 278, 279, 280, 281, 282, 283, 284, 285, 286, 287, 288, 289, 290, 291, 292, 293, 294, 295, 296, 297, 298, 299, 300, 301, 302, 303, 304, 305, 306, 307, 308, 309, 310, 311, 312, 313, 314, 315, 316, 317, 318, 319, 320, 321, 322, 323, 324, 325, 326, 327, 328, 329, 330, 331, 332, 333, 334, 335, 336, 337, 338, 339, 340, 341, 342, 343, 344, 345, 346, 347, 348, 349, 350, 351, 352, 353, 354, 355, 356, 357, 358, 359, 360, 361, 362, 363, 364, 365, 366, 367, 368, 369, 370, 371, 372, 373, 374, 375, 376, 377, 378, 379, 380, 381, 382, 383, 384, 385, 386, 387, 388, 389, 390, 391, 392, 393, 394, 395, 396, 397, 398, 399, 400, 401, 402, 403, 404, 405, 406, 407, 408, 409, 410, 411, 412, 413, 414, 415, 416, 417, 418, 419, 420, 421, 422, 423, 424, 425, 426, 427, 428, 429, 430, 431, 432, 433, 434, 435, 436, 437, 438, 439, 440, 441, 442, 443, 444, 445, 446, 447, 448, 449, 450, 451, 452, 453, 454, 455, 456, 457, 458, 459, 460, 461, 462, 463, 464, 465, 466, 467, 468, 469, 470, 471, 472, 473, 474, 475, 476, 477, 478, 479, 480, 481, 482, 483, 484, 485, 486, 487, 488, 489, 490, 491, 492, 493, 494, 495, 496, 497, 498, 499, 500, 501, 502, 503, 504, 505, 506, 507, 508, 509, 510, 511, 512, 513, 514, 515, 516, 517, 518, 519, 520, 521, 522, 523, 524, 525, 526, 527, 528, 529, 530, 531, 532, 533, 534, 535, 536, 537, 538, 539, 540, 541, 542, 543, 544, 545, 546, 547, 548, 549, 550, 551, 552, 553, 554, 555, 556, 557, 558, 559, 560, 561, 562, 563, 564, 565, 566, 567, 568, 569, 570, 571, 572, 573, 574, 575, 576, 577, 578, 579, 580, 581, 582, 583, 584, 585, 586, 587, 588, 589, 590, 591, 592, 593, 594, 595, 596, 597, 598, 599, 600, 601, 602, 603, 604, 605, 606, 607, 608, 609, 610, 611, 612, 613, 614, 615, 616, 617, 618, 619, 620, 621, 622, 623, 624, 625, 626, 627, 628, 629, 630, 631, 632, 633, 634, 635, 636, 637, 638, 639, 640, 641, 642, 643, 644, 645, 646, 647, 648, 649, 650, 651, 652, 653, 654, 655, 656, 657, 658, 659, 660, 661, 662, 663, 664, 665, 666, 667, 668, 669, 670, 671, 672, 673, 674, 675, 676, 677, 678, 679, 680, 681, 682, 683, 684, 685, 686, 687, 688, 689, 690, 691, 692, 693, 694, 695, 696, 697, 698, 699, 700, 701, 702, 703, 704, 705, 706, 707, 708, 709, 710, 711, 712, 713, 714, 715, 716, 717, 718, 719, 720, 721, 722, 723, 724, 725, 726, 727, 728, 729, 730, 731, 732, 733, 734, 735, 736, 737, 738, 739, 740, 741, 742, 743, 744, 745, 746, 747, 748, 749, 750, 751, 752, 753, 754, 755, 756, 757, 758, 759, 760, 761, 762, 763, 764, 765, 766, 767, 768, 769, 770, 771, 772, 773, 774, 775, 776, 777, 778, 779, 780, 781, 782, 783, 784, 785, 786, 787, 788, 789, 790, 791, 792, 793, 794, 795, 796, 797, 798, 799, 800, 801, 802, 803, 804, 805, 806, 807, 808, 809, 810, 811, 812, 813, 814, 815, 816, 817, 818, 819, 820, 821, 822, 823, 824, 825, 826, 827, 828, 829, 830, 831, 832, 833, 834, 835, 836, 837, 838, 839, 840, 841, 842, 843, 844, 845, 846, 847, 848, 849, 850, 851, 852, 853, 854, 855, 856, 857, 858, 859, 860, 861, 862, 863, 864, 865, 866, 867, 868, 869, 870, 871, 872, 873, 874, 875, 876, 877, 878, 879, 880, 881, 882, 883, 884, 885, 886, 887, 888, 889, 890, 891, 892, 893, 894, 895, 896, 897, 898, 899, 900, 901, 902, 903, 904, 905, 906, 907, 908, 909, 910, 911, 912, 913, 914, 915, 916, 917, 918, 919, 920, 921, 922, 923, 924, 925, 926],
      "AcquisitionTime": ["185704.095000", "185704.555000", "185705.015000", "185705.475000", "185705.935000", "185706.395000", "185706.855000", "185707.315000", "185707.775000", "185708.235000", "185708.695000", "185709.155000", "185709.615000", "185710.075000", "185710.535000", "185710.995000", "185711.455000", "185711.915000", "185712.375000", "185712.835000", "185713.295000", "185713.755000", "185714.215000", "185714.675000", "185715.135000", "185715.595000", "185716.055000", "185716.515000", "185716.975000", "185717.435000", "185717.895000", "185718.355000", "185718.815000", "185719.275000", "185719.735000", "185720.195000", "185720.655000", "185721.115000", "185721.575000", "185722.035000", "185722.495000", "185722.955000", "185723.415000", "185723.875000", "185724.335000", "185724.795000", "185725.255000", "185725.715000", "185726.175000", "185726.635000", "185727.095000", "185727.555000", "185728.015000", "185728.475000", "185728.935000", "185729.395000", "185729.855000", "185730.315000", "185730.775000", "185731.235000", "185731.695000", "185732.155000", "185732.615000", "185733.075000", "185733.535000", "185733.995000", "185734.455000", "185734.915000", "185735.375000", "185735.835000", "185736.295000", "185736.755000", "185737.215000", "185737.675000", "185738.135000", "185738.595000", "185739.055000", "185739.515000", "185739.975000", "185740.435000", "185740.895000", "185741.355000", "185741.815000", "185742.275000", "185742.735000", "185743.195000", "185743.655000", "185744.115000", "185744.575000", "185745.035000", "185745.495000", "185745.955000", "185746.415000", "185746.875000", "185747.335000", "185747.795000", "185748.255000", "185748.715000", "185749.175000", "185749.635000", "185750.095000", "185750.555000", "185751.015000", "185751.475000", "185751.935000", "185752.395000", "185752.855000", "185753.315000", "185753.775000", "185754.235000", "185754.695000", "185755.155000", "185755.615000", "185756.075000", "185756.535000", "185756.995000", "185757.455000", "185757.915000", "185758.375000", "185758.835000", "185759.295000", "185759.755000", "185800.215000", "185800.675000", "185801.135000", "185801.595000", "185802.055000", "185802.515000", "185802.975000", "185803.435000", "185803.895000", "185804.355000", "185804.815000", "185805.275000", "185805.735000", "185806.195000", "185806.655000", "185807.115000", "185807.575000", "185808.035000", "185808.495000", "185808.955000", "185809.415000", "185809.875000", "185810.335000", "185810.795000", "185811.255000", "185811.715000", "185812.175000", "185812.635000", "185813.095000", "185813.555000", "185814.015000", "185814.475000", "185814.935000", "185815.395000", "185815.855000", "185816.315000", "185816.775000", "185817.235000", "185817.695000", "185818.155000", "185818.615000", "185819.075000", "185819.535000", "185819.995000", "185820.455000", "185820.915000", "185821.375000", "185821.835000", "185822.295000", "185822.755000", "185823.215000", "185823.675000", "185824.135000", "185824.595000", "185825.055000", "185825.515000", "185825.975000", "185826.435000", "185826.895000", "185827.355000", "185827.815000", "185828.275000", "185828.735000", "185829.195000", "185829.655000", "185830.115000", "185830.575000", "185831.035000", "185831.495000", "185831.955000", "185832.415000", "185832.875000", "185833.335000", "185833.795000", "185834.255000", "185834.715000", "185835.175000", "185835.635000", "185836.095000", "185836.555000", "185837.015000", "185837.475000", "185837.935000", "185838.395000", "185838.855000", "185839.315000", "185839.775000", "185840.235000", "185840.695000", "185841.155000", "185841.615000", "185842.075000", "185842.535000", "185842.995000", "185843.455000", "185843.915000", "185844.375000", "185844.835000", "185845.295000", "185845.755000", "185846.215000", "185846.675000", "185847.135000", "185847.595000", "185848.055000", "185848.515000", "185848.975000", "185849.435000", "185849.895000", "185850.355000", "185850.815000", "185851.275000", "185851.735000", "185852.195000", "185852.655000", "185853.115000", "185853.575000", "185854.035000", "185854.495000", "185854.955000", "185855.415000", "185855.875000", "185856.335000", "185856.795000", "185857.255000", "185857.715000", "185858.175000", "185858.635000", "185859.095000", "185859.555000", "185900.015000", "185900.475000", "185900.935000", "185901.395000", "185901.855000", "185902.315000", "185902.775000", "185903.235000", "185903.695000", "185904.155000", "185904.615000", "185905.075000", "185905.535000", "185905.995000", "185906.455000", "185906.915000", "185907.375000", "185907.835000", "185908.295000", "185908.755000", "185909.215000", "185909.675000", "185910.135000", "185910.595000", "185911.055000", "185911.515000", "185911.975000", "185912.435000", "185912.895000", "185913.355000", "185913.815000", "185914.275000", "185914.735000", "185915.195000", "185915.655000", "185916.115000", "185916.575000", "185917.035000", "185917.495000", "185917.955000", "185918.415000", "185918.875000", "185919.335000", "185919.795000", "185920.255000", "185920.715000", "185921.175000", "185921.635000", "185922.095000", "185922.555000", "185923.015000", "185923.475000", "185923.935000", "185924.395000", "185924.855000", "185925.315000", "185925.775000", "185926.235000", "185926.695000", "185927.155000", "185927.615000", "185928.075000", "185928.535000", "185928.995000", "185929.455000", "185929.915000", "185930.375000", "185930.835000", "185931.295000", "185931.755000", "185932.215000", "185932.675000", "185933.135000", "185933.595000", "185934.055000", "185934.515000", "185934.975000", "185935.435000", "185935.895000", "185936.355000", "185936.815000", "185937.275000", "185937.735000", "185938.195000", "185938.655000", "185939.115000", "185939.575000", "185940.035000", "185940.495000", "185940.955000", "185941.415000", "185941.875000", "185942.335000", "185942.795000", "185943.255000", "185943.715000", "185944.175000", "185944.635000", "185945.095000", "185945.555000", "185946.015000", "185946.475000", "185946.935000", "185947.395000", "185947.855000", "185948.315000", "185948.775000", "185949.235000", "185949.695000", "185950.155000", "185950.615000", "185951.075000", "185951.535000", "185951.995000", "185952.455000", "185952.915000", "185953.375000", "185953.835000", "185954.295000", "185954.755000", "185955.215000", "185955.675000", "185956.135000", "185956.595000", "185957.055000", "185957.515000", "185957.975000", "185958.435000", "185958.895000", "185959.355000", "185959.815000", "190000.275000", "190000.735000", "190001.195000", "190001.655000", "190002.115000", "190002.575000", "190003.035000", "190003.495000", "190003.955000", "190004.415000", "190004.875000", "190005.335000", "190005.795000", "190006.255000", "190006.715000", "190007.175000", "190007.635000", "190008.095000", "190008.555000", "190009.015000", "190009.475000", "190009.935000", "190010.395000", "190010.855000", "190011.315000", "190011.775000", "190012.235000", "190012.695000", "190013.155000", "190013.615000", "190014.075000", "190014.535000", "190014.995000", "190015.455000", "190015.915000", "190016.375000", "190016.835000", "190017.295000", "190017.755000", "190018.215000", "190018.675000", "190019.135000", "190019.595000", "190020.055000", "190020.515000", "190020.975000", "190021.435000", "190021.895000", "190022.355000", "190022.815000", "190023.275000", "190023.735000", "190024.195000", "190024.655000", "190025.115000", "190025.575000", "190026.035000", "190026.495000", "190026.955000", "190027.415000", "190027.875000", "190028.335000", "190028.795000", "190029.255000", "190029.715000", "190030.175000", "190030.635000", "190031.095000", "190031.555000", "190032.015000", "190032.475000", "190032.935000", "190033.395000", "190033.855000", "190034.315000", "190034.775000", "190035.235000", "190035.695000", "190036.155000", "190036.615000", "190037.075000", "190037.535000", "190037.995000", "190038.455000", "190038.915000", "190039.375000", "190039.835000", "190040.295000", "190040.755000", "190041.215000", "190041.675000", "190042.135000", "190042.595000", "190043.055000", "190043.515000", "190043.975000", "190044.435000", "190044.895000", "190045.355000", "190045.815000", "190046.275000", "190046.735000", "190047.195000", "190047.655000", "190048.115000", "190048.575000", "190049.035000", "190049.495000", "190049.955000", "190050.415000", "190050.875000", "190051.335000", "190051.795000", "190052.255000", "190052.715000", "190053.175000", "190053.635000", "190054.095000", "190054.555000", "190055.015000", "190055.475000", "190055.935000", "190056.395000", "190056.855000", "190057.315000", "190057.775000", "190058.235000", "190058.695000", "190059.155000", "190059.615000", "190100.075000", "190100.535000", "190100.995000", "190101.455000", "190101.915000", "190102.375000", "190102.835000", "190103.295000", "190103.755000", "190104.215000", "190104.675000", "190105.135000", "190105.595000", "190106.055000", "190106.515000", "190106.975000", "190107.435000", "190107.895000", "190108.355000", "190108.815000", "190109.275000", "190109.735000", "190110.195000", "190110.655000", "190111.115000", "190111.575000", "190112.035000", "190112.495000", "190112.955000", "190113.415000", "190113.875000", "190114.335000", "190114.795000", "190115.255000", "190115.715000", "190116.175000", "190116.635000", "190117.095000", "190117.555000", "190118.015000", "190118.475000", "190118.935000", "190119.395000", "190119.855000", "190120.315000", "190120.775000", "190121.235000", "190121.695000", "190122.155000", "190122.615000", "190123.075000", "190123.535000", "190123.995000", "190124.455000", "190124.915000", "190125.375000", "190125.835000", "190126.295000", "190126.755000", "190127.215000", "190127.675000", "190128.135000", "190128.595000", "190129.055000", "190129.515000", "190129.975000", "190130.435000", "190130.895000", "190131.355000", "190131.815000", "190132.275000", "190132.735000", "190133.195000", "190133.655000", "190134.115000", "190134.575000", "190135.035000", "190135.495000", "190135.955000", "190136.415000", "190136.875000", "190137.335000", "190137.795000", "190138.255000", "190138.715000", "190139.175000", "190139.635000", "190140.095000", "190140.555000", "190141.015000", "190141.475000", "190141.935000", "190142.395000", "190142.855000", "190143.315000", "190143.775000", "190144.235000", "190144.695000", "190145.155000", "190145.615000", "190146.075000", "190146.535000", "190146.995000", "190147.455000", "190147.915000", "190148.375000", "190148.835000", "190149.295000", "190149.755000", "190150.215000", "190150.675000", "190151.135000", "190151.595000", "190152.055000", "190152.515000", "190152.975000", "190153.435000", "190153.895000", "190154.355000", "190154.815000", "190155.275000", "190155.735000", "190156.195000", "190156.655000", "190157.115000", "190157.575000", "190158.035000", "190158.495000", "190158.955000", "190159.415000", "190159.875000", "190200.335000", "190200.795000", "190201.255000", "190201.715000", "190202.175000", "190202.635000", "190203.095000", "190203.555000", "190204.015000", "190204.475000", "190204.935000", "190205.395000", "190205.855000", "190206.315000", "190206.775000", "190207.235000", "190207.695000", "190208.155000", "190208.615000", "190209.075000", "190209.535000", "190209.995000", "190210.455000", "190210.915000", "190211.375000", "190211.835000", "190212.295000", "190212.755000", "190213.215000", "190213.675000", "190214.135000", "190214.595000", "190215.055000", "190215.515000", "190215.975000", "190216.435000", "190216.895000", "190217.355000", "190217.815000", "190218.275000", "190218.735000", "190219.195000", "190219.655000", "190220.115000", "190220.575000", "190221.035000", "190221.495000", "190221.955000", "190222.415000", "190222.875000", "190223.335000", "190223.795000", "190224.255000", "190224.715000", "190225.175000", "190225.635000", "190226.095000", "190226.555000", "190227.015000", "190227.475000", "190227.935000", "190228.395000", "190228.855000", "190229.315000", "190229.775000", "190230.235000", "190230.695000", "190231.155000", "190231.615000", "190232.075000", "190232.535000", "190232.995000", "190233.455000", "190233.915000", "190234.375000", "190234.835000", "190235.295000", "190235.755000", "190236.215000", "190236.675000", "190237.135000", "190237.595000", "190238.055000", "190238.515000", "190238.975000", "190239.435000", "190239.895000", "190240.355000", "190240.815000", "190241.275000", "190241.735000", "190242.195000", "190242.655000", "190243.115000", "190243.575000", "190244.035000", "190244.495000", "190244.955000", "190245.415000", "190245.875000", "190246.335000", "190246.795000", "190247.255000", "190247.715000", "190248.175000", "190248.635000", "190249.095000", "190249.555000", "190250.015000", "190250.475000", "190250.935000", "190251.395000", "190251.855000", "190252.315000", "190252.775000", "190253.235000", "190253.695000", "190254.155000", "190254.615000", "190255.075000", "190255.535000", "190255.995000", "190256.455000", "190256.915000", "190257.375000", "190257.835000", "190258.295000", "190258.755000", "190259.215000", "190259.675000", "190300.135000", "190300.595000", "190301.055000", "190301.515000", "190301.975000", "190302.435000", "190302.895000", "190303.355000", "190303.815000", "190304.275000", "190304.735000", "190305.195000", "190305.655000", "190306.115000", "190306.575000", "190307.035000", "190307.495000", "190307.955000", "190308.415000", "190308.875000", "190309.335000", "190309.795000", "190310.255000", "190310.715000", "190311.175000", "190311.635000", "190312.095000", "190312.555000", "190313.015000", "190313.475000", "190313.935000", "190314.395000", "190314.855000", "190315.315000", "190315.775000", "190316.235000", "190316.695000", "190317.155000", "190317.615000", "190318.075000", "190318.535000", "190318.995000", "190319.455000", "190319.915000", "190320.375000", "190320.835000", "190321.295000", "190321.755000", "190322.215000", "190322.675000", "190323.135000", "190323.595000", "190324.055000", "190324.515000", "190324.975000", "190325.435000", "190325.895000", "190326.355000", "190326.815000", "190327.275000", "190327.735000", "190328.195000", "190328.655000", "190329.115000", "190329.575000", "190330.035000", "190330.495000", "190330.955000", "190331.415000", "190331.875000", "190332.335000", "190332.795000", "190333.255000", "190333.715000", "190334.175000", "190334.635000", "190335.095000", "190335.555000", "190336.015000", "190336.475000", "190336.935000", "190337.395000", "190337.855000", "190338.315000", "190338.775000", "190339.235000", "190339.695000", "190340.155000", "190340.615000", "190341.075000", "190341.535000", "190341.995000", "190342.455000", "190342.915000", "190343.375000", "190343.835000", "190344.295000", "190344.755000", "190345.215000", "190345.675000", "190346.135000", "190346.595000", "190347.055000", "190347.515000", "190347.975000", "190348.435000", "190348.895000", "190349.355000", "190349.815000", "190350.275000", "190350.735000", "190351.195000", "190351.655000", "190352.115000", "190352.575000", "190353.035000", "190353.495000", "190353.955000", "190354.415000", "190354.875000", "190355.335000", "190355.795000", "190356.255000", "190356.715000", "190357.175000", "190357.635000", "190358.095000", "190358.555000", "190359.015000", "190359.475000", "190359.935000", "190400.395000", "190400.855000", "190401.315000", "190401.775000", "190402.235000", "190402.695000", "190403.155000", "190403.615000", "190404.075000", "190404.535000", "190404.995000", "190405.455000", "190405.915000", "190406.375000", "190406.835000", "190407.295000", "190407.755000", "190408.215000", "190408.675000", "190409.135000", "190409.595000"],
