{
  "AcquisitionMatrixPE": 82,
  "AcquisitionNumber": 1,
  "AcquisitionTime": "18:29:5.287500",
  "BandwidthPerPixelPhaseEncode": 24.888,
  "BaseResolution": 82,
  "BodyPartExamined": "BRAIN",
  "ConsistencyInfo": "N4_VE11E_LATEST_20181129",
  "ConversionSoftware": "dcm2niix",
  "ConversionSoftwareVersion": "v1.0.20201102",
  "DerivedVendorReportedEchoSpacing": 0.00049,
  "DeviceSerialNumber": "66112",
  "DwellTime": 2e-06,
  "EchoTime": 0.0272,
  "EchoTrainLength": 82,
  "EffectiveEchoSpacing": 0.00049,
  "FlipAngle": 44,
  "ImageComments": "Unaliased MB8/PE3",
  "ImageOrientationPatientDICOM": [0.997813, -0.0558962, -0.0352727, 0.0624274, 0.97232, 0.225159],
  "ImageType": [
    "ORIGINAL",
    "PRIMARY",
    "M",
    "MB",
    "ND",
    "NORM",
    "MOSAIC"
],
  "ImagingFrequency": 123.259,
  "InPlanePhaseEncodingDirectionDICOM": "COL",
  "InstitutionAddress": "Maynard 3,Hanover,NH,US,03755",
  "InstitutionName": "Dartmouth College - PBS",
  "InstitutionalDepartmentName": "Department",
  "MRAcquisitionType": "2D",
  "MagneticFieldStrength": 3,
  "Manufacturer": "Siemens",
  "ManufacturersModelName": "Prisma",
  "Modality": "MR",
  "MultibandAccelerationFactor": 8,
  "PartialFourier": 1,
  "PatientPosition": "HFS",
  "PercentPhaseFOV": 100,
  "PercentSampling": 100,
  "PhaseEncodingDirection": "j-",
  "PhaseEncodingSteps": 82,
  "PhaseResolution": 1,
  "PixelBandwidth": 3050,
  "ProcedureStepDescription": "Wager_Wager^1076_spacetop",
  "ProtocolName": "func_run-05_task-social_acq-ap-mb8",
  "PulseSequenceDetails": "%CustomerSeq%\\cmrr_mbep2d_bold",
  "ReceiveCoilActiveElements": "HEA;HEP",
  "ReceiveCoilName": "Head_32",
  "ReconMatrixPE": 82,
  "RepetitionTime": 0.46,
  "SAR": 0.0881687,
  "ScanOptions": "FS",
  "ScanningSequence": "EP",
  "SequenceName": "epfid2d1_82",
  "SequenceVariant": "SK\\SS",
  "SeriesDescription": "func_run-05_task-social_acq-ap-mb8",
  "SeriesNumber": 20,
  "ShimSetting": [4224, -7825, -7225, 227, -109, 77, -36, 90],
  "SliceThickness": 2.7,
  "SliceTiming": [0, 0.2525, 0.0625, 0.315, 0.125, 0.3775, 0.1875, 0, 0.2525, 0.0625, 0.315, 0.125, 0.3775, 0.1875, 0, 0.2525, 0.0625, 0.315, 0.125, 0.3775, 0.1875, 0, 0.2525, 0.0625, 0.315, 0.125, 0.3775, 0.1875, 0, 0.2525, 0.0625, 0.315, 0.125, 0.3775, 0.1875, 0, 0.2525, 0.0625, 0.315, 0.125, 0.3775, 0.1875, 0, 0.2525, 0.0625, 0.315, 0.125, 0.3775, 0.1875, 0, 0.2525, 0.0625, 0.315, 0.125, 0.3775, 0.1875],
  "SoftwareVersions": "syngo MR E11",
  "SpacingBetweenSlices": 2.7,
  "StationName": "AWP66112",
  "TaskName": "social",
  "TotalReadoutTime": 0.03969,
  "TxRefAmp": 245.19,
  "WipMemBlock": "cb9d5b4d-db6d-49a8-9865-84446878f954||Sequence: R016 ve11e/master r/434b28f1; Aug  7 2019 18:53:46 by eja",
  "dcmmeta_affine": [
    [-2.677060127258301, 0.16748827695846558, -0.05861910805106163, 104.9940185546875],
    [0.14996539056301117, 2.608663558959961, 0.6125452518463135, -105.32621765136719],
    [-0.09463395178318024, -0.6040850281715393, 2.6289451122283936, -35.791236877441406],
    [0.0, 0.0, 0.0, 1.0]
],
  "dcmmeta_reorient_transform": [
    [0.0, -1.0, 0.0, 81.0],
    [1.0, 0.0, 0.0, 0.0],
    [0.0, 0.0, 1.0, 0.0],
    [0.0, 0.0, 0.0, 1.0]
],
  "dcmmeta_shape": [82, 82, 56, 872],
  "dcmmeta_slice_dim": 2,
  "dcmmeta_version": 0.6,
  "global": {
    "const": {
      "AccessionNumber": "A004334",
      "AcquisitionMatrix": [82, 0, 0, 82],
      "AngioFlag": "N",
      "BitsAllocated": 16,
      "BitsStored": 16,
      "BodyPartExamined": "BRAIN",
      "Columns": 656,
      "EchoNumbers": 1,
      "EchoTime": 27.2,
      "EchoTrainLength": 82,
      "FlipAngle": 44.0,
      "HighBit": 15,
      "ImageOrientationPatient": [0.99781333709726, -0.0558961915079, -0.0352726535114, 0.06242744882382, 0.97232003800138, 0.2251589601467],
      "ImagePositionPatient": [-934.94599183342, -811.62191416813, -230.93458288185],
      "ImageType": [
        "ORIGINAL",
        "PRIMARY",
        "M",
        "MB",
        "ND",
        "NORM",
        "MOSAIC"
],
      "ImagedNucleus": "1H",
      "ImagingFrequency": 123.259105,
      "InPlanePhaseEncodingDirection": "COL",
      "MRAcquisitionType": "2D",
      "MagneticFieldStrength": 3.0,
      "Manufacturer": "SIEMENS",
      "ManufacturerModelName": "Prisma",
      "Modality": "MR",
      "NumberOfAverages": 1.0,
      "NumberOfPhaseEncodingSteps": 82,
      "PercentPhaseFieldOfView": 100.0,
      "PercentSampling": 100.0,
      "PerformedProcedureStepStartTime": "172402.341000",
      "PhotometricInterpretation": "MONOCHROME2",
      "PixelBandwidth": 3050.0,
      "PixelRepresentation": 0,
      "PixelSpacing": [2.6829268932343, 2.6829268932343],
      "ProtocolName": "func_run-05_task-social_acq-ap-mb8",
      "RepetitionTime": 460.0,
      "Rows": 656,
      "SAR": 0.08816869209246,
      "SamplesPerPixel": 1,
      "ScanOptions": "FS",
      "ScanningSequence": "EP",
      "SequenceName": "epfid2d1_82",
      "SequenceVariant": [
        "SK",
        "SS"
],
      "SeriesDescription": "func_run-05_task-social_acq-ap-mb8",
      "SeriesNumber": 20,
      "SeriesTime": "182917.523000",
      "SliceLocation": -61.024042993417,
      "SliceThickness": 2.7000000476837,
      "SmallestImagePixelValue": 0,
      "SoftwareVersions": "syngo MR E11",
      "SpacingBetweenSlices": 2.7000000809556,
      "SpecificCharacterSet": "ISO_IR 100",
      "StudyID": "2",
      "StudyTime": "172402.287000",
      "TransmitCoilName": "Body",
      "VariableFlipAngleFlag": "N",
      "WindowCenterWidthExplanation": "Algo1"
    },
    "slices": {}
  },
  "time": {
    "samples": {
      "AcquisitionNumber": [1, 2, 3, 4, 5, 6, 7, 8, 9, 10, 11, 12, 13, 14, 15, 16, 17, 18, 19, 20, 21, 22, 23, 24, 25, 26, 27, 28, 29, 30, 31, 32, 33, 34, 35, 36, 37, 38, 39, 40, 41, 42, 43, 44, 45, 46, 47, 48, 49, 50, 51, 52, 53, 54, 55, 56, 57, 58, 59, 60, 61, 62, 63, 64, 65, 66, 67, 68, 69, 70, 71, 72, 73, 74, 75, 76, 77, 78, 79, 80, 81, 82, 83, 84, 85, 86, 87, 88, 89, 90, 91, 92, 93, 94, 95, 96, 97, 98, 99, 100, 101, 102, 103, 104, 105, 106, 107, 108, 109, 110, 111, 112, 113, 114, 115, 116, 117, 118, 119, 120, 121, 122, 123, 124, 125, 126, 127, 128, 129, 130, 131, 132, 133, 134, 135, 136, 137, 138, 139, 140, 141, 142, 143, 144, 145, 146, 147, 148, 149, 150, 151, 152, 153, 154, 155, 156, 157, 158, 159, 160, 161, 162, 163, 164, 165, 166, 167, 168, 169, 170, 171, 172, 173, 174, 175, 176, 177, 178, 179, 180, 181, 182, 183, 184, 185, 186, 187, 188, 189, 190, 191, 192, 193, 194, 195, 196, 197, 198, 199, 200, 201, 202, 203, 204, 205, 206, 207, 208, 209, 210, 211, 212, 213, 214, 215, 216, 217, 218, 219, 220, 221, 222, 223, 224, 225, 226, 227, 228, 229, 230, 231, 232, 233, 234, 235, 236, 237, 238, 239, 240, 241, 242, 243, 244, 245, 246, 247, 248, 249, 250, 251, 252, 253, 254, 255, 256, 257, 258, 259, 260, 261, 262, 263, 264, 265, 266, 267, 268, 269, 270, 271, 272, 273, 274, 275, 276, 277, 278, 279, 280, 281, 282, 283, 284, 285, 286, 287, 288, 289, 290, 291, 292, 293, 294, 295, 296, 297, 298, 299, 300, 301, 302, 303, 304, 305, 306, 307, 308, 309, 310, 311, 312, 313, 314, 315, 316, 317, 318, 319, 320, 321, 322, 323, 324, 325, 326, 327, 328, 329, 330, 331, 332, 333, 334, 335, 336, 337, 338, 339, 340, 341, 342, 343, 344, 345, 346, 347, 348, 349, 350, 351, 352, 353, 354, 355, 356, 357, 358, 359, 360, 361, 362, 363, 364, 365, 366, 367, 368, 369, 370, 371, 372, 373, 374, 375, 376, 377, 378, 379, 380, 381, 382, 383, 384, 385, 386, 387, 388, 389, 390, 391, 392, 393, 394, 395, 396, 397, 398, 399, 400, 401, 402, 403, 404, 405, 406, 407, 408, 409, 410, 411, 412, 413, 414, 415, 416, 417, 418, 419, 420, 421, 422, 423, 424, 425, 426, 427, 428, 429, 430, 431, 432, 433, 434, 435, 436, 437, 438, 439, 440, 441, 442, 443, 444, 445, 446, 447, 448, 449, 450, 451, 452, 453, 454, 455, 456, 457, 458, 459, 460, 461, 462, 463, 464, 465, 466, 467, 468, 469, 470, 471, 472, 473, 474, 475, 476, 477, 478, 479, 480, 481, 482, 483, 484, 485, 486, 487, 488, 489, 490, 491, 492, 493, 494, 495, 496, 497, 498, 499, 500, 501, 502, 503, 504, 505, 506, 507, 508, 509, 510, 511, 512, 513, 514, 515, 516, 517, 518, 519, 520, 521, 522, 523, 524, 525, 526, 527, 528, 529, 530, 531, 532, 533, 534, 535, 536, 537, 538, 539, 540, 541, 542, 543, 544, 545, 546, 547, 548, 549, 550, 551, 552, 553, 554, 555, 556, 557, 558, 559, 560, 561, 562, 563, 564, 565, 566, 567, 568, 569, 570, 571, 572, 573, 574, 575, 576, 577, 578, 579, 580, 581, 582, 583, 584, 585, 586, 587, 588, 589, 590, 591, 592, 593, 594, 595, 596, 597, 598, 599, 600, 601, 602, 603, 604, 605, 606, 607, 608, 609, 610, 611, 612, 613, 614, 615, 616, 617, 618, 619, 620, 621, 622, 623, 624, 625, 626, 627, 628, 629, 630, 631, 632, 633, 634, 635, 636, 637, 638, 639, 640, 641, 642, 643, 644, 645, 646, 647, 648, 649, 650, 651, 652, 653, 654, 655, 656, 657, 658, 659, 660, 661, 662, 663, 664, 665, 666, 667, 668, 669, 670, 671, 672, 673, 674, 675, 676, 677, 678, 679, 680, 681, 682, 683, 684, 685, 686, 687, 688, 689, 690, 691, 692, 693, 694, 695, 696, 697, 698, 699, 700, 701, 702, 703, 704, 705, 706, 707, 708, 709, 710, 711, 712, 713, 714, 715, 716, 717, 718, 719, 720, 721, 722, 723, 724, 725, 726, 727, 728, 729, 730, 731, 732, 733, 734, 735, 736, 737, 738, 739, 740, 741, 742, 743, 744, 745, 746, 747, 748, 749, 750, 751, 752, 753, 754, 755, 756, 757, 758, 759, 760, 761, 762, 763, 764, 765, 766, 767, 768, 769, 770, 771, 772, 773, 774, 775, 776, 777, 778, 779, 780, 781, 782, 783, 784, 785, 786, 787, 788, 789, 790, 791, 792, 793, 794, 795, 796, 797, 798, 799, 800, 801, 802, 803, 804, 805, 806, 807, 808, 809, 810, 811, 812, 813, 814, 815, 816, 817, 818, 819, 820, 821, 822, 823, 824, 825, 826, 827, 828, 829, 830, 831, 832, 833, 834, 835, 836, 837, 838, 839, 840, 841, 842, 843, 844, 845, 846, 847, 848, 849, 850, 851, 852, 853, 854, 855, 856, 857, 858, 859, 860, 861, 862, 863, 864, 865, 866, 867, 868, 869, 870, 871, 872],
      "AcquisitionTime": ["182905.287500", "182905.747500", "182906.207500", "182906.667500", "182907.127500", "182907.587500", "182908.047500", "182908.507500", "182908.967500", "182909.427500", "182909.887500", "182910.347500", "182910.807500", "182911.267500", "182911.727500", "182912.187500", "182912.647500", "182913.107500", "182913.567500", "182914.027500", "182914.487500", "182914.947500", "182915.407500", "182915.867500", "182916.327500", "182916.787500", "182917.247500", "182917.707500", "182918.167500", "182918.627500", "182919.087500", "182919.547500", "182920.007500", "182920.467500", "182920.927500", "182921.387500", "182921.847500", "182922.307500", "182922.767500", "182923.227500", "182923.687500", "182924.147500", "182924.607500", "182925.067500", "182925.527500", "182925.987500", "182926.447500", "182926.907500", "182927.367500", "182927.827500", "182928.287500", "182928.747500", "182929.207500", "182929.667500", "182930.127500", "182930.587500", "182931.047500", "182931.507500", "182931.967500", "182932.427500", "182932.887500", "182933.347500", "182933.807500", "182934.267500", "182934.727500", "182935.187500", "182935.647500", "182936.107500", "182936.567500", "182937.027500", "182937.487500", "182937.947500", "182938.407500", "182938.867500", "182939.327500", "182939.787500", "182940.247500", "182940.707500", "182941.167500", "182941.627500", "182942.087500", "182942.547500", "182943.007500", "182943.467500", "182943.927500", "182944.387500", "182944.847500", "182945.307500", "182945.767500", "182946.227500", "182946.687500", "182947.147500", "182947.607500", "182948.067500", "182948.527500", "182948.987500", "182949.447500", "182949.907500", "182950.367500", "182950.827500", "182951.287500", "182951.747500", "182952.207500", "182952.667500", "182953.127500", "182953.587500", "182954.047500", "182954.507500", "182954.967500", "182955.427500", "182955.887500", "182956.347500", "182956.807500", "182957.267500", "182957.727500", "182958.187500", "182958.647500", "182959.107500", "182959.567500", "183000.027500", "183000.487500", "183000.947500", "183001.407500", "183001.867500", "183002.327500", "183002.787500", "183003.247500", "183003.707500", "183004.167500", "183004.627500", "183005.087500", "183005.547500", "183006.007500", "183006.467500", "183006.927500", "183007.387500", "183007.847500", "183008.307500", "183008.767500", "183009.227500", "183009.687500", "183010.147500", "183010.607500", "183011.067500", "183011.527500", "183011.987500", "183012.447500", "183012.907500", "183013.367500", "183013.827500", "183014.287500", "183014.747500", "183015.207500", "183015.667500", "183016.127500", "183016.587500", "183017.047500", "183017.507500", "183017.967500", "183018.427500", "183018.887500", "183019.347500", "183019.807500", "183020.267500", "183020.727500", "183021.187500", "183021.647500", "183022.107500", "183022.567500", "183023.027500", "183023.487500", "183023.947500", "183024.407500", "183024.867500", "183025.327500", "183025.787500", "183026.247500", "183026.707500", "183027.167500", "183027.627500", "183028.087500", "183028.547500", "183029.007500", "183029.467500", "183029.927500", "183030.387500", "183030.847500", "183031.307500", "183031.767500", "183032.227500", "183032.687500", "183033.147500", "183033.607500", "183034.067500", "183034.527500", "183034.987500", "183035.447500", "183035.907500", "183036.367500", "183036.827500", "183037.287500", "183037.747500", "183038.207500", "183038.667500", "183039.127500", "183039.587500", "183040.047500", "183040.507500", "183040.967500", "183041.427500", "183041.887500", "183042.347500", "183042.807500", "183043.267500", "183043.727500", "183044.187500", "183044.647500", "183045.107500", "183045.567500", "183046.027500", "183046.487500", "183046.947500", "183047.407500", "183047.867500", "183048.327500", "183048.787500", "183049.247500", "183049.707500", "183050.167500", "183050.627500", "183051.087500", "183051.547500", "183052.007500", "183052.467500", "183052.927500", "183053.387500", "183053.847500", "183054.307500", "183054.767500", "183055.227500", "183055.687500", "183056.147500", "183056.607500", "183057.067500", "183057.527500", "183057.987500", "183058.447500", "183058.907500", "183059.367500", "183059.827500", "183100.287500", "183100.747500", "183101.207500", "183101.667500", "183102.127500", "183102.587500", "183103.047500", "183103.507500", "183103.967500", "183104.427500", "183104.887500", "183105.347500", "183105.807500", "183106.267500", "183106.727500", "183107.187500", "183107.647500", "183108.107500", "183108.567500", "183109.027500", "183109.487500", "183109.947500", "183110.407500", "183110.867500", "183111.327500", "183111.787500", "183112.247500", "183112.707500", "183113.167500", "183113.627500", "183114.087500", "183114.547500", "183115.007500", "183115.467500", "183115.927500", "183116.387500", "183116.847500", "183117.307500", "183117.767500", "183118.227500", "183118.687500", "183119.147500", "183119.607500", "183120.067500", "183120.527500", "183120.987500", "183121.447500", "183121.907500", "183122.367500", "183122.827500", "183123.287500", "183123.747500", "183124.207500", "183124.667500", "183125.127500", "183125.587500", "183126.047500", "183126.507500", "183126.967500", "183127.427500", "183127.887500", "183128.347500", "183128.807500", "183129.267500", "183129.727500", "183130.187500", "183130.647500", "183131.107500", "183131.567500", "183132.027500", "183132.487500", "183132.947500", "183133.407500", "183133.867500", "183134.327500", "183134.787500", "183135.247500", "183135.707500", "183136.167500", "183136.627500", "183137.087500", "183137.547500", "183138.007500", "183138.467500", "183138.927500", "183139.387500", "183139.847500", "183140.307500", "183140.767500", "183141.227500", "183141.687500", "183142.147500", "183142.607500", "183143.067500", "183143.527500", "183143.987500", "183144.447500", "183144.907500", "183145.367500", "183145.827500", "183146.287500", "183146.747500", "183147.207500", "183147.667500", "183148.127500", "183148.587500", "183149.047500", "183149.507500", "183149.967500", "183150.427500", "183150.887500", "183151.347500", "183151.807500", "183152.267500", "183152.727500", "183153.187500", "183153.647500", "183154.107500", "183154.567500", "183155.027500", "183155.487500", "183155.947500", "183156.407500", "183156.867500", "183157.327500", "183157.787500", "183158.247500", "183158.707500", "183159.167500", "183159.627500", "183200.087500", "183200.547500", "183201.007500", "183201.467500", "183201.927500", "183202.387500", "183202.847500", "183203.307500", "183203.767500", "183204.227500", "183204.687500", "183205.147500", "183205.607500", "183206.067500", "183206.527500", "183206.987500", "183207.447500", "183207.907500", "183208.367500", "183208.827500", "183209.287500", "183209.747500", "183210.207500", "183210.667500", "183211.127500", "183211.587500", "183212.047500", "183212.507500", "183212.967500", "183213.427500", "183213.887500", "183214.347500", "183214.807500", "183215.267500", "183215.727500", "183216.187500", "183216.647500", "183217.107500", "183217.567500", "183218.027500", "183218.487500", "183218.947500", "183219.407500", "183219.867500", "183220.327500", "183220.787500", "183221.247500", "183221.707500", "183222.167500", "183222.627500", "183223.087500", "183223.547500", "183224.007500", "183224.467500", "183224.927500", "183225.387500", "183225.847500", "183226.307500", "183226.767500", "183227.227500", "183227.687500", "183228.147500", "183228.607500", "183229.067500", "183229.527500", "183229.987500", "183230.447500", "183230.907500", "183231.367500", "183231.827500", "183232.287500", "183232.747500", "183233.207500", "183233.667500", "183234.127500", "183234.587500", "183235.047500", "183235.507500", "183235.967500", "183236.427500", "183236.887500", "183237.347500", "183237.807500", "183238.267500", "183238.727500", "183239.187500", "183239.647500", "183240.107500", "183240.567500", "183241.027500", "183241.487500", "183241.947500", "183242.407500", "183242.867500", "183243.327500", "183243.787500", "183244.247500", "183244.707500", "183245.167500", "183245.627500", "183246.087500", "183246.547500", "183247.007500", "183247.467500", "183247.927500", "183248.387500", "183248.847500", "183249.307500", "183249.767500", "183250.227500", "183250.687500", "183251.147500", "183251.607500", "183252.067500", "183252.527500", "183252.987500", "183253.447500", "183253.907500", "183254.367500", "183254.827500", "183255.287500", "183255.747500", "183256.207500", "183256.667500", "183257.127500", "183257.587500", "183258.047500", "183258.507500", "183258.967500", "183259.427500", "183259.887500", "183300.347500", "183300.807500", "183301.267500", "183301.727500", "183302.187500", "183302.647500", "183303.107500", "183303.567500", "183304.027500", "183304.487500", "183304.947500", "183305.407500", "183305.867500", "183306.327500", "183306.787500", "183307.247500", "183307.707500", "183308.167500", "183308.627500", "183309.087500", "183309.547500", "183310.007500", "183310.467500", "183310.927500", "183311.387500", "183311.847500", "183312.307500", "183312.767500", "183313.227500", "183313.687500", "183314.147500", "183314.607500", "183315.067500", "183315.527500", "183315.987500", "183316.447500", "183316.907500", "183317.367500", "183317.827500", "183318.287500", "183318.747500", "183319.207500", "183319.667500", "183320.127500", "183320.587500", "183321.047500", "183321.507500", "183321.967500", "183322.427500", "183322.887500", "183323.347500", "183323.807500", "183324.267500", "183324.727500", "183325.187500", "183325.647500", "183326.107500", "183326.567500", "183327.027500", "183327.487500", "183327.947500", "183328.407500", "183328.867500", "183329.327500", "183329.787500", "183330.247500", "183330.707500", "183331.167500", "183331.627500", "183332.087500", "183332.547500", "183333.007500", "183333.467500", "183333.927500", "183334.387500", "183334.847500", "183335.307500", "183335.767500", "183336.227500", "183336.687500", "183337.147500", "183337.607500", "183338.067500", "183338.527500", "183338.987500", "183339.447500", "183339.907500", "183340.367500", "183340.827500", "183341.287500", "183341.747500", "183342.207500", "183342.667500", "183343.127500", "183343.587500", "183344.047500", "183344.507500", "183344.967500", "183345.427500", "183345.887500", "183346.347500", "183346.807500", "183347.267500", "183347.727500", "183348.187500", "183348.647500", "183349.107500", "183349.567500", "183350.027500", "183350.487500", "183350.947500", "183351.407500", "183351.867500", "183352.327500", "183352.787500", "183353.247500", "183353.707500", "183354.167500", "183354.627500", "183355.087500", "183355.547500", "183356.007500", "183356.467500", "183356.927500", "183357.387500", "183357.847500", "183358.307500", "183358.767500", "183359.227500", "183359.687500", "183400.147500", "183400.607500", "183401.067500", "183401.527500", "183401.987500", "183402.447500", "183402.907500", "183403.367500", "183403.827500", "183404.287500", "183404.747500", "183405.207500", "183405.667500", "183406.127500", "183406.587500", "183407.047500", "183407.507500", "183407.967500", "183408.427500", "183408.887500", "183409.347500", "183409.807500", "183410.267500", "183410.727500", "183411.187500", "183411.647500", "183412.107500", "183412.567500", "183413.027500", "183413.487500", "183413.947500", "183414.407500", "183414.867500", "183415.327500", "183415.787500", "183416.247500", "183416.707500", "183417.167500", "183417.627500", "183418.087500", "183418.547500", "183419.007500", "183419.467500", "183419.927500", "183420.387500", "183420.847500", "183421.307500", "183421.767500", "183422.227500", "183422.687500", "183423.147500", "183423.607500", "183424.067500", "183424.527500", "183424.987500", "183425.447500", "183425.907500", "183426.367500", "183426.827500", "183427.287500", "183427.747500", "183428.207500", "183428.667500", "183429.127500", "183429.587500", "183430.047500", "183430.507500", "183430.967500", "183431.427500", "183431.887500", "183432.347500", "183432.807500", "183433.267500", "183433.727500", "183434.187500", "183434.647500", "183435.107500", "183435.567500", "183436.027500", "183436.487500", "183436.947500", "183437.407500", "183437.867500", "183438.327500", "183438.787500", "183439.247500", "183439.707500", "183440.167500", "183440.627500", "183441.087500", "183441.547500", "183442.007500", "183442.467500", "183442.927500", "183443.387500", "183443.847500", "183444.307500", "183444.767500", "183445.227500", "183445.687500", "183446.147500", "183446.607500", "183447.067500", "183447.527500", "183447.987500", "183448.447500", "183448.907500", "183449.367500", "183449.827500", "183450.287500", "183450.747500", "183451.207500", "183451.667500", "183452.127500", "183452.587500", "183453.047500", "183453.507500", "183453.967500", "183454.427500", "183454.887500", "183455.347500", "183455.807500", "183456.267500", "183456.727500", "183457.187500", "183457.647500", "183458.107500", "183458.567500", "183459.027500", "183459.487500", "183459.947500", "183500.407500", "183500.867500", "183501.327500", "183501.787500", "183502.247500", "183502.707500", "183503.167500", "183503.627500", "183504.087500", "183504.547500", "183505.007500", "183505.467500", "183505.927500", "183506.387500", "183506.847500", "183507.307500", "183507.767500", "183508.227500", "183508.687500", "183509.147500", "183509.607500", "183510.067500", "183510.527500", "183510.987500", "183511.447500", "183511.907500", "183512.367500", "183512.827500", "183513.287500", "183513.747500", "183514.207500", "183514.667500", "183515.127500", "183515.587500", "183516.047500", "183516.507500", "183516.967500", "183517.427500", "183517.887500", "183518.347500", "183518.807500", "183519.267500", "183519.727500", "183520.187500", "183520.647500", "183521.107500", "183521.567500", "183522.027500", "183522.487500", "183522.947500", "183523.407500", "183523.867500", "183524.327500", "183524.787500", "183525.247500", "183525.707500", "183526.167500", "183526.627500", "183527.087500", "183527.547500", "183528.007500", "183528.467500", "183528.927500", "183529.387500", "183529.847500", "183530.307500", "183530.767500", "183531.227500", "183531.687500", "183532.147500", "183532.607500", "183533.067500", "183533.527500", "183533.987500", "183534.447500", "183534.907500", "183535.367500", "183535.827500", "183536.287500", "183536.747500", "183537.207500", "183537.667500", "183538.127500", "183538.587500", "183539.047500", "183539.507500", "183539.967500", "183540.427500", "183540.887500", "183541.347500", "183541.807500", "183542.267500", "183542.727500", "183543.187500", "183543.647500", "183544.107500", "183544.567500", "183545.027500", "183545.487500", "183545.947500"],
