{
  "AcquisitionMatrixPE": 82,
  "AcquisitionNumber": 1,
  "AcquisitionTime": "18:13:26.817500",
  "BandwidthPerPixelPhaseEncode": 24.888,
  "BaseResolution": 82,
  "BodyPartExamined": "BRAIN",
  "ConsistencyInfo": "N4_VE11E_LATEST_20181129",
  "ConversionSoftware": "dcm2niix",
  "ConversionSoftwareVersion": "v1.0.20201102",
  "DerivedVendorReportedEchoSpacing": 0.00049,
  "DeviceSerialNumber": "66112",
  "DwellTime": 2e-06,
  "EchoTime": 0.0272,
  "EchoTrainLength": 82,
  "EffectiveEchoSpacing": 0.00049,
  "FlipAngle": 44,
  "ImageComments": "Unaliased MB8/PE3",
  "ImageOrientationPatientDICOM": [0.997813, -0.0558962, -0.0352727, 0.0624274, 0.97232, 0.225159],
  "ImageType": [
    "ORIGINAL",
    "PRIMARY",
    "M",
    "MB",
    "ND",
    "NORM",
    "MOSAIC"
],
  "ImagingFrequency": 123.259,
  "InPlanePhaseEncodingDirectionDICOM": "COL",
  "InstitutionAddress": "Maynard 3,Hanover,NH,US,03755",
  "InstitutionName": "Dartmouth College - PBS",
  "InstitutionalDepartmentName": "Department",
  "MRAcquisitionType": "2D",
  "MagneticFieldStrength": 3,
  "Manufacturer": "Siemens",
  "ManufacturersModelName": "Prisma",
  "Modality": "MR",
  "MultibandAccelerationFactor": 8,
  "PartialFourier": 1,
  "PatientPosition": "HFS",
  "PercentPhaseFOV": 100,
  "PercentSampling": 100,
  "PhaseEncodingDirection": "j-",
  "PhaseEncodingSteps": 82,
  "PhaseResolution": 1,
  "PixelBandwidth": 3050,
  "ProcedureStepDescription": "Wager_Wager^1076_spacetop",
  "ProtocolName": "func_run-03_task-social_acq-ap-mb8",
  "PulseSequenceDetails": "%CustomerSeq%\\cmrr_mbep2d_bold",
  "ReceiveCoilActiveElements": "HEA;HEP",
  "ReceiveCoilName": "Head_32",
  "ReconMatrixPE": 82,
  "RepetitionTime": 0.46,
  "SAR": 0.0881687,
  "ScanOptions": "FS",
  "ScanningSequence": "EP",
  "SequenceName": "epfid2d1_82",
  "SequenceVariant": "SK\\SS",
  "SeriesDescription": "func_run-03_task-social_acq-ap-mb8",
  "SeriesNumber": 16,
  "ShimSetting": [4224, -7825, -7225, 227, -109, 77, -36, 90],
  "SliceThickness": 2.7,
  "SliceTiming": [0, 0.25, 0.0625, 0.3125, 0.125, 0.3775, 0.1875, 0, 0.25, 0.0625, 0.3125, 0.125, 0.3775, 0.1875, 0, 0.25, 0.0625, 0.3125, 0.125, 0.3775, 0.1875, 0, 0.25, 0.0625, 0.3125, 0.125, 0.3775, 0.1875, 0, 0.25, 0.0625, 0.3125, 0.125, 0.3775, 0.1875, 0, 0.25, 0.0625, 0.3125, 0.125, 0.3775, 0.1875, 0, 0.25, 0.0625, 0.3125, 0.125, 0.3775, 0.1875, 0, 0.25, 0.0625, 0.3125, 0.125, 0.3775, 0.1875],
  "SoftwareVersions": "syngo MR E11",
  "SpacingBetweenSlices": 2.7,
  "StationName": "AWP66112",
  "TaskName": "social",
  "TotalReadoutTime": 0.03969,
  "TxRefAmp": 245.19,
  "WipMemBlock": "0c470474-0ae0-492e-a431-2da26cea86fc||Sequence: R016 ve11e/master r/434b28f1; Aug  7 2019 18:53:46 by eja",
  "dcmmeta_affine": [
    [-2.677060127258301, 0.16748827695846558, -0.05861910805106163, 104.9940185546875],
    [0.14996539056301117, 2.608663558959961, 0.6125452518463135, -105.32621765136719],
    [-0.09463395178318024, -0.6040850281715393, 2.6289451122283936, -35.791236877441406],
    [0.0, 0.0, 0.0, 1.0]
],
  "dcmmeta_reorient_transform": [
    [0.0, -1.0, 0.0, 81.0],
    [1.0, 0.0, 0.0, 0.0],
    [0.0, 0.0, 1.0, 0.0],
    [0.0, 0.0, 0.0, 1.0]
],
  "dcmmeta_shape": [82, 82, 56, 872],
  "dcmmeta_slice_dim": 2,
  "dcmmeta_version": 0.6,
  "global": {
    "const": {
      "AccessionNumber": "A004334",
      "AcquisitionMatrix": [82, 0, 0, 82],
      "AngioFlag": "N",
      "BitsAllocated": 16,
      "BitsStored": 16,
      "BodyPartExamined": "BRAIN",
      "Columns": 656,
      "EchoNumbers": 1,
      "EchoTime": 27.2,
      "EchoTrainLength": 82,
      "FlipAngle": 44.0,
      "HighBit": 15,
      "ImageOrientationPatient": [0.99781333709726, -0.0558961915079, -0.0352726535114, 0.06242744882382, 0.97232003800138, 0.2251589601467],
      "ImagePositionPatient": [-934.94599183342, -811.62191416813, -230.93458288185],
      "ImageType": [
        "ORIGINAL",
        "PRIMARY",
        "M",
        "MB",
        "ND",
        "NORM",
        "MOSAIC"
],
      "ImagedNucleus": "1H",
      "ImagingFrequency": 123.259102,
      "InPlanePhaseEncodingDirection": "COL",
      "MRAcquisitionType": "2D",
      "MagneticFieldStrength": 3.0,
      "Manufacturer": "SIEMENS",
      "ManufacturerModelName": "Prisma",
      "Modality": "MR",
      "NumberOfAverages": 1.0,
      "NumberOfPhaseEncodingSteps": 82,
      "PercentPhaseFieldOfView": 100.0,
      "PercentSampling": 100.0,
      "PerformedProcedureStepStartTime": "172402.341000",
      "PhotometricInterpretation": "MONOCHROME2",
      "PixelBandwidth": 3050.0,
      "PixelRepresentation": 0,
      "PixelSpacing": [2.6829268932343, 2.6829268932343],
      "ProtocolName": "func_run-03_task-social_acq-ap-mb8",
      "RepetitionTime": 460.0,
      "Rows": 656,
      "SAR": 0.08816869209246,
      "SamplesPerPixel": 1,
      "ScanOptions": "FS",
      "ScanningSequence": "EP",
      "SequenceName": "epfid2d1_82",
      "SequenceVariant": [
        "SK",
        "SS"
],
      "SeriesDescription": "func_run-03_task-social_acq-ap-mb8",
      "SeriesNumber": 16,
      "SeriesTime": "181337.358000",
      "SliceLocation": -61.024042993417,
      "SliceThickness": 2.7000000476837,
      "SmallestImagePixelValue": 0,
      "SoftwareVersions": "syngo MR E11",
      "SpacingBetweenSlices": 2.7000000809556,
      "SpecificCharacterSet": "ISO_IR 100",
      "StudyID": "2",
      "StudyTime": "172402.287000",
      "TransmitCoilName": "Body",
      "VariableFlipAngleFlag": "N",
      "WindowCenterWidthExplanation": "Algo1"
    },
    "slices": {}
  },
  "time": {
    "samples": {
      "AcquisitionNumber": [1, 2, 3, 4, 5, 6, 7, 8, 9, 10, 11, 12, 13, 14, 15, 16, 17, 18, 19, 20, 21, 22, 23, 24, 25, 26, 27, 28, 29, 30, 31, 32, 33, 34, 35, 36, 37, 38, 39, 40, 41, 42, 43, 44, 45, 46, 47, 48, 49, 50, 51, 52, 53, 54, 55, 56, 57, 58, 59, 60, 61, 62, 63, 64, 65, 66, 67, 68, 69, 70, 71, 72, 73, 74, 75, 76, 77, 78, 79, 80, 81, 82, 83, 84, 85, 86, 87, 88, 89, 90, 91, 92, 93, 94, 95, 96, 97, 98, 99, 100, 101, 102, 103, 104, 105, 106, 107, 108, 109, 110, 111, 112, 113, 114, 115, 116, 117, 118, 119, 120, 121, 122, 123, 124, 125, 126, 127, 128, 129, 130, 131, 132, 133, 134, 135, 136, 137, 138, 139, 140, 141, 142, 143, 144, 145, 146, 147, 148, 149, 150, 151, 152, 153, 154, 155, 156, 157, 158, 159, 160, 161, 162, 163, 164, 165, 166, 167, 168, 169, 170, 171, 172, 173, 174, 175, 176, 177, 178, 179, 180, 181, 182, 183, 184, 185, 186, 187, 188, 189, 190, 191, 192, 193, 194, 195, 196, 197, 198, 199, 200, 201, 202, 203, 204, 205, 206, 207, 208, 209, 210, 211, 212, 213, 214, 215, 216, 217, 218, 219, 220, 221, 222, 223, 224, 225, 226, 227, 228, 229, 230, 231, 232, 233, 234, 235, 236, 237, 238, 239, 240, 241, 242, 243, 244, 245, 246, 247, 248, 249, 250, 251, 252, 253, 254, 255, 256, 257, 258, 259, 260, 261, 262, 263, 264, 265, 266, 267, 268, 269, 270, 271, 272, 273, 274, 275, 276, 277, 278, 279, 280, 281, 282, 283, 284, 285, 286, 287, 288, 289, 290, 291, 292, 293, 294, 295, 296, 297, 298, 299, 300, 301, 302, 303, 304, 305, 306, 307, 308, 309, 310, 311, 312, 313, 314, 315, 316, 317, 318, 319, 320, 321, 322, 323, 324, 325, 326, 327, 328, 329, 330, 331, 332, 333, 334, 335, 336, 337, 338, 339, 340, 341, 342, 343, 344, 345, 346, 347, 348, 349, 350, 351, 352, 353, 354, 355, 356, 357, 358, 359, 360, 361, 362, 363, 364, 365, 366, 367, 368, 369, 370, 371, 372, 373, 374, 375, 376, 377, 378, 379, 380, 381, 382, 383, 384, 385, 386, 387, 388, 389, 390, 391, 392, 393, 394, 395, 396, 397, 398, 399, 400, 401, 402, 403, 404, 405, 406, 407, 408, 409, 410, 411, 412, 413, 414, 415, 416, 417, 418, 419, 420, 421, 422, 423, 424, 425, 426, 427, 428, 429, 430, 431, 432, 433, 434, 435, 436, 437, 438, 439, 440, 441, 442, 443, 444, 445, 446, 447, 448, 449, 450, 451, 452, 453, 454, 455, 456, 457, 458, 459, 460, 461, 462, 463, 464, 465, 466, 467, 468, 469, 470, 471, 472, 473, 474, 475, 476, 477, 478, 479, 480, 481, 482, 483, 484, 485, 486, 487, 488, 489, 490, 491, 492, 493, 494, 495, 496, 497, 498, 499, 500, 501, 502, 503, 504, 505, 506, 507, 508, 509, 510, 511, 512, 513, 514, 515, 516, 517, 518, 519, 520, 521, 522, 523, 524, 525, 526, 527, 528, 529, 530, 531, 532, 533, 534, 535, 536, 537, 538, 539, 540, 541, 542, 543, 544, 545, 546, 547, 548, 549, 550, 551, 552, 553, 554, 555, 556, 557, 558, 559, 560, 561, 562, 563, 564, 565, 566, 567, 568, 569, 570, 571, 572, 573, 574, 575, 576, 577, 578, 579, 580, 581, 582, 583, 584, 585, 586, 587, 588, 589, 590, 591, 592, 593, 594, 595, 596, 597, 598, 599, 600, 601, 602, 603, 604, 605, 606, 607, 608, 609, 610, 611, 612, 613, 614, 615, 616, 617, 618, 619, 620, 621, 622, 623, 624, 625, 626, 627, 628, 629, 630, 631, 632, 633, 634, 635, 636, 637, 638, 639, 640, 641, 642, 643, 644, 645, 646, 647, 648, 649, 650, 651, 652, 653, 654, 655, 656, 657, 658, 659, 660, 661, 662, 663, 664, 665, 666, 667, 668, 669, 670, 671, 672, 673, 674, 675, 676, 677, 678, 679, 680, 681, 682, 683, 684, 685, 686, 687, 688, 689, 690, 691, 692, 693, 694, 695, 696, 697, 698, 699, 700, 701, 702, 703, 704, 705, 706, 707, 708, 709, 710, 711, 712, 713, 714, 715, 716, 717, 718, 719, 720, 721, 722, 723, 724, 725, 726, 727, 728, 729, 730, 731, 732, 733, 734, 735, 736, 737, 738, 739, 740, 741, 742, 743, 744, 745, 746, 747, 748, 749, 750, 751, 752, 753, 754, 755, 756, 757, 758, 759, 760, 761, 762, 763, 764, 765, 766, 767, 768, 769, 770, 771, 772, 773, 774, 775, 776, 777, 778, 779, 780, 781, 782, 783, 784, 785, 786, 787, 788, 789, 790, 791, 792, 793, 794, 795, 796, 797, 798, 799, 800, 801, 802, 803, 804, 805, 806, 807, 808, 809, 810, 811, 812, 813, 814, 815, 816, 817, 818, 819, 820, 821, 822, 823, 824, 825, 826, 827, 828, 829, 830, 831, 832, 833, 834, 835, 836, 837, 838, 839, 840, 841, 842, 843, 844, 845, 846, 847, 848, 849, 850, 851, 852, 853, 854, 855, 856, 857, 858, 859, 860, 861, 862, 863, 864, 865, 866, 867, 868, 869, 870, 871, 872],
      "AcquisitionTime": ["181326.817500", "181327.277500", "181327.737500", "181328.197500", "181328.657500", "181329.117500", "181329.577500", "181330.037500", "181330.497500", "181330.957500", "181331.417500", "181331.877500", "181332.337500", "181332.797500", "181333.257500", "181333.717500", "181334.177500", "181334.637500", "181335.097500", "181335.557500", "181336.017500", "181336.477500", "181336.937500", "181337.397500", "181337.857500", "181338.317500", "181338.777500", "181339.237500", "181339.697500", "181340.157500", "181340.617500", "181341.077500", "181341.537500", "181341.997500", "181342.457500", "181342.917500", "181343.377500", "181343.837500", "181344.297500", "181344.757500", "181345.217500", "181345.677500", "181346.137500", "181346.597500", "181347.057500", "181347.517500", "181347.977500", "181348.437500", "181348.897500", "181349.357500", "181349.817500", "181350.277500", "181350.737500", "181351.197500", "181351.657500", "181352.117500", "181352.577500", "181353.037500", "181353.497500", "181353.957500", "181354.417500", "181354.877500", "181355.337500", "181355.797500", "181356.257500", "181356.717500", "181357.177500", "181357.637500", "181358.097500", "181358.557500", "181359.017500", "181359.477500", "181359.937500", "181400.397500", "181400.857500", "181401.317500", "181401.777500", "181402.237500", "181402.697500", "181403.157500", "181403.617500", "181404.077500", "181404.537500", "181404.997500", "181405.457500", "181405.917500", "181406.377500", "181406.837500", "181407.297500", "181407.757500", "181408.217500", "181408.677500", "181409.137500", "181409.597500", "181410.057500", "181410.517500", "181410.977500", "181411.437500", "181411.897500", "181412.357500", "181412.817500", "181413.277500", "181413.737500", "181414.197500", "181414.657500", "181415.117500", "181415.577500", "181416.037500", "181416.497500", "181416.957500", "181417.417500", "181417.877500", "181418.337500", "181418.797500", "181419.257500", "181419.717500", "181420.177500", "181420.637500", "181421.097500", "181421.557500", "181422.017500", "181422.477500", "181422.937500", "181423.397500", "181423.857500", "181424.317500", "181424.777500", "181425.237500", "181425.697500", "181426.157500", "181426.617500", "181427.077500", "181427.537500", "181427.997500", "181428.457500", "181428.917500", "181429.377500", "181429.837500", "181430.297500", "181430.757500", "181431.217500", "181431.677500", "181432.137500", "181432.597500", "181433.057500", "181433.517500", "181433.977500", "181434.437500", "181434.897500", "181435.357500", "181435.817500", "181436.277500", "181436.737500", "181437.197500", "181437.657500", "181438.117500", "181438.577500", "181439.037500", "181439.497500", "181439.957500", "181440.417500", "181440.877500", "181441.337500", "181441.797500", "181442.257500", "181442.717500", "181443.177500", "181443.637500", "181444.097500", "181444.557500", "181445.017500", "181445.477500", "181445.937500", "181446.397500", "181446.857500", "181447.317500", "181447.777500", "181448.237500", "181448.697500", "181449.157500", "181449.617500", "181450.077500", "181450.537500", "181450.997500", "181451.457500", "181451.917500", "181452.377500", "181452.837500", "181453.297500", "181453.757500", "181454.217500", "181454.677500", "181455.137500", "181455.597500", "181456.057500", "181456.517500", "181456.977500", "181457.437500", "181457.897500", "181458.357500", "181458.817500", "181459.277500", "181459.737500", "181500.197500", "181500.657500", "181501.117500", "181501.577500", "181502.037500", "181502.497500", "181502.957500", "181503.417500", "181503.877500", "181504.337500", "181504.797500", "181505.257500", "181505.717500", "181506.177500", "181506.637500", "181507.097500", "181507.557500", "181508.017500", "181508.477500", "181508.937500", "181509.397500", "181509.857500", "181510.317500", "181510.777500", "181511.237500", "181511.697500", "181512.157500", "181512.617500", "181513.077500", "181513.537500", "181513.997500", "181514.457500", "181514.917500", "181515.377500", "181515.837500", "181516.297500", "181516.757500", "181517.217500", "181517.677500", "181518.137500", "181518.597500", "181519.057500", "181519.517500", "181519.977500", "181520.437500", "181520.897500", "181521.357500", "181521.817500", "181522.277500", "181522.737500", "181523.197500", "181523.657500", "181524.117500", "181524.577500", "181525.037500", "181525.497500", "181525.957500", "181526.417500", "181526.877500", "181527.337500", "181527.797500", "181528.257500", "181528.717500", "181529.177500", "181529.637500", "181530.097500", "181530.557500", "181531.017500", "181531.477500", "181531.937500", "181532.397500", "181532.857500", "181533.317500", "181533.777500", "181534.237500", "181534.697500", "181535.157500", "181535.617500", "181536.077500", "181536.537500", "181536.997500", "181537.457500", "181537.917500", "181538.377500", "181538.837500", "181539.297500", "181539.757500", "181540.217500", "181540.677500", "181541.137500", "181541.597500", "181542.057500", "181542.517500", "181542.977500", "181543.437500", "181543.897500", "181544.357500", "181544.817500", "181545.277500", "181545.737500", "181546.197500", "181546.657500", "181547.117500", "181547.577500", "181548.037500", "181548.497500", "181548.957500", "181549.417500", "181549.877500", "181550.337500", "181550.797500", "181551.257500", "181551.717500", "181552.177500", "181552.637500", "181553.097500", "181553.557500", "181554.017500", "181554.477500", "181554.937500", "181555.397500", "181555.857500", "181556.317500", "181556.777500", "181557.237500", "181557.697500", "181558.157500", "181558.617500", "181559.077500", "181559.537500", "181559.997500", "181600.457500", "181600.917500", "181601.377500", "181601.837500", "181602.297500", "181602.757500", "181603.217500", "181603.677500", "181604.137500", "181604.597500", "181605.057500", "181605.517500", "181605.977500", "181606.437500", "181606.897500", "181607.357500", "181607.817500", "181608.277500", "181608.737500", "181609.197500", "181609.657500", "181610.117500", "181610.577500", "181611.037500", "181611.497500", "181611.957500", "181612.417500", "181612.877500", "181613.337500", "181613.797500", "181614.257500", "181614.717500", "181615.177500", "181615.637500", "181616.097500", "181616.557500", "181617.017500", "181617.477500", "181617.937500", "181618.397500", "181618.857500", "181619.317500", "181619.777500", "181620.237500", "181620.697500", "181621.157500", "181621.617500", "181622.077500", "181622.537500", "181622.997500", "181623.457500", "181623.917500", "181624.377500", "181624.837500", "181625.297500", "181625.757500", "181626.217500", "181626.677500", "181627.137500", "181627.597500", "181628.057500", "181628.517500", "181628.977500", "181629.437500", "181629.897500", "181630.357500", "181630.817500", "181631.277500", "181631.737500", "181632.197500", "181632.657500", "181633.117500", "181633.577500", "181634.037500", "181634.497500", "181634.957500", "181635.417500", "181635.877500", "181636.337500", "181636.797500", "181637.257500", "181637.717500", "181638.177500", "181638.637500", "181639.097500", "181639.557500", "181640.017500", "181640.477500", "181640.937500", "181641.397500", "181641.857500", "181642.317500", "181642.777500", "181643.237500", "181643.697500", "181644.157500", "181644.617500", "181645.077500", "181645.537500", "181645.997500", "181646.457500", "181646.917500", "181647.377500", "181647.837500", "181648.297500", "181648.757500", "181649.217500", "181649.677500", "181650.137500", "181650.597500", "181651.057500", "181651.517500", "181651.977500", "181652.437500", "181652.897500", "181653.357500", "181653.817500", "181654.277500", "181654.737500", "181655.197500", "181655.657500", "181656.117500", "181656.577500", "181657.037500", "181657.497500", "181657.957500", "181658.417500", "181658.877500", "181659.337500", "181659.797500", "181700.257500", "181700.717500", "181701.177500", "181701.637500", "181702.097500", "181702.557500", "181703.017500", "181703.477500", "181703.937500", "181704.397500", "181704.857500", "181705.317500", "181705.777500", "181706.237500", "181706.697500", "181707.157500", "181707.617500", "181708.077500", "181708.537500", "181708.997500", "181709.457500", "181709.917500", "181710.377500", "181710.837500", "181711.297500", "181711.757500", "181712.217500", "181712.677500", "181713.137500", "181713.597500", "181714.057500", "181714.517500", "181714.977500", "181715.437500", "181715.897500", "181716.357500", "181716.817500", "181717.277500", "181717.737500", "181718.197500", "181718.657500", "181719.117500", "181719.577500", "181720.037500", "181720.497500", "181720.957500", "181721.417500", "181721.877500", "181722.337500", "181722.797500", "181723.257500", "181723.717500", "181724.177500", "181724.637500", "181725.097500", "181725.557500", "181726.017500", "181726.477500", "181726.937500", "181727.397500", "181727.857500", "181728.317500", "181728.777500", "181729.237500", "181729.697500", "181730.157500", "181730.617500", "181731.077500", "181731.537500", "181731.997500", "181732.457500", "181732.917500", "181733.377500", "181733.837500", "181734.297500", "181734.757500", "181735.217500", "181735.677500", "181736.137500", "181736.597500", "181737.057500", "181737.517500", "181737.977500", "181738.437500", "181738.897500", "181739.357500", "181739.817500", "181740.277500", "181740.737500", "181741.197500", "181741.657500", "181742.117500", "181742.577500", "181743.037500", "181743.497500", "181743.957500", "181744.417500", "181744.877500", "181745.337500", "181745.797500", "181746.257500", "181746.717500", "181747.177500", "181747.637500", "181748.097500", "181748.557500", "181749.017500", "181749.477500", "181749.937500", "181750.397500", "181750.857500", "181751.317500", "181751.777500", "181752.237500", "181752.697500", "181753.157500", "181753.617500", "181754.077500", "181754.537500", "181754.997500", "181755.457500", "181755.917500", "181756.377500", "181756.837500", "181757.297500", "181757.757500", "181758.217500", "181758.677500", "181759.137500", "181759.597500", "181800.057500", "181800.517500", "181800.977500", "181801.437500", "181801.897500", "181802.357500", "181802.817500", "181803.277500", "181803.737500", "181804.197500", "181804.657500", "181805.117500", "181805.577500", "181806.037500", "181806.497500", "181806.957500", "181807.417500", "181807.877500", "181808.337500", "181808.797500", "181809.257500", "181809.717500", "181810.177500", "181810.637500", "181811.097500", "181811.557500", "181812.017500", "181812.477500", "181812.937500", "181813.397500", "181813.857500", "181814.317500", "181814.777500", "181815.237500", "181815.697500", "181816.157500", "181816.617500", "181817.077500", "181817.537500", "181817.997500", "181818.457500", "181818.917500", "181819.377500", "181819.837500", "181820.297500", "181820.757500", "181821.217500", "181821.677500", "181822.137500", "181822.597500", "181823.057500", "181823.517500", "181823.977500", "181824.437500", "181824.897500", "181825.357500", "181825.817500", "181826.277500", "181826.737500", "181827.197500", "181827.657500", "181828.117500", "181828.577500", "181829.037500", "181829.497500", "181829.957500", "181830.417500", "181830.877500", "181831.337500", "181831.797500", "181832.257500", "181832.717500", "181833.177500", "181833.637500", "181834.097500", "181834.557500", "181835.017500", "181835.477500", "181835.937500", "181836.397500", "181836.857500", "181837.317500", "181837.777500", "181838.237500", "181838.697500", "181839.157500", "181839.617500", "181840.077500", "181840.537500", "181840.997500", "181841.457500", "181841.917500", "181842.377500", "181842.837500", "181843.297500", "181843.757500", "181844.217500", "181844.677500", "181845.137500", "181845.597500", "181846.057500", "181846.517500", "181846.977500", "181847.437500", "181847.897500", "181848.357500", "181848.817500", "181849.277500", "181849.737500", "181850.197500", "181850.657500", "181851.117500", "181851.577500", "181852.037500", "181852.497500", "181852.957500", "181853.417500", "181853.877500", "181854.337500", "181854.797500", "181855.257500", "181855.717500", "181856.177500", "181856.637500", "181857.097500", "181857.557500", "181858.017500", "181858.477500", "181858.937500", "181859.397500", "181859.857500", "181900.317500", "181900.777500", "181901.237500", "181901.697500", "181902.157500", "181902.617500", "181903.077500", "181903.537500", "181903.997500", "181904.457500", "181904.917500", "181905.377500", "181905.837500", "181906.297500", "181906.757500", "181907.217500", "181907.677500", "181908.137500", "181908.597500", "181909.057500", "181909.517500", "181909.977500", "181910.437500", "181910.897500", "181911.357500", "181911.817500", "181912.277500", "181912.737500", "181913.197500", "181913.657500", "181914.117500", "181914.577500", "181915.037500", "181915.497500", "181915.957500", "181916.417500", "181916.877500", "181917.337500", "181917.797500", "181918.257500", "181918.717500", "181919.177500", "181919.637500", "181920.097500", "181920.557500", "181921.017500", "181921.477500", "181921.937500", "181922.397500", "181922.857500", "181923.317500", "181923.777500", "181924.237500", "181924.697500", "181925.157500", "181925.617500", "181926.077500", "181926.537500", "181926.997500", "181927.457500", "181927.917500", "181928.377500", "181928.837500", "181929.297500", "181929.757500", "181930.217500", "181930.677500", "181931.137500", "181931.597500", "181932.057500", "181932.517500", "181932.977500", "181933.437500", "181933.897500", "181934.357500", "181934.817500", "181935.277500", "181935.737500", "181936.197500", "181936.657500", "181937.117500", "181937.577500", "181938.037500", "181938.497500", "181938.957500", "181939.417500", "181939.877500", "181940.337500", "181940.797500", "181941.257500", "181941.717500", "181942.177500", "181942.637500", "181943.097500", "181943.557500", "181944.017500", "181944.477500", "181944.937500", "181945.397500", "181945.857500", "181946.317500", "181946.777500", "181947.237500", "181947.697500", "181948.157500", "181948.617500", "181949.077500", "181949.537500", "181949.997500", "181950.457500", "181950.917500", "181951.377500", "181951.837500", "181952.297500", "181952.757500", "181953.217500", "181953.677500", "181954.137500", "181954.597500", "181955.057500", "181955.517500", "181955.977500", "181956.437500", "181956.897500", "181957.357500", "181957.817500", "181958.277500", "181958.737500", "181959.197500", "181959.657500", "182000.117500", "182000.577500", "182001.037500", "182001.497500", "182001.957500", "182002.417500", "182002.877500", "182003.337500", "182003.797500", "182004.257500", "182004.717500", "182005.177500", "182005.637500", "182006.097500", "182006.557500", "182007.017500", "182007.477500"],
