{
  "AcquisitionMatrixPE": 82,
  "AcquisitionNumber": 1,
  "AcquisitionTime": "16:34:21.042500",
  "BandwidthPerPixelPhaseEncode": 24.888,
  "BaseResolution": 82,
  "BodyPartExamined": "BRAIN",
  "ConsistencyInfo": "N4_VE11C_LATEST_20160120",
  "ConversionSoftware": "dcm2niix",
  "ConversionSoftwareVersion": "v1.0.20201102",
  "DerivedVendorReportedEchoSpacing": 0.00049,
  "DeviceSerialNumber": "66112",
  "DwellTime": 2e-06,
  "EchoTime": 0.0272,
  "EchoTrainLength": 82,
  "EffectiveEchoSpacing": 0.00049,
  "FlipAngle": 44,
  "ImageComments": "Unaliased MB8/PE3",
  "ImageOrientationPatientDICOM": [0.998158, -0.0596116, 0.0112817, 0.0600009, 0.997472, -0.0380675],
  "ImageType": [
    "ORIGINAL",
    "PRIMARY",
    "M",
    "MB",
    "ND",
    "NORM",
    "MOSAIC"
],
  "ImagingFrequency": 123.252,
  "InPlanePhaseEncodingDirectionDICOM": "COL",
  "InstitutionAddress": "Maynard 3,Hanover,NH,US,03755",
  "InstitutionName": "Dartmouth College - PBS",
  "InstitutionalDepartmentName": "Department",
  "MRAcquisitionType": "2D",
  "MagneticFieldStrength": 3,
  "Manufacturer": "Siemens",
  "ManufacturersModelName": "Prisma",
  "Modality": "MR",
  "MultibandAccelerationFactor": 8,
  "PartialFourier": 1,
  "PatientPosition": "HFS",
  "PercentPhaseFOV": 100,
  "PercentSampling": 100,
  "PhaseEncodingDirection": "j-",
  "PhaseEncodingSteps": 82,
  "PhaseResolution": 1,
  "PixelBandwidth": 3050,
  "ProcedureStepDescription": "Wager_Wager^1076_spacetop",
  "ProtocolName": "func_run-04_task-social_acq-ap-mb8",
  "PulseSequenceDetails": "%CustomerSeq%\\cmrr_mbep2d_bold",
  "ReceiveCoilActiveElements": "HEA;HEP",
  "ReceiveCoilName": "Head_32",
  "ReconMatrixPE": 82,
  "RepetitionTime": 0.46,
  "SAR": 0.0767966,
  "ScanOptions": "FS",
  "ScanningSequence": "EP",
  "SequenceName": "epfid2d1_82",
  "SequenceVariant": "SK\\SS",
  "SeriesDescription": "func_run-04_task-social_acq-ap-mb8",
  "SeriesNumber": 14,
  "ShimSetting": [4142, -7772, -7263, 629, 1, -300, 87, 86],
  "SliceThickness": 2.7,
  "SliceTiming": [0, 0.2525, 0.0625, 0.315, 0.1275, 0.3775, 0.19, 0, 0.2525, 0.0625, 0.315, 0.1275, 0.3775, 0.19, 0, 0.2525, 0.0625, 0.315, 0.1275, 0.3775, 0.19, 0, 0.2525, 0.0625, 0.315, 0.1275, 0.3775, 0.19, 0, 0.2525, 0.0625, 0.315, 0.1275, 0.3775, 0.19, 0, 0.2525, 0.0625, 0.315, 0.1275, 0.3775, 0.19, 0, 0.2525, 0.0625, 0.315, 0.1275, 0.3775, 0.19, 0, 0.2525, 0.0625, 0.315, 0.1275, 0.3775, 0.19],
  "SoftwareVersions": "syngo MR E11",
  "SpacingBetweenSlices": 2.7,
  "StationName": "AWP66112",
  "TaskName": "social",
  "TotalReadoutTime": 0.03969,
  "TxRefAmp": 232.666,
  "WipMemBlock": "36879082-eff8-4c77-9541-1638c2ef9423||Sequence: R016 ve11c/master r/e634e98; Dec 19 2017 11:00:25 by eja",
  "dcmmeta_affine": [
    [-2.6779847145080566, 0.16097794473171234, 0.024256691336631775, 107.85304260253906],
    [0.15993346273899078, 2.67614483833313, -0.10442066937685013, -98.74768829345703],
    [0.030268091708421707, 0.1021324023604393, 2.697870969772339, -78.91615295410156],
    [0.0, 0.0, 0.0, 1.0]
],
  "dcmmeta_reorient_transform": [
    [0.0, -1.0, 0.0, 81.0],
    [1.0, 0.0, 0.0, 0.0],
    [0.0, 0.0, 1.0, 0.0],
    [0.0, 0.0, 0.0, 1.0]
],
  "dcmmeta_shape": [82, 82, 56, 872],
  "dcmmeta_slice_dim": 2,
  "dcmmeta_version": 0.6,
  "global": {
    "const": {
      "AccessionNumber": "A003637",
      "AcquisitionMatrix": [82, 0, 0, 82],
      "AngioFlag": "N",
      "BitsAllocated": 16,
      "BitsStored": 16,
      "BodyPartExamined": "BRAIN",
      "Columns": 656,
      "EchoNumbers": 1,
      "EchoTime": 27.2,
      "EchoTrainLength": 82,
      "FlipAngle": 44.0,
      "HighBit": 15,
      "ImageOrientationPatient": [0.99815789530233, -0.0596115619848, 0.01128174292201, 0.06000087094052, 0.99747218431726, -0.0380675320941],
      "ImagePositionPatient": [-935.67452847932, -840.17274643429, -50.018371604783],
      "ImageType": [
        "ORIGINAL",
        "PRIMARY",
        "M",
        "MB",
        "ND",
        "NORM",
        "MOSAIC"
],
      "ImagedNucleus": "1H",
      "ImagingFrequency": 123.252171,
      "InPlanePhaseEncodingDirection": "COL",
      "MRAcquisitionType": "2D",
      "MagneticFieldStrength": 3.0,
      "Manufacturer": "SIEMENS",
      "ManufacturerModelName": "Prisma",
      "Modality": "MR",
      "NumberOfAverages": 1.0,
      "NumberOfPhaseEncodingSteps": 82,
      "PercentPhaseFieldOfView": 100.0,
      "PercentSampling": 100.0,
      "PerformedProcedureStepStartTime": "145943.218000",
      "PhotometricInterpretation": "MONOCHROME2",
      "PixelBandwidth": 3050.0,
      "PixelRepresentation": 0,
      "PixelSpacing": [2.6829268932343, 2.6829268932343],
      "ProtocolName": "func_run-04_task-social_acq-ap-mb8",
      "RepetitionTime": 460.0,
      "Rows": 656,
      "SAR": 0.07679661944835,
      "SamplesPerPixel": 1,
      "ScanOptions": "FS",
      "ScanningSequence": "EP",
      "SequenceName": "epfid2d1_82",
      "SequenceVariant": [
        "SK",
        "SS"
],
      "SeriesDescription": "func_run-04_task-social_acq-ap-mb8",
      "SeriesNumber": 14,
      "SeriesTime": "163433.898000",
      "SliceLocation": -74.06598037247,
      "SliceThickness": 2.7000000476837,
      "SmallestImagePixelValue": 0,
      "SoftwareVersions": "syngo MR E11",
      "SpacingBetweenSlices": 2.6999999818008,
      "SpecificCharacterSet": "ISO_IR 100",
      "StudyID": "1",
      "StudyTime": "145943.110000",
      "TransmitCoilName": "Body",
      "VariableFlipAngleFlag": "N",
      "WindowCenterWidthExplanation": "Algo1",
      "dBdt": 0.0},
    "slices": {}
  },
  "time": {
    "samples": {
      "AcquisitionNumber": [1, 2, 3, 4, 5, 6, 7, 8, 9, 10, 11, 12, 13, 14, 15, 16, 17, 18, 19, 20, 21, 22, 23, 24, 25, 26, 27, 28, 29, 30, 31, 32, 33, 34, 35, 36, 37, 38, 39, 40, 41, 42, 43, 44, 45, 46, 47, 48, 49, 50, 51, 52, 53, 54, 55, 56, 57, 58, 59, 60, 61, 62, 63, 64, 65, 66, 67, 68, 69, 70, 71, 72, 73, 74, 75, 76, 77, 78, 79, 80, 81, 82, 83, 84, 85, 86, 87, 88, 89, 90, 91, 92, 93, 94, 95, 96, 97, 98, 99, 100, 101, 102, 103, 104, 105, 106, 107, 108, 109, 110, 111, 112, 113, 114, 115, 116, 117, 118, 119, 120, 121, 122, 123, 124, 125, 126, 127, 128, 129, 130, 131, 132, 133, 134, 135, 136, 137, 138, 139, 140, 141, 142, 143, 144, 145, 146, 147, 148, 149, 150, 151, 152, 153, 154, 155, 156, 157, 158, 159, 160, 161, 162, 163, 164, 165, 166, 167, 168, 169, 170, 171, 172, 173, 174, 175, 176, 177, 178, 179, 180, 181, 182, 183, 184, 185, 186, 187, 188, 189, 190, 191, 192, 193, 194, 195, 196, 197, 198, 199, 200, 201, 202, 203, 204, 205, 206, 207, 208, 209, 210, 211, 212, 213, 214, 215, 216, 217, 218, 219, 220, 221, 222, 223, 224, 225, 226, 227, 228, 229, 230, 231, 232, 233, 234, 235, 236, 237, 238, 239, 240, 241, 242, 243, 244, 245, 246, 247, 248, 249, 250, 251, 252, 253, 254, 255, 256, 257, 258, 259, 260, 261, 262, 263, 264, 265, 266, 267, 268, 269, 270, 271, 272, 273, 274, 275, 276, 277, 278, 279, 280, 281, 282, 283, 284, 285, 286, 287, 288, 289, 290, 291, 292, 293, 294, 295, 296, 297, 298, 299, 300, 301, 302, 303, 304, 305, 306, 307, 308, 309, 310, 311, 312, 313, 314, 315, 316, 317, 318, 319, 320, 321, 322, 323, 324, 325, 326, 327, 328, 329, 330, 331, 332, 333, 334, 335, 336, 337, 338, 339, 340, 341, 342, 343, 344, 345, 346, 347, 348, 349, 350, 351, 352, 353, 354, 355, 356, 357, 358, 359, 360, 361, 362, 363, 364, 365, 366, 367, 368, 369, 370, 371, 372, 373, 374, 375, 376, 377, 378, 379, 380, 381, 382, 383, 384, 385, 386, 387, 388, 389, 390, 391, 392, 393, 394, 395, 396, 397, 398, 399, 400, 401, 402, 403, 404, 405, 406, 407, 408, 409, 410, 411, 412, 413, 414, 415, 416, 417, 418, 419, 420, 421, 422, 423, 424, 425, 426, 427, 428, 429, 430, 431, 432, 433, 434, 435, 436, 437, 438, 439, 440, 441, 442, 443, 444, 445, 446, 447, 448, 449, 450, 451, 452, 453, 454, 455, 456, 457, 458, 459, 460, 461, 462, 463, 464, 465, 466, 467, 468, 469, 470, 471, 472, 473, 474, 475, 476, 477, 478, 479, 480, 481, 482, 483, 484, 485, 486, 487, 488, 489, 490, 491, 492, 493, 494, 495, 496, 497, 498, 499, 500, 501, 502, 503, 504, 505, 506, 507, 508, 509, 510, 511, 512, 513, 514, 515, 516, 517, 518, 519, 520, 521, 522, 523, 524, 525, 526, 527, 528, 529, 530, 531, 532, 533, 534, 535, 536, 537, 538, 539, 540, 541, 542, 543, 544, 545, 546, 547, 548, 549, 550, 551, 552, 553, 554, 555, 556, 557, 558, 559, 560, 561, 562, 563, 564, 565, 566, 567, 568, 569, 570, 571, 572, 573, 574, 575, 576, 577, 578, 579, 580, 581, 582, 583, 584, 585, 586, 587, 588, 589, 590, 591, 592, 593, 594, 595, 596, 597, 598, 599, 600, 601, 602, 603, 604, 605, 606, 607, 608, 609, 610, 611, 612, 613, 614, 615, 616, 617, 618, 619, 620, 621, 622, 623, 624, 625, 626, 627, 628, 629, 630, 631, 632, 633, 634, 635, 636, 637, 638, 639, 640, 641, 642, 643, 644, 645, 646, 647, 648, 649, 650, 651, 652, 653, 654, 655, 656, 657, 658, 659, 660, 661, 662, 663, 664, 665, 666, 667, 668, 669, 670, 671, 672, 673, 674, 675, 676, 677, 678, 679, 680, 681, 682, 683, 684, 685, 686, 687, 688, 689, 690, 691, 692, 693, 694, 695, 696, 697, 698, 699, 700, 701, 702, 703, 704, 705, 706, 707, 708, 709, 710, 711, 712, 713, 714, 715, 716, 717, 718, 719, 720, 721, 722, 723, 724, 725, 726, 727, 728, 729, 730, 731, 732, 733, 734, 735, 736, 737, 738, 739, 740, 741, 742, 743, 744, 745, 746, 747, 748, 749, 750, 751, 752, 753, 754, 755, 756, 757, 758, 759, 760, 761, 762, 763, 764, 765, 766, 767, 768, 769, 770, 771, 772, 773, 774, 775, 776, 777, 778, 779, 780, 781, 782, 783, 784, 785, 786, 787, 788, 789, 790, 791, 792, 793, 794, 795, 796, 797, 798, 799, 800, 801, 802, 803, 804, 805, 806, 807, 808, 809, 810, 811, 812, 813, 814, 815, 816, 817, 818, 819, 820, 821, 822, 823, 824, 825, 826, 827, 828, 829, 830, 831, 832, 833, 834, 835, 836, 837, 838, 839, 840, 841, 842, 843, 844, 845, 846, 847, 848, 849, 850, 851, 852, 853, 854, 855, 856, 857, 858, 859, 860, 861, 862, 863, 864, 865, 866, 867, 868, 869, 870, 871, 872],
      "AcquisitionTime": ["163421.042500", "163421.502500", "163421.962500", "163422.422500", "163422.882500", "163423.342500", "163423.802500", "163424.262500", "163424.722500", "163425.182500", "163425.642500", "163426.102500", "163426.562500", "163427.022500", "163427.482500", "163427.942500", "163428.402500", "163428.862500", "163429.322500", "163429.782500", "163430.242500", "163430.702500", "163431.162500", "163431.622500", "163432.082500", "163432.542500", "163433.002500", "163433.462500", "163433.922500", "163434.382500", "163434.842500", "163435.302500", "163435.762500", "163436.222500", "163436.682500", "163437.142500", "163437.602500", "163438.062500", "163438.522500", "163438.982500", "163439.442500", "163439.902500", "163440.362500", "163440.822500", "163441.282500", "163441.742500", "163442.202500", "163442.662500", "163443.122500", "163443.582500", "163444.042500", "163444.502500", "163444.962500", "163445.422500", "163445.882500", "163446.342500", "163446.802500", "163447.262500", "163447.722500", "163448.182500", "163448.642500", "163449.102500", "163449.562500", "163450.022500", "163450.482500", "163450.942500", "163451.402500", "163451.862500", "163452.322500", "163452.782500", "163453.242500", "163453.702500", "163454.162500", "163454.622500", "163455.082500", "163455.542500", "163456.002500", "163456.462500", "163456.922500", "163457.382500", "163457.842500", "163458.302500", "163458.762500", "163459.222500", "163459.682500", "163500.142500", "163500.602500", "163501.062500", "163501.522500", "163501.982500", "163502.442500", "163502.902500", "163503.362500", "163503.822500", "163504.282500", "163504.742500", "163505.202500", "163505.662500", "163506.122500", "163506.582500", "163507.042500", "163507.502500", "163507.962500", "163508.422500", "163508.882500", "163509.342500", "163509.802500", "163510.262500", "163510.722500", "163511.182500", "163511.642500", "163512.102500", "163512.562500", "163513.022500", "163513.482500", "163513.942500", "163514.402500", "163514.862500", "163515.322500", "163515.782500", "163516.242500", "163516.702500", "163517.162500", "163517.622500", "163518.082500", "163518.542500", "163519.002500", "163519.462500", "163519.922500", "163520.382500", "163520.842500", "163521.302500", "163521.762500", "163522.222500", "163522.682500", "163523.142500", "163523.602500", "163524.062500", "163524.522500", "163524.982500", "163525.442500", "163525.902500", "163526.362500", "163526.822500", "163527.282500", "163527.742500", "163528.202500", "163528.662500", "163529.122500", "163529.582500", "163530.042500", "163530.502500", "163530.962500", "163531.422500", "163531.882500", "163532.342500", "163532.802500", "163533.262500", "163533.722500", "163534.182500", "163534.642500", "163535.102500", "163535.562500", "163536.022500", "163536.482500", "163536.942500", "163537.402500", "163537.862500", "163538.322500", "163538.782500", "163539.242500", "163539.702500", "163540.162500", "163540.622500", "163541.082500", "163541.542500", "163542.002500", "163542.462500", "163542.922500", "163543.382500", "163543.842500", "163544.302500", "163544.762500", "163545.222500", "163545.682500", "163546.142500", "163546.602500", "163547.062500", "163547.522500", "163547.982500", "163548.442500", "163548.902500", "163549.362500", "163549.822500", "163550.282500", "163550.742500", "163551.202500", "163551.662500", "163552.122500", "163552.582500", "163553.042500", "163553.502500", "163553.962500", "163554.422500", "163554.882500", "163555.342500", "163555.802500", "163556.262500", "163556.722500", "163557.182500", "163557.642500", "163558.102500", "163558.562500", "163559.022500", "163559.482500", "163559.942500", "163600.402500", "163600.862500", "163601.322500", "163601.782500", "163602.242500", "163602.702500", "163603.162500", "163603.622500", "163604.082500", "163604.542500", "163605.002500", "163605.462500", "163605.922500", "163606.382500", "163606.842500", "163607.302500", "163607.762500", "163608.222500", "163608.682500", "163609.142500", "163609.602500", "163610.062500", "163610.522500", "163610.982500", "163611.442500", "163611.902500", "163612.362500", "163612.822500", "163613.282500", "163613.742500", "163614.202500", "163614.662500", "163615.122500", "163615.582500", "163616.042500", "163616.502500", "163616.962500", "163617.422500", "163617.882500", "163618.342500", "163618.802500", "163619.262500", "163619.722500", "163620.182500", "163620.642500", "163621.102500", "163621.562500", "163622.022500", "163622.482500", "163622.942500", "163623.402500", "163623.862500", "163624.322500", "163624.782500", "163625.242500", "163625.702500", "163626.162500", "163626.622500", "163627.082500", "163627.542500", "163628.002500", "163628.462500", "163628.922500", "163629.382500", "163629.842500", "163630.302500", "163630.762500", "163631.222500", "163631.682500", "163632.142500", "163632.602500", "163633.062500", "163633.522500", "163633.982500", "163634.442500", "163634.902500", "163635.362500", "163635.822500", "163636.282500", "163636.742500", "163637.202500", "163637.662500", "163638.122500", "163638.582500", "163639.042500", "163639.502500", "163639.962500", "163640.422500", "163640.882500", "163641.342500", "163641.802500", "163642.262500", "163642.722500", "163643.182500", "163643.642500", "163644.102500", "163644.562500", "163645.022500", "163645.482500", "163645.942500", "163646.402500", "163646.862500", "163647.322500", "163647.782500", "163648.242500", "163648.702500", "163649.162500", "163649.622500", "163650.082500", "163650.542500", "163651.002500", "163651.462500", "163651.922500", "163652.382500", "163652.842500", "163653.302500", "163653.762500", "163654.222500", "163654.682500", "163655.142500", "163655.602500", "163656.062500", "163656.522500", "163656.982500", "163657.442500", "163657.902500", "163658.362500", "163658.822500", "163659.282500", "163659.742500", "163700.202500", "163700.662500", "163701.122500", "163701.582500", "163702.042500", "163702.502500", "163702.962500", "163703.422500", "163703.882500", "163704.342500", "163704.802500", "163705.262500", "163705.722500", "163706.182500", "163706.642500", "163707.102500", "163707.562500", "163708.022500", "163708.482500", "163708.942500", "163709.402500", "163709.862500", "163710.322500", "163710.782500", "163711.242500", "163711.702500", "163712.162500", "163712.622500", "163713.082500", "163713.542500", "163714.002500", "163714.462500", "163714.922500", "163715.382500", "163715.842500", "163716.302500", "163716.762500", "163717.222500", "163717.682500", "163718.142500", "163718.602500", "163719.062500", "163719.522500", "163719.982500", "163720.442500", "163720.902500", "163721.362500", "163721.822500", "163722.282500", "163722.742500", "163723.202500", "163723.662500", "163724.122500", "163724.582500", "163725.042500", "163725.502500", "163725.962500", "163726.422500", "163726.882500", "163727.342500", "163727.802500", "163728.262500", "163728.722500", "163729.182500", "163729.642500", "163730.102500", "163730.562500", "163731.022500", "163731.482500", "163731.942500", "163732.402500", "163732.862500", "163733.322500", "163733.782500", "163734.242500", "163734.702500", "163735.162500", "163735.622500", "163736.082500", "163736.542500", "163737.002500", "163737.462500", "163737.922500", "163738.382500", "163738.842500", "163739.302500", "163739.762500", "163740.222500", "163740.682500", "163741.142500", "163741.602500", "163742.062500", "163742.522500", "163742.982500", "163743.442500", "163743.902500", "163744.362500", "163744.822500", "163745.282500", "163745.742500", "163746.202500", "163746.662500", "163747.122500", "163747.582500", "163748.042500", "163748.502500", "163748.962500", "163749.422500", "163749.882500", "163750.342500", "163750.802500", "163751.262500", "163751.722500", "163752.182500", "163752.642500", "163753.102500", "163753.562500", "163754.022500", "163754.482500", "163754.942500", "163755.402500", "163755.862500", "163756.322500", "163756.782500", "163757.242500", "163757.702500", "163758.162500", "163758.622500", "163759.082500", "163759.542500", "163800.002500", "163800.462500", "163800.922500", "163801.382500", "163801.842500", "163802.302500", "163802.762500", "163803.222500", "163803.682500", "163804.142500", "163804.602500", "163805.062500", "163805.522500", "163805.982500", "163806.442500", "163806.902500", "163807.362500", "163807.822500", "163808.282500", "163808.742500", "163809.202500", "163809.662500", "163810.122500", "163810.582500", "163811.042500", "163811.502500", "163811.962500", "163812.422500", "163812.882500", "163813.342500", "163813.802500", "163814.262500", "163814.722500", "163815.182500", "163815.642500", "163816.102500", "163816.562500", "163817.022500", "163817.482500", "163817.942500", "163818.402500", "163818.862500", "163819.322500", "163819.782500", "163820.242500", "163820.702500", "163821.162500", "163821.622500", "163822.082500", "163822.542500", "163823.002500", "163823.462500", "163823.922500", "163824.382500", "163824.842500", "163825.302500", "163825.762500", "163826.222500", "163826.682500", "163827.142500", "163827.602500", "163828.062500", "163828.522500", "163828.982500", "163829.442500", "163829.902500", "163830.362500", "163830.822500", "163831.282500", "163831.742500", "163832.202500", "163832.662500", "163833.122500", "163833.582500", "163834.042500", "163834.502500", "163834.962500", "163835.422500", "163835.882500", "163836.342500", "163836.802500", "163837.262500", "163837.722500", "163838.182500", "163838.642500", "163839.102500", "163839.562500", "163840.022500", "163840.482500", "163840.942500", "163841.402500", "163841.862500", "163842.322500", "163842.782500", "163843.242500", "163843.702500", "163844.162500", "163844.622500", "163845.082500", "163845.542500", "163846.002500", "163846.462500", "163846.922500", "163847.382500", "163847.842500", "163848.302500", "163848.762500", "163849.222500", "163849.682500", "163850.142500", "163850.602500", "163851.062500", "163851.522500", "163851.982500", "163852.442500", "163852.902500", "163853.362500", "163853.822500", "163854.282500", "163854.742500", "163855.202500", "163855.662500", "163856.122500", "163856.582500", "163857.042500", "163857.502500", "163857.962500", "163858.422500", "163858.882500", "163859.342500", "163859.802500", "163900.262500", "163900.722500", "163901.182500", "163901.642500", "163902.102500", "163902.562500", "163903.022500", "163903.482500", "163903.942500", "163904.402500", "163904.862500", "163905.322500", "163905.782500", "163906.242500", "163906.702500", "163907.162500", "163907.622500", "163908.082500", "163908.542500", "163909.002500", "163909.462500", "163909.922500", "163910.382500", "163910.842500", "163911.302500", "163911.762500", "163912.222500", "163912.682500", "163913.142500", "163913.602500", "163914.062500", "163914.522500", "163914.982500", "163915.442500", "163915.902500", "163916.362500", "163916.822500", "163917.282500", "163917.742500", "163918.202500", "163918.662500", "163919.122500", "163919.582500", "163920.042500", "163920.502500", "163920.962500", "163921.422500", "163921.882500", "163922.342500", "163922.802500", "163923.262500", "163923.722500", "163924.182500", "163924.642500", "163925.102500", "163925.562500", "163926.022500", "163926.482500", "163926.942500", "163927.402500", "163927.862500", "163928.322500", "163928.782500", "163929.242500", "163929.702500", "163930.162500", "163930.622500", "163931.082500", "163931.542500", "163932.002500", "163932.462500", "163932.922500", "163933.382500", "163933.842500", "163934.302500", "163934.762500", "163935.222500", "163935.682500", "163936.142500", "163936.602500", "163937.062500", "163937.522500", "163937.982500", "163938.442500", "163938.902500", "163939.362500", "163939.822500", "163940.282500", "163940.742500", "163941.202500", "163941.662500", "163942.122500", "163942.582500", "163943.042500", "163943.502500", "163943.962500", "163944.422500", "163944.882500", "163945.342500", "163945.802500", "163946.262500", "163946.722500", "163947.182500", "163947.642500", "163948.102500", "163948.562500", "163949.022500", "163949.482500", "163949.942500", "163950.402500", "163950.862500", "163951.322500", "163951.782500", "163952.242500", "163952.702500", "163953.162500", "163953.622500", "163954.082500", "163954.542500", "163955.002500", "163955.462500", "163955.922500", "163956.382500", "163956.842500", "163957.302500", "163957.762500", "163958.222500", "163958.682500", "163959.142500", "163959.602500", "164000.062500", "164000.522500", "164000.982500", "164001.442500", "164001.902500", "164002.362500", "164002.822500", "164003.282500", "164003.742500", "164004.202500", "164004.662500", "164005.122500", "164005.582500", "164006.042500", "164006.502500", "164006.962500", "164007.422500", "164007.882500", "164008.342500", "164008.802500", "164009.262500", "164009.722500", "164010.182500", "164010.642500", "164011.102500", "164011.562500", "164012.022500", "164012.482500", "164012.942500", "164013.402500", "164013.862500", "164014.322500", "164014.782500", "164015.242500", "164015.702500", "164016.162500", "164016.622500", "164017.082500", "164017.542500", "164018.002500", "164018.462500", "164018.922500", "164019.382500", "164019.842500", "164020.302500", "164020.762500", "164021.222500", "164021.682500", "164022.142500", "164022.602500", "164023.062500", "164023.522500", "164023.982500", "164024.442500", "164024.902500", "164025.362500", "164025.822500", "164026.282500", "164026.742500", "164027.202500", "164027.662500", "164028.122500", "164028.582500", "164029.042500", "164029.502500", "164029.962500", "164030.422500", "164030.882500", "164031.342500", "164031.802500", "164032.262500", "164032.722500", "164033.182500", "164033.642500", "164034.102500", "164034.562500", "164035.022500", "164035.482500", "164035.942500", "164036.402500", "164036.862500", "164037.322500", "164037.782500", "164038.242500", "164038.702500", "164039.162500", "164039.622500", "164040.082500", "164040.542500", "164041.002500", "164041.462500", "164041.922500", "164042.382500", "164042.842500", "164043.302500", "164043.762500", "164044.222500", "164044.682500", "164045.142500", "164045.602500", "164046.062500", "164046.522500", "164046.982500", "164047.442500", "164047.902500", "164048.362500", "164048.822500", "164049.282500", "164049.742500", "164050.202500", "164050.662500", "164051.122500", "164051.582500", "164052.042500", "164052.502500", "164052.962500", "164053.422500", "164053.882500", "164054.342500", "164054.802500", "164055.262500", "164055.722500", "164056.182500", "164056.642500", "164057.102500", "164057.562500", "164058.022500", "164058.482500", "164058.942500", "164059.402500", "164059.862500", "164100.322500", "164100.782500", "164101.242500", "164101.702500"],
