{
  "AcquisitionMatrixPE": 82,
  "AcquisitionNumber": 1,
  "AcquisitionTime": "16:25:44.110000",
  "BandwidthPerPixelPhaseEncode": 24.888,
  "BaseResolution": 82,
  "BodyPartExamined": "BRAIN",
  "ConsistencyInfo": "N4_VE11C_LATEST_20160120",
  "ConversionSoftware": "dcm2niix",
  "ConversionSoftwareVersion": "v1.0.20201102",
  "DerivedVendorReportedEchoSpacing": 0.00049,
  "DeviceSerialNumber": "66112",
  "DwellTime": 2e-06,
  "EchoTime": 0.0272,
  "EchoTrainLength": 82,
  "EffectiveEchoSpacing": 0.00049,
  "FlipAngle": 44,
  "ImageComments": "Unaliased MB8/PE3",
  "ImageOrientationPatientDICOM": [0.998158, -0.0596116, 0.0112817, 0.0600009, 0.997472, -0.0380675],
  "ImageType": [
    "ORIGINAL",
    "PRIMARY",
    "M",
    "MB",
    "ND",
    "NORM",
    "MOSAIC"
],
  "ImagingFrequency": 123.252,
  "InPlanePhaseEncodingDirectionDICOM": "COL",
  "InstitutionAddress": "Maynard 3,Hanover,NH,US,03755",
  "InstitutionName": "Dartmouth College - PBS",
  "InstitutionalDepartmentName": "Department",
  "MRAcquisitionType": "2D",
  "MagneticFieldStrength": 3,
  "Manufacturer": "Siemens",
  "ManufacturersModelName": "Prisma",
  "Modality": "MR",
  "MultibandAccelerationFactor": 8,
  "PartialFourier": 1,
  "PatientPosition": "HFS",
  "PercentPhaseFOV": 100,
  "PercentSampling": 100,
  "PhaseEncodingDirection": "j-",
  "PhaseEncodingSteps": 82,
  "PhaseResolution": 1,
  "PixelBandwidth": 3050,
  "ProcedureStepDescription": "Wager_Wager^1076_spacetop",
  "ProtocolName": "func_run-03_task-social_acq-ap-mb8",
  "PulseSequenceDetails": "%CustomerSeq%\\cmrr_mbep2d_bold",
  "ReceiveCoilActiveElements": "HEA;HEP",
  "ReceiveCoilName": "Head_32",
  "ReconMatrixPE": 82,
  "RepetitionTime": 0.46,
  "SAR": 0.0767966,
  "ScanOptions": "FS",
  "ScanningSequence": "EP",
  "SequenceName": "epfid2d1_82",
  "SequenceVariant": "SK\\SS",
  "SeriesDescription": "func_run-03_task-social_acq-ap-mb8",
  "SeriesNumber": 12,
  "ShimSetting": [4142, -7772, -7263, 629, 1, -300, 87, 86],
  "SliceThickness": 2.7,
  "SliceTiming": [0, 0.2525, 0.065, 0.315, 0.1275, 0.3775, 0.19, 0, 0.2525, 0.065, 0.315, 0.1275, 0.3775, 0.19, 0, 0.2525, 0.065, 0.315, 0.1275, 0.3775, 0.19, 0, 0.2525, 0.065, 0.315, 0.1275, 0.3775, 0.19, 0, 0.2525, 0.065, 0.315, 0.1275, 0.3775, 0.19, 0, 0.2525, 0.065, 0.315, 0.1275, 0.3775, 0.19, 0, 0.2525, 0.065, 0.315, 0.1275, 0.3775, 0.19, 0, 0.2525, 0.065, 0.315, 0.1275, 0.3775, 0.19],
  "SoftwareVersions": "syngo MR E11",
  "SpacingBetweenSlices": 2.7,
  "StationName": "AWP66112",
  "TaskName": "social",
  "TotalReadoutTime": 0.03969,
  "TxRefAmp": 232.666,
  "WipMemBlock": "2581644c-0a6b-466b-b40e-b0d362bdb1f4||Sequence: R016 ve11c/master r/e634e98; Dec 19 2017 11:00:25 by eja",
  "dcmmeta_affine": [
    [-2.6779847145080566, 0.16097794473171234, 0.024256691336631775, 107.85304260253906],
    [0.15993346273899078, 2.67614483833313, -0.10442066937685013, -98.74768829345703],
    [0.030268091708421707, 0.1021324023604393, 2.697870969772339, -78.91615295410156],
    [0.0, 0.0, 0.0, 1.0]
],
  "dcmmeta_reorient_transform": [
    [0.0, -1.0, 0.0, 81.0],
    [1.0, 0.0, 0.0, 0.0],
    [0.0, 0.0, 1.0, 0.0],
    [0.0, 0.0, 0.0, 1.0]
],
  "dcmmeta_shape": [82, 82, 56, 872],
  "dcmmeta_slice_dim": 2,
  "dcmmeta_version": 0.6,
  "global": {
    "const": {
      "AccessionNumber": "A003637",
      "AcquisitionMatrix": [82, 0, 0, 82],
      "AngioFlag": "N",
      "BitsAllocated": 16,
      "BitsStored": 16,
      "BodyPartExamined": "BRAIN",
      "Columns": 656,
      "EchoNumbers": 1,
      "EchoTime": 27.2,
      "EchoTrainLength": 82,
      "FlipAngle": 44.0,
      "HighBit": 15,
      "ImageOrientationPatient": [0.99815789530233, -0.0596115619848, 0.01128174292201, 0.06000087094052, 0.99747218431726, -0.0380675320941],
      "ImagePositionPatient": [-935.67452847932, -840.17274643429, -50.018371604783],
      "ImageType": [
        "ORIGINAL",
        "PRIMARY",
        "M",
        "MB",
        "ND",
        "NORM",
        "MOSAIC"
],
      "ImagedNucleus": "1H",
      "ImagingFrequency": 123.252169,
      "InPlanePhaseEncodingDirection": "COL",
      "MRAcquisitionType": "2D",
      "MagneticFieldStrength": 3.0,
      "Manufacturer": "SIEMENS",
      "ManufacturerModelName": "Prisma",
      "Modality": "MR",
      "NumberOfAverages": 1.0,
      "NumberOfPhaseEncodingSteps": 82,
      "PercentPhaseFieldOfView": 100.0,
      "PercentSampling": 100.0,
      "PerformedProcedureStepStartTime": "145943.218000",
      "PhotometricInterpretation": "MONOCHROME2",
      "PixelBandwidth": 3050.0,
      "PixelRepresentation": 0,
      "PixelSpacing": [2.6829268932343, 2.6829268932343],
      "ProtocolName": "func_run-03_task-social_acq-ap-mb8",
      "RepetitionTime": 460.0,
      "Rows": 656,
      "SAR": 0.07679661944835,
      "SamplesPerPixel": 1,
      "ScanOptions": "FS",
      "ScanningSequence": "EP",
      "SequenceName": "epfid2d1_82",
      "SequenceVariant": [
        "SK",
        "SS"
],
      "SeriesDescription": "func_run-03_task-social_acq-ap-mb8",
      "SeriesNumber": 12,
      "SeriesTime": "162553.813000",
      "SliceLocation": -74.06598037247,
      "SliceThickness": 2.7000000476837,
      "SmallestImagePixelValue": 0,
      "SoftwareVersions": "syngo MR E11",
      "SpacingBetweenSlices": 2.6999999818008,
      "SpecificCharacterSet": "ISO_IR 100",
      "StudyID": "1",
      "StudyTime": "145943.110000",
      "TransmitCoilName": "Body",
      "VariableFlipAngleFlag": "N",
      "WindowCenterWidthExplanation": "Algo1",
      "dBdt": 0.0},
    "slices": {}
  },
  "time": {
    "samples": {
      "AcquisitionNumber": [1, 2, 3, 4, 5, 6, 7, 8, 9, 10, 11, 12, 13, 14, 15, 16, 17, 18, 19, 20, 21, 22, 23, 24, 25, 26, 27, 28, 29, 30, 31, 32, 33, 34, 35, 36, 37, 38, 39, 40, 41, 42, 43, 44, 45, 46, 47, 48, 49, 50, 51, 52, 53, 54, 55, 56, 57, 58, 59, 60, 61, 62, 63, 64, 65, 66, 67, 68, 69, 70, 71, 72, 73, 74, 75, 76, 77, 78, 79, 80, 81, 82, 83, 84, 85, 86, 87, 88, 89, 90, 91, 92, 93, 94, 95, 96, 97, 98, 99, 100, 101, 102, 103, 104, 105, 106, 107, 108, 109, 110, 111, 112, 113, 114, 115, 116, 117, 118, 119, 120, 121, 122, 123, 124, 125, 126, 127, 128, 129, 130, 131, 132, 133, 134, 135, 136, 137, 138, 139, 140, 141, 142, 143, 144, 145, 146, 147, 148, 149, 150, 151, 152, 153, 154, 155, 156, 157, 158, 159, 160, 161, 162, 163, 164, 165, 166, 167, 168, 169, 170, 171, 172, 173, 174, 175, 176, 177, 178, 179, 180, 181, 182, 183, 184, 185, 186, 187, 188, 189, 190, 191, 192, 193, 194, 195, 196, 197, 198, 199, 200, 201, 202, 203, 204, 205, 206, 207, 208, 209, 210, 211, 212, 213, 214, 215, 216, 217, 218, 219, 220, 221, 222, 223, 224, 225, 226, 227, 228, 229, 230, 231, 232, 233, 234, 235, 236, 237, 238, 239, 240, 241, 242, 243, 244, 245, 246, 247, 248, 249, 250, 251, 252, 253, 254, 255, 256, 257, 258, 259, 260, 261, 262, 263, 264, 265, 266, 267, 268, 269, 270, 271, 272, 273, 274, 275, 276, 277, 278, 279, 280, 281, 282, 283, 284, 285, 286, 287, 288, 289, 290, 291, 292, 293, 294, 295, 296, 297, 298, 299, 300, 301, 302, 303, 304, 305, 306, 307, 308, 309, 310, 311, 312, 313, 314, 315, 316, 317, 318, 319, 320, 321, 322, 323, 324, 325, 326, 327, 328, 329, 330, 331, 332, 333, 334, 335, 336, 337, 338, 339, 340, 341, 342, 343, 344, 345, 346, 347, 348, 349, 350, 351, 352, 353, 354, 355, 356, 357, 358, 359, 360, 361, 362, 363, 364, 365, 366, 367, 368, 369, 370, 371, 372, 373, 374, 375, 376, 377, 378, 379, 380, 381, 382, 383, 384, 385, 386, 387, 388, 389, 390, 391, 392, 393, 394, 395, 396, 397, 398, 399, 400, 401, 402, 403, 404, 405, 406, 407, 408, 409, 410, 411, 412, 413, 414, 415, 416, 417, 418, 419, 420, 421, 422, 423, 424, 425, 426, 427, 428, 429, 430, 431, 432, 433, 434, 435, 436, 437, 438, 439, 440, 441, 442, 443, 444, 445, 446, 447, 448, 449, 450, 451, 452, 453, 454, 455, 456, 457, 458, 459, 460, 461, 462, 463, 464, 465, 466, 467, 468, 469, 470, 471, 472, 473, 474, 475, 476, 477, 478, 479, 480, 481, 482, 483, 484, 485, 486, 487, 488, 489, 490, 491, 492, 493, 494, 495, 496, 497, 498, 499, 500, 501, 502, 503, 504, 505, 506, 507, 508, 509, 510, 511, 512, 513, 514, 515, 516, 517, 518, 519, 520, 521, 522, 523, 524, 525, 526, 527, 528, 529, 530, 531, 532, 533, 534, 535, 536, 537, 538, 539, 540, 541, 542, 543, 544, 545, 546, 547, 548, 549, 550, 551, 552, 553, 554, 555, 556, 557, 558, 559, 560, 561, 562, 563, 564, 565, 566, 567, 568, 569, 570, 571, 572, 573, 574, 575, 576, 577, 578, 579, 580, 581, 582, 583, 584, 585, 586, 587, 588, 589, 590, 591, 592, 593, 594, 595, 596, 597, 598, 599, 600, 601, 602, 603, 604, 605, 606, 607, 608, 609, 610, 611, 612, 613, 614, 615, 616, 617, 618, 619, 620, 621, 622, 623, 624, 625, 626, 627, 628, 629, 630, 631, 632, 633, 634, 635, 636, 637, 638, 639, 640, 641, 642, 643, 644, 645, 646, 647, 648, 649, 650, 651, 652, 653, 654, 655, 656, 657, 658, 659, 660, 661, 662, 663, 664, 665, 666, 667, 668, 669, 670, 671, 672, 673, 674, 675, 676, 677, 678, 679, 680, 681, 682, 683, 684, 685, 686, 687, 688, 689, 690, 691, 692, 693, 694, 695, 696, 697, 698, 699, 700, 701, 702, 703, 704, 705, 706, 707, 708, 709, 710, 711, 712, 713, 714, 715, 716, 717, 718, 719, 720, 721, 722, 723, 724, 725, 726, 727, 728, 729, 730, 731, 732, 733, 734, 735, 736, 737, 738, 739, 740, 741, 742, 743, 744, 745, 746, 747, 748, 749, 750, 751, 752, 753, 754, 755, 756, 757, 758, 759, 760, 761, 762, 763, 764, 765, 766, 767, 768, 769, 770, 771, 772, 773, 774, 775, 776, 777, 778, 779, 780, 781, 782, 783, 784, 785, 786, 787, 788, 789, 790, 791, 792, 793, 794, 795, 796, 797, 798, 799, 800, 801, 802, 803, 804, 805, 806, 807, 808, 809, 810, 811, 812, 813, 814, 815, 816, 817, 818, 819, 820, 821, 822, 823, 824, 825, 826, 827, 828, 829, 830, 831, 832, 833, 834, 835, 836, 837, 838, 839, 840, 841, 842, 843, 844, 845, 846, 847, 848, 849, 850, 851, 852, 853, 854, 855, 856, 857, 858, 859, 860, 861, 862, 863, 864, 865, 866, 867, 868, 869, 870, 871, 872],
      "AcquisitionTime": ["162544.110000", "162544.570000", "162545.030000", "162545.490000", "162545.950000", "162546.410000", "162546.870000", "162547.330000", "162547.790000", "162548.250000", "162548.710000", "162549.170000", "162549.630000", "162550.090000", "162550.550000", "162551.010000", "162551.470000", "162551.930000", "162552.390000", "162552.850000", "162553.310000", "162553.770000", "162554.230000", "162554.690000", "162555.150000", "162555.610000", "162556.070000", "162556.530000", "162556.990000", "162557.450000", "162557.910000", "162558.370000", "162558.830000", "162559.290000", "162559.750000", "162600.210000", "162600.670000", "162601.130000", "162601.590000", "162602.050000", "162602.510000", "162602.970000", "162603.430000", "162603.890000", "162604.350000", "162604.810000", "162605.270000", "162605.730000", "162606.190000", "162606.650000", "162607.110000", "162607.570000", "162608.030000", "162608.490000", "162608.950000", "162609.410000", "162609.870000", "162610.330000", "162610.790000", "162611.250000", "162611.710000", "162612.170000", "162612.630000", "162613.090000", "162613.550000", "162614.010000", "162614.470000", "162614.930000", "162615.390000", "162615.850000", "162616.310000", "162616.770000", "162617.230000", "162617.690000", "162618.150000", "162618.610000", "162619.070000", "162619.530000", "162619.990000", "162620.450000", "162620.910000", "162621.370000", "162621.830000", "162622.290000", "162622.750000", "162623.210000", "162623.670000", "162624.130000", "162624.590000", "162625.050000", "162625.510000", "162625.970000", "162626.430000", "162626.890000", "162627.350000", "162627.810000", "162628.270000", "162628.730000", "162629.190000", "162629.650000", "162630.110000", "162630.570000", "162631.030000", "162631.490000", "162631.950000", "162632.410000", "162632.870000", "162633.330000", "162633.790000", "162634.250000", "162634.710000", "162635.170000", "162635.630000", "162636.090000", "162636.550000", "162637.010000", "162637.470000", "162637.930000", "162638.390000", "162638.850000", "162639.310000", "162639.770000", "162640.230000", "162640.690000", "162641.150000", "162641.610000", "162642.070000", "162642.530000", "162642.990000", "162643.450000", "162643.910000", "162644.370000", "162644.830000", "162645.290000", "162645.750000", "162646.210000", "162646.670000", "162647.130000", "162647.590000", "162648.050000", "162648.510000", "162648.970000", "162649.430000", "162649.890000", "162650.350000", "162650.810000", "162651.270000", "162651.730000", "162652.190000", "162652.650000", "162653.110000", "162653.570000", "162654.030000", "162654.490000", "162654.950000", "162655.410000", "162655.870000", "162656.330000", "162656.790000", "162657.250000", "162657.710000", "162658.170000", "162658.630000", "162659.090000", "162659.550000", "162700.010000", "162700.470000", "162700.930000", "162701.390000", "162701.850000", "162702.310000", "162702.770000", "162703.230000", "162703.690000", "162704.150000", "162704.610000", "162705.070000", "162705.530000", "162705.990000", "162706.450000", "162706.910000", "162707.370000", "162707.830000", "162708.290000", "162708.750000", "162709.210000", "162709.670000", "162710.130000", "162710.590000", "162711.050000", "162711.510000", "162711.970000", "162712.430000", "162712.890000", "162713.350000", "162713.810000", "162714.270000", "162714.730000", "162715.190000", "162715.650000", "162716.110000", "162716.570000", "162717.030000", "162717.490000", "162717.950000", "162718.410000", "162718.870000", "162719.330000", "162719.790000", "162720.250000", "162720.710000", "162721.170000", "162721.630000", "162722.090000", "162722.550000", "162723.010000", "162723.470000", "162723.930000", "162724.390000", "162724.850000", "162725.310000", "162725.770000", "162726.230000", "162726.690000", "162727.150000", "162727.610000", "162728.070000", "162728.530000", "162728.990000", "162729.450000", "162729.910000", "162730.370000", "162730.830000", "162731.290000", "162731.750000", "162732.210000", "162732.670000", "162733.130000", "162733.590000", "162734.050000", "162734.510000", "162734.970000", "162735.430000", "162735.890000", "162736.350000", "162736.810000", "162737.270000", "162737.730000", "162738.190000", "162738.650000", "162739.110000", "162739.570000", "162740.030000", "162740.490000", "162740.950000", "162741.410000", "162741.870000", "162742.330000", "162742.790000", "162743.250000", "162743.710000", "162744.170000", "162744.630000", "162745.090000", "162745.550000", "162746.010000", "162746.470000", "162746.930000", "162747.390000", "162747.850000", "162748.310000", "162748.770000", "162749.230000", "162749.690000", "162750.150000", "162750.610000", "162751.070000", "162751.530000", "162751.990000", "162752.450000", "162752.910000", "162753.370000", "162753.830000", "162754.290000", "162754.750000", "162755.210000", "162755.670000", "162756.130000", "162756.590000", "162757.050000", "162757.510000", "162757.970000", "162758.430000", "162758.890000", "162759.350000", "162759.810000", "162800.270000", "162800.730000", "162801.190000", "162801.650000", "162802.110000", "162802.570000", "162803.030000", "162803.490000", "162803.950000", "162804.410000", "162804.870000", "162805.330000", "162805.790000", "162806.250000", "162806.710000", "162807.170000", "162807.630000", "162808.090000", "162808.550000", "162809.010000", "162809.470000", "162809.930000", "162810.390000", "162810.850000", "162811.310000", "162811.770000", "162812.230000", "162812.690000", "162813.150000", "162813.610000", "162814.070000", "162814.530000", "162814.990000", "162815.450000", "162815.910000", "162816.370000", "162816.830000", "162817.290000", "162817.750000", "162818.210000", "162818.670000", "162819.130000", "162819.590000", "162820.050000", "162820.510000", "162820.970000", "162821.430000", "162821.890000", "162822.350000", "162822.810000", "162823.270000", "162823.730000", "162824.190000", "162824.650000", "162825.110000", "162825.570000", "162826.030000", "162826.490000", "162826.950000", "162827.410000", "162827.870000", "162828.330000", "162828.790000", "162829.250000", "162829.710000", "162830.170000", "162830.630000", "162831.090000", "162831.550000", "162832.010000", "162832.470000", "162832.930000", "162833.390000", "162833.850000", "162834.310000", "162834.770000", "162835.230000", "162835.690000", "162836.150000", "162836.610000", "162837.070000", "162837.530000", "162837.990000", "162838.450000", "162838.910000", "162839.370000", "162839.830000", "162840.290000", "162840.750000", "162841.210000", "162841.670000", "162842.130000", "162842.590000", "162843.050000", "162843.510000", "162843.970000", "162844.430000", "162844.890000", "162845.350000", "162845.810000", "162846.270000", "162846.730000", "162847.190000", "162847.650000", "162848.110000", "162848.570000", "162849.030000", "162849.490000", "162849.950000", "162850.410000", "162850.870000", "162851.330000", "162851.790000", "162852.250000", "162852.710000", "162853.170000", "162853.630000", "162854.090000", "162854.550000", "162855.010000", "162855.470000", "162855.930000", "162856.390000", "162856.850000", "162857.310000", "162857.770000", "162858.230000", "162858.690000", "162859.150000", "162859.610000", "162900.070000", "162900.530000", "162900.990000", "162901.450000", "162901.910000", "162902.370000", "162902.830000", "162903.290000", "162903.750000", "162904.210000", "162904.670000", "162905.130000", "162905.590000", "162906.050000", "162906.510000", "162906.970000", "162907.430000", "162907.890000", "162908.350000", "162908.810000", "162909.270000", "162909.730000", "162910.190000", "162910.650000", "162911.110000", "162911.570000", "162912.030000", "162912.490000", "162912.950000", "162913.410000", "162913.870000", "162914.330000", "162914.790000", "162915.250000", "162915.710000", "162916.170000", "162916.630000", "162917.090000", "162917.550000", "162918.010000", "162918.470000", "162918.930000", "162919.390000", "162919.850000", "162920.310000", "162920.770000", "162921.230000", "162921.690000", "162922.150000", "162922.610000", "162923.070000", "162923.530000", "162923.990000", "162924.450000", "162924.910000", "162925.370000", "162925.830000", "162926.290000", "162926.750000", "162927.210000", "162927.670000", "162928.130000", "162928.590000", "162929.050000", "162929.510000", "162929.970000", "162930.430000", "162930.890000", "162931.350000", "162931.810000", "162932.270000", "162932.730000", "162933.190000", "162933.650000", "162934.110000", "162934.570000", "162935.030000", "162935.490000", "162935.950000", "162936.410000", "162936.870000", "162937.330000", "162937.790000", "162938.250000", "162938.710000", "162939.170000", "162939.630000", "162940.090000", "162940.550000", "162941.010000", "162941.470000", "162941.930000", "162942.390000", "162942.850000", "162943.310000", "162943.770000", "162944.230000", "162944.690000", "162945.150000", "162945.610000", "162946.070000", "162946.530000", "162946.990000", "162947.450000", "162947.910000", "162948.370000", "162948.830000", "162949.290000", "162949.750000", "162950.210000", "162950.670000", "162951.130000", "162951.590000", "162952.050000", "162952.510000", "162952.970000", "162953.430000", "162953.890000", "162954.350000", "162954.810000", "162955.270000", "162955.730000", "162956.190000", "162956.650000", "162957.110000", "162957.570000", "162958.030000", "162958.490000", "162958.950000", "162959.410000", "162959.870000", "163000.330000", "163000.790000", "163001.250000", "163001.710000", "163002.170000", "163002.630000", "163003.090000", "163003.550000", "163004.010000", "163004.470000", "163004.930000", "163005.390000", "163005.850000", "163006.310000", "163006.770000", "163007.230000", "163007.690000", "163008.150000", "163008.610000", "163009.070000", "163009.530000", "163009.990000", "163010.450000", "163010.910000", "163011.370000", "163011.830000", "163012.290000", "163012.750000", "163013.210000", "163013.670000", "163014.130000", "163014.590000", "163015.050000", "163015.510000", "163015.970000", "163016.430000", "163016.890000", "163017.350000", "163017.810000", "163018.270000", "163018.730000", "163019.190000", "163019.650000", "163020.110000", "163020.570000", "163021.030000", "163021.490000", "163021.950000", "163022.410000", "163022.870000", "163023.330000", "163023.790000", "163024.250000", "163024.710000", "163025.170000", "163025.630000", "163026.090000", "163026.550000", "163027.010000", "163027.470000", "163027.930000", "163028.390000", "163028.850000", "163029.310000", "163029.770000", "163030.230000", "163030.690000", "163031.150000", "163031.610000", "163032.070000", "163032.530000", "163032.990000", "163033.450000", "163033.910000", "163034.370000", "163034.830000", "163035.290000", "163035.750000", "163036.210000", "163036.670000", "163037.130000", "163037.590000", "163038.050000", "163038.510000", "163038.970000", "163039.430000", "163039.890000", "163040.350000", "163040.810000", "163041.270000", "163041.730000", "163042.190000", "163042.650000", "163043.110000", "163043.570000", "163044.030000", "163044.490000", "163044.950000", "163045.410000", "163045.870000", "163046.330000", "163046.790000", "163047.250000", "163047.710000", "163048.170000", "163048.630000", "163049.090000", "163049.550000", "163050.010000", "163050.470000", "163050.930000", "163051.390000", "163051.850000", "163052.310000", "163052.770000", "163053.230000", "163053.690000", "163054.150000", "163054.610000", "163055.070000", "163055.530000", "163055.990000", "163056.450000", "163056.910000", "163057.370000", "163057.830000", "163058.290000", "163058.750000", "163059.210000", "163059.670000", "163100.130000", "163100.590000", "163101.050000", "163101.510000", "163101.970000", "163102.430000", "163102.890000", "163103.350000", "163103.810000", "163104.270000", "163104.730000", "163105.190000", "163105.650000", "163106.110000", "163106.570000", "163107.030000", "163107.490000", "163107.950000", "163108.410000", "163108.870000", "163109.330000", "163109.790000", "163110.250000", "163110.710000", "163111.170000", "163111.630000", "163112.090000", "163112.550000", "163113.010000", "163113.470000", "163113.930000", "163114.390000", "163114.850000", "163115.310000", "163115.770000", "163116.230000", "163116.690000", "163117.150000", "163117.610000", "163118.070000", "163118.530000", "163118.990000", "163119.450000", "163119.910000", "163120.370000", "163120.830000", "163121.290000", "163121.750000", "163122.210000", "163122.670000", "163123.130000", "163123.590000", "163124.050000", "163124.510000", "163124.970000", "163125.430000", "163125.890000", "163126.350000", "163126.810000", "163127.270000", "163127.730000", "163128.190000", "163128.650000", "163129.110000", "163129.570000", "163130.030000", "163130.490000", "163130.950000", "163131.410000", "163131.870000", "163132.330000", "163132.790000", "163133.250000", "163133.710000", "163134.170000", "163134.630000", "163135.090000", "163135.550000", "163136.010000", "163136.470000", "163136.930000", "163137.390000", "163137.850000", "163138.310000", "163138.770000", "163139.230000", "163139.690000", "163140.150000", "163140.610000", "163141.070000", "163141.530000", "163141.990000", "163142.450000", "163142.910000", "163143.370000", "163143.830000", "163144.290000", "163144.750000", "163145.210000", "163145.670000", "163146.130000", "163146.590000", "163147.050000", "163147.510000", "163147.970000", "163148.430000", "163148.890000", "163149.350000", "163149.810000", "163150.270000", "163150.730000", "163151.190000", "163151.650000", "163152.110000", "163152.570000", "163153.030000", "163153.490000", "163153.950000", "163154.410000", "163154.870000", "163155.330000", "163155.790000", "163156.250000", "163156.710000", "163157.170000", "163157.630000", "163158.090000", "163158.550000", "163159.010000", "163159.470000", "163159.930000", "163200.390000", "163200.850000", "163201.310000", "163201.770000", "163202.230000", "163202.690000", "163203.150000", "163203.610000", "163204.070000", "163204.530000", "163204.990000", "163205.450000", "163205.910000", "163206.370000", "163206.830000", "163207.290000", "163207.750000", "163208.210000", "163208.670000", "163209.130000", "163209.590000", "163210.050000", "163210.510000", "163210.970000", "163211.430000", "163211.890000", "163212.350000", "163212.810000", "163213.270000", "163213.730000", "163214.190000", "163214.650000", "163215.110000", "163215.570000", "163216.030000", "163216.490000", "163216.950000", "163217.410000", "163217.870000", "163218.330000", "163218.790000", "163219.250000", "163219.710000", "163220.170000", "163220.630000", "163221.090000", "163221.550000", "163222.010000", "163222.470000", "163222.930000", "163223.390000", "163223.850000", "163224.310000", "163224.770000"],
