{
  "AcquisitionMatrixPE": 82,
  "AcquisitionNumber": 1,
  "AcquisitionTime": "16:15:56.030000",
  "BandwidthPerPixelPhaseEncode": 24.888,
  "BaseResolution": 82,
  "BodyPartExamined": "BRAIN",
  "ConsistencyInfo": "N4_VE11C_LATEST_20160120",
  "ConversionSoftware": "dcm2niix",
  "ConversionSoftwareVersion": "v1.0.20201102",
  "DerivedVendorReportedEchoSpacing": 0.00049,
  "DeviceSerialNumber": "66112",
  "DwellTime": 2e-06,
  "EchoTime": 0.0272,
  "EchoTrainLength": 82,
  "EffectiveEchoSpacing": 0.00049,
  "FlipAngle": 44,
  "ImageComments": "Unaliased MB8/PE3",
  "ImageOrientationPatientDICOM": [0.998158, -0.0596116, 0.0112817, 0.0600009, 0.997472, -0.0380675],
  "ImageType": [
    "ORIGINAL",
    "PRIMARY",
    "M",
    "MB",
    "ND",
    "NORM",
    "MOSAIC"
],
  "ImagingFrequency": 123.252,
  "InPlanePhaseEncodingDirectionDICOM": "COL",
  "InstitutionAddress": "Maynard 3,Hanover,NH,US,03755",
  "InstitutionName": "Dartmouth College - PBS",
  "InstitutionalDepartmentName": "Department",
  "MRAcquisitionType": "2D",
  "MagneticFieldStrength": 3,
  "Manufacturer": "Siemens",
  "ManufacturersModelName": "Prisma",
  "Modality": "MR",
  "MultibandAccelerationFactor": 8,
  "PartialFourier": 1,
  "PatientPosition": "HFS",
  "PercentPhaseFOV": 100,
  "PercentSampling": 100,
  "PhaseEncodingDirection": "j-",
  "PhaseEncodingSteps": 82,
  "PhaseResolution": 1,
  "PixelBandwidth": 3050,
  "ProcedureStepDescription": "Wager_Wager^1076_spacetop",
  "ProtocolName": "func_run-02_task-social_acq-ap-mb8",
  "PulseSequenceDetails": "%CustomerSeq%\\cmrr_mbep2d_bold",
  "ReceiveCoilActiveElements": "HEA;HEP",
  "ReceiveCoilName": "Head_32",
  "ReconMatrixPE": 82,
  "RepetitionTime": 0.46,
  "SAR": 0.0767966,
  "ScanOptions": "FS",
  "ScanningSequence": "EP",
  "SequenceName": "epfid2d1_82",
  "SequenceVariant": "SK\\SS",
  "SeriesDescription": "func_run-02_task-social_acq-ap-mb8",
  "SeriesNumber": 10,
  "ShimSetting": [4142, -7772, -7263, 629, 1, -300, 87, 86],
  "SliceThickness": 2.7,
  "SliceTiming": [0, 0.2525, 0.065, 0.315, 0.1275, 0.3775, 0.19, 0, 0.2525, 0.065, 0.315, 0.1275, 0.3775, 0.19, 0, 0.2525, 0.065, 0.315, 0.1275, 0.3775, 0.19, 0, 0.2525, 0.065, 0.315, 0.1275, 0.3775, 0.19, 0, 0.2525, 0.065, 0.315, 0.1275, 0.3775, 0.19, 0, 0.2525, 0.065, 0.315, 0.1275, 0.3775, 0.19, 0, 0.2525, 0.065, 0.315, 0.1275, 0.3775, 0.19, 0, 0.2525, 0.065, 0.315, 0.1275, 0.3775, 0.19],
  "SoftwareVersions": "syngo MR E11",
  "SpacingBetweenSlices": 2.7,
  "StationName": "AWP66112",
  "TaskName": "social",
  "TotalReadoutTime": 0.03969,
  "TxRefAmp": 232.666,
  "WipMemBlock": "8675e922-1d1e-432b-95c2-2d6289eab15d||Sequence: R016 ve11c/master r/e634e98; Dec 19 2017 11:00:25 by eja",
  "dcmmeta_affine": [
    [-2.6779847145080566, 0.16097794473171234, 0.024256691336631775, 107.85304260253906],
    [0.15993346273899078, 2.67614483833313, -0.10442066937685013, -98.74768829345703],
    [0.030268091708421707, 0.1021324023604393, 2.697870969772339, -78.91615295410156],
    [0.0, 0.0, 0.0, 1.0]
],
  "dcmmeta_reorient_transform": [
    [0.0, -1.0, 0.0, 81.0],
    [1.0, 0.0, 0.0, 0.0],
    [0.0, 0.0, 1.0, 0.0],
    [0.0, 0.0, 0.0, 1.0]
],
  "dcmmeta_shape": [82, 82, 56, 872],
  "dcmmeta_slice_dim": 2,
  "dcmmeta_version": 0.6,
  "global": {
    "const": {
      "AccessionNumber": "A003637",
      "AcquisitionMatrix": [82, 0, 0, 82],
      "AngioFlag": "N",
      "BitsAllocated": 16,
      "BitsStored": 16,
      "BodyPartExamined": "BRAIN",
      "Columns": 656,
      "EchoNumbers": 1,
      "EchoTime": 27.2,
      "EchoTrainLength": 82,
      "FlipAngle": 44.0,
      "HighBit": 15,
      "ImageOrientationPatient": [0.99815789530233, -0.0596115619848, 0.01128174292201, 0.06000087094052, 0.99747218431726, -0.0380675320941],
      "ImagePositionPatient": [-935.67452847932, -840.17274643429, -50.018371604783],
      "ImageType": [
        "ORIGINAL",
        "PRIMARY",
        "M",
        "MB",
        "ND",
        "NORM",
        "MOSAIC"
],
      "ImagedNucleus": "1H",
      "ImagingFrequency": 123.252163,
      "InPlanePhaseEncodingDirection": "COL",
      "MRAcquisitionType": "2D",
      "MagneticFieldStrength": 3.0,
      "Manufacturer": "SIEMENS",
      "ManufacturerModelName": "Prisma",
      "Modality": "MR",
      "NumberOfAverages": 1.0,
      "NumberOfPhaseEncodingSteps": 82,
      "PercentPhaseFieldOfView": 100.0,
      "PercentSampling": 100.0,
      "PerformedProcedureStepStartTime": "145943.218000",
      "PhotometricInterpretation": "MONOCHROME2",
      "PixelBandwidth": 3050.0,
      "PixelRepresentation": 0,
      "PixelSpacing": [2.6829268932343, 2.6829268932343],
      "ProtocolName": "func_run-02_task-social_acq-ap-mb8",
      "RepetitionTime": 460.0,
      "Rows": 656,
      "SAR": 0.07679661944835,
      "SamplesPerPixel": 1,
      "ScanOptions": "FS",
      "ScanningSequence": "EP",
      "SequenceName": "epfid2d1_82",
      "SequenceVariant": [
        "SK",
        "SS"
],
      "SeriesDescription": "func_run-02_task-social_acq-ap-mb8",
      "SeriesNumber": 10,
      "SeriesTime": "161613.738000",
      "SliceLocation": -74.06598037247,
      "SliceThickness": 2.7000000476837,
      "SmallestImagePixelValue": 0,
      "SoftwareVersions": "syngo MR E11",
      "SpacingBetweenSlices": 2.6999999818008,
      "SpecificCharacterSet": "ISO_IR 100",
      "StudyID": "1",
      "StudyTime": "145943.110000",
      "TransmitCoilName": "Body",
      "VariableFlipAngleFlag": "N",
      "WindowCenterWidthExplanation": "Algo1",
      "dBdt": 0.0},
    "slices": {}
  },
  "time": {
    "samples": {
      "AcquisitionNumber": [1, 2, 3, 4, 5, 6, 7, 8, 9, 10, 11, 12, 13, 14, 15, 16, 17, 18, 19, 20, 21, 22, 23, 24, 25, 26, 27, 28, 29, 30, 31, 32, 33, 34, 35, 36, 37, 38, 39, 40, 41, 42, 43, 44, 45, 46, 47, 48, 49, 50, 51, 52, 53, 54, 55, 56, 57, 58, 59, 60, 61, 62, 63, 64, 65, 66, 67, 68, 69, 70, 71, 72, 73, 74, 75, 76, 77, 78, 79, 80, 81, 82, 83, 84, 85, 86, 87, 88, 89, 90, 91, 92, 93, 94, 95, 96, 97, 98, 99, 100, 101, 102, 103, 104, 105, 106, 107, 108, 109, 110, 111, 112, 113, 114, 115, 116, 117, 118, 119, 120, 121, 122, 123, 124, 125, 126, 127, 128, 129, 130, 131, 132, 133, 134, 135, 136, 137, 138, 139, 140, 141, 142, 143, 144, 145, 146, 147, 148, 149, 150, 151, 152, 153, 154, 155, 156, 157, 158, 159, 160, 161, 162, 163, 164, 165, 166, 167, 168, 169, 170, 171, 172, 173, 174, 175, 176, 177, 178, 179, 180, 181, 182, 183, 184, 185, 186, 187, 188, 189, 190, 191, 192, 193, 194, 195, 196, 197, 198, 199, 200, 201, 202, 203, 204, 205, 206, 207, 208, 209, 210, 211, 212, 213, 214, 215, 216, 217, 218, 219, 220, 221, 222, 223, 224, 225, 226, 227, 228, 229, 230, 231, 232, 233, 234, 235, 236, 237, 238, 239, 240, 241, 242, 243, 244, 245, 246, 247, 248, 249, 250, 251, 252, 253, 254, 255, 256, 257, 258, 259, 260, 261, 262, 263, 264, 265, 266, 267, 268, 269, 270, 271, 272, 273, 274, 275, 276, 277, 278, 279, 280, 281, 282, 283, 284, 285, 286, 287, 288, 289, 290, 291, 292, 293, 294, 295, 296, 297, 298, 299, 300, 301, 302, 303, 304, 305, 306, 307, 308, 309, 310, 311, 312, 313, 314, 315, 316, 317, 318, 319, 320, 321, 322, 323, 324, 325, 326, 327, 328, 329, 330, 331, 332, 333, 334, 335, 336, 337, 338, 339, 340, 341, 342, 343, 344, 345, 346, 347, 348, 349, 350, 351, 352, 353, 354, 355, 356, 357, 358, 359, 360, 361, 362, 363, 364, 365, 366, 367, 368, 369, 370, 371, 372, 373, 374, 375, 376, 377, 378, 379, 380, 381, 382, 383, 384, 385, 386, 387, 388, 389, 390, 391, 392, 393, 394, 395, 396, 397, 398, 399, 400, 401, 402, 403, 404, 405, 406, 407, 408, 409, 410, 411, 412, 413, 414, 415, 416, 417, 418, 419, 420, 421, 422, 423, 424, 425, 426, 427, 428, 429, 430, 431, 432, 433, 434, 435, 436, 437, 438, 439, 440, 441, 442, 443, 444, 445, 446, 447, 448, 449, 450, 451, 452, 453, 454, 455, 456, 457, 458, 459, 460, 461, 462, 463, 464, 465, 466, 467, 468, 469, 470, 471, 472, 473, 474, 475, 476, 477, 478, 479, 480, 481, 482, 483, 484, 485, 486, 487, 488, 489, 490, 491, 492, 493, 494, 495, 496, 497, 498, 499, 500, 501, 502, 503, 504, 505, 506, 507, 508, 509, 510, 511, 512, 513, 514, 515, 516, 517, 518, 519, 520, 521, 522, 523, 524, 525, 526, 527, 528, 529, 530, 531, 532, 533, 534, 535, 536, 537, 538, 539, 540, 541, 542, 543, 544, 545, 546, 547, 548, 549, 550, 551, 552, 553, 554, 555, 556, 557, 558, 559, 560, 561, 562, 563, 564, 565, 566, 567, 568, 569, 570, 571, 572, 573, 574, 575, 576, 577, 578, 579, 580, 581, 582, 583, 584, 585, 586, 587, 588, 589, 590, 591, 592, 593, 594, 595, 596, 597, 598, 599, 600, 601, 602, 603, 604, 605, 606, 607, 608, 609, 610, 611, 612, 613, 614, 615, 616, 617, 618, 619, 620, 621, 622, 623, 624, 625, 626, 627, 628, 629, 630, 631, 632, 633, 634, 635, 636, 637, 638, 639, 640, 641, 642, 643, 644, 645, 646, 647, 648, 649, 650, 651, 652, 653, 654, 655, 656, 657, 658, 659, 660, 661, 662, 663, 664, 665, 666, 667, 668, 669, 670, 671, 672, 673, 674, 675, 676, 677, 678, 679, 680, 681, 682, 683, 684, 685, 686, 687, 688, 689, 690, 691, 692, 693, 694, 695, 696, 697, 698, 699, 700, 701, 702, 703, 704, 705, 706, 707, 708, 709, 710, 711, 712, 713, 714, 715, 716, 717, 718, 719, 720, 721, 722, 723, 724, 725, 726, 727, 728, 729, 730, 731, 732, 733, 734, 735, 736, 737, 738, 739, 740, 741, 742, 743, 744, 745, 746, 747, 748, 749, 750, 751, 752, 753, 754, 755, 756, 757, 758, 759, 760, 761, 762, 763, 764, 765, 766, 767, 768, 769, 770, 771, 772, 773, 774, 775, 776, 777, 778, 779, 780, 781, 782, 783, 784, 785, 786, 787, 788, 789, 790, 791, 792, 793, 794, 795, 796, 797, 798, 799, 800, 801, 802, 803, 804, 805, 806, 807, 808, 809, 810, 811, 812, 813, 814, 815, 816, 817, 818, 819, 820, 821, 822, 823, 824, 825, 826, 827, 828, 829, 830, 831, 832, 833, 834, 835, 836, 837, 838, 839, 840, 841, 842, 843, 844, 845, 846, 847, 848, 849, 850, 851, 852, 853, 854, 855, 856, 857, 858, 859, 860, 861, 862, 863, 864, 865, 866, 867, 868, 869, 870, 871, 872],
      "AcquisitionTime": ["161556.030000", "161556.490000", "161556.950000", "161557.410000", "161557.870000", "161558.330000", "161558.790000", "161559.250000", "161559.710000", "161600.170000", "161600.630000", "161601.090000", "161601.550000", "161602.010000", "161602.470000", "161602.930000", "161603.390000", "161603.850000", "161604.310000", "161604.770000", "161605.230000", "161605.690000", "161606.150000", "161606.610000", "161607.070000", "161607.530000", "161607.990000", "161608.450000", "161608.910000", "161609.370000", "161609.830000", "161610.290000", "161610.750000", "161611.210000", "161611.670000", "161612.130000", "161612.590000", "161613.050000", "161613.510000", "161613.970000", "161614.430000", "161614.890000", "161615.350000", "161615.810000", "161616.270000", "161616.730000", "161617.190000", "161617.650000", "161618.110000", "161618.570000", "161619.030000", "161619.490000", "161619.950000", "161620.410000", "161620.870000", "161621.330000", "161621.790000", "161622.250000", "161622.710000", "161623.170000", "161623.630000", "161624.090000", "161624.550000", "161625.010000", "161625.470000", "161625.930000", "161626.390000", "161626.850000", "161627.310000", "161627.770000", "161628.230000", "161628.690000", "161629.150000", "161629.610000", "161630.070000", "161630.530000", "161630.990000", "161631.450000", "161631.910000", "161632.370000", "161632.830000", "161633.290000", "161633.750000", "161634.210000", "161634.670000", "161635.130000", "161635.590000", "161636.050000", "161636.510000", "161636.970000", "161637.430000", "161637.890000", "161638.350000", "161638.810000", "161639.270000", "161639.730000", "161640.190000", "161640.650000", "161641.110000", "161641.570000", "161642.030000", "161642.490000", "161642.950000", "161643.410000", "161643.870000", "161644.330000", "161644.790000", "161645.250000", "161645.710000", "161646.170000", "161646.630000", "161647.090000", "161647.550000", "161648.010000", "161648.470000", "161648.930000", "161649.390000", "161649.850000", "161650.310000", "161650.770000", "161651.230000", "161651.690000", "161652.150000", "161652.610000", "161653.070000", "161653.530000", "161653.990000", "161654.450000", "161654.910000", "161655.370000", "161655.830000", "161656.290000", "161656.750000", "161657.210000", "161657.670000", "161658.130000", "161658.590000", "161659.050000", "161659.510000", "161659.970000", "161700.430000", "161700.890000", "161701.350000", "161701.810000", "161702.270000", "161702.730000", "161703.190000", "161703.650000", "161704.110000", "161704.570000", "161705.030000", "161705.490000", "161705.950000", "161706.410000", "161706.870000", "161707.330000", "161707.790000", "161708.250000", "161708.710000", "161709.170000", "161709.630000", "161710.090000", "161710.550000", "161711.010000", "161711.470000", "161711.930000", "161712.390000", "161712.850000", "161713.310000", "161713.770000", "161714.230000", "161714.690000", "161715.150000", "161715.610000", "161716.070000", "161716.530000", "161716.990000", "161717.450000", "161717.910000", "161718.370000", "161718.830000", "161719.290000", "161719.750000", "161720.210000", "161720.670000", "161721.130000", "161721.590000", "161722.050000", "161722.510000", "161722.970000", "161723.430000", "161723.890000", "161724.350000", "161724.810000", "161725.270000", "161725.730000", "161726.190000", "161726.650000", "161727.110000", "161727.570000", "161728.030000", "161728.490000", "161728.950000", "161729.410000", "161729.870000", "161730.330000", "161730.790000", "161731.250000", "161731.710000", "161732.170000", "161732.630000", "161733.090000", "161733.550000", "161734.010000", "161734.470000", "161734.930000", "161735.390000", "161735.850000", "161736.310000", "161736.770000", "161737.230000", "161737.690000", "161738.150000", "161738.610000", "161739.070000", "161739.530000", "161739.990000", "161740.450000", "161740.910000", "161741.370000", "161741.830000", "161742.290000", "161742.750000", "161743.210000", "161743.670000", "161744.130000", "161744.590000", "161745.050000", "161745.510000", "161745.970000", "161746.430000", "161746.890000", "161747.350000", "161747.810000", "161748.270000", "161748.730000", "161749.190000", "161749.650000", "161750.110000", "161750.570000", "161751.030000", "161751.490000", "161751.950000", "161752.410000", "161752.870000", "161753.330000", "161753.790000", "161754.250000", "161754.710000", "161755.170000", "161755.630000", "161756.090000", "161756.550000", "161757.010000", "161757.470000", "161757.930000", "161758.390000", "161758.850000", "161759.310000", "161759.770000", "161800.230000", "161800.690000", "161801.150000", "161801.610000", "161802.070000", "161802.530000", "161802.990000", "161803.450000", "161803.910000", "161804.370000", "161804.830000", "161805.290000", "161805.750000", "161806.210000", "161806.670000", "161807.130000", "161807.590000", "161808.050000", "161808.510000", "161808.970000", "161809.430000", "161809.890000", "161810.350000", "161810.810000", "161811.270000", "161811.730000", "161812.190000", "161812.650000", "161813.110000", "161813.570000", "161814.030000", "161814.490000", "161814.950000", "161815.410000", "161815.870000", "161816.330000", "161816.790000", "161817.250000", "161817.710000", "161818.170000", "161818.630000", "161819.090000", "161819.550000", "161820.010000", "161820.470000", "161820.930000", "161821.390000", "161821.850000", "161822.310000", "161822.770000", "161823.230000", "161823.690000", "161824.150000", "161824.610000", "161825.070000", "161825.530000", "161825.990000", "161826.450000", "161826.910000", "161827.370000", "161827.830000", "161828.290000", "161828.750000", "161829.210000", "161829.670000", "161830.130000", "161830.590000", "161831.050000", "161831.510000", "161831.970000", "161832.430000", "161832.890000", "161833.350000", "161833.810000", "161834.270000", "161834.730000", "161835.190000", "161835.650000", "161836.110000", "161836.570000", "161837.030000", "161837.490000", "161837.950000", "161838.410000", "161838.870000", "161839.330000", "161839.790000", "161840.250000", "161840.710000", "161841.170000", "161841.630000", "161842.090000", "161842.550000", "161843.010000", "161843.470000", "161843.930000", "161844.390000", "161844.850000", "161845.310000", "161845.770000", "161846.230000", "161846.690000", "161847.150000", "161847.610000", "161848.070000", "161848.530000", "161848.990000", "161849.450000", "161849.910000", "161850.370000", "161850.830000", "161851.290000", "161851.750000", "161852.210000", "161852.670000", "161853.130000", "161853.590000", "161854.050000", "161854.510000", "161854.970000", "161855.430000", "161855.890000", "161856.350000", "161856.810000", "161857.270000", "161857.730000", "161858.190000", "161858.650000", "161859.110000", "161859.570000", "161900.030000", "161900.490000", "161900.950000", "161901.410000", "161901.870000", "161902.330000", "161902.790000", "161903.250000", "161903.710000", "161904.170000", "161904.630000", "161905.090000", "161905.550000", "161906.010000", "161906.470000", "161906.930000", "161907.390000", "161907.850000", "161908.310000", "161908.770000", "161909.230000", "161909.690000", "161910.150000", "161910.610000", "161911.070000", "161911.530000", "161911.990000", "161912.450000", "161912.910000", "161913.370000", "161913.830000", "161914.290000", "161914.750000", "161915.210000", "161915.670000", "161916.130000", "161916.590000", "161917.050000", "161917.510000", "161917.970000", "161918.430000", "161918.890000", "161919.350000", "161919.810000", "161920.270000", "161920.730000", "161921.190000", "161921.650000", "161922.110000", "161922.570000", "161923.030000", "161923.490000", "161923.950000", "161924.410000", "161924.870000", "161925.330000", "161925.790000", "161926.250000", "161926.710000", "161927.170000", "161927.630000", "161928.090000", "161928.550000", "161929.010000", "161929.470000", "161929.930000", "161930.390000", "161930.850000", "161931.310000", "161931.770000", "161932.230000", "161932.690000", "161933.150000", "161933.610000", "161934.070000", "161934.530000", "161934.990000", "161935.450000", "161935.910000", "161936.370000", "161936.830000", "161937.290000", "161937.750000", "161938.210000", "161938.670000", "161939.130000", "161939.590000", "161940.050000", "161940.510000", "161940.970000", "161941.430000", "161941.890000", "161942.350000", "161942.810000", "161943.270000", "161943.730000", "161944.190000", "161944.650000", "161945.110000", "161945.570000", "161946.030000", "161946.490000", "161946.950000", "161947.410000", "161947.870000", "161948.330000", "161948.790000", "161949.250000", "161949.710000", "161950.170000", "161950.630000", "161951.090000", "161951.550000", "161952.010000", "161952.470000", "161952.930000", "161953.390000", "161953.850000", "161954.310000", "161954.770000", "161955.230000", "161955.690000", "161956.150000", "161956.610000", "161957.070000", "161957.530000", "161957.990000", "161958.450000", "161958.910000", "161959.370000", "161959.830000", "162000.290000", "162000.750000", "162001.210000", "162001.670000", "162002.130000", "162002.590000", "162003.050000", "162003.510000", "162003.970000", "162004.430000", "162004.890000", "162005.350000", "162005.810000", "162006.270000", "162006.730000", "162007.190000", "162007.650000", "162008.110000", "162008.570000", "162009.030000", "162009.490000", "162009.950000", "162010.410000", "162010.870000", "162011.330000", "162011.790000", "162012.250000", "162012.710000", "162013.170000", "162013.630000", "162014.090000", "162014.550000", "162015.010000", "162015.470000", "162015.930000", "162016.390000", "162016.850000", "162017.310000", "162017.770000", "162018.230000", "162018.690000", "162019.150000", "162019.610000", "162020.070000", "162020.530000", "162020.990000", "162021.450000", "162021.910000", "162022.370000", "162022.830000", "162023.290000", "162023.750000", "162024.210000", "162024.670000", "162025.130000", "162025.590000", "162026.050000", "162026.510000", "162026.970000", "162027.430000", "162027.890000", "162028.350000", "162028.810000", "162029.270000", "162029.730000", "162030.190000", "162030.650000", "162031.110000", "162031.570000", "162032.030000", "162032.490000", "162032.950000", "162033.410000", "162033.870000", "162034.330000", "162034.790000", "162035.250000", "162035.710000", "162036.170000", "162036.630000", "162037.090000", "162037.550000", "162038.010000", "162038.470000", "162038.930000", "162039.390000", "162039.850000", "162040.310000", "162040.770000", "162041.230000", "162041.690000", "162042.150000", "162042.610000", "162043.070000", "162043.530000", "162043.990000", "162044.450000", "162044.910000", "162045.370000", "162045.830000", "162046.290000", "162046.750000", "162047.210000", "162047.670000", "162048.130000", "162048.590000", "162049.050000", "162049.510000", "162049.970000", "162050.430000", "162050.890000", "162051.350000", "162051.810000", "162052.270000", "162052.730000", "162053.190000", "162053.650000", "162054.110000", "162054.570000", "162055.030000", "162055.490000", "162055.950000", "162056.410000", "162056.870000", "162057.330000", "162057.790000", "162058.250000", "162058.710000", "162059.170000", "162059.630000", "162100.090000", "162100.550000", "162101.010000", "162101.470000", "162101.930000", "162102.390000", "162102.850000", "162103.310000", "162103.770000", "162104.230000", "162104.690000", "162105.150000", "162105.610000", "162106.070000", "162106.530000", "162106.990000", "162107.450000", "162107.910000", "162108.370000", "162108.830000", "162109.290000", "162109.750000", "162110.210000", "162110.670000", "162111.130000", "162111.590000", "162112.050000", "162112.510000", "162112.970000", "162113.430000", "162113.890000", "162114.350000", "162114.810000", "162115.270000", "162115.730000", "162116.190000", "162116.650000", "162117.110000", "162117.570000", "162118.030000", "162118.490000", "162118.950000", "162119.410000", "162119.870000", "162120.330000", "162120.790000", "162121.250000", "162121.710000", "162122.170000", "162122.630000", "162123.090000", "162123.550000", "162124.010000", "162124.470000", "162124.930000", "162125.390000", "162125.850000", "162126.310000", "162126.770000", "162127.230000", "162127.690000", "162128.150000", "162128.610000", "162129.070000", "162129.530000", "162129.990000", "162130.450000", "162130.910000", "162131.370000", "162131.830000", "162132.290000", "162132.750000", "162133.210000", "162133.670000", "162134.130000", "162134.590000", "162135.050000", "162135.510000", "162135.970000", "162136.430000", "162136.890000", "162137.350000", "162137.810000", "162138.270000", "162138.730000", "162139.190000", "162139.650000", "162140.110000", "162140.570000", "162141.030000", "162141.490000", "162141.950000", "162142.410000", "162142.870000", "162143.330000", "162143.790000", "162144.250000", "162144.710000", "162145.170000", "162145.630000", "162146.090000", "162146.550000", "162147.010000", "162147.470000", "162147.930000", "162148.390000", "162148.850000", "162149.310000", "162149.770000", "162150.230000", "162150.690000", "162151.150000", "162151.610000", "162152.070000", "162152.530000", "162152.990000", "162153.450000", "162153.910000", "162154.370000", "162154.830000", "162155.290000", "162155.750000", "162156.210000", "162156.670000", "162157.130000", "162157.590000", "162158.050000", "162158.510000", "162158.970000", "162159.430000", "162159.890000", "162200.350000", "162200.810000", "162201.270000", "162201.730000", "162202.190000", "162202.650000", "162203.110000", "162203.570000", "162204.030000", "162204.490000", "162204.950000", "162205.410000", "162205.870000", "162206.330000", "162206.790000", "162207.250000", "162207.710000", "162208.170000", "162208.630000", "162209.090000", "162209.550000", "162210.010000", "162210.470000", "162210.930000", "162211.390000", "162211.850000", "162212.310000", "162212.770000", "162213.230000", "162213.690000", "162214.150000", "162214.610000", "162215.070000", "162215.530000", "162215.990000", "162216.450000", "162216.910000", "162217.370000", "162217.830000", "162218.290000", "162218.750000", "162219.210000", "162219.670000", "162220.130000", "162220.590000", "162221.050000", "162221.510000", "162221.970000", "162222.430000", "162222.890000", "162223.350000", "162223.810000", "162224.270000", "162224.730000", "162225.190000", "162225.650000", "162226.110000", "162226.570000", "162227.030000", "162227.490000", "162227.950000", "162228.410000", "162228.870000", "162229.330000", "162229.790000", "162230.250000", "162230.710000", "162231.170000", "162231.630000", "162232.090000", "162232.550000", "162233.010000", "162233.470000", "162233.930000", "162234.390000", "162234.850000", "162235.310000", "162235.770000", "162236.230000", "162236.690000"],
