{
  "AcquisitionMatrixPE": 82,
  "AcquisitionNumber": 1,
  "AcquisitionTime": "16:41:23.302500",
  "BandwidthPerPixelPhaseEncode": 24.888,
  "BaseResolution": 82,
  "BodyPartExamined": "BRAIN",
  "ConsistencyInfo": "N4_VE11C_LATEST_20160120",
  "ConversionSoftware": "dcm2niix",
  "ConversionSoftwareVersion": "v1.0.20201102",
  "DerivedVendorReportedEchoSpacing": 0.00049,
  "DeviceSerialNumber": "66112",
  "DwellTime": 2e-06,
  "EchoTime": 0.0272,
  "EchoTrainLength": 82,
  "EffectiveEchoSpacing": 0.00049,
  "FlipAngle": 44,
  "ImageComments": "Unaliased MB8/PE3",
  "ImageOrientationPatientDICOM": [0.998158, -0.0596116, 0.0112817, 0.0600009, 0.997472, -0.0380675],
  "ImageType": [
    "ORIGINAL",
    "PRIMARY",
    "M",
    "MB",
    "ND",
    "NORM",
    "MOSAIC"
],
  "ImagingFrequency": 123.252,
  "InPlanePhaseEncodingDirectionDICOM": "COL",
  "InstitutionAddress": "Maynard 3,Hanover,NH,US,03755",
  "InstitutionName": "Dartmouth College - PBS",
  "InstitutionalDepartmentName": "Department",
  "MRAcquisitionType": "2D",
  "MagneticFieldStrength": 3,
  "Manufacturer": "Siemens",
  "ManufacturersModelName": "Prisma",
  "Modality": "MR",
  "MultibandAccelerationFactor": 8,
  "PartialFourier": 1,
  "PatientPosition": "HFS",
  "PercentPhaseFOV": 100,
  "PercentSampling": 100,
  "PhaseEncodingDirection": "j-",
  "PhaseEncodingSteps": 82,
  "PhaseResolution": 1,
  "PixelBandwidth": 3050,
  "ProcedureStepDescription": "Wager_Wager^1076_spacetop",
  "ProtocolName": "func_run-05_task-social_acq-ap-mb8",
  "PulseSequenceDetails": "%CustomerSeq%\\cmrr_mbep2d_bold",
  "ReceiveCoilActiveElements": "HEA;HEP",
  "ReceiveCoilName": "Head_32",
  "ReconMatrixPE": 82,
  "RepetitionTime": 0.46,
  "SAR": 0.0767966,
  "ScanOptions": "FS",
  "ScanningSequence": "EP",
  "SequenceName": "epfid2d1_82",
  "SequenceVariant": "SK\\SS",
  "SeriesDescription": "func_run-05_task-social_acq-ap-mb8",
  "SeriesNumber": 16,
  "ShimSetting": [4142, -7772, -7263, 629, 1, -300, 87, 86],
  "SliceThickness": 2.7,
  "SliceTiming": [0, 0.25, 0.0625, 0.315, 0.125, 0.3775, 0.1875, 0, 0.25, 0.0625, 0.315, 0.125, 0.3775, 0.1875, 0, 0.25, 0.0625, 0.315, 0.125, 0.3775, 0.1875, 0, 0.25, 0.0625, 0.315, 0.125, 0.3775, 0.1875, 0, 0.25, 0.0625, 0.315, 0.125, 0.3775, 0.1875, 0, 0.25, 0.0625, 0.315, 0.125, 0.3775, 0.1875, 0, 0.25, 0.0625, 0.315, 0.125, 0.3775, 0.1875, 0, 0.25, 0.0625, 0.315, 0.125, 0.3775, 0.1875],
  "SoftwareVersions": "syngo MR E11",
  "SpacingBetweenSlices": 2.7,
  "StationName": "AWP66112",
  "TaskName": "social",
  "TotalReadoutTime": 0.03969,
  "TxRefAmp": 232.666,
  "WipMemBlock": "5ecfaa11-6891-4e22-9563-7117195f8622||Sequence: R016 ve11c/master r/e634e98; Dec 19 2017 11:00:25 by eja",
  "dcmmeta_affine": [
    [-2.6779847145080566, 0.16097794473171234, 0.024256691336631775, 107.85304260253906],
    [0.15993346273899078, 2.67614483833313, -0.10442066937685013, -98.74768829345703],
    [0.030268091708421707, 0.1021324023604393, 2.697870969772339, -78.91615295410156],
    [0.0, 0.0, 0.0, 1.0]
],
  "dcmmeta_reorient_transform": [
    [0.0, -1.0, 0.0, 81.0],
    [1.0, 0.0, 0.0, 0.0],
    [0.0, 0.0, 1.0, 0.0],
    [0.0, 0.0, 0.0, 1.0]
],
  "dcmmeta_shape": [82, 82, 56, 872],
  "dcmmeta_slice_dim": 2,
  "dcmmeta_version": 0.6,
  "global": {
    "const": {
      "AccessionNumber": "A003637",
      "AcquisitionMatrix": [82, 0, 0, 82],
      "AngioFlag": "N",
      "BitsAllocated": 16,
      "BitsStored": 16,
      "BodyPartExamined": "BRAIN",
      "Columns": 656,
      "EchoNumbers": 1,
      "EchoTime": 27.2,
      "EchoTrainLength": 82,
      "FlipAngle": 44.0,
      "HighBit": 15,
      "ImageOrientationPatient": [0.99815789530233, -0.0596115619848, 0.01128174292201, 0.06000087094052, 0.99747218431726, -0.0380675320941],
      "ImagePositionPatient": [-935.67452847932, -840.17274643429, -50.018371604783],
      "ImageType": [
        "ORIGINAL",
        "PRIMARY",
        "M",
        "MB",
        "ND",
        "NORM",
        "MOSAIC"
],
      "ImagedNucleus": "1H",
      "ImagingFrequency": 123.252172,
      "InPlanePhaseEncodingDirection": "COL",
      "MRAcquisitionType": "2D",
      "MagneticFieldStrength": 3.0,
      "Manufacturer": "SIEMENS",
      "ManufacturerModelName": "Prisma",
      "Modality": "MR",
      "NumberOfAverages": 1.0,
      "NumberOfPhaseEncodingSteps": 82,
      "PercentPhaseFieldOfView": 100.0,
      "PercentSampling": 100.0,
      "PerformedProcedureStepStartTime": "145943.218000",
      "PhotometricInterpretation": "MONOCHROME2",
      "PixelBandwidth": 3050.0,
      "PixelRepresentation": 0,
      "PixelSpacing": [2.6829268932343, 2.6829268932343],
      "ProtocolName": "func_run-05_task-social_acq-ap-mb8",
      "RepetitionTime": 460.0,
      "Rows": 656,
      "SAR": 0.07679661944835,
      "SamplesPerPixel": 1,
      "ScanOptions": "FS",
      "ScanningSequence": "EP",
      "SequenceName": "epfid2d1_82",
      "SequenceVariant": [
        "SK",
        "SS"
],
      "SeriesDescription": "func_run-05_task-social_acq-ap-mb8",
      "SeriesNumber": 16,
      "SeriesTime": "164133.753000",
      "SliceLocation": -74.06598037247,
      "SliceThickness": 2.7000000476837,
      "SmallestImagePixelValue": 0,
      "SoftwareVersions": "syngo MR E11",
      "SpacingBetweenSlices": 2.6999999818008,
      "SpecificCharacterSet": "ISO_IR 100",
      "StudyID": "1",
      "StudyTime": "145943.110000",
      "TransmitCoilName": "Body",
      "VariableFlipAngleFlag": "N",
      "WindowCenterWidthExplanation": "Algo1",
      "dBdt": 0.0},
    "slices": {}
  },
  "time": {
    "samples": {
      "AcquisitionNumber": [1, 2, 3, 4, 5, 6, 7, 8, 9, 10, 11, 12, 13, 14, 15, 16, 17, 18, 19, 20, 21, 22, 23, 24, 25, 26, 27, 28, 29, 30, 31, 32, 33, 34, 35, 36, 37, 38, 39, 40, 41, 42, 43, 44, 45, 46, 47, 48, 49, 50, 51, 52, 53, 54, 55, 56, 57, 58, 59, 60, 61, 62, 63, 64, 65, 66, 67, 68, 69, 70, 71, 72, 73, 74, 75, 76, 77, 78, 79, 80, 81, 82, 83, 84, 85, 86, 87, 88, 89, 90, 91, 92, 93, 94, 95, 96, 97, 98, 99, 100, 101, 102, 103, 104, 105, 106, 107, 108, 109, 110, 111, 112, 113, 114, 115, 116, 117, 118, 119, 120, 121, 122, 123, 124, 125, 126, 127, 128, 129, 130, 131, 132, 133, 134, 135, 136, 137, 138, 139, 140, 141, 142, 143, 144, 145, 146, 147, 148, 149, 150, 151, 152, 153, 154, 155, 156, 157, 158, 159, 160, 161, 162, 163, 164, 165, 166, 167, 168, 169, 170, 171, 172, 173, 174, 175, 176, 177, 178, 179, 180, 181, 182, 183, 184, 185, 186, 187, 188, 189, 190, 191, 192, 193, 194, 195, 196, 197, 198, 199, 200, 201, 202, 203, 204, 205, 206, 207, 208, 209, 210, 211, 212, 213, 214, 215, 216, 217, 218, 219, 220, 221, 222, 223, 224, 225, 226, 227, 228, 229, 230, 231, 232, 233, 234, 235, 236, 237, 238, 239, 240, 241, 242, 243, 244, 245, 246, 247, 248, 249, 250, 251, 252, 253, 254, 255, 256, 257, 258, 259, 260, 261, 262, 263, 264, 265, 266, 267, 268, 269, 270, 271, 272, 273, 274, 275, 276, 277, 278, 279, 280, 281, 282, 283, 284, 285, 286, 287, 288, 289, 290, 291, 292, 293, 294, 295, 296, 297, 298, 299, 300, 301, 302, 303, 304, 305, 306, 307, 308, 309, 310, 311, 312, 313, 314, 315, 316, 317, 318, 319, 320, 321, 322, 323, 324, 325, 326, 327, 328, 329, 330, 331, 332, 333, 334, 335, 336, 337, 338, 339, 340, 341, 342, 343, 344, 345, 346, 347, 348, 349, 350, 351, 352, 353, 354, 355, 356, 357, 358, 359, 360, 361, 362, 363, 364, 365, 366, 367, 368, 369, 370, 371, 372, 373, 374, 375, 376, 377, 378, 379, 380, 381, 382, 383, 384, 385, 386, 387, 388, 389, 390, 391, 392, 393, 394, 395, 396, 397, 398, 399, 400, 401, 402, 403, 404, 405, 406, 407, 408, 409, 410, 411, 412, 413, 414, 415, 416, 417, 418, 419, 420, 421, 422, 423, 424, 425, 426, 427, 428, 429, 430, 431, 432, 433, 434, 435, 436, 437, 438, 439, 440, 441, 442, 443, 444, 445, 446, 447, 448, 449, 450, 451, 452, 453, 454, 455, 456, 457, 458, 459, 460, 461, 462, 463, 464, 465, 466, 467, 468, 469, 470, 471, 472, 473, 474, 475, 476, 477, 478, 479, 480, 481, 482, 483, 484, 485, 486, 487, 488, 489, 490, 491, 492, 493, 494, 495, 496, 497, 498, 499, 500, 501, 502, 503, 504, 505, 506, 507, 508, 509, 510, 511, 512, 513, 514, 515, 516, 517, 518, 519, 520, 521, 522, 523, 524, 525, 526, 527, 528, 529, 530, 531, 532, 533, 534, 535, 536, 537, 538, 539, 540, 541, 542, 543, 544, 545, 546, 547, 548, 549, 550, 551, 552, 553, 554, 555, 556, 557, 558, 559, 560, 561, 562, 563, 564, 565, 566, 567, 568, 569, 570, 571, 572, 573, 574, 575, 576, 577, 578, 579, 580, 581, 582, 583, 584, 585, 586, 587, 588, 589, 590, 591, 592, 593, 594, 595, 596, 597, 598, 599, 600, 601, 602, 603, 604, 605, 606, 607, 608, 609, 610, 611, 612, 613, 614, 615, 616, 617, 618, 619, 620, 621, 622, 623, 624, 625, 626, 627, 628, 629, 630, 631, 632, 633, 634, 635, 636, 637, 638, 639, 640, 641, 642, 643, 644, 645, 646, 647, 648, 649, 650, 651, 652, 653, 654, 655, 656, 657, 658, 659, 660, 661, 662, 663, 664, 665, 666, 667, 668, 669, 670, 671, 672, 673, 674, 675, 676, 677, 678, 679, 680, 681, 682, 683, 684, 685, 686, 687, 688, 689, 690, 691, 692, 693, 694, 695, 696, 697, 698, 699, 700, 701, 702, 703, 704, 705, 706, 707, 708, 709, 710, 711, 712, 713, 714, 715, 716, 717, 718, 719, 720, 721, 722, 723, 724, 725, 726, 727, 728, 729, 730, 731, 732, 733, 734, 735, 736, 737, 738, 739, 740, 741, 742, 743, 744, 745, 746, 747, 748, 749, 750, 751, 752, 753, 754, 755, 756, 757, 758, 759, 760, 761, 762, 763, 764, 765, 766, 767, 768, 769, 770, 771, 772, 773, 774, 775, 776, 777, 778, 779, 780, 781, 782, 783, 784, 785, 786, 787, 788, 789, 790, 791, 792, 793, 794, 795, 796, 797, 798, 799, 800, 801, 802, 803, 804, 805, 806, 807, 808, 809, 810, 811, 812, 813, 814, 815, 816, 817, 818, 819, 820, 821, 822, 823, 824, 825, 826, 827, 828, 829, 830, 831, 832, 833, 834, 835, 836, 837, 838, 839, 840, 841, 842, 843, 844, 845, 846, 847, 848, 849, 850, 851, 852, 853, 854, 855, 856, 857, 858, 859, 860, 861, 862, 863, 864, 865, 866, 867, 868, 869, 870, 871, 872],
      "AcquisitionTime": ["164123.302500", "164123.762500", "164124.222500", "164124.682500", "164125.142500", "164125.602500", "164126.062500", "164126.522500", "164126.982500", "164127.442500", "164127.902500", "164128.362500", "164128.822500", "164129.282500", "164129.742500", "164130.202500", "164130.662500", "164131.122500", "164131.582500", "164132.042500", "164132.502500", "164132.962500", "164133.422500", "164133.882500", "164134.342500", "164134.802500", "164135.262500", "164135.722500", "164136.182500", "164136.642500", "164137.102500", "164137.562500", "164138.022500", "164138.482500", "164138.942500", "164139.402500", "164139.862500", "164140.322500", "164140.782500", "164141.242500", "164141.702500", "164142.162500", "164142.622500", "164143.082500", "164143.542500", "164144.002500", "164144.462500", "164144.922500", "164145.382500", "164145.842500", "164146.302500", "164146.762500", "164147.222500", "164147.682500", "164148.142500", "164148.602500", "164149.062500", "164149.522500", "164149.982500", "164150.442500", "164150.902500", "164151.362500", "164151.822500", "164152.282500", "164152.742500", "164153.202500", "164153.662500", "164154.122500", "164154.582500", "164155.042500", "164155.502500", "164155.962500", "164156.422500", "164156.882500", "164157.342500", "164157.802500", "164158.262500", "164158.722500", "164159.182500", "164159.642500", "164200.102500", "164200.562500", "164201.022500", "164201.482500", "164201.942500", "164202.402500", "164202.862500", "164203.322500", "164203.782500", "164204.242500", "164204.702500", "164205.162500", "164205.622500", "164206.082500", "164206.542500", "164207.002500", "164207.462500", "164207.922500", "164208.382500", "164208.842500", "164209.302500", "164209.762500", "164210.222500", "164210.682500", "164211.142500", "164211.602500", "164212.062500", "164212.522500", "164212.982500", "164213.442500", "164213.902500", "164214.362500", "164214.822500", "164215.282500", "164215.742500", "164216.202500", "164216.662500", "164217.122500", "164217.582500", "164218.042500", "164218.502500", "164218.962500", "164219.422500", "164219.882500", "164220.342500", "164220.802500", "164221.262500", "164221.722500", "164222.182500", "164222.642500", "164223.102500", "164223.562500", "164224.022500", "164224.482500", "164224.942500", "164225.402500", "164225.862500", "164226.322500", "164226.782500", "164227.242500", "164227.702500", "164228.162500", "164228.622500", "164229.082500", "164229.542500", "164230.002500", "164230.462500", "164230.922500", "164231.382500", "164231.842500", "164232.302500", "164232.762500", "164233.222500", "164233.682500", "164234.142500", "164234.602500", "164235.062500", "164235.522500", "164235.982500", "164236.442500", "164236.902500", "164237.362500", "164237.822500", "164238.282500", "164238.742500", "164239.202500", "164239.662500", "164240.122500", "164240.582500", "164241.042500", "164241.502500", "164241.962500", "164242.422500", "164242.882500", "164243.342500", "164243.802500", "164244.262500", "164244.722500", "164245.182500", "164245.642500", "164246.102500", "164246.562500", "164247.022500", "164247.482500", "164247.942500", "164248.402500", "164248.862500", "164249.322500", "164249.782500", "164250.242500", "164250.702500", "164251.162500", "164251.622500", "164252.082500", "164252.542500", "164253.002500", "164253.462500", "164253.922500", "164254.382500", "164254.842500", "164255.302500", "164255.762500", "164256.222500", "164256.682500", "164257.142500", "164257.602500", "164258.062500", "164258.522500", "164258.982500", "164259.442500", "164259.902500", "164300.362500", "164300.822500", "164301.282500", "164301.742500", "164302.202500", "164302.662500", "164303.122500", "164303.582500", "164304.042500", "164304.502500", "164304.962500", "164305.422500", "164305.882500", "164306.342500", "164306.802500", "164307.262500", "164307.722500", "164308.182500", "164308.642500", "164309.102500", "164309.562500", "164310.022500", "164310.482500", "164310.942500", "164311.402500", "164311.862500", "164312.322500", "164312.782500", "164313.242500", "164313.702500", "164314.162500", "164314.622500", "164315.082500", "164315.542500", "164316.002500", "164316.462500", "164316.922500", "164317.382500", "164317.842500", "164318.302500", "164318.762500", "164319.222500", "164319.682500", "164320.142500", "164320.602500", "164321.062500", "164321.522500", "164321.982500", "164322.442500", "164322.902500", "164323.362500", "164323.822500", "164324.282500", "164324.742500", "164325.202500", "164325.662500", "164326.122500", "164326.582500", "164327.042500", "164327.502500", "164327.962500", "164328.422500", "164328.882500", "164329.342500", "164329.802500", "164330.262500", "164330.722500", "164331.182500", "164331.642500", "164332.102500", "164332.562500", "164333.022500", "164333.482500", "164333.942500", "164334.402500", "164334.862500", "164335.322500", "164335.782500", "164336.242500", "164336.702500", "164337.162500", "164337.622500", "164338.082500", "164338.542500", "164339.002500", "164339.462500", "164339.922500", "164340.382500", "164340.842500", "164341.302500", "164341.762500", "164342.222500", "164342.682500", "164343.142500", "164343.602500", "164344.062500", "164344.522500", "164344.982500", "164345.442500", "164345.902500", "164346.362500", "164346.822500", "164347.282500", "164347.742500", "164348.202500", "164348.662500", "164349.122500", "164349.582500", "164350.042500", "164350.502500", "164350.962500", "164351.422500", "164351.882500", "164352.342500", "164352.802500", "164353.262500", "164353.722500", "164354.182500", "164354.642500", "164355.102500", "164355.562500", "164356.022500", "164356.482500", "164356.942500", "164357.402500", "164357.862500", "164358.322500", "164358.782500", "164359.242500", "164359.702500", "164400.162500", "164400.622500", "164401.082500", "164401.542500", "164402.002500", "164402.462500", "164402.922500", "164403.382500", "164403.842500", "164404.302500", "164404.762500", "164405.222500", "164405.682500", "164406.142500", "164406.602500", "164407.062500", "164407.522500", "164407.982500", "164408.442500", "164408.902500", "164409.362500", "164409.822500", "164410.282500", "164410.742500", "164411.202500", "164411.662500", "164412.122500", "164412.582500", "164413.042500", "164413.502500", "164413.962500", "164414.422500", "164414.882500", "164415.342500", "164415.802500", "164416.262500", "164416.722500", "164417.182500", "164417.642500", "164418.102500", "164418.562500", "164419.022500", "164419.482500", "164419.942500", "164420.402500", "164420.862500", "164421.322500", "164421.782500", "164422.242500", "164422.702500", "164423.162500", "164423.622500", "164424.082500", "164424.542500", "164425.002500", "164425.462500", "164425.922500", "164426.382500", "164426.842500", "164427.302500", "164427.762500", "164428.222500", "164428.682500", "164429.142500", "164429.602500", "164430.062500", "164430.522500", "164430.982500", "164431.442500", "164431.902500", "164432.362500", "164432.822500", "164433.282500", "164433.742500", "164434.202500", "164434.662500", "164435.122500", "164435.582500", "164436.042500", "164436.502500", "164436.962500", "164437.422500", "164437.882500", "164438.342500", "164438.802500", "164439.262500", "164439.722500", "164440.182500", "164440.642500", "164441.102500", "164441.562500", "164442.022500", "164442.482500", "164442.942500", "164443.402500", "164443.862500", "164444.322500", "164444.782500", "164445.242500", "164445.702500", "164446.162500", "164446.622500", "164447.082500", "164447.542500", "164448.002500", "164448.462500", "164448.922500", "164449.382500", "164449.842500", "164450.302500", "164450.762500", "164451.222500", "164451.682500", "164452.142500", "164452.602500", "164453.062500", "164453.522500", "164453.982500", "164454.442500", "164454.902500", "164455.362500", "164455.822500", "164456.282500", "164456.742500", "164457.202500", "164457.662500", "164458.122500", "164458.582500", "164459.042500", "164459.502500", "164459.962500", "164500.422500", "164500.882500", "164501.342500", "164501.802500", "164502.262500", "164502.722500", "164503.182500", "164503.642500", "164504.102500", "164504.562500", "164505.022500", "164505.482500", "164505.942500", "164506.402500", "164506.862500", "164507.322500", "164507.782500", "164508.242500", "164508.702500", "164509.162500", "164509.622500", "164510.082500", "164510.542500", "164511.002500", "164511.462500", "164511.922500", "164512.382500", "164512.842500", "164513.302500", "164513.762500", "164514.222500", "164514.682500", "164515.142500", "164515.602500", "164516.062500", "164516.522500", "164516.982500", "164517.442500", "164517.902500", "164518.362500", "164518.822500", "164519.282500", "164519.742500", "164520.202500", "164520.662500", "164521.122500", "164521.582500", "164522.042500", "164522.502500", "164522.962500", "164523.422500", "164523.882500", "164524.342500", "164524.802500", "164525.262500", "164525.722500", "164526.182500", "164526.642500", "164527.102500", "164527.562500", "164528.022500", "164528.482500", "164528.942500", "164529.402500", "164529.862500", "164530.322500", "164530.782500", "164531.242500", "164531.702500", "164532.162500", "164532.622500", "164533.082500", "164533.542500", "164534.002500", "164534.462500", "164534.922500", "164535.382500", "164535.842500", "164536.302500", "164536.762500", "164537.222500", "164537.682500", "164538.142500", "164538.602500", "164539.062500", "164539.522500", "164539.982500", "164540.442500", "164540.902500", "164541.362500", "164541.822500", "164542.282500", "164542.742500", "164543.202500", "164543.662500", "164544.122500", "164544.582500", "164545.042500", "164545.502500", "164545.962500", "164546.422500", "164546.882500", "164547.342500", "164547.802500", "164548.262500", "164548.722500", "164549.182500", "164549.642500", "164550.102500", "164550.562500", "164551.022500", "164551.482500", "164551.942500", "164552.402500", "164552.862500", "164553.322500", "164553.782500", "164554.242500", "164554.702500", "164555.162500", "164555.622500", "164556.082500", "164556.542500", "164557.002500", "164557.462500", "164557.922500", "164558.382500", "164558.842500", "164559.302500", "164559.762500", "164600.222500", "164600.682500", "164601.142500", "164601.602500", "164602.062500", "164602.522500", "164602.982500", "164603.442500", "164603.902500", "164604.362500", "164604.822500", "164605.282500", "164605.742500", "164606.202500", "164606.662500", "164607.122500", "164607.582500", "164608.042500", "164608.502500", "164608.962500", "164609.422500", "164609.882500", "164610.342500", "164610.802500", "164611.262500", "164611.722500", "164612.182500", "164612.642500", "164613.102500", "164613.562500", "164614.022500", "164614.482500", "164614.942500", "164615.402500", "164615.862500", "164616.322500", "164616.782500", "164617.242500", "164617.702500", "164618.162500", "164618.622500", "164619.082500", "164619.542500", "164620.002500", "164620.462500", "164620.922500", "164621.382500", "164621.842500", "164622.302500", "164622.762500", "164623.222500", "164623.682500", "164624.142500", "164624.602500", "164625.062500", "164625.522500", "164625.982500", "164626.442500", "164626.902500", "164627.362500", "164627.822500", "164628.282500", "164628.742500", "164629.202500", "164629.662500", "164630.122500", "164630.582500", "164631.042500", "164631.502500", "164631.962500", "164632.422500", "164632.882500", "164633.342500", "164633.802500", "164634.262500", "164634.722500", "164635.182500", "164635.642500", "164636.102500", "164636.562500", "164637.022500", "164637.482500", "164637.942500", "164638.402500", "164638.862500", "164639.322500", "164639.782500", "164640.242500", "164640.702500", "164641.162500", "164641.622500", "164642.082500", "164642.542500", "164643.002500", "164643.462500", "164643.922500", "164644.382500", "164644.842500", "164645.302500", "164645.762500", "164646.222500", "164646.682500", "164647.142500", "164647.602500", "164648.062500", "164648.522500", "164648.982500", "164649.442500", "164649.902500", "164650.362500", "164650.822500", "164651.282500", "164651.742500", "164652.202500", "164652.662500", "164653.122500", "164653.582500", "164654.042500", "164654.502500", "164654.962500", "164655.422500", "164655.882500", "164656.342500", "164656.802500", "164657.262500", "164657.722500", "164658.182500", "164658.642500", "164659.102500", "164659.562500", "164700.022500", "164700.482500", "164700.942500", "164701.402500", "164701.862500", "164702.322500", "164702.782500", "164703.242500", "164703.702500", "164704.162500", "164704.622500", "164705.082500", "164705.542500", "164706.002500", "164706.462500", "164706.922500", "164707.382500", "164707.842500", "164708.302500", "164708.762500", "164709.222500", "164709.682500", "164710.142500", "164710.602500", "164711.062500", "164711.522500", "164711.982500", "164712.442500", "164712.902500", "164713.362500", "164713.822500", "164714.282500", "164714.742500", "164715.202500", "164715.662500", "164716.122500", "164716.582500", "164717.042500", "164717.502500", "164717.962500", "164718.422500", "164718.882500", "164719.342500", "164719.802500", "164720.262500", "164720.722500", "164721.182500", "164721.642500", "164722.102500", "164722.562500", "164723.022500", "164723.482500", "164723.942500", "164724.402500", "164724.862500", "164725.322500", "164725.782500", "164726.242500", "164726.702500", "164727.162500", "164727.622500", "164728.082500", "164728.542500", "164729.002500", "164729.462500", "164729.922500", "164730.382500", "164730.842500", "164731.302500", "164731.762500", "164732.222500", "164732.682500", "164733.142500", "164733.602500", "164734.062500", "164734.522500", "164734.982500", "164735.442500", "164735.902500", "164736.362500", "164736.822500", "164737.282500", "164737.742500", "164738.202500", "164738.662500", "164739.122500", "164739.582500", "164740.042500", "164740.502500", "164740.962500", "164741.422500", "164741.882500", "164742.342500", "164742.802500", "164743.262500", "164743.722500", "164744.182500", "164744.642500", "164745.102500", "164745.562500", "164746.022500", "164746.482500", "164746.942500", "164747.402500", "164747.862500", "164748.322500", "164748.782500", "164749.242500", "164749.702500", "164750.162500", "164750.622500", "164751.082500", "164751.542500", "164752.002500", "164752.462500", "164752.922500", "164753.382500", "164753.842500", "164754.302500", "164754.762500", "164755.222500", "164755.682500", "164756.142500", "164756.602500", "164757.062500", "164757.522500", "164757.982500", "164758.442500", "164758.902500", "164759.362500", "164759.822500", "164800.282500", "164800.742500", "164801.202500", "164801.662500", "164802.122500", "164802.582500", "164803.042500", "164803.502500", "164803.962500"],
