{
  "AcquisitionMatrixPE": 82,
  "AcquisitionNumber": 1,
  "AcquisitionTime": "17:30:29.910000",
  "BandwidthPerPixelPhaseEncode": 24.888,
  "BaseResolution": 82,
  "BodyPartExamined": "BRAIN",
  "ConsistencyInfo": "N4_VE11C_LATEST_20160120",
  "ConversionSoftware": "dcm2niix",
  "ConversionSoftwareVersion": "v1.0.20201102",
  "DerivedVendorReportedEchoSpacing": 0.00049,
  "DeviceSerialNumber": "66112",
  "DwellTime": 2e-06,
  "EchoTime": 0.0272,
  "EchoTrainLength": 82,
  "EffectiveEchoSpacing": 0.00049,
  "FlipAngle": 44,
  "ImageComments": "Unaliased MB8/PE3",
  "ImageOrientationPatientDICOM": [0.998609, -0.0524601, -0.00532125, 0.0525096, 0.998574, 0.00963639],
  "ImageType": [
    "ORIGINAL",
    "PRIMARY",
    "M",
    "MB",
    "ND",
    "NORM",
    "MOSAIC"
],
  "ImagingFrequency": 123.252,
  "InPlanePhaseEncodingDirectionDICOM": "COL",
  "InstitutionAddress": "Maynard 3,Hanover,NH,US,03755",
  "InstitutionName": "Dartmouth College - PBS",
  "InstitutionalDepartmentName": "Department",
  "MRAcquisitionType": "2D",
  "MagneticFieldStrength": 3,
  "Manufacturer": "Siemens",
  "ManufacturersModelName": "Prisma",
  "Modality": "MR",
  "MultibandAccelerationFactor": 8,
  "PartialFourier": 1,
  "PatientPosition": "HFS",
  "PercentPhaseFOV": 100,
  "PercentSampling": 100,
  "PhaseEncodingDirection": "j-",
  "PhaseEncodingSteps": 82,
  "PhaseResolution": 1,
  "PixelBandwidth": 3050,
  "ProcedureStepDescription": "Wager_Wager^1076_spacetop",
  "ProtocolName": "func_run-03_task-alignvideo_acq-ap-mb8",
  "PulseSequenceDetails": "%CustomerSeq%\\cmrr_mbep2d_bold",
  "ReceiveCoilActiveElements": "HEA;HEP",
  "ReceiveCoilName": "Head_32",
  "ReconMatrixPE": 82,
  "RepetitionTime": 0.46,
  "SAR": 0.0768832,
  "ScanOptions": "FS",
  "ScanningSequence": "EP",
  "SequenceName": "epfid2d1_82",
  "SequenceVariant": "SK\\SS",
  "SeriesDescription": "func_run-03_task-alignvideo_acq-ap-mb8",
  "SeriesNumber": 32,
  "ShimSetting": [4143, -7768, -7262, 603, 0, -284, 100, 87],
  "SliceThickness": 2.7,
  "SliceTiming": [0, 0.25, 0.0625, 0.3125, 0.125, 0.375, 0.1875, 0, 0.25, 0.0625, 0.3125, 0.125, 0.375, 0.1875, 0, 0.25, 0.0625, 0.3125, 0.125, 0.375, 0.1875, 0, 0.25, 0.0625, 0.3125, 0.125, 0.375, 0.1875, 0, 0.25, 0.0625, 0.3125, 0.125, 0.375, 0.1875, 0, 0.25, 0.0625, 0.3125, 0.125, 0.375, 0.1875, 0, 0.25, 0.0625, 0.3125, 0.125, 0.375, 0.1875, 0, 0.25, 0.0625, 0.3125, 0.125, 0.375, 0.1875],
  "SoftwareVersions": "syngo MR E11",
  "SpacingBetweenSlices": 2.7,
  "StationName": "AWP66112",
  "TaskName": "alignvideo",
  "TotalReadoutTime": 0.03969,
  "TxRefAmp": 232.666,
  "WipMemBlock": "91744af0-eaf6-4f80-b953-e2e34c8dcda1||Sequence: R016 ve11c/master r/e634e98; Dec 19 2017 11:00:25 by eja",
  "dcmmeta_affine": [
    [-2.679194450378418, 0.14087949693202972, -0.012981964275240898, 108.51241302490234],
    [0.14074665307998657, 2.679100751876831, 0.026736486703157425, -102.32147216796875],
    [-0.014276523143053055, -0.025853732600808144, 2.699836492538452, -68.62352752685547],
    [0.0, 0.0, 0.0, 1.0]
],
  "dcmmeta_reorient_transform": [
    [0.0, -1.0, 0.0, 81.0],
    [1.0, 0.0, 0.0, 0.0],
    [0.0, 0.0, 1.0, 0.0],
    [0.0, 0.0, 0.0, 1.0]
],
  "dcmmeta_shape": [82, 82, 56, 1065],
  "dcmmeta_slice_dim": 2,
  "dcmmeta_version": 0.6,
  "global": {
    "const": {
      "AccessionNumber": "A003637",
      "AcquisitionMatrix": [82, 0, 0, 82],
      "AngioFlag": "N",
      "BitsAllocated": 16,
      "BitsStored": 16,
      "BodyPartExamined": "BRAIN",
      "Columns": 656,
      "EchoNumbers": 1,
      "EchoTime": 27.2,
      "EchoTrainLength": 82,
      "FlipAngle": 44.0,
      "HighBit": 15,
      "ImageOrientationPatient": [0.99860884260323, -0.0524601160806, -0.0053212494247, 0.05250963068941, 0.99857392247825, 0.00963639098704],
      "ImagePositionPatient": [-929.28489910675, -843.19334582601, -74.040336140021],
      "ImageType": [
        "ORIGINAL",
        "PRIMARY",
        "M",
        "MB",
        "ND",
        "NORM",
        "MOSAIC"
],
      "ImagedNucleus": "1H",
      "ImagingFrequency": 123.252186,
      "InPlanePhaseEncodingDirection": "COL",
      "MRAcquisitionType": "2D",
      "MagneticFieldStrength": 3.0,
      "Manufacturer": "SIEMENS",
      "ManufacturerModelName": "Prisma",
      "Modality": "MR",
      "NumberOfAverages": 1.0,
      "NumberOfPhaseEncodingSteps": 82,
      "PercentPhaseFieldOfView": 100.0,
      "PercentSampling": 100.0,
      "PerformedProcedureStepStartTime": "145943.218000",
      "PhotometricInterpretation": "MONOCHROME2",
      "PixelBandwidth": 3050.0,
      "PixelRepresentation": 0,
      "PixelSpacing": [2.6829268932343, 2.6829268932343],
      "ProtocolName": "func_run-03_task-alignvideo_acq-ap-mb8",
      "RepetitionTime": 460.0,
      "Rows": 656,
      "SAR": 0.07688325108089,
      "SamplesPerPixel": 1,
      "ScanOptions": "FS",
      "ScanningSequence": "EP",
      "SequenceName": "epfid2d1_82",
      "SequenceVariant": [
        "SK",
        "SS"
],
      "SeriesDescription": "func_run-03_task-alignvideo_acq-ap-mb8",
      "SeriesNumber": 32,
      "SeriesTime": "173053.890000",
      "SliceLocation": -70.154337495054,
      "SliceThickness": 2.7000000476837,
      "SmallestImagePixelValue": 0,
      "SoftwareVersions": "syngo MR E11",
      "SpacingBetweenSlices": 2.7000000457087,
      "SpecificCharacterSet": "ISO_IR 100",
      "StudyID": "1",
      "StudyTime": "145943.110000",
      "TransmitCoilName": "Body",
      "VariableFlipAngleFlag": "N",
      "WindowCenterWidthExplanation": "Algo1",
      "dBdt": 0.0},
    "slices": {}
  },
  "time": {
    "samples": {
      "AcquisitionNumber": [1, 2, 3, 4, 5, 6, 7, 8, 9, 10, 11, 12, 13, 14, 15, 16, 17, 18, 19, 20, 21, 22, 23, 24, 25, 26, 27, 28, 29, 30, 31, 32, 33, 34, 35, 36, 37, 38, 39, 40, 41, 42, 43, 44, 45, 46, 47, 48, 49, 50, 51, 52, 53, 54, 55, 56, 57, 58, 59, 60, 61, 62, 63, 64, 65, 66, 67, 68, 69, 70, 71, 72, 73, 74, 75, 76, 77, 78, 79, 80, 81, 82, 83, 84, 85, 86, 87, 88, 89, 90, 91, 92, 93, 94, 95, 96, 97, 98, 99, 100, 101, 102, 103, 104, 105, 106, 107, 108, 109, 110, 111, 112, 113, 114, 115, 116, 117, 118, 119, 120, 121, 122, 123, 124, 125, 126, 127, 128, 129, 130, 131, 132, 133, 134, 135, 136, 137, 138, 139, 140, 141, 142, 143, 144, 145, 146, 147, 148, 149, 150, 151, 152, 153, 154, 155, 156, 157, 158, 159, 160, 161, 162, 163, 164, 165, 166, 167, 168, 169, 170, 171, 172, 173, 174, 175, 176, 177, 178, 179, 180, 181, 182, 183, 184, 185, 186, 187, 188, 189, 190, 191, 192, 193, 194, 195, 196, 197, 198, 199, 200, 201, 202, 203, 204, 205, 206, 207, 208, 209, 210, 211, 212, 213, 214, 215, 216, 217, 218, 219, 220, 221, 222, 223, 224, 225, 226, 227, 228, 229, 230, 231, 232, 233, 234, 235, 236, 237, 238, 239, 240, 241, 242, 243, 244, 245, 246, 247, 248, 249, 250, 251, 252, 253, 254, 255, 256, 257, 258, 259, 260, 261, 262, 263, 264, 265, 266, 267, 268, 269, 270, 271, 272, 273, 274, 275, 276, 277, 278, 279, 280, 281, 282, 283, 284, 285, 286, 287, 288, 289, 290, 291, 292, 293, 294, 295, 296, 297, 298, 299, 300, 301, 302, 303, 304, 305, 306, 307, 308, 309, 310, 311, 312, 313, 314, 315, 316, 317, 318, 319, 320, 321, 322, 323, 324, 325, 326, 327, 328, 329, 330, 331, 332, 333, 334, 335, 336, 337, 338, 339, 340, 341, 342, 343, 344, 345, 346, 347, 348, 349, 350, 351, 352, 353, 354, 355, 356, 357, 358, 359, 360, 361, 362, 363, 364, 365, 366, 367, 368, 369, 370, 371, 372, 373, 374, 375, 376, 377, 378, 379, 380, 381, 382, 383, 384, 385, 386, 387, 388, 389, 390, 391, 392, 393, 394, 395, 396, 397, 398, 399, 400, 401, 402, 403, 404, 405, 406, 407, 408, 409, 410, 411, 412, 413, 414, 415, 416, 417, 418, 419, 420, 421, 422, 423, 424, 425, 426, 427, 428, 429, 430, 431, 432, 433, 434, 435, 436, 437, 438, 439, 440, 441, 442, 443, 444, 445, 446, 447, 448, 449, 450, 451, 452, 453, 454, 455, 456, 457, 458, 459, 460, 461, 462, 463, 464, 465, 466, 467, 468, 469, 470, 471, 472, 473, 474, 475, 476, 477, 478, 479, 480, 481, 482, 483, 484, 485, 486, 487, 488, 489, 490, 491, 492, 493, 494, 495, 496, 497, 498, 499, 500, 501, 502, 503, 504, 505, 506, 507, 508, 509, 510, 511, 512, 513, 514, 515, 516, 517, 518, 519, 520, 521, 522, 523, 524, 525, 526, 527, 528, 529, 530, 531, 532, 533, 534, 535, 536, 537, 538, 539, 540, 541, 542, 543, 544, 545, 546, 547, 548, 549, 550, 551, 552, 553, 554, 555, 556, 557, 558, 559, 560, 561, 562, 563, 564, 565, 566, 567, 568, 569, 570, 571, 572, 573, 574, 575, 576, 577, 578, 579, 580, 581, 582, 583, 584, 585, 586, 587, 588, 589, 590, 591, 592, 593, 594, 595, 596, 597, 598, 599, 600, 601, 602, 603, 604, 605, 606, 607, 608, 609, 610, 611, 612, 613, 614, 615, 616, 617, 618, 619, 620, 621, 622, 623, 624, 625, 626, 627, 628, 629, 630, 631, 632, 633, 634, 635, 636, 637, 638, 639, 640, 641, 642, 643, 644, 645, 646, 647, 648, 649, 650, 651, 652, 653, 654, 655, 656, 657, 658, 659, 660, 661, 662, 663, 664, 665, 666, 667, 668, 669, 670, 671, 672, 673, 674, 675, 676, 677, 678, 679, 680, 681, 682, 683, 684, 685, 686, 687, 688, 689, 690, 691, 692, 693, 694, 695, 696, 697, 698, 699, 700, 701, 702, 703, 704, 705, 706, 707, 708, 709, 710, 711, 712, 713, 714, 715, 716, 717, 718, 719, 720, 721, 722, 723, 724, 725, 726, 727, 728, 729, 730, 731, 732, 733, 734, 735, 736, 737, 738, 739, 740, 741, 742, 743, 744, 745, 746, 747, 748, 749, 750, 751, 752, 753, 754, 755, 756, 757, 758, 759, 760, 761, 762, 763, 764, 765, 766, 767, 768, 769, 770, 771, 772, 773, 774, 775, 776, 777, 778, 779, 780, 781, 782, 783, 784, 785, 786, 787, 788, 789, 790, 791, 792, 793, 794, 795, 796, 797, 798, 799, 800, 801, 802, 803, 804, 805, 806, 807, 808, 809, 810, 811, 812, 813, 814, 815, 816, 817, 818, 819, 820, 821, 822, 823, 824, 825, 826, 827, 828, 829, 830, 831, 832, 833, 834, 835, 836, 837, 838, 839, 840, 841, 842, 843, 844, 845, 846, 847, 848, 849, 850, 851, 852, 853, 854, 855, 856, 857, 858, 859, 860, 861, 862, 863, 864, 865, 866, 867, 868, 869, 870, 871, 872, 873, 874, 875, 876, 877, 878, 879, 880, 881, 882, 883, 884, 885, 886, 887, 888, 889, 890, 891, 892, 893, 894, 895, 896, 897, 898, 899, 900, 901, 902, 903, 904, 905, 906, 907, 908, 909, 910, 911, 912, 913, 914, 915, 916, 917, 918, 919, 920, 921, 922, 923, 924, 925, 926, 927, 928, 929, 930, 931, 932, 933, 934, 935, 936, 937, 938, 939, 940, 941, 942, 943, 944, 945, 946, 947, 948, 949, 950, 951, 952, 953, 954, 955, 956, 957, 958, 959, 960, 961, 962, 963, 964, 965, 966, 967, 968, 969, 970, 971, 972, 973, 974, 975, 976, 977, 978, 979, 980, 981, 982, 983, 984, 985, 986, 987, 988, 989, 990, 991, 992, 993, 994, 995, 996, 997, 998, 999, 1000, 1001, 1002, 1003, 1004, 1005, 1006, 1007, 1008, 1009, 1010, 1011, 1012, 1013, 1014, 1015, 1016, 1017, 1018, 1019, 1020, 1021, 1022, 1023, 1024, 1025, 1026, 1027, 1028, 1029, 1030, 1031, 1032, 1033, 1034, 1035, 1036, 1037, 1038, 1039, 1040, 1041, 1042, 1043, 1044, 1045, 1046, 1047, 1048, 1049, 1050, 1051, 1052, 1053, 1054, 1055, 1056, 1057, 1058, 1059, 1060, 1061, 1062, 1063, 1064, 1065],
      "AcquisitionTime": ["173029.910000", "173030.370000", "173030.830000", "173031.290000", "173031.750000", "173032.210000", "173032.670000", "173033.130000", "173033.590000", "173034.050000", "173034.510000", "173034.970000", "173035.430000", "173035.890000", "173036.350000", "173036.810000", "173037.270000", "173037.730000", "173038.190000", "173038.650000", "173039.110000", "173039.570000", "173040.030000", "173040.490000", "173040.950000", "173041.410000", "173041.870000", "173042.330000", "173042.790000", "173043.250000", "173043.710000", "173044.170000", "173044.630000", "173045.090000", "173045.550000", "173046.010000", "173046.470000", "173046.930000", "173047.390000", "173047.850000", "173048.310000", "173048.770000", "173049.230000", "173049.690000", "173050.150000", "173050.610000", "173051.070000", "173051.530000", "173051.990000", "173052.450000", "173052.910000", "173053.370000", "173053.830000", "173054.290000", "173054.750000", "173055.210000", "173055.670000", "173056.130000", "173056.590000", "173057.050000", "173057.510000", "173057.970000", "173058.430000", "173058.890000", "173059.350000", "173059.810000", "173100.270000", "173100.730000", "173101.190000", "173101.650000", "173102.110000", "173102.570000", "173103.030000", "173103.490000", "173103.950000", "173104.410000", "173104.870000", "173105.330000", "173105.790000", "173106.250000", "173106.710000", "173107.170000", "173107.630000", "173108.090000", "173108.550000", "173109.010000", "173109.470000", "173109.930000", "173110.390000", "173110.850000", "173111.310000", "173111.770000", "173112.230000", "173112.690000", "173113.150000", "173113.610000", "173114.070000", "173114.530000", "173114.990000", "173115.450000", "173115.910000", "173116.370000", "173116.830000", "173117.290000", "173117.750000", "173118.210000", "173118.670000", "173119.130000", "173119.590000", "173120.050000", "173120.510000", "173120.970000", "173121.430000", "173121.890000", "173122.350000", "173122.810000", "173123.270000", "173123.730000", "173124.190000", "173124.650000", "173125.110000", "173125.570000", "173126.030000", "173126.490000", "173126.950000", "173127.410000", "173127.870000", "173128.330000", "173128.790000", "173129.250000", "173129.710000", "173130.170000", "173130.630000", "173131.090000", "173131.550000", "173132.010000", "173132.470000", "173132.930000", "173133.390000", "173133.850000", "173134.310000", "173134.770000", "173135.230000", "173135.690000", "173136.150000", "173136.610000", "173137.070000", "173137.530000", "173137.990000", "173138.450000", "173138.910000", "173139.370000", "173139.830000", "173140.290000", "173140.750000", "173141.210000", "173141.670000", "173142.130000", "173142.590000", "173143.050000", "173143.510000", "173143.970000", "173144.430000", "173144.890000", "173145.350000", "173145.810000", "173146.270000", "173146.730000", "173147.190000", "173147.650000", "173148.110000", "173148.570000", "173149.030000", "173149.490000", "173149.950000", "173150.410000", "173150.870000", "173151.330000", "173151.790000", "173152.250000", "173152.710000", "173153.170000", "173153.630000", "173154.090000", "173154.550000", "173155.010000", "173155.470000", "173155.930000", "173156.390000", "173156.850000", "173157.310000", "173157.770000", "173158.230000", "173158.690000", "173159.150000", "173159.610000", "173200.070000", "173200.530000", "173200.990000", "173201.450000", "173201.910000", "173202.370000", "173202.830000", "173203.290000", "173203.750000", "173204.210000", "173204.670000", "173205.130000", "173205.590000", "173206.050000", "173206.510000", "173206.970000", "173207.430000", "173207.890000", "173208.350000", "173208.810000", "173209.270000", "173209.730000", "173210.190000", "173210.650000", "173211.110000", "173211.570000", "173212.030000", "173212.490000", "173212.950000", "173213.410000", "173213.870000", "173214.330000", "173214.790000", "173215.250000", "173215.710000", "173216.170000", "173216.630000", "173217.090000", "173217.550000", "173218.010000", "173218.470000", "173218.930000", "173219.390000", "173219.850000", "173220.310000", "173220.770000", "173221.230000", "173221.690000", "173222.150000", "173222.610000", "173223.070000", "173223.530000", "173223.990000", "173224.450000", "173224.910000", "173225.370000", "173225.830000", "173226.290000", "173226.750000", "173227.210000", "173227.670000", "173228.130000", "173228.590000", "173229.050000", "173229.510000", "173229.970000", "173230.430000", "173230.890000", "173231.350000", "173231.810000", "173232.270000", "173232.730000", "173233.190000", "173233.650000", "173234.110000", "173234.570000", "173235.030000", "173235.490000", "173235.950000", "173236.410000", "173236.870000", "173237.330000", "173237.790000", "173238.250000", "173238.710000", "173239.170000", "173239.630000", "173240.090000", "173240.550000", "173241.010000", "173241.470000", "173241.930000", "173242.390000", "173242.850000", "173243.310000", "173243.770000", "173244.230000", "173244.690000", "173245.150000", "173245.610000", "173246.070000", "173246.530000", "173246.990000", "173247.450000", "173247.910000", "173248.370000", "173248.830000", "173249.290000", "173249.750000", "173250.210000", "173250.670000", "173251.130000", "173251.590000", "173252.050000", "173252.510000", "173252.970000", "173253.430000", "173253.890000", "173254.350000", "173254.810000", "173255.270000", "173255.730000", "173256.190000", "173256.650000", "173257.110000", "173257.570000", "173258.030000", "173258.490000", "173258.950000", "173259.410000", "173259.870000", "173300.330000", "173300.790000", "173301.250000", "173301.710000", "173302.170000", "173302.630000", "173303.090000", "173303.550000", "173304.010000", "173304.470000", "173304.930000", "173305.390000", "173305.850000", "173306.310000", "173306.770000", "173307.230000", "173307.690000", "173308.150000", "173308.610000", "173309.070000", "173309.530000", "173309.990000", "173310.450000", "173310.910000", "173311.370000", "173311.830000", "173312.290000", "173312.750000", "173313.210000", "173313.670000", "173314.130000", "173314.590000", "173315.050000", "173315.510000", "173315.970000", "173316.430000", "173316.890000", "173317.350000", "173317.810000", "173318.270000", "173318.730000", "173319.190000", "173319.650000", "173320.110000", "173320.570000", "173321.030000", "173321.490000", "173321.950000", "173322.410000", "173322.870000", "173323.330000", "173323.790000", "173324.250000", "173324.710000", "173325.170000", "173325.630000", "173326.090000", "173326.550000", "173327.010000", "173327.470000", "173327.930000", "173328.390000", "173328.850000", "173329.310000", "173329.770000", "173330.230000", "173330.690000", "173331.150000", "173331.610000", "173332.070000", "173332.530000", "173332.990000", "173333.450000", "173333.910000", "173334.370000", "173334.830000", "173335.290000", "173335.750000", "173336.210000", "173336.670000", "173337.130000", "173337.590000", "173338.050000", "173338.510000", "173338.970000", "173339.430000", "173339.890000", "173340.350000", "173340.810000", "173341.270000", "173341.730000", "173342.190000", "173342.650000", "173343.110000", "173343.570000", "173344.030000", "173344.490000", "173344.950000", "173345.410000", "173345.870000", "173346.330000", "173346.790000", "173347.250000", "173347.710000", "173348.170000", "173348.630000", "173349.090000", "173349.550000", "173350.010000", "173350.470000", "173350.930000", "173351.390000", "173351.850000", "173352.310000", "173352.770000", "173353.230000", "173353.690000", "173354.150000", "173354.610000", "173355.070000", "173355.530000", "173355.990000", "173356.450000", "173356.910000", "173357.370000", "173357.830000", "173358.290000", "173358.750000", "173359.210000", "173359.670000", "173400.130000", "173400.590000", "173401.050000", "173401.510000", "173401.970000", "173402.430000", "173402.890000", "173403.350000", "173403.810000", "173404.270000", "173404.730000", "173405.190000", "173405.650000", "173406.110000", "173406.570000", "173407.030000", "173407.490000", "173407.950000", "173408.410000", "173408.870000", "173409.330000", "173409.790000", "173410.250000", "173410.710000", "173411.170000", "173411.630000", "173412.090000", "173412.550000", "173413.010000", "173413.470000", "173413.930000", "173414.390000", "173414.850000", "173415.310000", "173415.770000", "173416.230000", "173416.690000", "173417.150000", "173417.610000", "173418.070000", "173418.530000", "173418.990000", "173419.450000", "173419.910000", "173420.370000", "173420.830000", "173421.290000", "173421.750000", "173422.210000", "173422.670000", "173423.130000", "173423.590000", "173424.050000", "173424.510000", "173424.970000", "173425.430000", "173425.890000", "173426.350000", "173426.810000", "173427.270000", "173427.730000", "173428.190000", "173428.650000", "173429.110000", "173429.570000", "173430.030000", "173430.490000", "173430.950000", "173431.410000", "173431.870000", "173432.330000", "173432.790000", "173433.250000", "173433.710000", "173434.170000", "173434.630000", "173435.090000", "173435.550000", "173436.010000", "173436.470000", "173436.930000", "173437.390000", "173437.850000", "173438.310000", "173438.770000", "173439.230000", "173439.690000", "173440.150000", "173440.610000", "173441.070000", "173441.530000", "173441.990000", "173442.450000", "173442.910000", "173443.370000", "173443.830000", "173444.290000", "173444.750000", "173445.210000", "173445.670000", "173446.130000", "173446.590000", "173447.050000", "173447.510000", "173447.970000", "173448.430000", "173448.890000", "173449.350000", "173449.810000", "173450.270000", "173450.730000", "173451.190000", "173451.650000", "173452.110000", "173452.570000", "173453.030000", "173453.490000", "173453.950000", "173454.410000", "173454.870000", "173455.330000", "173455.790000", "173456.250000", "173456.710000", "173457.170000", "173457.630000", "173458.090000", "173458.550000", "173459.010000", "173459.470000", "173459.930000", "173500.390000", "173500.850000", "173501.310000", "173501.770000", "173502.230000", "173502.690000", "173503.150000", "173503.610000", "173504.070000", "173504.530000", "173504.990000", "173505.450000", "173505.910000", "173506.370000", "173506.830000", "173507.290000", "173507.750000", "173508.210000", "173508.670000", "173509.130000", "173509.590000", "173510.050000", "173510.510000", "173510.970000", "173511.430000", "173511.890000", "173512.350000", "173512.810000", "173513.270000", "173513.730000", "173514.190000", "173514.650000", "173515.110000", "173515.570000", "173516.030000", "173516.490000", "173516.950000", "173517.410000", "173517.870000", "173518.330000", "173518.790000", "173519.250000", "173519.710000", "173520.170000", "173520.630000", "173521.090000", "173521.550000", "173522.010000", "173522.470000", "173522.930000", "173523.390000", "173523.850000", "173524.310000", "173524.770000", "173525.230000", "173525.690000", "173526.150000", "173526.610000", "173527.070000", "173527.530000", "173527.990000", "173528.450000", "173528.910000", "173529.370000", "173529.830000", "173530.290000", "173530.750000", "173531.210000", "173531.670000", "173532.130000", "173532.590000", "173533.050000", "173533.510000", "173533.970000", "173534.430000", "173534.890000", "173535.350000", "173535.810000", "173536.270000", "173536.730000", "173537.190000", "173537.650000", "173538.110000", "173538.570000", "173539.030000", "173539.490000", "173539.950000", "173540.410000", "173540.870000", "173541.330000", "173541.790000", "173542.250000", "173542.710000", "173543.170000", "173543.630000", "173544.090000", "173544.550000", "173545.010000", "173545.470000", "173545.930000", "173546.390000", "173546.850000", "173547.310000", "173547.770000", "173548.230000", "173548.690000", "173549.150000", "173549.610000", "173550.070000", "173550.530000", "173550.990000", "173551.450000", "173551.910000", "173552.370000", "173552.830000", "173553.290000", "173553.750000", "173554.210000", "173554.670000", "173555.130000", "173555.590000", "173556.050000", "173556.510000", "173556.970000", "173557.430000", "173557.890000", "173558.350000", "173558.810000", "173559.270000", "173559.730000", "173600.190000", "173600.650000", "173601.110000", "173601.570000", "173602.030000", "173602.490000", "173602.950000", "173603.410000", "173603.870000", "173604.330000", "173604.790000", "173605.250000", "173605.710000", "173606.170000", "173606.630000", "173607.090000", "173607.550000", "173608.010000", "173608.470000", "173608.930000", "173609.390000", "173609.850000", "173610.310000", "173610.770000", "173611.230000", "173611.690000", "173612.150000", "173612.610000", "173613.070000", "173613.530000", "173613.990000", "173614.450000", "173614.910000", "173615.370000", "173615.830000", "173616.290000", "173616.750000", "173617.210000", "173617.670000", "173618.130000", "173618.590000", "173619.050000", "173619.510000", "173619.970000", "173620.430000", "173620.890000", "173621.350000", "173621.810000", "173622.270000", "173622.730000", "173623.190000", "173623.650000", "173624.110000", "173624.570000", "173625.030000", "173625.490000", "173625.950000", "173626.410000", "173626.870000", "173627.330000", "173627.790000", "173628.250000", "173628.710000", "173629.170000", "173629.630000", "173630.090000", "173630.550000", "173631.010000", "173631.470000", "173631.930000", "173632.390000", "173632.850000", "173633.310000", "173633.770000", "173634.230000", "173634.690000", "173635.150000", "173635.610000", "173636.070000", "173636.530000", "173636.990000", "173637.450000", "173637.910000", "173638.370000", "173638.830000", "173639.290000", "173639.750000", "173640.210000", "173640.670000", "173641.130000", "173641.590000", "173642.050000", "173642.510000", "173642.970000", "173643.430000", "173643.890000", "173644.350000", "173644.810000", "173645.270000", "173645.730000", "173646.190000", "173646.650000", "173647.110000", "173647.570000", "173648.030000", "173648.490000", "173648.950000", "173649.410000", "173649.870000", "173650.330000", "173650.790000", "173651.250000", "173651.710000", "173652.170000", "173652.630000", "173653.090000", "173653.550000", "173654.010000", "173654.470000", "173654.930000", "173655.390000", "173655.850000", "173656.310000", "173656.770000", "173657.230000", "173657.690000", "173658.150000", "173658.610000", "173659.070000", "173659.530000", "173659.990000", "173700.450000", "173700.910000", "173701.370000", "173701.830000", "173702.290000", "173702.750000", "173703.210000", "173703.670000", "173704.130000", "173704.590000", "173705.050000", "173705.510000", "173705.970000", "173706.430000", "173706.890000", "173707.350000", "173707.810000", "173708.270000", "173708.730000", "173709.190000", "173709.650000", "173710.110000", "173710.570000", "173711.030000", "173711.490000", "173711.950000", "173712.410000", "173712.870000", "173713.330000", "173713.790000", "173714.250000", "173714.710000", "173715.170000", "173715.630000", "173716.090000", "173716.550000", "173717.010000", "173717.470000", "173717.930000", "173718.390000", "173718.850000", "173719.310000", "173719.770000", "173720.230000", "173720.690000", "173721.150000", "173721.610000", "173722.070000", "173722.530000", "173722.990000", "173723.450000", "173723.910000", "173724.370000", "173724.830000", "173725.290000", "173725.750000", "173726.210000", "173726.670000", "173727.130000", "173727.590000", "173728.050000", "173728.510000", "173728.970000", "173729.430000", "173729.890000", "173730.350000", "173730.810000", "173731.270000", "173731.730000", "173732.190000", "173732.650000", "173733.110000", "173733.570000", "173734.030000", "173734.490000", "173734.950000", "173735.410000", "173735.870000", "173736.330000", "173736.790000", "173737.250000", "173737.710000", "173738.170000", "173738.630000", "173739.090000", "173739.550000", "173740.010000", "173740.470000", "173740.930000", "173741.390000", "173741.850000", "173742.310000", "173742.770000", "173743.230000", "173743.690000", "173744.150000", "173744.610000", "173745.070000", "173745.530000", "173745.990000", "173746.450000", "173746.910000", "173747.370000", "173747.830000", "173748.290000", "173748.750000", "173749.210000", "173749.670000", "173750.130000", "173750.590000", "173751.050000", "173751.510000", "173751.970000", "173752.430000", "173752.890000", "173753.350000", "173753.810000", "173754.270000", "173754.730000", "173755.190000", "173755.650000", "173756.110000", "173756.570000", "173757.030000", "173757.490000", "173757.950000", "173758.410000", "173758.870000", "173759.330000", "173759.790000", "173800.250000", "173800.710000", "173801.170000", "173801.630000", "173802.090000", "173802.550000", "173803.010000", "173803.470000", "173803.930000", "173804.390000", "173804.850000", "173805.310000", "173805.770000", "173806.230000", "173806.690000", "173807.150000", "173807.610000", "173808.070000", "173808.530000", "173808.990000", "173809.450000", "173809.910000", "173810.370000", "173810.830000", "173811.290000", "173811.750000", "173812.210000", "173812.670000", "173813.130000", "173813.590000", "173814.050000", "173814.510000", "173814.970000", "173815.430000", "173815.890000", "173816.350000", "173816.810000", "173817.270000", "173817.730000", "173818.190000", "173818.650000", "173819.110000", "173819.570000", "173820.030000", "173820.490000", "173820.950000", "173821.410000", "173821.870000", "173822.330000", "173822.790000", "173823.250000", "173823.710000", "173824.170000", "173824.630000", "173825.090000", "173825.550000", "173826.010000", "173826.470000", "173826.930000", "173827.390000", "173827.850000", "173828.310000", "173828.770000", "173829.230000", "173829.690000", "173830.150000", "173830.610000", "173831.070000", "173831.530000", "173831.990000", "173832.450000", "173832.910000", "173833.370000", "173833.830000", "173834.290000", "173834.750000", "173835.210000", "173835.670000", "173836.130000", "173836.590000", "173837.050000", "173837.510000", "173837.970000", "173838.430000", "173838.890000", "173839.350000"],
