{
  "AcquisitionMatrixPE": 82,
  "AcquisitionNumber": 1,
  "AcquisitionTime": "13:42:30.417500",
  "BandwidthPerPixelPhaseEncode": 24.888,
  "BaseResolution": 82,
  "BodyPartExamined": "BRAIN",
  "ConsistencyInfo": "N4_VE11E_LATEST_20181129",
  "ConversionSoftware": "dcm2niix",
  "ConversionSoftwareVersion": "v1.0.20201102",
  "DerivedVendorReportedEchoSpacing": 0.00049,
  "DeviceSerialNumber": "66112",
  "DwellTime": 2e-06,
  "EchoTime": 0.0272,
  "EchoTrainLength": 82,
  "EffectiveEchoSpacing": 0.00049,
  "FlipAngle": 44,
  "ImageComments": "Unaliased MB8/PE3",
  "ImageOrientationPatientDICOM": [0.99839, -0.0567223, 0.000205371, 0.0566926, 0.997973, 0.0289144],
  "ImageType": [
    "ORIGINAL",
    "PRIMARY",
    "M",
    "MB",
    "ND",
    "NORM",
    "MOSAIC"
],
  "ImagingFrequency": 123.252,
  "InPlanePhaseEncodingDirectionDICOM": "COL",
  "InstitutionAddress": "Maynard 3,Hanover,NH,US,03755",
  "InstitutionName": "Dartmouth College - PBS",
  "InstitutionalDepartmentName": "Department",
  "MRAcquisitionType": "2D",
  "MagneticFieldStrength": 3,
  "Manufacturer": "Siemens",
  "ManufacturersModelName": "Prisma",
  "Modality": "MR",
  "MultibandAccelerationFactor": 8,
  "PartialFourier": 1,
  "PatientPosition": "HFS",
  "PercentPhaseFOV": 100,
  "PercentSampling": 100,
  "PhaseEncodingDirection": "j-",
  "PhaseEncodingSteps": 82,
  "PhaseResolution": 1,
  "PixelBandwidth": 3050,
  "ProcedureStepDescription": "Wager_Wager^1076_spacetop",
  "ProtocolName": "func_run-01_task-social_acq-ap-mb8",
  "PulseSequenceDetails": "%CustomerSeq%\\cmrr_mbep2d_bold",
  "ReceiveCoilActiveElements": "HEA;HEP",
  "ReceiveCoilName": "Head_32",
  "ReconMatrixPE": 82,
  "RepetitionTime": 0.46,
  "SAR": 0.0885803,
  "ScanOptions": "FS",
  "ScanningSequence": "EP",
  "SequenceName": "epfid2d1_82",
  "SequenceVariant": "SK\\SS",
  "SeriesDescription": "func_run-01_task-social_acq-ap-mb8",
  "SeriesNumber": 12,
  "ShimSetting": [4150, -7744, -7297, 783, -52, -23, 71, 85],
  "SliceThickness": 2.7,
  "SliceTiming": [0, 0.2525, 0.0625, 0.315, 0.125, 0.3775, 0.19, 0, 0.2525, 0.0625, 0.315, 0.125, 0.3775, 0.19, 0, 0.2525, 0.0625, 0.315, 0.125, 0.3775, 0.19, 0, 0.2525, 0.0625, 0.315, 0.125, 0.3775, 0.19, 0, 0.2525, 0.0625, 0.315, 0.125, 0.3775, 0.19, 0, 0.2525, 0.0625, 0.315, 0.125, 0.3775, 0.19, 0, 0.2525, 0.0625, 0.315, 0.125, 0.3775, 0.19, 0, 0.2525, 0.0625, 0.315, 0.125, 0.3775, 0.19],
  "SoftwareVersions": "syngo MR E11",
  "SpacingBetweenSlices": 2.7,
  "StationName": "AWP66112",
  "TaskName": "social",
  "TotalReadoutTime": 0.03969,
  "TxRefAmp": 248.643,
  "WipMemBlock": "10df5c14-271b-4c6b-9285-dc270cc23534||Sequence: R016 ve11e/master r/434b28f1; Aug  7 2019 18:53:46 by eja",
  "dcmmeta_affine": [
    [-2.678607225418091, 0.15210221707820892, 0.00498161930590868, 104.63484954833984],
    [0.1521817445755005, 2.677488327026367, 0.07791166007518768, -101.07563018798828],
    [0.0005509963957592845, -0.07757513225078583, 2.698870897293091, -73.18771362304688],
    [0.0, 0.0, 0.0, 1.0]
],
  "dcmmeta_reorient_transform": [
    [0.0, -1.0, 0.0, 81.0],
    [1.0, 0.0, 0.0, 0.0],
    [0.0, 0.0, 1.0, 0.0],
    [0.0, 0.0, 0.0, 1.0]
],
  "dcmmeta_shape": [82, 82, 56, 872],
  "dcmmeta_slice_dim": 2,
  "dcmmeta_version": 0.6,
  "global": {
    "const": {
      "AccessionNumber": "A003921",
      "AcquisitionMatrix": [82, 0, 0, 82],
      "AngioFlag": "N",
      "BitsAllocated": 16,
      "BitsStored": 16,
      "BodyPartExamined": "BRAIN",
      "Columns": 656,
      "EchoNumbers": 1,
      "EchoTime": 27.2,
      "EchoTrainLength": 82,
      "FlipAngle": 44.0,
      "HighBit": 15,
      "ImageOrientationPatient": [0.9983899738479, -0.0567222878821, 0.00020537138966, 0.05669264442584, 0.99797289713111, 0.02891436770438],
      "ImagePositionPatient": [-929.36876254429, -840.56391209619, -101.89349845512],
      "ImageType": [
        "ORIGINAL",
        "PRIMARY",
        "M",
        "MB",
        "ND",
        "NORM",
        "MOSAIC"
],
      "ImagedNucleus": "1H",
      "ImagingFrequency": 123.2522,
      "InPlanePhaseEncodingDirection": "COL",
      "MRAcquisitionType": "2D",
      "MagneticFieldStrength": 3.0,
      "Manufacturer": "SIEMENS",
      "ManufacturerModelName": "Prisma",
      "Modality": "MR",
      "NumberOfAverages": 1.0,
      "NumberOfPhaseEncodingSteps": 82,
      "PercentPhaseFieldOfView": 100.0,
      "PercentSampling": 100.0,
      "PerformedProcedureStepStartTime": "130822.597000",
      "PhotometricInterpretation": "MONOCHROME2",
      "PixelBandwidth": 3050.0,
      "PixelRepresentation": 0,
      "PixelSpacing": [2.6829268932343, 2.6829268932343],
      "ProtocolName": "func_run-01_task-social_acq-ap-mb8",
      "RepetitionTime": 460.0,
      "Rows": 656,
      "SAR": 0.08858025650263,
      "SamplesPerPixel": 1,
      "ScanOptions": "FS",
      "ScanningSequence": "EP",
      "SequenceName": "epfid2d1_82",
      "SequenceVariant": [
        "SK",
        "SS"
],
      "SeriesDescription": "func_run-01_task-social_acq-ap-mb8",
      "SeriesNumber": 12,
      "SeriesTime": "134257.847000",
      "SliceLocation": -75.880710798348,
      "SliceThickness": 2.7000000476837,
      "SmallestImagePixelValue": 0,
      "SoftwareVersions": "syngo MR E11",
      "SpacingBetweenSlices": 2.6999999364374,
      "SpecificCharacterSet": "ISO_IR 100",
      "StudyID": "1",
      "StudyTime": "130822.466000",
      "TransmitCoilName": "Body",
      "VariableFlipAngleFlag": "N",
      "WindowCenterWidthExplanation": "Algo1"
    },
    "slices": {}
  },
  "time": {
    "samples": {
      "AcquisitionNumber": [1, 2, 3, 4, 5, 6, 7, 8, 9, 10, 11, 12, 13, 14, 15, 16, 17, 18, 19, 20, 21, 22, 23, 24, 25, 26, 27, 28, 29, 30, 31, 32, 33, 34, 35, 36, 37, 38, 39, 40, 41, 42, 43, 44, 45, 46, 47, 48, 49, 50, 51, 52, 53, 54, 55, 56, 57, 58, 59, 60, 61, 62, 63, 64, 65, 66, 67, 68, 69, 70, 71, 72, 73, 74, 75, 76, 77, 78, 79, 80, 81, 82, 83, 84, 85, 86, 87, 88, 89, 90, 91, 92, 93, 94, 95, 96, 97, 98, 99, 100, 101, 102, 103, 104, 105, 106, 107, 108, 109, 110, 111, 112, 113, 114, 115, 116, 117, 118, 119, 120, 121, 122, 123, 124, 125, 126, 127, 128, 129, 130, 131, 132, 133, 134, 135, 136, 137, 138, 139, 140, 141, 142, 143, 144, 145, 146, 147, 148, 149, 150, 151, 152, 153, 154, 155, 156, 157, 158, 159, 160, 161, 162, 163, 164, 165, 166, 167, 168, 169, 170, 171, 172, 173, 174, 175, 176, 177, 178, 179, 180, 181, 182, 183, 184, 185, 186, 187, 188, 189, 190, 191, 192, 193, 194, 195, 196, 197, 198, 199, 200, 201, 202, 203, 204, 205, 206, 207, 208, 209, 210, 211, 212, 213, 214, 215, 216, 217, 218, 219, 220, 221, 222, 223, 224, 225, 226, 227, 228, 229, 230, 231, 232, 233, 234, 235, 236, 237, 238, 239, 240, 241, 242, 243, 244, 245, 246, 247, 248, 249, 250, 251, 252, 253, 254, 255, 256, 257, 258, 259, 260, 261, 262, 263, 264, 265, 266, 267, 268, 269, 270, 271, 272, 273, 274, 275, 276, 277, 278, 279, 280, 281, 282, 283, 284, 285, 286, 287, 288, 289, 290, 291, 292, 293, 294, 295, 296, 297, 298, 299, 300, 301, 302, 303, 304, 305, 306, 307, 308, 309, 310, 311, 312, 313, 314, 315, 316, 317, 318, 319, 320, 321, 322, 323, 324, 325, 326, 327, 328, 329, 330, 331, 332, 333, 334, 335, 336, 337, 338, 339, 340, 341, 342, 343, 344, 345, 346, 347, 348, 349, 350, 351, 352, 353, 354, 355, 356, 357, 358, 359, 360, 361, 362, 363, 364, 365, 366, 367, 368, 369, 370, 371, 372, 373, 374, 375, 376, 377, 378, 379, 380, 381, 382, 383, 384, 385, 386, 387, 388, 389, 390, 391, 392, 393, 394, 395, 396, 397, 398, 399, 400, 401, 402, 403, 404, 405, 406, 407, 408, 409, 410, 411, 412, 413, 414, 415, 416, 417, 418, 419, 420, 421, 422, 423, 424, 425, 426, 427, 428, 429, 430, 431, 432, 433, 434, 435, 436, 437, 438, 439, 440, 441, 442, 443, 444, 445, 446, 447, 448, 449, 450, 451, 452, 453, 454, 455, 456, 457, 458, 459, 460, 461, 462, 463, 464, 465, 466, 467, 468, 469, 470, 471, 472, 473, 474, 475, 476, 477, 478, 479, 480, 481, 482, 483, 484, 485, 486, 487, 488, 489, 490, 491, 492, 493, 494, 495, 496, 497, 498, 499, 500, 501, 502, 503, 504, 505, 506, 507, 508, 509, 510, 511, 512, 513, 514, 515, 516, 517, 518, 519, 520, 521, 522, 523, 524, 525, 526, 527, 528, 529, 530, 531, 532, 533, 534, 535, 536, 537, 538, 539, 540, 541, 542, 543, 544, 545, 546, 547, 548, 549, 550, 551, 552, 553, 554, 555, 556, 557, 558, 559, 560, 561, 562, 563, 564, 565, 566, 567, 568, 569, 570, 571, 572, 573, 574, 575, 576, 577, 578, 579, 580, 581, 582, 583, 584, 585, 586, 587, 588, 589, 590, 591, 592, 593, 594, 595, 596, 597, 598, 599, 600, 601, 602, 603, 604, 605, 606, 607, 608, 609, 610, 611, 612, 613, 614, 615, 616, 617, 618, 619, 620, 621, 622, 623, 624, 625, 626, 627, 628, 629, 630, 631, 632, 633, 634, 635, 636, 637, 638, 639, 640, 641, 642, 643, 644, 645, 646, 647, 648, 649, 650, 651, 652, 653, 654, 655, 656, 657, 658, 659, 660, 661, 662, 663, 664, 665, 666, 667, 668, 669, 670, 671, 672, 673, 674, 675, 676, 677, 678, 679, 680, 681, 682, 683, 684, 685, 686, 687, 688, 689, 690, 691, 692, 693, 694, 695, 696, 697, 698, 699, 700, 701, 702, 703, 704, 705, 706, 707, 708, 709, 710, 711, 712, 713, 714, 715, 716, 717, 718, 719, 720, 721, 722, 723, 724, 725, 726, 727, 728, 729, 730, 731, 732, 733, 734, 735, 736, 737, 738, 739, 740, 741, 742, 743, 744, 745, 746, 747, 748, 749, 750, 751, 752, 753, 754, 755, 756, 757, 758, 759, 760, 761, 762, 763, 764, 765, 766, 767, 768, 769, 770, 771, 772, 773, 774, 775, 776, 777, 778, 779, 780, 781, 782, 783, 784, 785, 786, 787, 788, 789, 790, 791, 792, 793, 794, 795, 796, 797, 798, 799, 800, 801, 802, 803, 804, 805, 806, 807, 808, 809, 810, 811, 812, 813, 814, 815, 816, 817, 818, 819, 820, 821, 822, 823, 824, 825, 826, 827, 828, 829, 830, 831, 832, 833, 834, 835, 836, 837, 838, 839, 840, 841, 842, 843, 844, 845, 846, 847, 848, 849, 850, 851, 852, 853, 854, 855, 856, 857, 858, 859, 860, 861, 862, 863, 864, 865, 866, 867, 868, 869, 870, 871, 872],
      "AcquisitionTime": ["134230.417500", "134230.877500", "134231.337500", "134231.797500", "134232.257500", "134232.717500", "134233.177500", "134233.637500", "134234.097500", "134234.557500", "134235.017500", "134235.477500", "134235.937500", "134236.397500", "134236.857500", "134237.317500", "134237.777500", "134238.237500", "134238.697500", "134239.157500", "134239.617500", "134240.077500", "134240.537500", "134240.997500", "134241.457500", "134241.917500", "134242.377500", "134242.837500", "134243.297500", "134243.757500", "134244.217500", "134244.677500", "134245.137500", "134245.597500", "134246.057500", "134246.517500", "134246.977500", "134247.437500", "134247.897500", "134248.357500", "134248.817500", "134249.277500", "134249.737500", "134250.197500", "134250.657500", "134251.117500", "134251.577500", "134252.037500", "134252.497500", "134252.957500", "134253.417500", "134253.877500", "134254.337500", "134254.797500", "134255.257500", "134255.717500", "134256.177500", "134256.637500", "134257.097500", "134257.557500", "134258.017500", "134258.477500", "134258.937500", "134259.397500", "134259.857500", "134300.317500", "134300.777500", "134301.237500", "134301.697500", "134302.157500", "134302.617500", "134303.077500", "134303.537500", "134303.997500", "134304.457500", "134304.917500", "134305.377500", "134305.837500", "134306.297500", "134306.757500", "134307.217500", "134307.677500", "134308.137500", "134308.597500", "134309.057500", "134309.517500", "134309.977500", "134310.437500", "134310.897500", "134311.357500", "134311.817500", "134312.277500", "134312.737500", "134313.197500", "134313.657500", "134314.117500", "134314.577500", "134315.037500", "134315.497500", "134315.957500", "134316.417500", "134316.877500", "134317.337500", "134317.797500", "134318.257500", "134318.717500", "134319.177500", "134319.637500", "134320.097500", "134320.557500", "134321.017500", "134321.477500", "134321.937500", "134322.397500", "134322.857500", "134323.317500", "134323.777500", "134324.237500", "134324.697500", "134325.157500", "134325.617500", "134326.077500", "134326.537500", "134326.997500", "134327.457500", "134327.917500", "134328.377500", "134328.837500", "134329.297500", "134329.757500", "134330.217500", "134330.677500", "134331.137500", "134331.597500", "134332.057500", "134332.517500", "134332.977500", "134333.437500", "134333.897500", "134334.357500", "134334.817500", "134335.277500", "134335.737500", "134336.197500", "134336.657500", "134337.117500", "134337.577500", "134338.037500", "134338.497500", "134338.957500", "134339.417500", "134339.877500", "134340.337500", "134340.797500", "134341.257500", "134341.717500", "134342.177500", "134342.637500", "134343.097500", "134343.557500", "134344.017500", "134344.477500", "134344.937500", "134345.397500", "134345.857500", "134346.317500", "134346.777500", "134347.237500", "134347.697500", "134348.157500", "134348.617500", "134349.077500", "134349.537500", "134349.997500", "134350.457500", "134350.917500", "134351.377500", "134351.837500", "134352.297500", "134352.757500", "134353.217500", "134353.677500", "134354.137500", "134354.597500", "134355.057500", "134355.517500", "134355.977500", "134356.437500", "134356.897500", "134357.357500", "134357.817500", "134358.277500", "134358.737500", "134359.197500", "134359.657500", "134400.117500", "134400.577500", "134401.037500", "134401.497500", "134401.957500", "134402.417500", "134402.877500", "134403.337500", "134403.797500", "134404.257500", "134404.717500", "134405.177500", "134405.637500", "134406.097500", "134406.557500", "134407.017500", "134407.477500", "134407.937500", "134408.397500", "134408.857500", "134409.317500", "134409.777500", "134410.237500", "134410.697500", "134411.157500", "134411.617500", "134412.077500", "134412.537500", "134412.997500", "134413.457500", "134413.917500", "134414.377500", "134414.837500", "134415.297500", "134415.757500", "134416.217500", "134416.677500", "134417.137500", "134417.597500", "134418.057500", "134418.517500", "134418.977500", "134419.437500", "134419.897500", "134420.357500", "134420.817500", "134421.277500", "134421.737500", "134422.197500", "134422.657500", "134423.117500", "134423.577500", "134424.037500", "134424.497500", "134424.957500", "134425.417500", "134425.877500", "134426.337500", "134426.797500", "134427.257500", "134427.717500", "134428.177500", "134428.637500", "134429.097500", "134429.557500", "134430.017500", "134430.477500", "134430.937500", "134431.397500", "134431.857500", "134432.317500", "134432.777500", "134433.237500", "134433.697500", "134434.157500", "134434.617500", "134435.077500", "134435.537500", "134435.997500", "134436.457500", "134436.917500", "134437.377500", "134437.837500", "134438.297500", "134438.757500", "134439.217500", "134439.677500", "134440.137500", "134440.597500", "134441.057500", "134441.517500", "134441.977500", "134442.437500", "134442.897500", "134443.357500", "134443.817500", "134444.277500", "134444.737500", "134445.197500", "134445.657500", "134446.117500", "134446.577500", "134447.037500", "134447.497500", "134447.957500", "134448.417500", "134448.877500", "134449.337500", "134449.797500", "134450.257500", "134450.717500", "134451.177500", "134451.637500", "134452.097500", "134452.557500", "134453.017500", "134453.477500", "134453.937500", "134454.397500", "134454.857500", "134455.317500", "134455.777500", "134456.237500", "134456.697500", "134457.157500", "134457.617500", "134458.077500", "134458.537500", "134458.997500", "134459.457500", "134459.917500", "134500.377500", "134500.837500", "134501.297500", "134501.757500", "134502.217500", "134502.677500", "134503.137500", "134503.597500", "134504.057500", "134504.517500", "134504.977500", "134505.437500", "134505.897500", "134506.357500", "134506.817500", "134507.277500", "134507.737500", "134508.197500", "134508.657500", "134509.117500", "134509.577500", "134510.037500", "134510.497500", "134510.957500", "134511.417500", "134511.877500", "134512.337500", "134512.797500", "134513.257500", "134513.717500", "134514.177500", "134514.637500", "134515.097500", "134515.557500", "134516.017500", "134516.477500", "134516.937500", "134517.397500", "134517.857500", "134518.317500", "134518.777500", "134519.237500", "134519.697500", "134520.157500", "134520.617500", "134521.077500", "134521.537500", "134521.997500", "134522.457500", "134522.917500", "134523.377500", "134523.837500", "134524.297500", "134524.757500", "134525.217500", "134525.677500", "134526.137500", "134526.597500", "134527.057500", "134527.517500", "134527.977500", "134528.437500", "134528.897500", "134529.357500", "134529.817500", "134530.277500", "134530.737500", "134531.197500", "134531.657500", "134532.117500", "134532.577500", "134533.037500", "134533.497500", "134533.957500", "134534.417500", "134534.877500", "134535.337500", "134535.797500", "134536.257500", "134536.717500", "134537.177500", "134537.637500", "134538.097500", "134538.557500", "134539.017500", "134539.477500", "134539.937500", "134540.397500", "134540.857500", "134541.317500", "134541.777500", "134542.237500", "134542.697500", "134543.157500", "134543.617500", "134544.077500", "134544.537500", "134544.997500", "134545.457500", "134545.917500", "134546.377500", "134546.837500", "134547.297500", "134547.757500", "134548.217500", "134548.677500", "134549.137500", "134549.597500", "134550.057500", "134550.517500", "134550.977500", "134551.437500", "134551.897500", "134552.357500", "134552.817500", "134553.277500", "134553.737500", "134554.197500", "134554.657500", "134555.117500", "134555.577500", "134556.037500", "134556.497500", "134556.957500", "134557.417500", "134557.877500", "134558.337500", "134558.797500", "134559.257500", "134559.717500", "134600.177500", "134600.637500", "134601.097500", "134601.557500", "134602.017500", "134602.477500", "134602.937500", "134603.397500", "134603.857500", "134604.317500", "134604.777500", "134605.237500", "134605.697500", "134606.157500", "134606.617500", "134607.077500", "134607.537500", "134607.997500", "134608.457500", "134608.917500", "134609.377500", "134609.837500", "134610.297500", "134610.757500", "134611.217500", "134611.677500", "134612.137500", "134612.597500", "134613.057500", "134613.517500", "134613.977500", "134614.437500", "134614.897500", "134615.357500", "134615.817500", "134616.277500", "134616.737500", "134617.197500", "134617.657500", "134618.117500", "134618.577500", "134619.037500", "134619.497500", "134619.957500", "134620.417500", "134620.877500", "134621.337500", "134621.797500", "134622.257500", "134622.717500", "134623.177500", "134623.637500", "134624.097500", "134624.557500", "134625.017500", "134625.477500", "134625.937500", "134626.397500", "134626.857500", "134627.317500", "134627.777500", "134628.237500", "134628.697500", "134629.157500", "134629.617500", "134630.077500", "134630.537500", "134630.997500", "134631.457500", "134631.917500", "134632.377500", "134632.837500", "134633.297500", "134633.757500", "134634.217500", "134634.677500", "134635.137500", "134635.597500", "134636.057500", "134636.517500", "134636.977500", "134637.437500", "134637.897500", "134638.357500", "134638.817500", "134639.277500", "134639.737500", "134640.197500", "134640.657500", "134641.117500", "134641.577500", "134642.037500", "134642.497500", "134642.957500", "134643.417500", "134643.877500", "134644.337500", "134644.797500", "134645.257500", "134645.717500", "134646.177500", "134646.637500", "134647.097500", "134647.557500", "134648.017500", "134648.477500", "134648.937500", "134649.397500", "134649.857500", "134650.317500", "134650.777500", "134651.237500", "134651.697500", "134652.157500", "134652.617500", "134653.077500", "134653.537500", "134653.997500", "134654.457500", "134654.917500", "134655.377500", "134655.837500", "134656.297500", "134656.757500", "134657.217500", "134657.677500", "134658.137500", "134658.597500", "134659.057500", "134659.517500", "134659.977500", "134700.437500", "134700.897500", "134701.357500", "134701.817500", "134702.277500", "134702.737500", "134703.197500", "134703.657500", "134704.117500", "134704.577500", "134705.037500", "134705.497500", "134705.957500", "134706.417500", "134706.877500", "134707.337500", "134707.797500", "134708.257500", "134708.717500", "134709.177500", "134709.637500", "134710.097500", "134710.557500", "134711.017500", "134711.477500", "134711.937500", "134712.397500", "134712.857500", "134713.317500", "134713.777500", "134714.237500", "134714.697500", "134715.157500", "134715.617500", "134716.077500", "134716.537500", "134716.997500", "134717.457500", "134717.917500", "134718.377500", "134718.837500", "134719.297500", "134719.757500", "134720.217500", "134720.677500", "134721.137500", "134721.597500", "134722.057500", "134722.517500", "134722.977500", "134723.437500", "134723.897500", "134724.357500", "134724.817500", "134725.277500", "134725.737500", "134726.197500", "134726.657500", "134727.117500", "134727.577500", "134728.037500", "134728.497500", "134728.957500", "134729.417500", "134729.877500", "134730.337500", "134730.797500", "134731.257500", "134731.717500", "134732.177500", "134732.637500", "134733.097500", "134733.557500", "134734.017500", "134734.477500", "134734.937500", "134735.397500", "134735.857500", "134736.317500", "134736.777500", "134737.237500", "134737.697500", "134738.157500", "134738.617500", "134739.077500", "134739.537500", "134739.997500", "134740.457500", "134740.917500", "134741.377500", "134741.837500", "134742.297500", "134742.757500", "134743.217500", "134743.677500", "134744.137500", "134744.597500", "134745.057500", "134745.517500", "134745.977500", "134746.437500", "134746.897500", "134747.357500", "134747.817500", "134748.277500", "134748.737500", "134749.197500", "134749.657500", "134750.117500", "134750.577500", "134751.037500", "134751.497500", "134751.957500", "134752.417500", "134752.877500", "134753.337500", "134753.797500", "134754.257500", "134754.717500", "134755.177500", "134755.637500", "134756.097500", "134756.557500", "134757.017500", "134757.477500", "134757.937500", "134758.397500", "134758.857500", "134759.317500", "134759.777500", "134800.237500", "134800.697500", "134801.157500", "134801.617500", "134802.077500", "134802.537500", "134802.997500", "134803.457500", "134803.917500", "134804.377500", "134804.837500", "134805.297500", "134805.757500", "134806.217500", "134806.677500", "134807.137500", "134807.597500", "134808.057500", "134808.517500", "134808.977500", "134809.437500", "134809.897500", "134810.357500", "134810.817500", "134811.277500", "134811.737500", "134812.197500", "134812.657500", "134813.117500", "134813.577500", "134814.037500", "134814.497500", "134814.957500", "134815.417500", "134815.877500", "134816.337500", "134816.797500", "134817.257500", "134817.717500", "134818.177500", "134818.637500", "134819.097500", "134819.557500", "134820.017500", "134820.477500", "134820.937500", "134821.397500", "134821.857500", "134822.317500", "134822.777500", "134823.237500", "134823.697500", "134824.157500", "134824.617500", "134825.077500", "134825.537500", "134825.997500", "134826.457500", "134826.917500", "134827.377500", "134827.837500", "134828.297500", "134828.757500", "134829.217500", "134829.677500", "134830.137500", "134830.597500", "134831.057500", "134831.517500", "134831.977500", "134832.437500", "134832.897500", "134833.357500", "134833.817500", "134834.277500", "134834.737500", "134835.197500", "134835.657500", "134836.117500", "134836.577500", "134837.037500", "134837.497500", "134837.957500", "134838.417500", "134838.877500", "134839.337500", "134839.797500", "134840.257500", "134840.717500", "134841.177500", "134841.637500", "134842.097500", "134842.557500", "134843.017500", "134843.477500", "134843.937500", "134844.397500", "134844.857500", "134845.317500", "134845.777500", "134846.237500", "134846.697500", "134847.157500", "134847.617500", "134848.077500", "134848.537500", "134848.997500", "134849.457500", "134849.917500", "134850.377500", "134850.837500", "134851.297500", "134851.757500", "134852.217500", "134852.677500", "134853.137500", "134853.597500", "134854.057500", "134854.517500", "134854.977500", "134855.437500", "134855.897500", "134856.357500", "134856.817500", "134857.277500", "134857.737500", "134858.197500", "134858.657500", "134859.117500", "134859.577500", "134900.037500", "134900.497500", "134900.957500", "134901.417500", "134901.877500", "134902.337500", "134902.797500", "134903.257500", "134903.717500", "134904.177500", "134904.637500", "134905.097500", "134905.557500", "134906.017500", "134906.477500", "134906.937500", "134907.397500", "134907.857500", "134908.317500", "134908.777500", "134909.237500", "134909.697500", "134910.157500", "134910.617500", "134911.077500"],
