{
  "AcquisitionMatrixPE": 82,
  "AcquisitionNumber": 1,
  "AcquisitionTime": "11:27:20.792500",
  "BandwidthPerPixelPhaseEncode": 24.888,
  "BaseResolution": 82,
  "BodyPartExamined": "BRAIN",
  "ConsistencyInfo": "N4_VE11E_LATEST_20181129",
  "ConversionSoftware": "dcm2niix",
  "ConversionSoftwareVersion": "v1.0.20201102",
  "DerivedVendorReportedEchoSpacing": 0.00049,
  "DeviceSerialNumber": "66112",
  "DwellTime": 2e-06,
  "EchoTime": 0.0272,
  "EchoTrainLength": 82,
  "EffectiveEchoSpacing": 0.00049,
  "FlipAngle": 44,
  "ImageComments": "Unaliased MB8/PE3",
  "ImageOrientationPatientDICOM": [0.999204, 0.0349761, -0.019198, -0.03402, 0.998265, 0.0480522],
  "ImageType": [
    "ORIGINAL",
    "PRIMARY",
    "M",
    "MB",
    "ND",
    "NORM",
    "MOSAIC"
],
  "ImagingFrequency": 123.252,
  "InPlanePhaseEncodingDirectionDICOM": "COL",
  "InstitutionAddress": "Maynard 3,Hanover,NH,US,03755",
  "InstitutionName": "Dartmouth College - PBS",
  "InstitutionalDepartmentName": "Department",
  "MRAcquisitionType": "2D",
  "MagneticFieldStrength": 3,
  "Manufacturer": "Siemens",
  "ManufacturersModelName": "Prisma",
  "Modality": "MR",
  "MultibandAccelerationFactor": 8,
  "PartialFourier": 1,
  "PatientPosition": "HFS",
  "PercentPhaseFOV": 100,
  "PercentSampling": 100,
  "PhaseEncodingDirection": "j-",
  "PhaseEncodingSteps": 82,
  "PhaseResolution": 1,
  "PixelBandwidth": 3050,
  "ProcedureStepDescription": "Wager_Wager^1076_spacetop",
  "ProtocolName": "func_run-01_task-faces_acq-ap-mb8",
  "PulseSequenceDetails": "%CustomerSeq%\\cmrr_mbep2d_bold",
  "ReceiveCoilActiveElements": "HEA;HEP",
  "ReceiveCoilName": "Head_32",
  "ReconMatrixPE": 82,
  "RepetitionTime": 0.46,
  "SAR": 0.112628,
  "ScanOptions": "FS",
  "ScanningSequence": "EP",
  "SequenceName": "epfid2d1_82",
  "SequenceVariant": "SK\\SS",
  "SeriesDescription": "func_run-01_task-faces_acq-ap-mb8",
  "SeriesNumber": 16,
  "ShimSetting": [4143, -7770, -7267, 511, -29, -354, 53, 56],
  "SliceThickness": 2.7,
  "SliceTiming": [0, 0.25, 0.0625, 0.3125, 0.125, 0.375, 0.1875, 0, 0.25, 0.0625, 0.3125, 0.125, 0.375, 0.1875, 0, 0.25, 0.0625, 0.3125, 0.125, 0.375, 0.1875, 0, 0.25, 0.0625, 0.3125, 0.125, 0.375, 0.1875, 0, 0.25, 0.0625, 0.3125, 0.125, 0.375, 0.1875, 0, 0.25, 0.0625, 0.3125, 0.125, 0.375, 0.1875, 0, 0.25, 0.0625, 0.3125, 0.125, 0.375, 0.1875, 0, 0.25, 0.0625, 0.3125, 0.125, 0.375, 0.1875],
  "SoftwareVersions": "syngo MR E11",
  "SpacingBetweenSlices": 2.7,
  "StationName": "AWP66112",
  "TaskName": "faces",
  "TotalReadoutTime": 0.03969,
  "TxRefAmp": 289.863,
  "WipMemBlock": "021fcc64-834a-4b9c-baa4-cbe617f46f6c||Sequence: R016 ve11e/master r/434b28f1; Aug  7 2019 18:53:46 by eja",
  "dcmmeta_affine": [
    [-2.680790662765503, -0.09127312153577805, -0.05628253147006035, 121.1372299194336],
    [-0.09383823722600937, 2.6782729625701904, 0.12787416577339172, -90.65597534179688],
    [-0.051506850868463516, -0.12892049551010132, 2.696382999420166, -81.29553985595703],
    [0.0, 0.0, 0.0, 1.0]
],
  "dcmmeta_reorient_transform": [
    [0.0, -1.0, 0.0, 81.0],
    [1.0, 0.0, 0.0, 0.0],
    [0.0, 0.0, 1.0, 0.0],
    [0.0, 0.0, 0.0, 1.0]
],
  "dcmmeta_shape": [82, 82, 56, 914],
  "dcmmeta_slice_dim": 2,
  "dcmmeta_version": 0.6,
  "global": {
    "const": {
      "AccessionNumber": "A004106",
      "AcquisitionMatrix": [82, 0, 0, 82],
      "AngioFlag": "N",
      "BitsAllocated": 16,
      "BitsStored": 16,
      "BodyPartExamined": "BRAIN",
      "Columns": 656,
      "EchoNumbers": 1,
      "EchoTime": 27.2,
      "EchoTrainLength": 82,
      "FlipAngle": 44.0,
      "HighBit": 15,
      "ImageOrientationPatient": [0.99920373849743, 0.03497607030814, -0.0191980071509, -0.0340199803391, 0.99826530982046, 0.04805218149878],
      "ImagePositionPatient": [-856.93561859257, -921.88000729739, -113.95581435133],
      "ImageType": [
        "ORIGINAL",
        "PRIMARY",
        "M",
        "MB",
        "ND",
        "NORM",
        "MOSAIC"
],
      "ImagedNucleus": "1H",
      "ImagingFrequency": 123.252175,
      "InPlanePhaseEncodingDirection": "COL",
      "MRAcquisitionType": "2D",
      "MagneticFieldStrength": 3.0,
      "Manufacturer": "SIEMENS",
      "ManufacturerModelName": "Prisma",
      "Modality": "MR",
      "NumberOfAverages": 1.0,
      "NumberOfPhaseEncodingSteps": 82,
      "PercentPhaseFieldOfView": 100.0,
      "PercentSampling": 100.0,
      "PerformedProcedureStepStartTime": "103857.941000",
      "PhotometricInterpretation": "MONOCHROME2",
      "PixelBandwidth": 3050.0,
      "PixelRepresentation": 0,
      "PixelSpacing": [2.6829268932343, 2.6829268932343],
      "ProtocolName": "func_run-01_task-faces_acq-ap-mb8",
      "RepetitionTime": 460.0,
      "Rows": 656,
      "SAR": 0.11262815589304,
      "SamplesPerPixel": 1,
      "ScanOptions": "FS",
      "ScanningSequence": "EP",
      "SequenceName": "epfid2d1_82",
      "SequenceVariant": [
        "SK",
        "SS"
],
      "SeriesDescription": "func_run-01_task-faces_acq-ap-mb8",
      "SeriesNumber": 16,
      "SeriesTime": "112745.461000",
      "SliceLocation": -88.005320985078,
      "SliceThickness": 2.7000000476837,
      "SmallestImagePixelValue": 0,
      "SoftwareVersions": "syngo MR E11",
      "SpacingBetweenSlices": 2.7000000538417,
      "SpecificCharacterSet": "ISO_IR 100",
      "StudyID": "2",
      "StudyTime": "103857.842000",
      "TransmitCoilName": "Body",
      "VariableFlipAngleFlag": "N",
      "WindowCenterWidthExplanation": "Algo1"
    },
    "slices": {}
  },
  "time": {
    "samples": {
      "AcquisitionNumber": [1, 2, 3, 4, 5, 6, 7, 8, 9, 10, 11, 12, 13, 14, 15, 16, 17, 18, 19, 20, 21, 22, 23, 24, 25, 26, 27, 28, 29, 30, 31, 32, 33, 34, 35, 36, 37, 38, 39, 40, 41, 42, 43, 44, 45, 46, 47, 48, 49, 50, 51, 52, 53, 54, 55, 56, 57, 58, 59, 60, 61, 62, 63, 64, 65, 66, 67, 68, 69, 70, 71, 72, 73, 74, 75, 76, 77, 78, 79, 80, 81, 82, 83, 84, 85, 86, 87, 88, 89, 90, 91, 92, 93, 94, 95, 96, 97, 98, 99, 100, 101, 102, 103, 104, 105, 106, 107, 108, 109, 110, 111, 112, 113, 114, 115, 116, 117, 118, 119, 120, 121, 122, 123, 124, 125, 126, 127, 128, 129, 130, 131, 132, 133, 134, 135, 136, 137, 138, 139, 140, 141, 142, 143, 144, 145, 146, 147, 148, 149, 150, 151, 152, 153, 154, 155, 156, 157, 158, 159, 160, 161, 162, 163, 164, 165, 166, 167, 168, 169, 170, 171, 172, 173, 174, 175, 176, 177, 178, 179, 180, 181, 182, 183, 184, 185, 186, 187, 188, 189, 190, 191, 192, 193, 194, 195, 196, 197, 198, 199, 200, 201, 202, 203, 204, 205, 206, 207, 208, 209, 210, 211, 212, 213, 214, 215, 216, 217, 218, 219, 220, 221, 222, 223, 224, 225, 226, 227, 228, 229, 230, 231, 232, 233, 234, 235, 236, 237, 238, 239, 240, 241, 242, 243, 244, 245, 246, 247, 248, 249, 250, 251, 252, 253, 254, 255, 256, 257, 258, 259, 260, 261, 262, 263, 264, 265, 266, 267, 268, 269, 270, 271, 272, 273, 274, 275, 276, 277, 278, 279, 280, 281, 282, 283, 284, 285, 286, 287, 288, 289, 290, 291, 292, 293, 294, 295, 296, 297, 298, 299, 300, 301, 302, 303, 304, 305, 306, 307, 308, 309, 310, 311, 312, 313, 314, 315, 316, 317, 318, 319, 320, 321, 322, 323, 324, 325, 326, 327, 328, 329, 330, 331, 332, 333, 334, 335, 336, 337, 338, 339, 340, 341, 342, 343, 344, 345, 346, 347, 348, 349, 350, 351, 352, 353, 354, 355, 356, 357, 358, 359, 360, 361, 362, 363, 364, 365, 366, 367, 368, 369, 370, 371, 372, 373, 374, 375, 376, 377, 378, 379, 380, 381, 382, 383, 384, 385, 386, 387, 388, 389, 390, 391, 392, 393, 394, 395, 396, 397, 398, 399, 400, 401, 402, 403, 404, 405, 406, 407, 408, 409, 410, 411, 412, 413, 414, 415, 416, 417, 418, 419, 420, 421, 422, 423, 424, 425, 426, 427, 428, 429, 430, 431, 432, 433, 434, 435, 436, 437, 438, 439, 440, 441, 442, 443, 444, 445, 446, 447, 448, 449, 450, 451, 452, 453, 454, 455, 456, 457, 458, 459, 460, 461, 462, 463, 464, 465, 466, 467, 468, 469, 470, 471, 472, 473, 474, 475, 476, 477, 478, 479, 480, 481, 482, 483, 484, 485, 486, 487, 488, 489, 490, 491, 492, 493, 494, 495, 496, 497, 498, 499, 500, 501, 502, 503, 504, 505, 506, 507, 508, 509, 510, 511, 512, 513, 514, 515, 516, 517, 518, 519, 520, 521, 522, 523, 524, 525, 526, 527, 528, 529, 530, 531, 532, 533, 534, 535, 536, 537, 538, 539, 540, 541, 542, 543, 544, 545, 546, 547, 548, 549, 550, 551, 552, 553, 554, 555, 556, 557, 558, 559, 560, 561, 562, 563, 564, 565, 566, 567, 568, 569, 570, 571, 572, 573, 574, 575, 576, 577, 578, 579, 580, 581, 582, 583, 584, 585, 586, 587, 588, 589, 590, 591, 592, 593, 594, 595, 596, 597, 598, 599, 600, 601, 602, 603, 604, 605, 606, 607, 608, 609, 610, 611, 612, 613, 614, 615, 616, 617, 618, 619, 620, 621, 622, 623, 624, 625, 626, 627, 628, 629, 630, 631, 632, 633, 634, 635, 636, 637, 638, 639, 640, 641, 642, 643, 644, 645, 646, 647, 648, 649, 650, 651, 652, 653, 654, 655, 656, 657, 658, 659, 660, 661, 662, 663, 664, 665, 666, 667, 668, 669, 670, 671, 672, 673, 674, 675, 676, 677, 678, 679, 680, 681, 682, 683, 684, 685, 686, 687, 688, 689, 690, 691, 692, 693, 694, 695, 696, 697, 698, 699, 700, 701, 702, 703, 704, 705, 706, 707, 708, 709, 710, 711, 712, 713, 714, 715, 716, 717, 718, 719, 720, 721, 722, 723, 724, 725, 726, 727, 728, 729, 730, 731, 732, 733, 734, 735, 736, 737, 738, 739, 740, 741, 742, 743, 744, 745, 746, 747, 748, 749, 750, 751, 752, 753, 754, 755, 756, 757, 758, 759, 760, 761, 762, 763, 764, 765, 766, 767, 768, 769, 770, 771, 772, 773, 774, 775, 776, 777, 778, 779, 780, 781, 782, 783, 784, 785, 786, 787, 788, 789, 790, 791, 792, 793, 794, 795, 796, 797, 798, 799, 800, 801, 802, 803, 804, 805, 806, 807, 808, 809, 810, 811, 812, 813, 814, 815, 816, 817, 818, 819, 820, 821, 822, 823, 824, 825, 826, 827, 828, 829, 830, 831, 832, 833, 834, 835, 836, 837, 838, 839, 840, 841, 842, 843, 844, 845, 846, 847, 848, 849, 850, 851, 852, 853, 854, 855, 856, 857, 858, 859, 860, 861, 862, 863, 864, 865, 866, 867, 868, 869, 870, 871, 872, 873, 874, 875, 876, 877, 878, 879, 880, 881, 882, 883, 884, 885, 886, 887, 888, 889, 890, 891, 892, 893, 894, 895, 896, 897, 898, 899, 900, 901, 902, 903, 904, 905, 906, 907, 908, 909, 910, 911, 912, 913, 914],
      "AcquisitionTime": ["112720.792500", "112721.252500", "112721.712500", "112722.172500", "112722.632500", "112723.092500", "112723.552500", "112724.012500", "112724.472500", "112724.932500", "112725.392500", "112725.852500", "112726.312500", "112726.772500", "112727.232500", "112727.692500", "112728.152500", "112728.612500", "112729.072500", "112729.532500", "112729.992500", "112730.452500", "112730.912500", "112731.372500", "112731.832500", "112732.292500", "112732.752500", "112733.212500", "112733.672500", "112734.132500", "112734.592500", "112735.052500", "112735.512500", "112735.972500", "112736.432500", "112736.892500", "112737.352500", "112737.812500", "112738.272500", "112738.732500", "112739.192500", "112739.652500", "112740.112500", "112740.572500", "112741.032500", "112741.492500", "112741.952500", "112742.412500", "112742.872500", "112743.332500", "112743.792500", "112744.252500", "112744.712500", "112745.172500", "112745.632500", "112746.092500", "112746.552500", "112747.012500", "112747.472500", "112747.932500", "112748.392500", "112748.852500", "112749.312500", "112749.772500", "112750.232500", "112750.692500", "112751.152500", "112751.612500", "112752.072500", "112752.532500", "112752.992500", "112753.452500", "112753.912500", "112754.372500", "112754.832500", "112755.292500", "112755.752500", "112756.212500", "112756.672500", "112757.132500", "112757.592500", "112758.052500", "112758.512500", "112758.972500", "112759.432500", "112759.892500", "112800.352500", "112800.812500", "112801.272500", "112801.732500", "112802.192500", "112802.652500", "112803.112500", "112803.572500", "112804.032500", "112804.492500", "112804.952500", "112805.412500", "112805.872500", "112806.332500", "112806.792500", "112807.252500", "112807.712500", "112808.172500", "112808.632500", "112809.092500", "112809.552500", "112810.012500", "112810.472500", "112810.932500", "112811.392500", "112811.852500", "112812.312500", "112812.772500", "112813.232500", "112813.692500", "112814.152500", "112814.612500", "112815.072500", "112815.532500", "112815.992500", "112816.452500", "112816.912500", "112817.372500", "112817.832500", "112818.292500", "112818.752500", "112819.212500", "112819.672500", "112820.132500", "112820.592500", "112821.052500", "112821.512500", "112821.972500", "112822.432500", "112822.892500", "112823.352500", "112823.812500", "112824.272500", "112824.732500", "112825.192500", "112825.652500", "112826.112500", "112826.572500", "112827.032500", "112827.492500", "112827.952500", "112828.412500", "112828.872500", "112829.332500", "112829.792500", "112830.252500", "112830.712500", "112831.172500", "112831.632500", "112832.092500", "112832.552500", "112833.012500", "112833.472500", "112833.932500", "112834.392500", "112834.852500", "112835.312500", "112835.772500", "112836.232500", "112836.692500", "112837.152500", "112837.612500", "112838.072500", "112838.532500", "112838.992500", "112839.452500", "112839.912500", "112840.372500", "112840.832500", "112841.292500", "112841.752500", "112842.212500", "112842.672500", "112843.132500", "112843.592500", "112844.052500", "112844.512500", "112844.972500", "112845.432500", "112845.892500", "112846.352500", "112846.812500", "112847.272500", "112847.732500", "112848.192500", "112848.652500", "112849.112500", "112849.572500", "112850.032500", "112850.492500", "112850.952500", "112851.412500", "112851.872500", "112852.332500", "112852.792500", "112853.252500", "112853.712500", "112854.172500", "112854.632500", "112855.092500", "112855.552500", "112856.012500", "112856.472500", "112856.932500", "112857.392500", "112857.852500", "112858.312500", "112858.772500", "112859.232500", "112859.692500", "112900.152500", "112900.612500", "112901.072500", "112901.532500", "112901.992500", "112902.452500", "112902.912500", "112903.372500", "112903.832500", "112904.292500", "112904.752500", "112905.212500", "112905.672500", "112906.132500", "112906.592500", "112907.052500", "112907.512500", "112907.972500", "112908.432500", "112908.892500", "112909.352500", "112909.812500", "112910.272500", "112910.732500", "112911.192500", "112911.652500", "112912.112500", "112912.572500", "112913.032500", "112913.492500", "112913.952500", "112914.412500", "112914.872500", "112915.332500", "112915.792500", "112916.252500", "112916.712500", "112917.172500", "112917.632500", "112918.092500", "112918.552500", "112919.012500", "112919.472500", "112919.932500", "112920.392500", "112920.852500", "112921.312500", "112921.772500", "112922.232500", "112922.692500", "112923.152500", "112923.612500", "112924.072500", "112924.532500", "112924.992500", "112925.452500", "112925.912500", "112926.372500", "112926.832500", "112927.292500", "112927.752500", "112928.212500", "112928.672500", "112929.132500", "112929.592500", "112930.052500", "112930.512500", "112930.972500", "112931.432500", "112931.892500", "112932.352500", "112932.812500", "112933.272500", "112933.732500", "112934.192500", "112934.652500", "112935.112500", "112935.572500", "112936.032500", "112936.492500", "112936.952500", "112937.412500", "112937.872500", "112938.332500", "112938.792500", "112939.252500", "112939.712500", "112940.172500", "112940.632500", "112941.092500", "112941.552500", "112942.012500", "112942.472500", "112942.932500", "112943.392500", "112943.852500", "112944.312500", "112944.772500", "112945.232500", "112945.692500", "112946.152500", "112946.612500", "112947.072500", "112947.532500", "112947.992500", "112948.452500", "112948.912500", "112949.372500", "112949.832500", "112950.292500", "112950.752500", "112951.212500", "112951.672500", "112952.132500", "112952.592500", "112953.052500", "112953.512500", "112953.972500", "112954.432500", "112954.892500", "112955.352500", "112955.812500", "112956.272500", "112956.732500", "112957.192500", "112957.652500", "112958.112500", "112958.572500", "112959.032500", "112959.492500", "112959.952500", "113000.412500", "113000.872500", "113001.332500", "113001.792500", "113002.252500", "113002.712500", "113003.172500", "113003.632500", "113004.092500", "113004.552500", "113005.012500", "113005.472500", "113005.932500", "113006.392500", "113006.852500", "113007.312500", "113007.772500", "113008.232500", "113008.692500", "113009.152500", "113009.612500", "113010.072500", "113010.532500", "113010.992500", "113011.452500", "113011.912500", "113012.372500", "113012.832500", "113013.292500", "113013.752500", "113014.212500", "113014.672500", "113015.132500", "113015.592500", "113016.052500", "113016.512500", "113016.972500", "113017.432500", "113017.892500", "113018.352500", "113018.812500", "113019.272500", "113019.732500", "113020.192500", "113020.652500", "113021.112500", "113021.572500", "113022.032500", "113022.492500", "113022.952500", "113023.412500", "113023.872500", "113024.332500", "113024.792500", "113025.252500", "113025.712500", "113026.172500", "113026.632500", "113027.092500", "113027.552500", "113028.012500", "113028.472500", "113028.932500", "113029.392500", "113029.852500", "113030.312500", "113030.772500", "113031.232500", "113031.692500", "113032.152500", "113032.612500", "113033.072500", "113033.532500", "113033.992500", "113034.452500", "113034.912500", "113035.372500", "113035.832500", "113036.292500", "113036.752500", "113037.212500", "113037.672500", "113038.132500", "113038.592500", "113039.052500", "113039.512500", "113039.972500", "113040.432500", "113040.892500", "113041.352500", "113041.812500", "113042.272500", "113042.732500", "113043.192500", "113043.652500", "113044.112500", "113044.572500", "113045.032500", "113045.492500", "113045.952500", "113046.412500", "113046.872500", "113047.332500", "113047.792500", "113048.252500", "113048.712500", "113049.172500", "113049.632500", "113050.092500", "113050.552500", "113051.012500", "113051.472500", "113051.932500", "113052.392500", "113052.852500", "113053.312500", "113053.772500", "113054.232500", "113054.692500", "113055.152500", "113055.612500", "113056.072500", "113056.532500", "113056.992500", "113057.452500", "113057.912500", "113058.372500", "113058.832500", "113059.292500", "113059.752500", "113100.212500", "113100.672500", "113101.132500", "113101.592500", "113102.052500", "113102.512500", "113102.972500", "113103.432500", "113103.892500", "113104.352500", "113104.812500", "113105.272500", "113105.732500", "113106.192500", "113106.652500", "113107.112500", "113107.572500", "113108.032500", "113108.492500", "113108.952500", "113109.412500", "113109.872500", "113110.332500", "113110.792500", "113111.252500", "113111.712500", "113112.172500", "113112.632500", "113113.092500", "113113.552500", "113114.012500", "113114.472500", "113114.932500", "113115.392500", "113115.852500", "113116.312500", "113116.772500", "113117.232500", "113117.692500", "113118.152500", "113118.612500", "113119.072500", "113119.532500", "113119.992500", "113120.452500", "113120.912500", "113121.372500", "113121.832500", "113122.292500", "113122.752500", "113123.212500", "113123.672500", "113124.132500", "113124.592500", "113125.052500", "113125.512500", "113125.972500", "113126.432500", "113126.892500", "113127.352500", "113127.812500", "113128.272500", "113128.732500", "113129.192500", "113129.652500", "113130.112500", "113130.572500", "113131.032500", "113131.492500", "113131.952500", "113132.412500", "113132.872500", "113133.332500", "113133.792500", "113134.252500", "113134.712500", "113135.172500", "113135.632500", "113136.092500", "113136.552500", "113137.012500", "113137.472500", "113137.932500", "113138.392500", "113138.852500", "113139.312500", "113139.772500", "113140.232500", "113140.692500", "113141.152500", "113141.612500", "113142.072500", "113142.532500", "113142.992500", "113143.452500", "113143.912500", "113144.372500", "113144.832500", "113145.292500", "113145.752500", "113146.212500", "113146.672500", "113147.132500", "113147.592500", "113148.052500", "113148.512500", "113148.972500", "113149.432500", "113149.892500", "113150.352500", "113150.812500", "113151.272500", "113151.732500", "113152.192500", "113152.652500", "113153.112500", "113153.572500", "113154.032500", "113154.492500", "113154.952500", "113155.412500", "113155.872500", "113156.332500", "113156.792500", "113157.252500", "113157.712500", "113158.172500", "113158.632500", "113159.092500", "113159.552500", "113200.012500", "113200.472500", "113200.932500", "113201.392500", "113201.852500", "113202.312500", "113202.772500", "113203.232500", "113203.692500", "113204.152500", "113204.612500", "113205.072500", "113205.532500", "113205.992500", "113206.452500", "113206.912500", "113207.372500", "113207.832500", "113208.292500", "113208.752500", "113209.212500", "113209.672500", "113210.132500", "113210.592500", "113211.052500", "113211.512500", "113211.972500", "113212.432500", "113212.892500", "113213.352500", "113213.812500", "113214.272500", "113214.732500", "113215.192500", "113215.652500", "113216.112500", "113216.572500", "113217.032500", "113217.492500", "113217.952500", "113218.412500", "113218.872500", "113219.332500", "113219.792500", "113220.252500", "113220.712500", "113221.172500", "113221.632500", "113222.092500", "113222.552500", "113223.012500", "113223.472500", "113223.932500", "113224.392500", "113224.852500", "113225.312500", "113225.772500", "113226.232500", "113226.692500", "113227.152500", "113227.612500", "113228.072500", "113228.532500", "113228.992500", "113229.452500", "113229.912500", "113230.372500", "113230.832500", "113231.292500", "113231.752500", "113232.212500", "113232.672500", "113233.132500", "113233.592500", "113234.052500", "113234.512500", "113234.972500", "113235.432500", "113235.892500", "113236.352500", "113236.812500", "113237.272500", "113237.732500", "113238.192500", "113238.652500", "113239.112500", "113239.572500", "113240.032500", "113240.492500", "113240.952500", "113241.412500", "113241.872500", "113242.332500", "113242.792500", "113243.252500", "113243.712500", "113244.172500", "113244.632500", "113245.092500", "113245.552500", "113246.012500", "113246.472500", "113246.932500", "113247.392500", "113247.852500", "113248.312500", "113248.772500", "113249.232500", "113249.692500", "113250.152500", "113250.612500", "113251.072500", "113251.532500", "113251.992500", "113252.452500", "113252.912500", "113253.372500", "113253.832500", "113254.292500", "113254.752500", "113255.212500", "113255.672500", "113256.132500", "113256.592500", "113257.052500", "113257.512500", "113257.972500", "113258.432500", "113258.892500", "113259.352500", "113259.812500", "113300.272500", "113300.732500", "113301.192500", "113301.652500", "113302.112500", "113302.572500", "113303.032500", "113303.492500", "113303.952500", "113304.412500", "113304.872500", "113305.332500", "113305.792500", "113306.252500", "113306.712500", "113307.172500", "113307.632500", "113308.092500", "113308.552500", "113309.012500", "113309.472500", "113309.932500", "113310.392500", "113310.852500", "113311.312500", "113311.772500", "113312.232500", "113312.692500", "113313.152500", "113313.612500", "113314.072500", "113314.532500", "113314.992500", "113315.452500", "113315.912500", "113316.372500", "113316.832500", "113317.292500", "113317.752500", "113318.212500", "113318.672500", "113319.132500", "113319.592500", "113320.052500", "113320.512500", "113320.972500", "113321.432500", "113321.892500", "113322.352500", "113322.812500", "113323.272500", "113323.732500", "113324.192500", "113324.652500", "113325.112500", "113325.572500", "113326.032500", "113326.492500", "113326.952500", "113327.412500", "113327.872500", "113328.332500", "113328.792500", "113329.252500", "113329.712500", "113330.172500", "113330.632500", "113331.092500", "113331.552500", "113332.012500", "113332.472500", "113332.932500", "113333.392500", "113333.852500", "113334.312500", "113334.772500", "113335.232500", "113335.692500", "113336.152500", "113336.612500", "113337.072500", "113337.532500", "113337.992500", "113338.452500", "113338.912500", "113339.372500", "113339.832500", "113340.292500", "113340.752500", "113341.212500", "113341.672500", "113342.132500", "113342.592500", "113343.052500", "113343.512500", "113343.972500", "113344.432500", "113344.892500", "113345.352500", "113345.812500", "113346.272500", "113346.732500", "113347.192500", "113347.652500", "113348.112500", "113348.572500", "113349.032500", "113349.492500", "113349.952500", "113350.412500", "113350.872500", "113351.332500", "113351.792500", "113352.252500", "113352.712500", "113353.172500", "113353.632500", "113354.092500", "113354.552500", "113355.012500", "113355.472500", "113355.932500", "113356.392500", "113356.852500", "113357.312500", "113357.772500", "113358.232500", "113358.692500", "113359.152500", "113359.612500", "113400.072500", "113400.532500", "113400.992500", "113401.452500", "113401.912500", "113402.372500", "113402.832500", "113403.292500", "113403.752500", "113404.212500", "113404.672500", "113405.132500", "113405.592500", "113406.052500", "113406.512500", "113406.972500", "113407.432500", "113407.892500", "113408.352500", "113408.812500", "113409.272500", "113409.732500", "113410.192500", "113410.652500", "113411.112500", "113411.572500", "113412.032500", "113412.492500", "113412.952500", "113413.412500", "113413.872500", "113414.332500", "113414.792500", "113415.252500", "113415.712500", "113416.172500", "113416.632500", "113417.092500", "113417.552500", "113418.012500", "113418.472500", "113418.932500", "113419.392500", "113419.852500", "113420.312500", "113420.772500"],
