{
  "AcquisitionMatrixPE": 82,
  "AcquisitionNumber": 1,
  "AcquisitionTime": "10:49:38.077500",
  "BandwidthPerPixelPhaseEncode": 24.888,
  "BaseResolution": 82,
  "BodyPartExamined": "BRAIN",
  "ConsistencyInfo": "N4_VE11E_LATEST_20181129",
  "ConversionSoftware": "dcm2niix",
  "ConversionSoftwareVersion": "v1.0.20201102",
  "DerivedVendorReportedEchoSpacing": 0.00049,
  "DeviceSerialNumber": "66112",
  "DwellTime": 2e-06,
  "EchoTime": 0.0272,
  "EchoTrainLength": 82,
  "EffectiveEchoSpacing": 0.00049,
  "FlipAngle": 44,
  "ImageComments": "Unaliased MB8/PE3",
  "ImageOrientationPatientDICOM": [0.999204, 0.0349761, -0.019198, -0.03402, 0.998265, 0.0480522],
  "ImageType": [
    "ORIGINAL",
    "PRIMARY",
    "M",
    "MB",
    "ND",
    "NORM",
    "MOSAIC"
],
  "ImagingFrequency": 123.252,
  "InPlanePhaseEncodingDirectionDICOM": "COL",
  "InstitutionAddress": "Maynard 3,Hanover,NH,US,03755",
  "InstitutionName": "Dartmouth College - PBS",
  "InstitutionalDepartmentName": "Department",
  "MRAcquisitionType": "2D",
  "MagneticFieldStrength": 3,
  "Manufacturer": "Siemens",
  "ManufacturersModelName": "Prisma",
  "Modality": "MR",
  "MultibandAccelerationFactor": 8,
  "PartialFourier": 1,
  "PatientPosition": "HFS",
  "PercentPhaseFOV": 100,
  "PercentSampling": 100,
  "PhaseEncodingDirection": "j-",
  "PhaseEncodingSteps": 82,
  "PhaseResolution": 1,
  "PixelBandwidth": 3050,
  "ProcedureStepDescription": "Wager_Wager^1076_spacetop",
  "ProtocolName": "func_run-01_task-narratives_acq-ap-mb8",
  "PulseSequenceDetails": "%CustomerSeq%\\cmrr_mbep2d_bold",
  "ReceiveCoilActiveElements": "HEA;HEP",
  "ReceiveCoilName": "Head_32",
  "ReconMatrixPE": 82,
  "RepetitionTime": 0.46,
  "SAR": 0.112665,
  "ScanOptions": "FS",
  "ScanningSequence": "EP",
  "SequenceName": "epfid2d1_82",
  "SequenceVariant": "SK\\SS",
  "SeriesDescription": "func_run-01_task-narratives_acq-ap-mb8",
  "SeriesNumber": 8,
  "ShimSetting": [4143, -7770, -7267, 511, -29, -354, 53, 56],
  "SliceThickness": 2.7,
  "SliceTiming": [0, 0.25, 0.0625, 0.315, 0.125, 0.3775, 0.1875, 0, 0.25, 0.0625, 0.315, 0.125, 0.3775, 0.1875, 0, 0.25, 0.0625, 0.315, 0.125, 0.3775, 0.1875, 0, 0.25, 0.0625, 0.315, 0.125, 0.3775, 0.1875, 0, 0.25, 0.0625, 0.315, 0.125, 0.3775, 0.1875, 0, 0.25, 0.0625, 0.315, 0.125, 0.3775, 0.1875, 0, 0.25, 0.0625, 0.315, 0.125, 0.3775, 0.1875, 0, 0.25, 0.0625, 0.315, 0.125, 0.3775, 0.1875],
  "SoftwareVersions": "syngo MR E11",
  "SpacingBetweenSlices": 2.7,
  "StationName": "AWP66112",
  "TaskName": "narratives",
  "TotalReadoutTime": 0.03969,
  "TxRefAmp": 289.863,
  "WipMemBlock": "0c8261b2-b2bc-4fb8-a689-a90ee8b015a0||Sequence: R016 ve11e/master r/434b28f1; Aug  7 2019 18:53:46 by eja",
  "dcmmeta_affine": [
    [-2.680790662765503, -0.09127312153577805, -0.05628253147006035, 121.1372299194336],
    [-0.09383823722600937, 2.6782729625701904, 0.12787416577339172, -90.65597534179688],
    [-0.051506850868463516, -0.12892049551010132, 2.696382999420166, -81.29553985595703],
    [0.0, 0.0, 0.0, 1.0]
],
  "dcmmeta_reorient_transform": [
    [0.0, -1.0, 0.0, 81.0],
    [1.0, 0.0, 0.0, 0.0],
    [0.0, 0.0, 1.0, 0.0],
    [0.0, 0.0, 0.0, 1.0]
],
  "dcmmeta_shape": [82, 82, 56, 967],
  "dcmmeta_slice_dim": 2,
  "dcmmeta_version": 0.6,
  "global": {
    "const": {
      "AccessionNumber": "A004106",
      "AcquisitionMatrix": [82, 0, 0, 82],
      "AngioFlag": "N",
      "BitsAllocated": 16,
      "BitsStored": 16,
      "BodyPartExamined": "BRAIN",
      "Columns": 656,
      "EchoNumbers": 1,
      "EchoTime": 27.2,
      "EchoTrainLength": 82,
      "FlipAngle": 44.0,
      "HighBit": 15,
      "ImageOrientationPatient": [0.99920373849743, 0.03497607030814, -0.0191980071509, -0.0340199803391, 0.99826530982046, 0.04805218149878],
      "ImagePositionPatient": [-856.93561859257, -921.88000729739, -113.95581435133],
      "ImageType": [
        "ORIGINAL",
        "PRIMARY",
        "M",
        "MB",
        "ND",
        "NORM",
        "MOSAIC"
],
      "ImagedNucleus": "1H",
      "ImagingFrequency": 123.252163,
      "InPlanePhaseEncodingDirection": "COL",
      "MRAcquisitionType": "2D",
      "MagneticFieldStrength": 3.0,
      "Manufacturer": "SIEMENS",
      "ManufacturerModelName": "Prisma",
      "Modality": "MR",
      "NumberOfAverages": 1.0,
      "NumberOfPhaseEncodingSteps": 82,
      "PercentPhaseFieldOfView": 100.0,
      "PercentSampling": 100.0,
      "PerformedProcedureStepStartTime": "103857.941000",
      "PhotometricInterpretation": "MONOCHROME2",
      "PixelBandwidth": 3050.0,
      "PixelRepresentation": 0,
      "PixelSpacing": [2.6829268932343, 2.6829268932343],
      "ProtocolName": "func_run-01_task-narratives_acq-ap-mb8",
      "RepetitionTime": 460.0,
      "Rows": 656,
      "SAR": 0.11266477952906,
      "SamplesPerPixel": 1,
      "ScanOptions": "FS",
      "ScanningSequence": "EP",
      "SequenceName": "epfid2d1_82",
      "SequenceVariant": [
        "SK",
        "SS"
],
      "SeriesDescription": "func_run-01_task-narratives_acq-ap-mb8",
      "SeriesNumber": 8,
      "SeriesTime": "104945.609000",
      "SliceLocation": -88.005320985078,
      "SliceThickness": 2.7000000476837,
      "SmallestImagePixelValue": 0,
      "SoftwareVersions": "syngo MR E11",
      "SpacingBetweenSlices": 2.7000000538417,
      "SpecificCharacterSet": "ISO_IR 100",
      "StudyID": "2",
      "StudyTime": "103857.842000",
      "TransmitCoilName": "Body",
      "VariableFlipAngleFlag": "N",
      "WindowCenterWidthExplanation": "Algo1"
    },
    "slices": {}
  },
  "time": {
    "samples": {
      "AcquisitionNumber": [1, 2, 3, 4, 5, 6, 7, 8, 9, 10, 11, 12, 13, 14, 15, 16, 17, 18, 19, 20, 21, 22, 23, 24, 25, 26, 27, 28, 29, 30, 31, 32, 33, 34, 35, 36, 37, 38, 39, 40, 41, 42, 43, 44, 45, 46, 47, 48, 49, 50, 51, 52, 53, 54, 55, 56, 57, 58, 59, 60, 61, 62, 63, 64, 65, 66, 67, 68, 69, 70, 71, 72, 73, 74, 75, 76, 77, 78, 79, 80, 81, 82, 83, 84, 85, 86, 87, 88, 89, 90, 91, 92, 93, 94, 95, 96, 97, 98, 99, 100, 101, 102, 103, 104, 105, 106, 107, 108, 109, 110, 111, 112, 113, 114, 115, 116, 117, 118, 119, 120, 121, 122, 123, 124, 125, 126, 127, 128, 129, 130, 131, 132, 133, 134, 135, 136, 137, 138, 139, 140, 141, 142, 143, 144, 145, 146, 147, 148, 149, 150, 151, 152, 153, 154, 155, 156, 157, 158, 159, 160, 161, 162, 163, 164, 165, 166, 167, 168, 169, 170, 171, 172, 173, 174, 175, 176, 177, 178, 179, 180, 181, 182, 183, 184, 185, 186, 187, 188, 189, 190, 191, 192, 193, 194, 195, 196, 197, 198, 199, 200, 201, 202, 203, 204, 205, 206, 207, 208, 209, 210, 211, 212, 213, 214, 215, 216, 217, 218, 219, 220, 221, 222, 223, 224, 225, 226, 227, 228, 229, 230, 231, 232, 233, 234, 235, 236, 237, 238, 239, 240, 241, 242, 243, 244, 245, 246, 247, 248, 249, 250, 251, 252, 253, 254, 255, 256, 257, 258, 259, 260, 261, 262, 263, 264, 265, 266, 267, 268, 269, 270, 271, 272, 273, 274, 275, 276, 277, 278, 279, 280, 281, 282, 283, 284, 285, 286, 287, 288, 289, 290, 291, 292, 293, 294, 295, 296, 297, 298, 299, 300, 301, 302, 303, 304, 305, 306, 307, 308, 309, 310, 311, 312, 313, 314, 315, 316, 317, 318, 319, 320, 321, 322, 323, 324, 325, 326, 327, 328, 329, 330, 331, 332, 333, 334, 335, 336, 337, 338, 339, 340, 341, 342, 343, 344, 345, 346, 347, 348, 349, 350, 351, 352, 353, 354, 355, 356, 357, 358, 359, 360, 361, 362, 363, 364, 365, 366, 367, 368, 369, 370, 371, 372, 373, 374, 375, 376, 377, 378, 379, 380, 381, 382, 383, 384, 385, 386, 387, 388, 389, 390, 391, 392, 393, 394, 395, 396, 397, 398, 399, 400, 401, 402, 403, 404, 405, 406, 407, 408, 409, 410, 411, 412, 413, 414, 415, 416, 417, 418, 419, 420, 421, 422, 423, 424, 425, 426, 427, 428, 429, 430, 431, 432, 433, 434, 435, 436, 437, 438, 439, 440, 441, 442, 443, 444, 445, 446, 447, 448, 449, 450, 451, 452, 453, 454, 455, 456, 457, 458, 459, 460, 461, 462, 463, 464, 465, 466, 467, 468, 469, 470, 471, 472, 473, 474, 475, 476, 477, 478, 479, 480, 481, 482, 483, 484, 485, 486, 487, 488, 489, 490, 491, 492, 493, 494, 495, 496, 497, 498, 499, 500, 501, 502, 503, 504, 505, 506, 507, 508, 509, 510, 511, 512, 513, 514, 515, 516, 517, 518, 519, 520, 521, 522, 523, 524, 525, 526, 527, 528, 529, 530, 531, 532, 533, 534, 535, 536, 537, 538, 539, 540, 541, 542, 543, 544, 545, 546, 547, 548, 549, 550, 551, 552, 553, 554, 555, 556, 557, 558, 559, 560, 561, 562, 563, 564, 565, 566, 567, 568, 569, 570, 571, 572, 573, 574, 575, 576, 577, 578, 579, 580, 581, 582, 583, 584, 585, 586, 587, 588, 589, 590, 591, 592, 593, 594, 595, 596, 597, 598, 599, 600, 601, 602, 603, 604, 605, 606, 607, 608, 609, 610, 611, 612, 613, 614, 615, 616, 617, 618, 619, 620, 621, 622, 623, 624, 625, 626, 627, 628, 629, 630, 631, 632, 633, 634, 635, 636, 637, 638, 639, 640, 641, 642, 643, 644, 645, 646, 647, 648, 649, 650, 651, 652, 653, 654, 655, 656, 657, 658, 659, 660, 661, 662, 663, 664, 665, 666, 667, 668, 669, 670, 671, 672, 673, 674, 675, 676, 677, 678, 679, 680, 681, 682, 683, 684, 685, 686, 687, 688, 689, 690, 691, 692, 693, 694, 695, 696, 697, 698, 699, 700, 701, 702, 703, 704, 705, 706, 707, 708, 709, 710, 711, 712, 713, 714, 715, 716, 717, 718, 719, 720, 721, 722, 723, 724, 725, 726, 727, 728, 729, 730, 731, 732, 733, 734, 735, 736, 737, 738, 739, 740, 741, 742, 743, 744, 745, 746, 747, 748, 749, 750, 751, 752, 753, 754, 755, 756, 757, 758, 759, 760, 761, 762, 763, 764, 765, 766, 767, 768, 769, 770, 771, 772, 773, 774, 775, 776, 777, 778, 779, 780, 781, 782, 783, 784, 785, 786, 787, 788, 789, 790, 791, 792, 793, 794, 795, 796, 797, 798, 799, 800, 801, 802, 803, 804, 805, 806, 807, 808, 809, 810, 811, 812, 813, 814, 815, 816, 817, 818, 819, 820, 821, 822, 823, 824, 825, 826, 827, 828, 829, 830, 831, 832, 833, 834, 835, 836, 837, 838, 839, 840, 841, 842, 843, 844, 845, 846, 847, 848, 849, 850, 851, 852, 853, 854, 855, 856, 857, 858, 859, 860, 861, 862, 863, 864, 865, 866, 867, 868, 869, 870, 871, 872, 873, 874, 875, 876, 877, 878, 879, 880, 881, 882, 883, 884, 885, 886, 887, 888, 889, 890, 891, 892, 893, 894, 895, 896, 897, 898, 899, 900, 901, 902, 903, 904, 905, 906, 907, 908, 909, 910, 911, 912, 913, 914, 915, 916, 917, 918, 919, 920, 921, 922, 923, 924, 925, 926, 927, 928, 929, 930, 931, 932, 933, 934, 935, 936, 937, 938, 939, 940, 941, 942, 943, 944, 945, 946, 947, 948, 949, 950, 951, 952, 953, 954, 955, 956, 957, 958, 959, 960, 961, 962, 963, 964, 965, 966, 967],
      "AcquisitionTime": ["104938.077500", "104938.537500", "104938.997500", "104939.457500", "104939.917500", "104940.377500", "104940.837500", "104941.297500", "104941.757500", "104942.217500", "104942.677500", "104943.137500", "104943.597500", "104944.057500", "104944.517500", "104944.977500", "104945.437500", "104945.897500", "104946.357500", "104946.817500", "104947.277500", "104947.737500", "104948.197500", "104948.657500", "104949.117500", "104949.577500", "104950.037500", "104950.497500", "104950.957500", "104951.417500", "104951.877500", "104952.337500", "104952.797500", "104953.257500", "104953.717500", "104954.177500", "104954.637500", "104955.097500", "104955.557500", "104956.017500", "104956.477500", "104956.937500", "104957.397500", "104957.857500", "104958.317500", "104958.777500", "104959.237500", "104959.697500", "105000.157500", "105000.617500", "105001.077500", "105001.537500", "105001.997500", "105002.457500", "105002.917500", "105003.377500", "105003.837500", "105004.297500", "105004.757500", "105005.217500", "105005.677500", "105006.137500", "105006.597500", "105007.057500", "105007.517500", "105007.977500", "105008.437500", "105008.897500", "105009.357500", "105009.817500", "105010.277500", "105010.737500", "105011.197500", "105011.657500", "105012.117500", "105012.577500", "105013.037500", "105013.497500", "105013.957500", "105014.417500", "105014.877500", "105015.337500", "105015.797500", "105016.257500", "105016.717500", "105017.177500", "105017.637500", "105018.097500", "105018.557500", "105019.017500", "105019.477500", "105019.937500", "105020.397500", "105020.857500", "105021.317500", "105021.777500", "105022.237500", "105022.697500", "105023.157500", "105023.617500", "105024.077500", "105024.537500", "105024.997500", "105025.457500", "105025.917500", "105026.377500", "105026.837500", "105027.297500", "105027.757500", "105028.217500", "105028.677500", "105029.137500", "105029.597500", "105030.057500", "105030.517500", "105030.977500", "105031.437500", "105031.897500", "105032.357500", "105032.817500", "105033.277500", "105033.737500", "105034.197500", "105034.657500", "105035.117500", "105035.577500", "105036.037500", "105036.497500", "105036.957500", "105037.417500", "105037.877500", "105038.337500", "105038.797500", "105039.257500", "105039.717500", "105040.177500", "105040.637500", "105041.097500", "105041.557500", "105042.017500", "105042.477500", "105042.937500", "105043.397500", "105043.857500", "105044.317500", "105044.777500", "105045.237500", "105045.697500", "105046.157500", "105046.617500", "105047.077500", "105047.537500", "105047.997500", "105048.457500", "105048.917500", "105049.377500", "105049.837500", "105050.297500", "105050.757500", "105051.217500", "105051.677500", "105052.137500", "105052.597500", "105053.057500", "105053.517500", "105053.977500", "105054.437500", "105054.897500", "105055.357500", "105055.817500", "105056.277500", "105056.737500", "105057.197500", "105057.657500", "105058.117500", "105058.577500", "105059.037500", "105059.497500", "105059.957500", "105100.417500", "105100.877500", "105101.337500", "105101.797500", "105102.257500", "105102.717500", "105103.177500", "105103.637500", "105104.097500", "105104.557500", "105105.017500", "105105.477500", "105105.937500", "105106.397500", "105106.857500", "105107.317500", "105107.777500", "105108.237500", "105108.697500", "105109.157500", "105109.617500", "105110.077500", "105110.537500", "105110.997500", "105111.457500", "105111.917500", "105112.377500", "105112.837500", "105113.297500", "105113.757500", "105114.217500", "105114.677500", "105115.137500", "105115.597500", "105116.057500", "105116.517500", "105116.977500", "105117.437500", "105117.897500", "105118.357500", "105118.817500", "105119.277500", "105119.737500", "105120.197500", "105120.657500", "105121.117500", "105121.577500", "105122.037500", "105122.497500", "105122.957500", "105123.417500", "105123.877500", "105124.337500", "105124.797500", "105125.257500", "105125.717500", "105126.177500", "105126.637500", "105127.097500", "105127.557500", "105128.017500", "105128.477500", "105128.937500", "105129.397500", "105129.857500", "105130.317500", "105130.777500", "105131.237500", "105131.697500", "105132.157500", "105132.617500", "105133.077500", "105133.537500", "105133.997500", "105134.457500", "105134.917500", "105135.377500", "105135.837500", "105136.297500", "105136.757500", "105137.217500", "105137.677500", "105138.137500", "105138.597500", "105139.057500", "105139.517500", "105139.977500", "105140.437500", "105140.897500", "105141.357500", "105141.817500", "105142.277500", "105142.737500", "105143.197500", "105143.657500", "105144.117500", "105144.577500", "105145.037500", "105145.497500", "105145.957500", "105146.417500", "105146.877500", "105147.337500", "105147.797500", "105148.257500", "105148.717500", "105149.177500", "105149.637500", "105150.097500", "105150.557500", "105151.017500", "105151.477500", "105151.937500", "105152.397500", "105152.857500", "105153.317500", "105153.777500", "105154.237500", "105154.697500", "105155.157500", "105155.617500", "105156.077500", "105156.537500", "105156.997500", "105157.457500", "105157.917500", "105158.377500", "105158.837500", "105159.297500", "105159.757500", "105200.217500", "105200.677500", "105201.137500", "105201.597500", "105202.057500", "105202.517500", "105202.977500", "105203.437500", "105203.897500", "105204.357500", "105204.817500", "105205.277500", "105205.737500", "105206.197500", "105206.657500", "105207.117500", "105207.577500", "105208.037500", "105208.497500", "105208.957500", "105209.417500", "105209.877500", "105210.337500", "105210.797500", "105211.257500", "105211.717500", "105212.177500", "105212.637500", "105213.097500", "105213.557500", "105214.017500", "105214.477500", "105214.937500", "105215.397500", "105215.857500", "105216.317500", "105216.777500", "105217.237500", "105217.697500", "105218.157500", "105218.617500", "105219.077500", "105219.537500", "105219.997500", "105220.457500", "105220.917500", "105221.377500", "105221.837500", "105222.297500", "105222.757500", "105223.217500", "105223.677500", "105224.137500", "105224.597500", "105225.057500", "105225.517500", "105225.977500", "105226.437500", "105226.897500", "105227.357500", "105227.817500", "105228.277500", "105228.737500", "105229.197500", "105229.657500", "105230.117500", "105230.577500", "105231.037500", "105231.497500", "105231.957500", "105232.417500", "105232.877500", "105233.337500", "105233.797500", "105234.257500", "105234.717500", "105235.177500", "105235.637500", "105236.097500", "105236.557500", "105237.017500", "105237.477500", "105237.937500", "105238.397500", "105238.857500", "105239.317500", "105239.777500", "105240.237500", "105240.697500", "105241.157500", "105241.617500", "105242.077500", "105242.537500", "105242.997500", "105243.457500", "105243.917500", "105244.377500", "105244.837500", "105245.297500", "105245.757500", "105246.217500", "105246.677500", "105247.137500", "105247.597500", "105248.057500", "105248.517500", "105248.977500", "105249.437500", "105249.897500", "105250.357500", "105250.817500", "105251.277500", "105251.737500", "105252.197500", "105252.657500", "105253.117500", "105253.577500", "105254.037500", "105254.497500", "105254.957500", "105255.417500", "105255.877500", "105256.337500", "105256.797500", "105257.257500", "105257.717500", "105258.177500", "105258.637500", "105259.097500", "105259.557500", "105300.017500", "105300.477500", "105300.937500", "105301.397500", "105301.857500", "105302.317500", "105302.777500", "105303.237500", "105303.697500", "105304.157500", "105304.617500", "105305.077500", "105305.537500", "105305.997500", "105306.457500", "105306.917500", "105307.377500", "105307.837500", "105308.297500", "105308.757500", "105309.217500", "105309.677500", "105310.137500", "105310.597500", "105311.057500", "105311.517500", "105311.977500", "105312.437500", "105312.897500", "105313.357500", "105313.817500", "105314.277500", "105314.737500", "105315.197500", "105315.657500", "105316.117500", "105316.577500", "105317.037500", "105317.497500", "105317.957500", "105318.417500", "105318.877500", "105319.337500", "105319.797500", "105320.257500", "105320.717500", "105321.177500", "105321.637500", "105322.097500", "105322.557500", "105323.017500", "105323.477500", "105323.937500", "105324.397500", "105324.857500", "105325.317500", "105325.777500", "105326.237500", "105326.697500", "105327.157500", "105327.617500", "105328.077500", "105328.537500", "105328.997500", "105329.457500", "105329.917500", "105330.377500", "105330.837500", "105331.297500", "105331.757500", "105332.217500", "105332.677500", "105333.137500", "105333.597500", "105334.057500", "105334.517500", "105334.977500", "105335.437500", "105335.897500", "105336.357500", "105336.817500", "105337.277500", "105337.737500", "105338.197500", "105338.657500", "105339.117500", "105339.577500", "105340.037500", "105340.497500", "105340.957500", "105341.417500", "105341.877500", "105342.337500", "105342.797500", "105343.257500", "105343.717500", "105344.177500", "105344.637500", "105345.097500", "105345.557500", "105346.017500", "105346.477500", "105346.937500", "105347.397500", "105347.857500", "105348.317500", "105348.777500", "105349.237500", "105349.697500", "105350.157500", "105350.617500", "105351.077500", "105351.537500", "105351.997500", "105352.457500", "105352.917500", "105353.377500", "105353.837500", "105354.297500", "105354.757500", "105355.217500", "105355.677500", "105356.137500", "105356.597500", "105357.057500", "105357.517500", "105357.977500", "105358.437500", "105358.897500", "105359.357500", "105359.817500", "105400.277500", "105400.737500", "105401.197500", "105401.657500", "105402.117500", "105402.577500", "105403.037500", "105403.497500", "105403.957500", "105404.417500", "105404.877500", "105405.337500", "105405.797500", "105406.257500", "105406.717500", "105407.177500", "105407.637500", "105408.097500", "105408.557500", "105409.017500", "105409.477500", "105409.937500", "105410.397500", "105410.857500", "105411.317500", "105411.777500", "105412.237500", "105412.697500", "105413.157500", "105413.617500", "105414.077500", "105414.537500", "105414.997500", "105415.457500", "105415.917500", "105416.377500", "105416.837500", "105417.297500", "105417.757500", "105418.217500", "105418.677500", "105419.137500", "105419.597500", "105420.057500", "105420.517500", "105420.977500", "105421.437500", "105421.897500", "105422.357500", "105422.817500", "105423.277500", "105423.737500", "105424.197500", "105424.657500", "105425.117500", "105425.577500", "105426.037500", "105426.497500", "105426.957500", "105427.417500", "105427.877500", "105428.337500", "105428.797500", "105429.257500", "105429.717500", "105430.177500", "105430.637500", "105431.097500", "105431.557500", "105432.017500", "105432.477500", "105432.937500", "105433.397500", "105433.857500", "105434.317500", "105434.777500", "105435.237500", "105435.697500", "105436.157500", "105436.617500", "105437.077500", "105437.537500", "105437.997500", "105438.457500", "105438.917500", "105439.377500", "105439.837500", "105440.297500", "105440.757500", "105441.217500", "105441.677500", "105442.137500", "105442.597500", "105443.057500", "105443.517500", "105443.977500", "105444.437500", "105444.897500", "105445.357500", "105445.817500", "105446.277500", "105446.737500", "105447.197500", "105447.657500", "105448.117500", "105448.577500", "105449.037500", "105449.497500", "105449.957500", "105450.417500", "105450.877500", "105451.337500", "105451.797500", "105452.257500", "105452.717500", "105453.177500", "105453.637500", "105454.097500", "105454.557500", "105455.017500", "105455.477500", "105455.937500", "105456.397500", "105456.857500", "105457.317500", "105457.777500", "105458.237500", "105458.697500", "105459.157500", "105459.617500", "105500.077500", "105500.537500", "105500.997500", "105501.457500", "105501.917500", "105502.377500", "105502.837500", "105503.297500", "105503.757500", "105504.217500", "105504.677500", "105505.137500", "105505.597500", "105506.057500", "105506.517500", "105506.977500", "105507.437500", "105507.897500", "105508.357500", "105508.817500", "105509.277500", "105509.737500", "105510.197500", "105510.657500", "105511.117500", "105511.577500", "105512.037500", "105512.497500", "105512.957500", "105513.417500", "105513.877500", "105514.337500", "105514.797500", "105515.257500", "105515.717500", "105516.177500", "105516.637500", "105517.097500", "105517.557500", "105518.017500", "105518.477500", "105518.937500", "105519.397500", "105519.857500", "105520.317500", "105520.777500", "105521.237500", "105521.697500", "105522.157500", "105522.617500", "105523.077500", "105523.537500", "105523.997500", "105524.457500", "105524.917500", "105525.377500", "105525.837500", "105526.297500", "105526.757500", "105527.217500", "105527.677500", "105528.137500", "105528.597500", "105529.057500", "105529.517500", "105529.977500", "105530.437500", "105530.897500", "105531.357500", "105531.817500", "105532.277500", "105532.737500", "105533.197500", "105533.657500", "105534.117500", "105534.577500", "105535.037500", "105535.497500", "105535.957500", "105536.417500", "105536.877500", "105537.337500", "105537.797500", "105538.257500", "105538.717500", "105539.177500", "105539.637500", "105540.097500", "105540.557500", "105541.017500", "105541.477500", "105541.937500", "105542.397500", "105542.857500", "105543.317500", "105543.777500", "105544.237500", "105544.697500", "105545.157500", "105545.617500", "105546.077500", "105546.537500", "105546.997500", "105547.457500", "105547.917500", "105548.377500", "105548.837500", "105549.297500", "105549.757500", "105550.217500", "105550.677500", "105551.137500", "105551.597500", "105552.057500", "105552.517500", "105552.977500", "105553.437500", "105553.897500", "105554.357500", "105554.817500", "105555.277500", "105555.737500", "105556.197500", "105556.657500", "105557.117500", "105557.577500", "105558.037500", "105558.497500", "105558.957500", "105559.417500", "105559.877500", "105600.337500", "105600.797500", "105601.257500", "105601.717500", "105602.177500", "105602.637500", "105603.097500", "105603.557500", "105604.017500", "105604.477500", "105604.937500", "105605.397500", "105605.857500", "105606.317500", "105606.777500", "105607.237500", "105607.697500", "105608.157500", "105608.617500", "105609.077500", "105609.537500", "105609.997500", "105610.457500", "105610.917500", "105611.377500", "105611.837500", "105612.297500", "105612.757500", "105613.217500", "105613.677500", "105614.137500", "105614.597500", "105615.057500", "105615.517500", "105615.977500", "105616.437500", "105616.897500", "105617.357500", "105617.817500", "105618.277500", "105618.737500", "105619.197500", "105619.657500", "105620.117500", "105620.577500", "105621.037500", "105621.497500", "105621.957500", "105622.417500", "105622.877500", "105623.337500", "105623.797500", "105624.257500", "105624.717500", "105625.177500", "105625.637500", "105626.097500", "105626.557500", "105627.017500", "105627.477500", "105627.937500", "105628.397500", "105628.857500", "105629.317500", "105629.777500", "105630.237500", "105630.697500", "105631.157500", "105631.617500", "105632.077500", "105632.537500", "105632.997500", "105633.457500", "105633.917500", "105634.377500", "105634.837500", "105635.297500", "105635.757500", "105636.217500", "105636.677500", "105637.137500", "105637.597500", "105638.057500", "105638.517500", "105638.977500", "105639.437500", "105639.897500", "105640.357500", "105640.817500", "105641.277500", "105641.737500", "105642.197500", "105642.657500", "105643.117500", "105643.577500", "105644.037500", "105644.497500", "105644.957500", "105645.417500", "105645.877500", "105646.337500", "105646.797500", "105647.257500", "105647.717500", "105648.177500", "105648.637500", "105649.097500", "105649.557500", "105650.017500", "105650.477500", "105650.937500", "105651.397500", "105651.857500", "105652.317500", "105652.777500", "105653.237500", "105653.697500", "105654.157500", "105654.617500", "105655.077500", "105655.537500", "105655.997500", "105656.457500", "105656.917500", "105657.377500", "105657.837500", "105658.297500", "105658.757500", "105659.217500", "105659.677500", "105700.137500", "105700.597500", "105701.057500", "105701.517500", "105701.977500", "105702.437500"],
