{
  "AcquisitionMatrixPE": 82,
  "AcquisitionNumber": 1,
  "AcquisitionTime": "11:58:54.225000",
  "BandwidthPerPixelPhaseEncode": 24.888,
  "BaseResolution": 82,
  "BodyPartExamined": "BRAIN",
  "ConsistencyInfo": "N4_VE11E_LATEST_20181129",
  "ConversionSoftware": "dcm2niix",
  "ConversionSoftwareVersion": "v1.0.20201102",
  "DerivedVendorReportedEchoSpacing": 0.00049,
  "DeviceSerialNumber": "66112",
  "DwellTime": 2e-06,
  "EchoTime": 0.0272,
  "EchoTrainLength": 82,
  "EffectiveEchoSpacing": 0.00049,
  "FlipAngle": 44,
  "ImageComments": "Unaliased MB8/PE3",
  "ImageOrientationPatientDICOM": [0.999764, 0.00227685, 0.0216205, -0.00226833, 0.999997, -0.000418633],
  "ImageType": [
    "ORIGINAL",
    "PRIMARY",
    "M",
    "MB",
    "ND",
    "NORM",
    "MOSAIC"
],
  "ImagingFrequency": 123.252,
  "InPlanePhaseEncodingDirectionDICOM": "COL",
  "InstitutionAddress": "Maynard 3,Hanover,NH,US,03755",
  "InstitutionName": "Dartmouth College - PBS",
  "InstitutionalDepartmentName": "Department",
  "MRAcquisitionType": "2D",
  "MagneticFieldStrength": 3,
  "Manufacturer": "Siemens",
  "ManufacturersModelName": "Prisma",
  "Modality": "MR",
  "MultibandAccelerationFactor": 8,
  "PartialFourier": 1,
  "PatientPosition": "HFS",
  "PercentPhaseFOV": 100,
  "PercentSampling": 100,
  "PhaseEncodingDirection": "j-",
  "PhaseEncodingSteps": 82,
  "PhaseResolution": 1,
  "PixelBandwidth": 3050,
  "ProcedureStepDescription": "Wager_Wager^1076_spacetop",
  "ProtocolName": "func_run-01_task-alignvideo_acq-ap-mb8",
  "PulseSequenceDetails": "%CustomerSeq%\\cmrr_mbep2d_bold",
  "ReceiveCoilActiveElements": "HEA;HEP",
  "ReceiveCoilName": "Head_32",
  "ReconMatrixPE": 82,
  "RepetitionTime": 0.46,
  "SAR": 0.112569,
  "ScanOptions": "FS",
  "ScanningSequence": "EP",
  "SequenceName": "epfid2d1_82",
  "SequenceVariant": "SK\\SS",
  "SeriesDescription": "func_run-01_task-alignvideo_acq-ap-mb8",
  "SeriesNumber": 28,
  "ShimSetting": [4141, -7776, -7266, 435, -51, -385, 65, 64],
  "SliceThickness": 2.7,
  "SliceTiming": [0, 0.25, 0.0625, 0.3125, 0.125, 0.3775, 0.1875, 0, 0.25, 0.0625, 0.3125, 0.125, 0.3775, 0.1875, 0, 0.25, 0.0625, 0.3125, 0.125, 0.3775, 0.1875, 0, 0.25, 0.0625, 0.3125, 0.125, 0.3775, 0.1875, 0, 0.25, 0.0625, 0.3125, 0.125, 0.3775, 0.1875, 0, 0.25, 0.0625, 0.3125, 0.125, 0.3775, 0.1875, 0, 0.25, 0.0625, 0.3125, 0.125, 0.3775, 0.1875, 0, 0.25, 0.0625, 0.3125, 0.125, 0.3775, 0.1875],
  "SoftwareVersions": "syngo MR E11",
  "SpacingBetweenSlices": 2.7,
  "StationName": "AWP66112",
  "TaskName": "alignvideo",
  "TotalReadoutTime": 0.03969,
  "TxRefAmp": 289.863,
  "WipMemBlock": "775f14d7-ac54-4227-8525-2eebc71b28e3||Sequence: R016 ve11e/master r/434b28f1; Aug  7 2019 18:53:46 by eja",
  "dcmmeta_affine": [
    [-2.6822926998138428, -0.0060857683420181274, 0.0583777129650116, 115.97306060791016],
    [-0.006108629517257214, 2.68291974067688, -0.0009976272704079747, -95.88903045654297],
    [0.0580061674118042, 0.0011231615208089352, 2.699368476867676, -100.05430603027344],
    [0.0, 0.0, 0.0, 1.0]
],
  "dcmmeta_reorient_transform": [
    [0.0, -1.0, 0.0, 81.0],
    [1.0, 0.0, 0.0, 0.0],
    [0.0, 0.0, 1.0, 0.0],
    [0.0, 0.0, 0.0, 1.0]
],
  "dcmmeta_shape": [82, 82, 56, 839],
  "dcmmeta_slice_dim": 2,
  "dcmmeta_version": 0.6,
  "global": {
    "const": {
      "AccessionNumber": "A004106",
      "AcquisitionMatrix": [82, 0, 0, 82],
      "AngioFlag": "N",
      "BitsAllocated": 16,
      "BitsStored": 16,
      "BodyPartExamined": "BRAIN",
      "Columns": 656,
      "EchoNumbers": 1,
      "EchoTime": 27.2,
      "EchoTrainLength": 82,
      "FlipAngle": 44.0,
      "HighBit": 15,
      "ImageOrientationPatient": [0.9997636574636, 0.00227685282538, 0.0216204800183, -0.0022683318266, 0.99999733970506, -0.0004186329347],
      "ImagePositionPatient": [-883.55153225999, -893.17861281587, -116.28875228219],
      "ImageType": [
        "ORIGINAL",
        "PRIMARY",
        "M",
        "MB",
        "ND",
        "NORM",
        "MOSAIC"
],
      "ImagedNucleus": "1H",
      "ImagingFrequency": 123.252192,
      "InPlanePhaseEncodingDirection": "COL",
      "MRAcquisitionType": "2D",
      "MagneticFieldStrength": 3.0,
      "Manufacturer": "SIEMENS",
      "ManufacturerModelName": "Prisma",
      "Modality": "MR",
      "NumberOfAverages": 1.0,
      "NumberOfPhaseEncodingSteps": 82,
      "PercentPhaseFieldOfView": 100.0,
      "PercentSampling": 100.0,
      "PerformedProcedureStepStartTime": "103857.941000",
      "PhotometricInterpretation": "MONOCHROME2",
      "PixelBandwidth": 3050.0,
      "PixelRepresentation": 0,
      "PixelSpacing": [2.6829268932343, 2.6829268932343],
      "ProtocolName": "func_run-01_task-alignvideo_acq-ap-mb8",
      "RepetitionTime": 460.0,
      "Rows": 656,
      "SAR": 0.11256855594493,
      "SamplesPerPixel": 1,
      "ScanOptions": "FS",
      "ScanningSequence": "EP",
      "SequenceName": "epfid2d1_82",
      "SequenceVariant": [
        "SK",
        "SS"
],
      "SeriesDescription": "func_run-01_task-alignvideo_acq-ap-mb8",
      "SeriesNumber": 28,
      "SeriesTime": "115905.451000",
      "SliceLocation": -97.487981974541,
      "SliceThickness": 2.7000000476837,
      "SmallestImagePixelValue": 0,
      "SoftwareVersions": "syngo MR E11",
      "SpacingBetweenSlices": 2.6999999250082,
      "SpecificCharacterSet": "ISO_IR 100",
      "StudyID": "2",
      "StudyTime": "103857.842000",
      "TransmitCoilName": "Body",
      "VariableFlipAngleFlag": "N",
      "WindowCenterWidthExplanation": "Algo1"
    },
    "slices": {}
  },
  "time": {
    "samples": {
      "AcquisitionNumber": [1, 2, 3, 4, 5, 6, 7, 8, 9, 10, 11, 12, 13, 14, 15, 16, 17, 18, 19, 20, 21, 22, 23, 24, 25, 26, 27, 28, 29, 30, 31, 32, 33, 34, 35, 36, 37, 38, 39, 40, 41, 42, 43, 44, 45, 46, 47, 48, 49, 50, 51, 52, 53, 54, 55, 56, 57, 58, 59, 60, 61, 62, 63, 64, 65, 66, 67, 68, 69, 70, 71, 72, 73, 74, 75, 76, 77, 78, 79, 80, 81, 82, 83, 84, 85, 86, 87, 88, 89, 90, 91, 92, 93, 94, 95, 96, 97, 98, 99, 100, 101, 102, 103, 104, 105, 106, 107, 108, 109, 110, 111, 112, 113, 114, 115, 116, 117, 118, 119, 120, 121, 122, 123, 124, 125, 126, 127, 128, 129, 130, 131, 132, 133, 134, 135, 136, 137, 138, 139, 140, 141, 142, 143, 144, 145, 146, 147, 148, 149, 150, 151, 152, 153, 154, 155, 156, 157, 158, 159, 160, 161, 162, 163, 164, 165, 166, 167, 168, 169, 170, 171, 172, 173, 174, 175, 176, 177, 178, 179, 180, 181, 182, 183, 184, 185, 186, 187, 188, 189, 190, 191, 192, 193, 194, 195, 196, 197, 198, 199, 200, 201, 202, 203, 204, 205, 206, 207, 208, 209, 210, 211, 212, 213, 214, 215, 216, 217, 218, 219, 220, 221, 222, 223, 224, 225, 226, 227, 228, 229, 230, 231, 232, 233, 234, 235, 236, 237, 238, 239, 240, 241, 242, 243, 244, 245, 246, 247, 248, 249, 250, 251, 252, 253, 254, 255, 256, 257, 258, 259, 260, 261, 262, 263, 264, 265, 266, 267, 268, 269, 270, 271, 272, 273, 274, 275, 276, 277, 278, 279, 280, 281, 282, 283, 284, 285, 286, 287, 288, 289, 290, 291, 292, 293, 294, 295, 296, 297, 298, 299, 300, 301, 302, 303, 304, 305, 306, 307, 308, 309, 310, 311, 312, 313, 314, 315, 316, 317, 318, 319, 320, 321, 322, 323, 324, 325, 326, 327, 328, 329, 330, 331, 332, 333, 334, 335, 336, 337, 338, 339, 340, 341, 342, 343, 344, 345, 346, 347, 348, 349, 350, 351, 352, 353, 354, 355, 356, 357, 358, 359, 360, 361, 362, 363, 364, 365, 366, 367, 368, 369, 370, 371, 372, 373, 374, 375, 376, 377, 378, 379, 380, 381, 382, 383, 384, 385, 386, 387, 388, 389, 390, 391, 392, 393, 394, 395, 396, 397, 398, 399, 400, 401, 402, 403, 404, 405, 406, 407, 408, 409, 410, 411, 412, 413, 414, 415, 416, 417, 418, 419, 420, 421, 422, 423, 424, 425, 426, 427, 428, 429, 430, 431, 432, 433, 434, 435, 436, 437, 438, 439, 440, 441, 442, 443, 444, 445, 446, 447, 448, 449, 450, 451, 452, 453, 454, 455, 456, 457, 458, 459, 460, 461, 462, 463, 464, 465, 466, 467, 468, 469, 470, 471, 472, 473, 474, 475, 476, 477, 478, 479, 480, 481, 482, 483, 484, 485, 486, 487, 488, 489, 490, 491, 492, 493, 494, 495, 496, 497, 498, 499, 500, 501, 502, 503, 504, 505, 506, 507, 508, 509, 510, 511, 512, 513, 514, 515, 516, 517, 518, 519, 520, 521, 522, 523, 524, 525, 526, 527, 528, 529, 530, 531, 532, 533, 534, 535, 536, 537, 538, 539, 540, 541, 542, 543, 544, 545, 546, 547, 548, 549, 550, 551, 552, 553, 554, 555, 556, 557, 558, 559, 560, 561, 562, 563, 564, 565, 566, 567, 568, 569, 570, 571, 572, 573, 574, 575, 576, 577, 578, 579, 580, 581, 582, 583, 584, 585, 586, 587, 588, 589, 590, 591, 592, 593, 594, 595, 596, 597, 598, 599, 600, 601, 602, 603, 604, 605, 606, 607, 608, 609, 610, 611, 612, 613, 614, 615, 616, 617, 618, 619, 620, 621, 622, 623, 624, 625, 626, 627, 628, 629, 630, 631, 632, 633, 634, 635, 636, 637, 638, 639, 640, 641, 642, 643, 644, 645, 646, 647, 648, 649, 650, 651, 652, 653, 654, 655, 656, 657, 658, 659, 660, 661, 662, 663, 664, 665, 666, 667, 668, 669, 670, 671, 672, 673, 674, 675, 676, 677, 678, 679, 680, 681, 682, 683, 684, 685, 686, 687, 688, 689, 690, 691, 692, 693, 694, 695, 696, 697, 698, 699, 700, 701, 702, 703, 704, 705, 706, 707, 708, 709, 710, 711, 712, 713, 714, 715, 716, 717, 718, 719, 720, 721, 722, 723, 724, 725, 726, 727, 728, 729, 730, 731, 732, 733, 734, 735, 736, 737, 738, 739, 740, 741, 742, 743, 744, 745, 746, 747, 748, 749, 750, 751, 752, 753, 754, 755, 756, 757, 758, 759, 760, 761, 762, 763, 764, 765, 766, 767, 768, 769, 770, 771, 772, 773, 774, 775, 776, 777, 778, 779, 780, 781, 782, 783, 784, 785, 786, 787, 788, 789, 790, 791, 792, 793, 794, 795, 796, 797, 798, 799, 800, 801, 802, 803, 804, 805, 806, 807, 808, 809, 810, 811, 812, 813, 814, 815, 816, 817, 818, 819, 820, 821, 822, 823, 824, 825, 826, 827, 828, 829, 830, 831, 832, 833, 834, 835, 836, 837, 838, 839],
      "AcquisitionTime": ["115854.225000", "115854.685000", "115855.145000", "115855.605000", "115856.065000", "115856.525000", "115856.985000", "115857.445000", "115857.905000", "115858.365000", "115858.825000", "115859.285000", "115859.745000", "115900.205000", "115900.665000", "115901.125000", "115901.585000", "115902.045000", "115902.505000", "115902.965000", "115903.425000", "115903.885000", "115904.345000", "115904.805000", "115905.265000", "115905.725000", "115906.185000", "115906.645000", "115907.105000", "115907.565000", "115908.025000", "115908.485000", "115908.945000", "115909.405000", "115909.865000", "115910.325000", "115910.785000", "115911.245000", "115911.705000", "115912.165000", "115912.625000", "115913.085000", "115913.545000", "115914.005000", "115914.465000", "115914.925000", "115915.385000", "115915.845000", "115916.305000", "115916.765000", "115917.225000", "115917.685000", "115918.145000", "115918.605000", "115919.065000", "115919.525000", "115919.985000", "115920.445000", "115920.905000", "115921.365000", "115921.825000", "115922.285000", "115922.745000", "115923.205000", "115923.665000", "115924.125000", "115924.585000", "115925.045000", "115925.505000", "115925.965000", "115926.425000", "115926.885000", "115927.345000", "115927.805000", "115928.265000", "115928.725000", "115929.185000", "115929.645000", "115930.105000", "115930.565000", "115931.025000", "115931.485000", "115931.945000", "115932.405000", "115932.865000", "115933.325000", "115933.785000", "115934.245000", "115934.705000", "115935.165000", "115935.625000", "115936.085000", "115936.545000", "115937.005000", "115937.465000", "115937.925000", "115938.385000", "115938.845000", "115939.305000", "115939.765000", "115940.225000", "115940.685000", "115941.145000", "115941.605000", "115942.065000", "115942.525000", "115942.985000", "115943.445000", "115943.905000", "115944.365000", "115944.825000", "115945.285000", "115945.745000", "115946.205000", "115946.665000", "115947.125000", "115947.585000", "115948.045000", "115948.505000", "115948.965000", "115949.425000", "115949.885000", "115950.345000", "115950.805000", "115951.265000", "115951.725000", "115952.185000", "115952.645000", "115953.105000", "115953.565000", "115954.025000", "115954.485000", "115954.945000", "115955.405000", "115955.865000", "115956.325000", "115956.785000", "115957.245000", "115957.705000", "115958.165000", "115958.625000", "115959.085000", "115959.545000", "120000.005000", "120000.465000", "120000.925000", "120001.385000", "120001.845000", "120002.305000", "120002.765000", "120003.225000", "120003.685000", "120004.145000", "120004.605000", "120005.065000", "120005.525000", "120005.985000", "120006.445000", "120006.905000", "120007.365000", "120007.825000", "120008.285000", "120008.745000", "120009.205000", "120009.665000", "120010.125000", "120010.585000", "120011.045000", "120011.505000", "120011.965000", "120012.425000", "120012.885000", "120013.345000", "120013.805000", "120014.265000", "120014.725000", "120015.185000", "120015.645000", "120016.105000", "120016.565000", "120017.025000", "120017.485000", "120017.945000", "120018.405000", "120018.865000", "120019.325000", "120019.785000", "120020.245000", "120020.705000", "120021.165000", "120021.625000", "120022.085000", "120022.545000", "120023.005000", "120023.465000", "120023.925000", "120024.385000", "120024.845000", "120025.305000", "120025.765000", "120026.225000", "120026.685000", "120027.145000", "120027.605000", "120028.065000", "120028.525000", "120028.985000", "120029.445000", "120029.905000", "120030.365000", "120030.825000", "120031.285000", "120031.745000", "120032.205000", "120032.665000", "120033.125000", "120033.585000", "120034.045000", "120034.505000", "120034.965000", "120035.425000", "120035.885000", "120036.345000", "120036.805000", "120037.265000", "120037.725000", "120038.185000", "120038.645000", "120039.105000", "120039.565000", "120040.025000", "120040.485000", "120040.945000", "120041.405000", "120041.865000", "120042.325000", "120042.785000", "120043.245000", "120043.705000", "120044.165000", "120044.625000", "120045.085000", "120045.545000", "120046.005000", "120046.465000", "120046.925000", "120047.385000", "120047.845000", "120048.305000", "120048.765000", "120049.225000", "120049.685000", "120050.145000", "120050.605000", "120051.065000", "120051.525000", "120051.985000", "120052.445000", "120052.905000", "120053.365000", "120053.825000", "120054.285000", "120054.745000", "120055.205000", "120055.665000", "120056.125000", "120056.585000", "120057.045000", "120057.505000", "120057.965000", "120058.425000", "120058.885000", "120059.345000", "120059.805000", "120100.265000", "120100.725000", "120101.185000", "120101.645000", "120102.105000", "120102.565000", "120103.025000", "120103.485000", "120103.945000", "120104.405000", "120104.865000", "120105.325000", "120105.785000", "120106.245000", "120106.705000", "120107.165000", "120107.625000", "120108.085000", "120108.545000", "120109.005000", "120109.465000", "120109.925000", "120110.385000", "120110.845000", "120111.305000", "120111.765000", "120112.225000", "120112.685000", "120113.145000", "120113.605000", "120114.065000", "120114.525000", "120114.985000", "120115.445000", "120115.905000", "120116.365000", "120116.825000", "120117.285000", "120117.745000", "120118.205000", "120118.665000", "120119.125000", "120119.585000", "120120.045000", "120120.505000", "120120.965000", "120121.425000", "120121.885000", "120122.345000", "120122.805000", "120123.265000", "120123.725000", "120124.185000", "120124.645000", "120125.105000", "120125.565000", "120126.025000", "120126.485000", "120126.945000", "120127.405000", "120127.865000", "120128.325000", "120128.785000", "120129.245000", "120129.705000", "120130.165000", "120130.625000", "120131.085000", "120131.545000", "120132.005000", "120132.465000", "120132.925000", "120133.385000", "120133.845000", "120134.305000", "120134.765000", "120135.225000", "120135.685000", "120136.145000", "120136.605000", "120137.065000", "120137.525000", "120137.985000", "120138.445000", "120138.905000", "120139.365000", "120139.825000", "120140.285000", "120140.745000", "120141.205000", "120141.665000", "120142.125000", "120142.585000", "120143.045000", "120143.505000", "120143.965000", "120144.425000", "120144.885000", "120145.345000", "120145.805000", "120146.265000", "120146.725000", "120147.185000", "120147.645000", "120148.105000", "120148.565000", "120149.025000", "120149.485000", "120149.945000", "120150.405000", "120150.865000", "120151.325000", "120151.785000", "120152.245000", "120152.705000", "120153.165000", "120153.625000", "120154.085000", "120154.545000", "120155.005000", "120155.465000", "120155.925000", "120156.385000", "120156.845000", "120157.305000", "120157.765000", "120158.225000", "120158.685000", "120159.145000", "120159.605000", "120200.065000", "120200.525000", "120200.985000", "120201.445000", "120201.905000", "120202.365000", "120202.825000", "120203.285000", "120203.745000", "120204.205000", "120204.665000", "120205.125000", "120205.585000", "120206.045000", "120206.505000", "120206.965000", "120207.425000", "120207.885000", "120208.345000", "120208.805000", "120209.265000", "120209.725000", "120210.185000", "120210.645000", "120211.105000", "120211.565000", "120212.025000", "120212.485000", "120212.945000", "120213.405000", "120213.865000", "120214.325000", "120214.785000", "120215.245000", "120215.705000", "120216.165000", "120216.625000", "120217.085000", "120217.545000", "120218.005000", "120218.465000", "120218.925000", "120219.385000", "120219.845000", "120220.305000", "120220.765000", "120221.225000", "120221.685000", "120222.145000", "120222.605000", "120223.065000", "120223.525000", "120223.985000", "120224.445000", "120224.905000", "120225.365000", "120225.825000", "120226.285000", "120226.745000", "120227.205000", "120227.665000", "120228.125000", "120228.585000", "120229.045000", "120229.505000", "120229.965000", "120230.425000", "120230.885000", "120231.345000", "120231.805000", "120232.265000", "120232.725000", "120233.185000", "120233.645000", "120234.105000", "120234.565000", "120235.025000", "120235.485000", "120235.945000", "120236.405000", "120236.865000", "120237.325000", "120237.785000", "120238.245000", "120238.705000", "120239.165000", "120239.625000", "120240.085000", "120240.545000", "120241.005000", "120241.465000", "120241.925000", "120242.385000", "120242.845000", "120243.305000", "120243.765000", "120244.225000", "120244.685000", "120245.145000", "120245.605000", "120246.065000", "120246.525000", "120246.985000", "120247.445000", "120247.905000", "120248.365000", "120248.825000", "120249.285000", "120249.745000", "120250.205000", "120250.665000", "120251.125000", "120251.585000", "120252.045000", "120252.505000", "120252.965000", "120253.425000", "120253.885000", "120254.345000", "120254.805000", "120255.265000", "120255.725000", "120256.185000", "120256.645000", "120257.105000", "120257.565000", "120258.025000", "120258.485000", "120258.945000", "120259.405000", "120259.865000", "120300.325000", "120300.785000", "120301.245000", "120301.705000", "120302.165000", "120302.625000", "120303.085000", "120303.545000", "120304.005000", "120304.465000", "120304.925000", "120305.385000", "120305.845000", "120306.305000", "120306.765000", "120307.225000", "120307.685000", "120308.145000", "120308.605000", "120309.065000", "120309.525000", "120309.985000", "120310.445000", "120310.905000", "120311.365000", "120311.825000", "120312.285000", "120312.745000", "120313.205000", "120313.665000", "120314.125000", "120314.585000", "120315.045000", "120315.505000", "120315.965000", "120316.425000", "120316.885000", "120317.345000", "120317.805000", "120318.265000", "120318.725000", "120319.185000", "120319.645000", "120320.105000", "120320.565000", "120321.025000", "120321.485000", "120321.945000", "120322.405000", "120322.865000", "120323.325000", "120323.785000", "120324.245000", "120324.705000", "120325.165000", "120325.625000", "120326.085000", "120326.545000", "120327.005000", "120327.465000", "120327.925000", "120328.385000", "120328.845000", "120329.305000", "120329.765000", "120330.225000", "120330.685000", "120331.145000", "120331.605000", "120332.065000", "120332.525000", "120332.985000", "120333.445000", "120333.905000", "120334.365000", "120334.825000", "120335.285000", "120335.745000", "120336.205000", "120336.665000", "120337.125000", "120337.585000", "120338.045000", "120338.505000", "120338.965000", "120339.425000", "120339.885000", "120340.345000", "120340.805000", "120341.265000", "120341.725000", "120342.185000", "120342.645000", "120343.105000", "120343.565000", "120344.025000", "120344.485000", "120344.945000", "120345.405000", "120345.865000", "120346.325000", "120346.785000", "120347.245000", "120347.705000", "120348.165000", "120348.625000", "120349.085000", "120349.545000", "120350.005000", "120350.465000", "120350.925000", "120351.385000", "120351.845000", "120352.305000", "120352.765000", "120353.225000", "120353.685000", "120354.145000", "120354.605000", "120355.065000", "120355.525000", "120355.985000", "120356.445000", "120356.905000", "120357.365000", "120357.825000", "120358.285000", "120358.745000", "120359.205000", "120359.665000", "120400.125000", "120400.585000", "120401.045000", "120401.505000", "120401.965000", "120402.425000", "120402.885000", "120403.345000", "120403.805000", "120404.265000", "120404.725000", "120405.185000", "120405.645000", "120406.105000", "120406.565000", "120407.025000", "120407.485000", "120407.945000", "120408.405000", "120408.865000", "120409.325000", "120409.785000", "120410.245000", "120410.705000", "120411.165000", "120411.625000", "120412.085000", "120412.545000", "120413.005000", "120413.465000", "120413.925000", "120414.385000", "120414.845000", "120415.305000", "120415.765000", "120416.225000", "120416.685000", "120417.145000", "120417.605000", "120418.065000", "120418.525000", "120418.985000", "120419.445000", "120419.905000", "120420.365000", "120420.825000", "120421.285000", "120421.745000", "120422.205000", "120422.665000", "120423.125000", "120423.585000", "120424.045000", "120424.505000", "120424.965000", "120425.425000", "120425.885000", "120426.345000", "120426.805000", "120427.265000", "120427.725000", "120428.185000", "120428.645000", "120429.105000", "120429.565000", "120430.025000", "120430.485000", "120430.945000", "120431.405000", "120431.865000", "120432.325000", "120432.785000", "120433.245000", "120433.705000", "120434.165000", "120434.625000", "120435.085000", "120435.545000", "120436.005000", "120436.465000", "120436.925000", "120437.385000", "120437.845000", "120438.305000", "120438.765000", "120439.225000", "120439.685000", "120440.145000", "120440.605000", "120441.065000", "120441.525000", "120441.985000", "120442.445000", "120442.905000", "120443.365000", "120443.825000", "120444.285000", "120444.745000", "120445.205000", "120445.665000", "120446.125000", "120446.585000", "120447.045000", "120447.505000", "120447.965000", "120448.425000", "120448.885000", "120449.345000", "120449.805000", "120450.265000", "120450.725000", "120451.185000", "120451.645000", "120452.105000", "120452.565000", "120453.025000", "120453.485000", "120453.945000", "120454.405000", "120454.865000", "120455.325000", "120455.785000", "120456.245000", "120456.705000", "120457.165000", "120457.625000", "120458.085000", "120458.545000", "120459.005000", "120459.465000", "120459.925000", "120500.385000", "120500.845000", "120501.305000", "120501.765000", "120502.225000", "120502.685000", "120503.145000", "120503.605000", "120504.065000", "120504.525000", "120504.985000", "120505.445000", "120505.905000", "120506.365000", "120506.825000", "120507.285000", "120507.745000", "120508.205000", "120508.665000", "120509.125000", "120509.585000", "120510.045000", "120510.505000", "120510.965000", "120511.425000", "120511.885000", "120512.345000", "120512.805000", "120513.265000", "120513.725000", "120514.185000", "120514.645000", "120515.105000", "120515.565000", "120516.025000", "120516.485000", "120516.945000", "120517.405000", "120517.865000", "120518.325000", "120518.785000", "120519.245000", "120519.705000"],
