{
  "AcquisitionMatrixPE": 82,
  "AcquisitionNumber": 1,
  "AcquisitionTime": "10:57:23.867500",
  "BandwidthPerPixelPhaseEncode": 24.888,
  "BaseResolution": 82,
  "BodyPartExamined": "BRAIN",
  "ConsistencyInfo": "N4_VE11E_LATEST_20181129",
  "ConversionSoftware": "dcm2niix",
  "ConversionSoftwareVersion": "v1.0.20201102",
  "DerivedVendorReportedEchoSpacing": 0.00049,
  "DeviceSerialNumber": "66112",
  "DwellTime": 2e-06,
  "EchoTime": 0.0272,
  "EchoTrainLength": 82,
  "EffectiveEchoSpacing": 0.00049,
  "FlipAngle": 44,
  "ImageComments": "Unaliased MB8/PE3",
  "ImageOrientationPatientDICOM": [0.999204, 0.0349761, -0.019198, -0.03402, 0.998265, 0.0480522],
  "ImageType": [
    "ORIGINAL",
    "PRIMARY",
    "M",
    "MB",
    "ND",
    "NORM",
    "MOSAIC"
],
  "ImagingFrequency": 123.252,
  "InPlanePhaseEncodingDirectionDICOM": "COL",
  "InstitutionAddress": "Maynard 3,Hanover,NH,US,03755",
  "InstitutionName": "Dartmouth College - PBS",
  "InstitutionalDepartmentName": "Department",
  "MRAcquisitionType": "2D",
  "MagneticFieldStrength": 3,
  "Manufacturer": "Siemens",
  "ManufacturersModelName": "Prisma",
  "Modality": "MR",
  "MultibandAccelerationFactor": 8,
  "PartialFourier": 1,
  "PatientPosition": "HFS",
  "PercentPhaseFOV": 100,
  "PercentSampling": 100,
  "PhaseEncodingDirection": "j-",
  "PhaseEncodingSteps": 82,
  "PhaseResolution": 1,
  "PixelBandwidth": 3050,
  "ProcedureStepDescription": "Wager_Wager^1076_spacetop",
  "ProtocolName": "func_run-02_task-narratives_acq-ap-mb8",
  "PulseSequenceDetails": "%CustomerSeq%\\cmrr_mbep2d_bold",
  "ReceiveCoilActiveElements": "HEA;HEP",
  "ReceiveCoilName": "Head_32",
  "ReconMatrixPE": 82,
  "RepetitionTime": 0.46,
  "SAR": 0.11274,
  "ScanOptions": "FS",
  "ScanningSequence": "EP",
  "SequenceName": "epfid2d1_82",
  "SequenceVariant": "SK\\SS",
  "SeriesDescription": "func_run-02_task-narratives_acq-ap-mb8",
  "SeriesNumber": 10,
  "ShimSetting": [4143, -7770, -7267, 511, -29, -354, 53, 56],
  "SliceThickness": 2.7,
  "SliceTiming": [0, 0.25, 0.0625, 0.3125, 0.125, 0.375, 0.1875, 0, 0.25, 0.0625, 0.3125, 0.125, 0.375, 0.1875, 0, 0.25, 0.0625, 0.3125, 0.125, 0.375, 0.1875, 0, 0.25, 0.0625, 0.3125, 0.125, 0.375, 0.1875, 0, 0.25, 0.0625, 0.3125, 0.125, 0.375, 0.1875, 0, 0.25, 0.0625, 0.3125, 0.125, 0.375, 0.1875, 0, 0.25, 0.0625, 0.3125, 0.125, 0.375, 0.1875, 0, 0.25, 0.0625, 0.3125, 0.125, 0.375, 0.1875],
  "SoftwareVersions": "syngo MR E11",
  "SpacingBetweenSlices": 2.7,
  "StationName": "AWP66112",
  "TaskName": "narratives",
  "TotalReadoutTime": 0.03969,
  "TxRefAmp": 289.863,
  "WipMemBlock": "a148dde1-50b1-45cf-8420-8510b5d86e50||Sequence: R016 ve11e/master r/434b28f1; Aug  7 2019 18:53:46 by eja",
  "dcmmeta_affine": [
    [-2.680790662765503, -0.09127312153577805, -0.05628253147006035, 121.1372299194336],
    [-0.09383823722600937, 2.6782729625701904, 0.12787416577339172, -90.65597534179688],
    [-0.051506850868463516, -0.12892049551010132, 2.696382999420166, -81.29553985595703],
    [0.0, 0.0, 0.0, 1.0]
],
  "dcmmeta_reorient_transform": [
    [0.0, -1.0, 0.0, 81.0],
    [1.0, 0.0, 0.0, 0.0],
    [0.0, 0.0, 1.0, 0.0],
    [0.0, 0.0, 0.0, 1.0]
],
  "dcmmeta_shape": [82, 82, 56, 1098],
  "dcmmeta_slice_dim": 2,
  "dcmmeta_version": 0.6,
  "global": {
    "const": {
      "AccessionNumber": "A004106",
      "AcquisitionMatrix": [82, 0, 0, 82],
      "AngioFlag": "N",
      "BitsAllocated": 16,
      "BitsStored": 16,
      "BodyPartExamined": "BRAIN",
      "Columns": 656,
      "EchoNumbers": 1,
      "EchoTime": 27.2,
      "EchoTrainLength": 82,
      "FlipAngle": 44.0,
      "HighBit": 15,
      "ImageOrientationPatient": [0.99920373849743, 0.03497607030814, -0.0191980071509, -0.0340199803391, 0.99826530982046, 0.04805218149878],
      "ImagePositionPatient": [-856.93561859257, -921.88000729739, -113.95581435133],
      "ImageType": [
        "ORIGINAL",
        "PRIMARY",
        "M",
        "MB",
        "ND",
        "NORM",
        "MOSAIC"
],
      "ImagedNucleus": "1H",
      "ImagingFrequency": 123.252166,
      "InPlanePhaseEncodingDirection": "COL",
      "MRAcquisitionType": "2D",
      "MagneticFieldStrength": 3.0,
      "Manufacturer": "SIEMENS",
      "ManufacturerModelName": "Prisma",
      "Modality": "MR",
      "NumberOfAverages": 1.0,
      "NumberOfPhaseEncodingSteps": 82,
      "PercentPhaseFieldOfView": 100.0,
      "PercentSampling": 100.0,
      "PerformedProcedureStepStartTime": "103857.941000",
      "PhotometricInterpretation": "MONOCHROME2",
      "PixelBandwidth": 3050.0,
      "PixelRepresentation": 0,
      "PixelSpacing": [2.6829268932343, 2.6829268932343],
      "ProtocolName": "func_run-02_task-narratives_acq-ap-mb8",
      "RepetitionTime": 460.0,
      "Rows": 656,
      "SAR": 0.11274034211496,
      "SamplesPerPixel": 1,
      "ScanOptions": "FS",
      "ScanningSequence": "EP",
      "SequenceName": "epfid2d1_82",
      "SequenceVariant": [
        "SK",
        "SS"
],
      "SeriesDescription": "func_run-02_task-narratives_acq-ap-mb8",
      "SeriesNumber": 10,
      "SeriesTime": "105745.466000",
      "SliceLocation": -88.005320985078,
      "SliceThickness": 2.7000000476837,
      "SmallestImagePixelValue": 0,
      "SoftwareVersions": "syngo MR E11",
      "SpacingBetweenSlices": 2.7000000538417,
      "SpecificCharacterSet": "ISO_IR 100",
      "StudyID": "2",
      "StudyTime": "103857.842000",
      "TransmitCoilName": "Body",
      "VariableFlipAngleFlag": "N",
      "WindowCenterWidthExplanation": "Algo1"
    },
    "slices": {}
  },
  "time": {
    "samples": {
      "AcquisitionNumber": [1, 2, 3, 4, 5, 6, 7, 8, 9, 10, 11, 12, 13, 14, 15, 16, 17, 18, 19, 20, 21, 22, 23, 24, 25, 26, 27, 28, 29, 30, 31, 32, 33, 34, 35, 36, 37, 38, 39, 40, 41, 42, 43, 44, 45, 46, 47, 48, 49, 50, 51, 52, 53, 54, 55, 56, 57, 58, 59, 60, 61, 62, 63, 64, 65, 66, 67, 68, 69, 70, 71, 72, 73, 74, 75, 76, 77, 78, 79, 80, 81, 82, 83, 84, 85, 86, 87, 88, 89, 90, 91, 92, 93, 94, 95, 96, 97, 98, 99, 100, 101, 102, 103, 104, 105, 106, 107, 108, 109, 110, 111, 112, 113, 114, 115, 116, 117, 118, 119, 120, 121, 122, 123, 124, 125, 126, 127, 128, 129, 130, 131, 132, 133, 134, 135, 136, 137, 138, 139, 140, 141, 142, 143, 144, 145, 146, 147, 148, 149, 150, 151, 152, 153, 154, 155, 156, 157, 158, 159, 160, 161, 162, 163, 164, 165, 166, 167, 168, 169, 170, 171, 172, 173, 174, 175, 176, 177, 178, 179, 180, 181, 182, 183, 184, 185, 186, 187, 188, 189, 190, 191, 192, 193, 194, 195, 196, 197, 198, 199, 200, 201, 202, 203, 204, 205, 206, 207, 208, 209, 210, 211, 212, 213, 214, 215, 216, 217, 218, 219, 220, 221, 222, 223, 224, 225, 226, 227, 228, 229, 230, 231, 232, 233, 234, 235, 236, 237, 238, 239, 240, 241, 242, 243, 244, 245, 246, 247, 248, 249, 250, 251, 252, 253, 254, 255, 256, 257, 258, 259, 260, 261, 262, 263, 264, 265, 266, 267, 268, 269, 270, 271, 272, 273, 274, 275, 276, 277, 278, 279, 280, 281, 282, 283, 284, 285, 286, 287, 288, 289, 290, 291, 292, 293, 294, 295, 296, 297, 298, 299, 300, 301, 302, 303, 304, 305, 306, 307, 308, 309, 310, 311, 312, 313, 314, 315, 316, 317, 318, 319, 320, 321, 322, 323, 324, 325, 326, 327, 328, 329, 330, 331, 332, 333, 334, 335, 336, 337, 338, 339, 340, 341, 342, 343, 344, 345, 346, 347, 348, 349, 350, 351, 352, 353, 354, 355, 356, 357, 358, 359, 360, 361, 362, 363, 364, 365, 366, 367, 368, 369, 370, 371, 372, 373, 374, 375, 376, 377, 378, 379, 380, 381, 382, 383, 384, 385, 386, 387, 388, 389, 390, 391, 392, 393, 394, 395, 396, 397, 398, 399, 400, 401, 402, 403, 404, 405, 406, 407, 408, 409, 410, 411, 412, 413, 414, 415, 416, 417, 418, 419, 420, 421, 422, 423, 424, 425, 426, 427, 428, 429, 430, 431, 432, 433, 434, 435, 436, 437, 438, 439, 440, 441, 442, 443, 444, 445, 446, 447, 448, 449, 450, 451, 452, 453, 454, 455, 456, 457, 458, 459, 460, 461, 462, 463, 464, 465, 466, 467, 468, 469, 470, 471, 472, 473, 474, 475, 476, 477, 478, 479, 480, 481, 482, 483, 484, 485, 486, 487, 488, 489, 490, 491, 492, 493, 494, 495, 496, 497, 498, 499, 500, 501, 502, 503, 504, 505, 506, 507, 508, 509, 510, 511, 512, 513, 514, 515, 516, 517, 518, 519, 520, 521, 522, 523, 524, 525, 526, 527, 528, 529, 530, 531, 532, 533, 534, 535, 536, 537, 538, 539, 540, 541, 542, 543, 544, 545, 546, 547, 548, 549, 550, 551, 552, 553, 554, 555, 556, 557, 558, 559, 560, 561, 562, 563, 564, 565, 566, 567, 568, 569, 570, 571, 572, 573, 574, 575, 576, 577, 578, 579, 580, 581, 582, 583, 584, 585, 586, 587, 588, 589, 590, 591, 592, 593, 594, 595, 596, 597, 598, 599, 600, 601, 602, 603, 604, 605, 606, 607, 608, 609, 610, 611, 612, 613, 614, 615, 616, 617, 618, 619, 620, 621, 622, 623, 624, 625, 626, 627, 628, 629, 630, 631, 632, 633, 634, 635, 636, 637, 638, 639, 640, 641, 642, 643, 644, 645, 646, 647, 648, 649, 650, 651, 652, 653, 654, 655, 656, 657, 658, 659, 660, 661, 662, 663, 664, 665, 666, 667, 668, 669, 670, 671, 672, 673, 674, 675, 676, 677, 678, 679, 680, 681, 682, 683, 684, 685, 686, 687, 688, 689, 690, 691, 692, 693, 694, 695, 696, 697, 698, 699, 700, 701, 702, 703, 704, 705, 706, 707, 708, 709, 710, 711, 712, 713, 714, 715, 716, 717, 718, 719, 720, 721, 722, 723, 724, 725, 726, 727, 728, 729, 730, 731, 732, 733, 734, 735, 736, 737, 738, 739, 740, 741, 742, 743, 744, 745, 746, 747, 748, 749, 750, 751, 752, 753, 754, 755, 756, 757, 758, 759, 760, 761, 762, 763, 764, 765, 766, 767, 768, 769, 770, 771, 772, 773, 774, 775, 776, 777, 778, 779, 780, 781, 782, 783, 784, 785, 786, 787, 788, 789, 790, 791, 792, 793, 794, 795, 796, 797, 798, 799, 800, 801, 802, 803, 804, 805, 806, 807, 808, 809, 810, 811, 812, 813, 814, 815, 816, 817, 818, 819, 820, 821, 822, 823, 824, 825, 826, 827, 828, 829, 830, 831, 832, 833, 834, 835, 836, 837, 838, 839, 840, 841, 842, 843, 844, 845, 846, 847, 848, 849, 850, 851, 852, 853, 854, 855, 856, 857, 858, 859, 860, 861, 862, 863, 864, 865, 866, 867, 868, 869, 870, 871, 872, 873, 874, 875, 876, 877, 878, 879, 880, 881, 882, 883, 884, 885, 886, 887, 888, 889, 890, 891, 892, 893, 894, 895, 896, 897, 898, 899, 900, 901, 902, 903, 904, 905, 906, 907, 908, 909, 910, 911, 912, 913, 914, 915, 916, 917, 918, 919, 920, 921, 922, 923, 924, 925, 926, 927, 928, 929, 930, 931, 932, 933, 934, 935, 936, 937, 938, 939, 940, 941, 942, 943, 944, 945, 946, 947, 948, 949, 950, 951, 952, 953, 954, 955, 956, 957, 958, 959, 960, 961, 962, 963, 964, 965, 966, 967, 968, 969, 970, 971, 972, 973, 974, 975, 976, 977, 978, 979, 980, 981, 982, 983, 984, 985, 986, 987, 988, 989, 990, 991, 992, 993, 994, 995, 996, 997, 998, 999, 1000, 1001, 1002, 1003, 1004, 1005, 1006, 1007, 1008, 1009, 1010, 1011, 1012, 1013, 1014, 1015, 1016, 1017, 1018, 1019, 1020, 1021, 1022, 1023, 1024, 1025, 1026, 1027, 1028, 1029, 1030, 1031, 1032, 1033, 1034, 1035, 1036, 1037, 1038, 1039, 1040, 1041, 1042, 1043, 1044, 1045, 1046, 1047, 1048, 1049, 1050, 1051, 1052, 1053, 1054, 1055, 1056, 1057, 1058, 1059, 1060, 1061, 1062, 1063, 1064, 1065, 1066, 1067, 1068, 1069, 1070, 1071, 1072, 1073, 1074, 1075, 1076, 1077, 1078, 1079, 1080, 1081, 1082, 1083, 1084, 1085, 1086, 1087, 1088, 1089, 1090, 1091, 1092, 1093, 1094, 1095, 1096, 1097, 1098],
      "AcquisitionTime": ["105723.867500", "105724.327500", "105724.787500", "105725.247500", "105725.707500", "105726.167500", "105726.627500", "105727.087500", "105727.547500", "105728.007500", "105728.467500", "105728.927500", "105729.387500", "105729.847500", "105730.307500", "105730.767500", "105731.227500", "105731.687500", "105732.147500", "105732.607500", "105733.067500", "105733.527500", "105733.987500", "105734.447500", "105734.907500", "105735.367500", "105735.827500", "105736.287500", "105736.747500", "105737.207500", "105737.667500", "105738.127500", "105738.587500", "105739.047500", "105739.507500", "105739.967500", "105740.427500", "105740.887500", "105741.347500", "105741.807500", "105742.267500", "105742.727500", "105743.187500", "105743.647500", "105744.107500", "105744.567500", "105745.027500", "105745.487500", "105745.947500", "105746.407500", "105746.867500", "105747.327500", "105747.787500", "105748.247500", "105748.707500", "105749.167500", "105749.627500", "105750.087500", "105750.547500", "105751.007500", "105751.467500", "105751.927500", "105752.387500", "105752.847500", "105753.307500", "105753.767500", "105754.227500", "105754.687500", "105755.147500", "105755.607500", "105756.067500", "105756.527500", "105756.987500", "105757.447500", "105757.907500", "105758.367500", "105758.827500", "105759.287500", "105759.747500", "105800.207500", "105800.667500", "105801.127500", "105801.587500", "105802.047500", "105802.507500", "105802.967500", "105803.427500", "105803.887500", "105804.347500", "105804.807500", "105805.267500", "105805.727500", "105806.187500", "105806.647500", "105807.107500", "105807.567500", "105808.027500", "105808.487500", "105808.947500", "105809.407500", "105809.867500", "105810.327500", "105810.787500", "105811.247500", "105811.707500", "105812.167500", "105812.627500", "105813.087500", "105813.547500", "105814.007500", "105814.467500", "105814.927500", "105815.387500", "105815.847500", "105816.307500", "105816.767500", "105817.227500", "105817.687500", "105818.147500", "105818.607500", "105819.067500", "105819.527500", "105819.987500", "105820.447500", "105820.907500", "105821.367500", "105821.827500", "105822.287500", "105822.747500", "105823.207500", "105823.667500", "105824.127500", "105824.587500", "105825.047500", "105825.507500", "105825.967500", "105826.427500", "105826.887500", "105827.347500", "105827.807500", "105828.267500", "105828.727500", "105829.187500", "105829.647500", "105830.107500", "105830.567500", "105831.027500", "105831.487500", "105831.947500", "105832.407500", "105832.867500", "105833.327500", "105833.787500", "105834.247500", "105834.707500", "105835.167500", "105835.627500", "105836.087500", "105836.547500", "105837.007500", "105837.467500", "105837.927500", "105838.387500", "105838.847500", "105839.307500", "105839.767500", "105840.227500", "105840.687500", "105841.147500", "105841.607500", "105842.067500", "105842.527500", "105842.987500", "105843.447500", "105843.907500", "105844.367500", "105844.827500", "105845.287500", "105845.747500", "105846.207500", "105846.667500", "105847.127500", "105847.587500", "105848.047500", "105848.507500", "105848.967500", "105849.427500", "105849.887500", "105850.347500", "105850.807500", "105851.267500", "105851.727500", "105852.187500", "105852.647500", "105853.107500", "105853.567500", "105854.027500", "105854.487500", "105854.947500", "105855.407500", "105855.867500", "105856.327500", "105856.787500", "105857.247500", "105857.707500", "105858.167500", "105858.627500", "105859.087500", "105859.547500", "105900.007500", "105900.467500", "105900.927500", "105901.387500", "105901.847500", "105902.307500", "105902.767500", "105903.227500", "105903.687500", "105904.147500", "105904.607500", "105905.067500", "105905.527500", "105905.987500", "105906.447500", "105906.907500", "105907.367500", "105907.827500", "105908.287500", "105908.747500", "105909.207500", "105909.667500", "105910.127500", "105910.587500", "105911.047500", "105911.507500", "105911.967500", "105912.427500", "105912.887500", "105913.347500", "105913.807500", "105914.267500", "105914.727500", "105915.187500", "105915.647500", "105916.107500", "105916.567500", "105917.027500", "105917.487500", "105917.947500", "105918.407500", "105918.867500", "105919.327500", "105919.787500", "105920.247500", "105920.707500", "105921.167500", "105921.627500", "105922.087500", "105922.547500", "105923.007500", "105923.467500", "105923.927500", "105924.387500", "105924.847500", "105925.307500", "105925.767500", "105926.227500", "105926.687500", "105927.147500", "105927.607500", "105928.067500", "105928.527500", "105928.987500", "105929.447500", "105929.907500", "105930.367500", "105930.827500", "105931.287500", "105931.747500", "105932.207500", "105932.667500", "105933.127500", "105933.587500", "105934.047500", "105934.507500", "105934.967500", "105935.427500", "105935.887500", "105936.347500", "105936.807500", "105937.267500", "105937.727500", "105938.187500", "105938.647500", "105939.107500", "105939.567500", "105940.027500", "105940.487500", "105940.947500", "105941.407500", "105941.867500", "105942.327500", "105942.787500", "105943.247500", "105943.707500", "105944.167500", "105944.627500", "105945.087500", "105945.547500", "105946.007500", "105946.467500", "105946.927500", "105947.387500", "105947.847500", "105948.307500", "105948.767500", "105949.227500", "105949.687500", "105950.147500", "105950.607500", "105951.067500", "105951.527500", "105951.987500", "105952.447500", "105952.907500", "105953.367500", "105953.827500", "105954.287500", "105954.747500", "105955.207500", "105955.667500", "105956.127500", "105956.587500", "105957.047500", "105957.507500", "105957.967500", "105958.427500", "105958.887500", "105959.347500", "105959.807500", "110000.267500", "110000.727500", "110001.187500", "110001.647500", "110002.107500", "110002.567500", "110003.027500", "110003.487500", "110003.947500", "110004.407500", "110004.867500", "110005.327500", "110005.787500", "110006.247500", "110006.707500", "110007.167500", "110007.627500", "110008.087500", "110008.547500", "110009.007500", "110009.467500", "110009.927500", "110010.387500", "110010.847500", "110011.307500", "110011.767500", "110012.227500", "110012.687500", "110013.147500", "110013.607500", "110014.067500", "110014.527500", "110014.987500", "110015.447500", "110015.907500", "110016.367500", "110016.827500", "110017.287500", "110017.747500", "110018.207500", "110018.667500", "110019.127500", "110019.587500", "110020.047500", "110020.507500", "110020.967500", "110021.427500", "110021.887500", "110022.347500", "110022.807500", "110023.267500", "110023.727500", "110024.187500", "110024.647500", "110025.107500", "110025.567500", "110026.027500", "110026.487500", "110026.947500", "110027.407500", "110027.867500", "110028.327500", "110028.787500", "110029.247500", "110029.707500", "110030.167500", "110030.627500", "110031.087500", "110031.547500", "110032.007500", "110032.467500", "110032.927500", "110033.387500", "110033.847500", "110034.307500", "110034.767500", "110035.227500", "110035.687500", "110036.147500", "110036.607500", "110037.067500", "110037.527500", "110037.987500", "110038.447500", "110038.907500", "110039.367500", "110039.827500", "110040.287500", "110040.747500", "110041.207500", "110041.667500", "110042.127500", "110042.587500", "110043.047500", "110043.507500", "110043.967500", "110044.427500", "110044.887500", "110045.347500", "110045.807500", "110046.267500", "110046.727500", "110047.187500", "110047.647500", "110048.107500", "110048.567500", "110049.027500", "110049.487500", "110049.947500", "110050.407500", "110050.867500", "110051.327500", "110051.787500", "110052.247500", "110052.707500", "110053.167500", "110053.627500", "110054.087500", "110054.547500", "110055.007500", "110055.467500", "110055.927500", "110056.387500", "110056.847500", "110057.307500", "110057.767500", "110058.227500", "110058.687500", "110059.147500", "110059.607500", "110100.067500", "110100.527500", "110100.987500", "110101.447500", "110101.907500", "110102.367500", "110102.827500", "110103.287500", "110103.747500", "110104.207500", "110104.667500", "110105.127500", "110105.587500", "110106.047500", "110106.507500", "110106.967500", "110107.427500", "110107.887500", "110108.347500", "110108.807500", "110109.267500", "110109.727500", "110110.187500", "110110.647500", "110111.107500", "110111.567500", "110112.027500", "110112.487500", "110112.947500", "110113.407500", "110113.867500", "110114.327500", "110114.787500", "110115.247500", "110115.707500", "110116.167500", "110116.627500", "110117.087500", "110117.547500", "110118.007500", "110118.467500", "110118.927500", "110119.387500", "110119.847500", "110120.307500", "110120.767500", "110121.227500", "110121.687500", "110122.147500", "110122.607500", "110123.067500", "110123.527500", "110123.987500", "110124.447500", "110124.907500", "110125.367500", "110125.827500", "110126.287500", "110126.747500", "110127.207500", "110127.667500", "110128.127500", "110128.587500", "110129.047500", "110129.507500", "110129.967500", "110130.427500", "110130.887500", "110131.347500", "110131.807500", "110132.267500", "110132.727500", "110133.187500", "110133.647500", "110134.107500", "110134.567500", "110135.027500", "110135.487500", "110135.947500", "110136.407500", "110136.867500", "110137.327500", "110137.787500", "110138.247500", "110138.707500", "110139.167500", "110139.627500", "110140.087500", "110140.547500", "110141.007500", "110141.467500", "110141.927500", "110142.387500", "110142.847500", "110143.307500", "110143.767500", "110144.227500", "110144.687500", "110145.147500", "110145.607500", "110146.067500", "110146.527500", "110146.987500", "110147.447500", "110147.907500", "110148.367500", "110148.827500", "110149.287500", "110149.747500", "110150.207500", "110150.667500", "110151.127500", "110151.587500", "110152.047500", "110152.507500", "110152.967500", "110153.427500", "110153.887500", "110154.347500", "110154.807500", "110155.267500", "110155.727500", "110156.187500", "110156.647500", "110157.107500", "110157.567500", "110158.027500", "110158.487500", "110158.947500", "110159.407500", "110159.867500", "110200.327500", "110200.787500", "110201.247500", "110201.707500", "110202.167500", "110202.627500", "110203.087500", "110203.547500", "110204.007500", "110204.467500", "110204.927500", "110205.387500", "110205.847500", "110206.307500", "110206.767500", "110207.227500", "110207.687500", "110208.147500", "110208.607500", "110209.067500", "110209.527500", "110209.987500", "110210.447500", "110210.907500", "110211.367500", "110211.827500", "110212.287500", "110212.747500", "110213.207500", "110213.667500", "110214.127500", "110214.587500", "110215.047500", "110215.507500", "110215.967500", "110216.427500", "110216.887500", "110217.347500", "110217.807500", "110218.267500", "110218.727500", "110219.187500", "110219.647500", "110220.107500", "110220.567500", "110221.027500", "110221.487500", "110221.947500", "110222.407500", "110222.867500", "110223.327500", "110223.787500", "110224.247500", "110224.707500", "110225.167500", "110225.627500", "110226.087500", "110226.547500", "110227.007500", "110227.467500", "110227.927500", "110228.387500", "110228.847500", "110229.307500", "110229.767500", "110230.227500", "110230.687500", "110231.147500", "110231.607500", "110232.067500", "110232.527500", "110232.987500", "110233.447500", "110233.907500", "110234.367500", "110234.827500", "110235.287500", "110235.747500", "110236.207500", "110236.667500", "110237.127500", "110237.587500", "110238.047500", "110238.507500", "110238.967500", "110239.427500", "110239.887500", "110240.347500", "110240.807500", "110241.267500", "110241.727500", "110242.187500", "110242.647500", "110243.107500", "110243.567500", "110244.027500", "110244.487500", "110244.947500", "110245.407500", "110245.867500", "110246.327500", "110246.787500", "110247.247500", "110247.707500", "110248.167500", "110248.627500", "110249.087500", "110249.547500", "110250.007500", "110250.467500", "110250.927500", "110251.387500", "110251.847500", "110252.307500", "110252.767500", "110253.227500", "110253.687500", "110254.147500", "110254.607500", "110255.067500", "110255.527500", "110255.987500", "110256.447500", "110256.907500", "110257.367500", "110257.827500", "110258.287500", "110258.747500", "110259.207500", "110259.667500", "110300.127500", "110300.587500", "110301.047500", "110301.507500", "110301.967500", "110302.427500", "110302.887500", "110303.347500", "110303.807500", "110304.267500", "110304.727500", "110305.187500", "110305.647500", "110306.107500", "110306.567500", "110307.027500", "110307.487500", "110307.947500", "110308.407500", "110308.867500", "110309.327500", "110309.787500", "110310.247500", "110310.707500", "110311.167500", "110311.627500", "110312.087500", "110312.547500", "110313.007500", "110313.467500", "110313.927500", "110314.387500", "110314.847500", "110315.307500", "110315.767500", "110316.227500", "110316.687500", "110317.147500", "110317.607500", "110318.067500", "110318.527500", "110318.987500", "110319.447500", "110319.907500", "110320.367500", "110320.827500", "110321.287500", "110321.747500", "110322.207500", "110322.667500", "110323.127500", "110323.587500", "110324.047500", "110324.507500", "110324.967500", "110325.427500", "110325.887500", "110326.347500", "110326.807500", "110327.267500", "110327.727500", "110328.187500", "110328.647500", "110329.107500", "110329.567500", "110330.027500", "110330.487500", "110330.947500", "110331.407500", "110331.867500", "110332.327500", "110332.787500", "110333.247500", "110333.707500", "110334.167500", "110334.627500", "110335.087500", "110335.547500", "110336.007500", "110336.467500", "110336.927500", "110337.387500", "110337.847500", "110338.307500", "110338.767500", "110339.227500", "110339.687500", "110340.147500", "110340.607500", "110341.067500", "110341.527500", "110341.987500", "110342.447500", "110342.907500", "110343.367500", "110343.827500", "110344.287500", "110344.747500", "110345.207500", "110345.667500", "110346.127500", "110346.587500", "110347.047500", "110347.507500", "110347.967500", "110348.427500", "110348.887500", "110349.347500", "110349.807500", "110350.267500", "110350.727500", "110351.187500", "110351.647500", "110352.107500", "110352.567500", "110353.027500", "110353.487500", "110353.947500", "110354.407500", "110354.867500", "110355.327500", "110355.787500", "110356.247500", "110356.707500", "110357.167500", "110357.627500", "110358.087500", "110358.547500", "110359.007500", "110359.467500", "110359.927500", "110400.387500", "110400.847500", "110401.307500", "110401.767500", "110402.227500", "110402.687500", "110403.147500", "110403.607500", "110404.067500", "110404.527500", "110404.987500", "110405.447500", "110405.907500", "110406.367500", "110406.827500", "110407.287500", "110407.747500", "110408.207500", "110408.667500", "110409.127500", "110409.587500", "110410.047500", "110410.507500", "110410.967500", "110411.427500", "110411.887500", "110412.347500", "110412.807500", "110413.267500", "110413.727500", "110414.187500", "110414.647500", "110415.107500", "110415.567500", "110416.027500", "110416.487500", "110416.947500", "110417.407500", "110417.867500", "110418.327500", "110418.787500", "110419.247500", "110419.707500", "110420.167500", "110420.627500", "110421.087500", "110421.547500", "110422.007500", "110422.467500", "110422.927500", "110423.387500", "110423.847500", "110424.307500", "110424.767500", "110425.227500", "110425.687500", "110426.147500", "110426.607500", "110427.067500", "110427.527500", "110427.987500", "110428.447500", "110428.907500", "110429.367500", "110429.827500", "110430.287500", "110430.747500", "110431.207500", "110431.667500", "110432.127500", "110432.587500", "110433.047500", "110433.507500", "110433.967500", "110434.427500", "110434.887500", "110435.347500", "110435.807500", "110436.267500", "110436.727500", "110437.187500", "110437.647500", "110438.107500", "110438.567500", "110439.027500", "110439.487500", "110439.947500", "110440.407500", "110440.867500", "110441.327500", "110441.787500", "110442.247500", "110442.707500", "110443.167500", "110443.627500", "110444.087500", "110444.547500", "110445.007500", "110445.467500", "110445.927500", "110446.387500", "110446.847500", "110447.307500", "110447.767500", "110448.227500", "110448.687500", "110449.147500", "110449.607500", "110450.067500", "110450.527500", "110450.987500", "110451.447500", "110451.907500", "110452.367500", "110452.827500", "110453.287500", "110453.747500", "110454.207500", "110454.667500", "110455.127500", "110455.587500", "110456.047500", "110456.507500", "110456.967500", "110457.427500", "110457.887500", "110458.347500", "110458.807500", "110459.267500", "110459.727500", "110500.187500", "110500.647500", "110501.107500", "110501.567500", "110502.027500", "110502.487500", "110502.947500", "110503.407500", "110503.867500", "110504.327500", "110504.787500", "110505.247500", "110505.707500", "110506.167500", "110506.627500", "110507.087500", "110507.547500", "110508.007500", "110508.467500", "110508.927500", "110509.387500", "110509.847500", "110510.307500", "110510.767500", "110511.227500", "110511.687500", "110512.147500", "110512.607500", "110513.067500", "110513.527500", "110513.987500", "110514.447500", "110514.907500", "110515.367500", "110515.827500", "110516.287500", "110516.747500", "110517.207500", "110517.667500", "110518.127500", "110518.587500", "110519.047500", "110519.507500", "110519.967500", "110520.427500", "110520.887500", "110521.347500", "110521.807500", "110522.267500", "110522.727500", "110523.187500", "110523.647500", "110524.107500", "110524.567500", "110525.027500", "110525.487500", "110525.947500", "110526.407500", "110526.867500", "110527.327500", "110527.787500", "110528.247500", "110528.707500", "110529.167500", "110529.627500", "110530.087500", "110530.547500", "110531.007500", "110531.467500", "110531.927500", "110532.387500", "110532.847500", "110533.307500", "110533.767500", "110534.227500", "110534.687500", "110535.147500", "110535.607500", "110536.067500", "110536.527500", "110536.987500", "110537.447500", "110537.907500", "110538.367500", "110538.827500", "110539.287500", "110539.747500", "110540.207500", "110540.667500", "110541.127500", "110541.587500", "110542.047500", "110542.507500", "110542.967500", "110543.427500", "110543.887500", "110544.347500", "110544.807500", "110545.267500", "110545.727500", "110546.187500", "110546.647500", "110547.107500", "110547.567500", "110548.027500", "110548.487500"],
