{
  "AcquisitionMatrixPE": 82,
  "AcquisitionNumber": 1,
  "AcquisitionTime": "09:33:46.892500",
  "BandwidthPerPixelPhaseEncode": 24.888,
  "BaseResolution": 82,
  "BodyPartExamined": "BRAIN",
  "ConsistencyInfo": "N4_VE11E_LATEST_20181129",
  "ConversionSoftware": "dcm2niix",
  "ConversionSoftwareVersion": "v1.0.20201102",
  "DerivedVendorReportedEchoSpacing": 0.00049,
  "DeviceSerialNumber": "66112",
  "DwellTime": 2e-06,
  "EchoTime": 0.0272,
  "EchoTrainLength": 82,
  "EffectiveEchoSpacing": 0.00049,
  "FlipAngle": 44,
  "ImageComments": "Unaliased MB8/PE3",
  "ImageOrientationPatientDICOM": [0.999979, 0.00277927, -0.00588939, -0.00226886, 0.996381, 0.0849663],
  "ImageType": [
    "ORIGINAL",
    "PRIMARY",
    "M",
    "MB",
    "ND",
    "NORM",
    "MOSAIC"
],
  "ImagingFrequency": 123.252,
  "InPlanePhaseEncodingDirectionDICOM": "COL",
  "InstitutionAddress": "Maynard 3,Hanover,NH,US,03755",
  "InstitutionName": "Dartmouth College - PBS",
  "InstitutionalDepartmentName": "Department",
  "MRAcquisitionType": "2D",
  "MagneticFieldStrength": 3,
  "Manufacturer": "Siemens",
  "ManufacturersModelName": "Prisma",
  "Modality": "MR",
  "MultibandAccelerationFactor": 8,
  "PartialFourier": 1,
  "PatientPosition": "HFS",
  "PercentPhaseFOV": 100,
  "PercentSampling": 100,
  "PhaseEncodingDirection": "j-",
  "PhaseEncodingSteps": 82,
  "PhaseResolution": 1,
  "PixelBandwidth": 3050,
  "ProcedureStepDescription": "Wager_Wager^1076_spacetop",
  "ProtocolName": "func_run-04_task-social_acq-ap-mb8",
  "PulseSequenceDetails": "%CustomerSeq%\\cmrr_mbep2d_bold",
  "ReceiveCoilActiveElements": "HEA;HEP",
  "ReceiveCoilName": "Head_32",
  "ReconMatrixPE": 82,
  "RepetitionTime": 0.46,
  "SAR": 0.0895572,
  "ScanOptions": "FS",
  "ScanningSequence": "EP",
  "SequenceName": "epfid2d1_82",
  "SequenceVariant": "SK\\SS",
  "SeriesDescription": "func_run-04_task-social_acq-ap-mb8",
  "SeriesNumber": 18,
  "ShimSetting": [4131, -7733, -7215, 631, -88, -92, -16, 128],
  "SliceThickness": 2.7,
  "SliceTiming": [0, 0.25, 0.0625, 0.3125, 0.125, 0.375, 0.1875, 0, 0.25, 0.0625, 0.3125, 0.125, 0.375, 0.1875, 0, 0.25, 0.0625, 0.3125, 0.125, 0.375, 0.1875, 0, 0.25, 0.0625, 0.3125, 0.125, 0.375, 0.1875, 0, 0.25, 0.0625, 0.3125, 0.125, 0.375, 0.1875, 0, 0.25, 0.0625, 0.3125, 0.125, 0.375, 0.1875, 0, 0.25, 0.0625, 0.3125, 0.125, 0.375, 0.1875, 0, 0.25, 0.0625, 0.3125, 0.125, 0.375, 0.1875],
  "SoftwareVersions": "syngo MR E11",
  "SpacingBetweenSlices": 2.7,
  "StationName": "AWP66112",
  "TaskName": "social",
  "TotalReadoutTime": 0.03969,
  "TxRefAmp": 220.272,
  "WipMemBlock": "39d67a97-11a8-4146-94df-8d3b90925ddc||Sequence: R016 ve11e/master r/434b28f1; Aug  7 2019 18:53:46 by eja",
  "dcmmeta_affine": [
    [-2.6828699111938477, -0.0060871965251863, -0.016481388360261917, 110.96304321289062],
    [-0.007456585299223661, 2.673218011856079, 0.2293679565191269, -95.1138916015625],
    [-0.01580079272389412, -0.22795826196670532, 2.6901893615722656, -44.75593185424805],
    [0.0, 0.0, 0.0, 1.0]
],
  "dcmmeta_reorient_transform": [
    [0.0, -1.0, 0.0, 81.0],
    [1.0, 0.0, 0.0, 0.0],
    [0.0, 0.0, 1.0, 0.0],
    [0.0, 0.0, 0.0, 1.0]
],
  "dcmmeta_shape": [82, 82, 56, 872],
  "dcmmeta_slice_dim": 2,
  "dcmmeta_version": 0.6,
  "global": {
    "const": {
      "AccessionNumber": "A003971",
      "AcquisitionMatrix": [82, 0, 0, 82],
      "AngioFlag": "N",
      "BitsAllocated": 16,
      "BitsStored": 16,
      "BodyPartExamined": "BRAIN",
      "Columns": 656,
      "EchoNumbers": 1,
      "EchoTime": 27.2,
      "EchoTrainLength": 82,
      "FlipAngle": 44.0,
      "HighBit": 15,
      "ImageOrientationPatient": [0.99997879516398, 0.00277927259023, -0.0058893858996, -0.0022688641149, 0.99638124593255, 0.08496625806477],
      "ImagePositionPatient": [-878.70664873851, -890.77038771401, -124.10974389099],
      "ImageType": [
        "ORIGINAL",
        "PRIMARY",
        "M",
        "MB",
        "ND",
        "NORM",
        "MOSAIC"
],
      "ImagedNucleus": "1H",
      "ImagingFrequency": 123.252176,
      "InPlanePhaseEncodingDirection": "COL",
      "MRAcquisitionType": "2D",
      "MagneticFieldStrength": 3.0,
      "Manufacturer": "SIEMENS",
      "ManufacturerModelName": "Prisma",
      "Modality": "MR",
      "NumberOfAverages": 1.0,
      "NumberOfPhaseEncodingSteps": 82,
      "PercentPhaseFieldOfView": 100.0,
      "PercentSampling": 100.0,
      "PerformedProcedureStepStartTime": "083257.524000",
      "PhotometricInterpretation": "MONOCHROME2",
      "PixelBandwidth": 3050.0,
      "PixelRepresentation": 0,
      "PixelSpacing": [2.6829268932343, 2.6829268932343],
      "ProtocolName": "func_run-04_task-social_acq-ap-mb8",
      "RepetitionTime": 460.0,
      "Rows": 656,
      "SAR": 0.0895572436543,
      "SamplesPerPixel": 1,
      "ScanOptions": "FS",
      "ScanningSequence": "EP",
      "SequenceName": "epfid2d1_82",
      "SequenceVariant": [
        "SK",
        "SS"
],
      "SeriesDescription": "func_run-04_task-social_acq-ap-mb8",
      "SeriesNumber": 18,
      "SeriesTime": "093413.686000",
      "SliceLocation": -53.350679570355,
      "SliceThickness": 2.7000000476837,
      "SmallestImagePixelValue": 0,
      "SoftwareVersions": "syngo MR E11",
      "SpacingBetweenSlices": 2.6999999482302,
      "SpecificCharacterSet": "ISO_IR 100",
      "StudyID": "1",
      "StudyTime": "083257.390000",
      "TransmitCoilName": "Body",
      "VariableFlipAngleFlag": "N",
      "WindowCenterWidthExplanation": "Algo1"
    },
    "slices": {}
  },
  "time": {
    "samples": {
      "AcquisitionNumber": [1, 2, 3, 4, 5, 6, 7, 8, 9, 10, 11, 12, 13, 14, 15, 16, 17, 18, 19, 20, 21, 22, 23, 24, 25, 26, 27, 28, 29, 30, 31, 32, 33, 34, 35, 36, 37, 38, 39, 40, 41, 42, 43, 44, 45, 46, 47, 48, 49, 50, 51, 52, 53, 54, 55, 56, 57, 58, 59, 60, 61, 62, 63, 64, 65, 66, 67, 68, 69, 70, 71, 72, 73, 74, 75, 76, 77, 78, 79, 80, 81, 82, 83, 84, 85, 86, 87, 88, 89, 90, 91, 92, 93, 94, 95, 96, 97, 98, 99, 100, 101, 102, 103, 104, 105, 106, 107, 108, 109, 110, 111, 112, 113, 114, 115, 116, 117, 118, 119, 120, 121, 122, 123, 124, 125, 126, 127, 128, 129, 130, 131, 132, 133, 134, 135, 136, 137, 138, 139, 140, 141, 142, 143, 144, 145, 146, 147, 148, 149, 150, 151, 152, 153, 154, 155, 156, 157, 158, 159, 160, 161, 162, 163, 164, 165, 166, 167, 168, 169, 170, 171, 172, 173, 174, 175, 176, 177, 178, 179, 180, 181, 182, 183, 184, 185, 186, 187, 188, 189, 190, 191, 192, 193, 194, 195, 196, 197, 198, 199, 200, 201, 202, 203, 204, 205, 206, 207, 208, 209, 210, 211, 212, 213, 214, 215, 216, 217, 218, 219, 220, 221, 222, 223, 224, 225, 226, 227, 228, 229, 230, 231, 232, 233, 234, 235, 236, 237, 238, 239, 240, 241, 242, 243, 244, 245, 246, 247, 248, 249, 250, 251, 252, 253, 254, 255, 256, 257, 258, 259, 260, 261, 262, 263, 264, 265, 266, 267, 268, 269, 270, 271, 272, 273, 274, 275, 276, 277, 278, 279, 280, 281, 282, 283, 284, 285, 286, 287, 288, 289, 290, 291, 292, 293, 294, 295, 296, 297, 298, 299, 300, 301, 302, 303, 304, 305, 306, 307, 308, 309, 310, 311, 312, 313, 314, 315, 316, 317, 318, 319, 320, 321, 322, 323, 324, 325, 326, 327, 328, 329, 330, 331, 332, 333, 334, 335, 336, 337, 338, 339, 340, 341, 342, 343, 344, 345, 346, 347, 348, 349, 350, 351, 352, 353, 354, 355, 356, 357, 358, 359, 360, 361, 362, 363, 364, 365, 366, 367, 368, 369, 370, 371, 372, 373, 374, 375, 376, 377, 378, 379, 380, 381, 382, 383, 384, 385, 386, 387, 388, 389, 390, 391, 392, 393, 394, 395, 396, 397, 398, 399, 400, 401, 402, 403, 404, 405, 406, 407, 408, 409, 410, 411, 412, 413, 414, 415, 416, 417, 418, 419, 420, 421, 422, 423, 424, 425, 426, 427, 428, 429, 430, 431, 432, 433, 434, 435, 436, 437, 438, 439, 440, 441, 442, 443, 444, 445, 446, 447, 448, 449, 450, 451, 452, 453, 454, 455, 456, 457, 458, 459, 460, 461, 462, 463, 464, 465, 466, 467, 468, 469, 470, 471, 472, 473, 474, 475, 476, 477, 478, 479, 480, 481, 482, 483, 484, 485, 486, 487, 488, 489, 490, 491, 492, 493, 494, 495, 496, 497, 498, 499, 500, 501, 502, 503, 504, 505, 506, 507, 508, 509, 510, 511, 512, 513, 514, 515, 516, 517, 518, 519, 520, 521, 522, 523, 524, 525, 526, 527, 528, 529, 530, 531, 532, 533, 534, 535, 536, 537, 538, 539, 540, 541, 542, 543, 544, 545, 546, 547, 548, 549, 550, 551, 552, 553, 554, 555, 556, 557, 558, 559, 560, 561, 562, 563, 564, 565, 566, 567, 568, 569, 570, 571, 572, 573, 574, 575, 576, 577, 578, 579, 580, 581, 582, 583, 584, 585, 586, 587, 588, 589, 590, 591, 592, 593, 594, 595, 596, 597, 598, 599, 600, 601, 602, 603, 604, 605, 606, 607, 608, 609, 610, 611, 612, 613, 614, 615, 616, 617, 618, 619, 620, 621, 622, 623, 624, 625, 626, 627, 628, 629, 630, 631, 632, 633, 634, 635, 636, 637, 638, 639, 640, 641, 642, 643, 644, 645, 646, 647, 648, 649, 650, 651, 652, 653, 654, 655, 656, 657, 658, 659, 660, 661, 662, 663, 664, 665, 666, 667, 668, 669, 670, 671, 672, 673, 674, 675, 676, 677, 678, 679, 680, 681, 682, 683, 684, 685, 686, 687, 688, 689, 690, 691, 692, 693, 694, 695, 696, 697, 698, 699, 700, 701, 702, 703, 704, 705, 706, 707, 708, 709, 710, 711, 712, 713, 714, 715, 716, 717, 718, 719, 720, 721, 722, 723, 724, 725, 726, 727, 728, 729, 730, 731, 732, 733, 734, 735, 736, 737, 738, 739, 740, 741, 742, 743, 744, 745, 746, 747, 748, 749, 750, 751, 752, 753, 754, 755, 756, 757, 758, 759, 760, 761, 762, 763, 764, 765, 766, 767, 768, 769, 770, 771, 772, 773, 774, 775, 776, 777, 778, 779, 780, 781, 782, 783, 784, 785, 786, 787, 788, 789, 790, 791, 792, 793, 794, 795, 796, 797, 798, 799, 800, 801, 802, 803, 804, 805, 806, 807, 808, 809, 810, 811, 812, 813, 814, 815, 816, 817, 818, 819, 820, 821, 822, 823, 824, 825, 826, 827, 828, 829, 830, 831, 832, 833, 834, 835, 836, 837, 838, 839, 840, 841, 842, 843, 844, 845, 846, 847, 848, 849, 850, 851, 852, 853, 854, 855, 856, 857, 858, 859, 860, 861, 862, 863, 864, 865, 866, 867, 868, 869, 870, 871, 872],
      "AcquisitionTime": ["093346.892500", "093347.352500", "093347.812500", "093348.272500", "093348.732500", "093349.192500", "093349.652500", "093350.112500", "093350.572500", "093351.032500", "093351.492500", "093351.952500", "093352.412500", "093352.872500", "093353.332500", "093353.792500", "093354.252500", "093354.712500", "093355.172500", "093355.632500", "093356.092500", "093356.552500", "093357.012500", "093357.472500", "093357.932500", "093358.392500", "093358.852500", "093359.312500", "093359.772500", "093400.232500", "093400.692500", "093401.152500", "093401.612500", "093402.072500", "093402.532500", "093402.992500", "093403.452500", "093403.912500", "093404.372500", "093404.832500", "093405.292500", "093405.752500", "093406.212500", "093406.672500", "093407.132500", "093407.592500", "093408.052500", "093408.512500", "093408.972500", "093409.432500", "093409.892500", "093410.352500", "093410.812500", "093411.272500", "093411.732500", "093412.192500", "093412.652500", "093413.112500", "093413.572500", "093414.032500", "093414.492500", "093414.952500", "093415.412500", "093415.872500", "093416.332500", "093416.792500", "093417.252500", "093417.712500", "093418.172500", "093418.632500", "093419.092500", "093419.552500", "093420.012500", "093420.472500", "093420.932500", "093421.392500", "093421.852500", "093422.312500", "093422.772500", "093423.232500", "093423.692500", "093424.152500", "093424.612500", "093425.072500", "093425.532500", "093425.992500", "093426.452500", "093426.912500", "093427.372500", "093427.832500", "093428.292500", "093428.752500", "093429.212500", "093429.672500", "093430.132500", "093430.592500", "093431.052500", "093431.512500", "093431.972500", "093432.432500", "093432.892500", "093433.352500", "093433.812500", "093434.272500", "093434.732500", "093435.192500", "093435.652500", "093436.112500", "093436.572500", "093437.032500", "093437.492500", "093437.952500", "093438.412500", "093438.872500", "093439.332500", "093439.792500", "093440.252500", "093440.712500", "093441.172500", "093441.632500", "093442.092500", "093442.552500", "093443.012500", "093443.472500", "093443.932500", "093444.392500", "093444.852500", "093445.312500", "093445.772500", "093446.232500", "093446.692500", "093447.152500", "093447.612500", "093448.072500", "093448.532500", "093448.992500", "093449.452500", "093449.912500", "093450.372500", "093450.832500", "093451.292500", "093451.752500", "093452.212500", "093452.672500", "093453.132500", "093453.592500", "093454.052500", "093454.512500", "093454.972500", "093455.432500", "093455.892500", "093456.352500", "093456.812500", "093457.272500", "093457.732500", "093458.192500", "093458.652500", "093459.112500", "093459.572500", "093500.032500", "093500.492500", "093500.952500", "093501.412500", "093501.872500", "093502.332500", "093502.792500", "093503.252500", "093503.712500", "093504.172500", "093504.632500", "093505.092500", "093505.552500", "093506.012500", "093506.472500", "093506.932500", "093507.392500", "093507.852500", "093508.312500", "093508.772500", "093509.232500", "093509.692500", "093510.152500", "093510.612500", "093511.072500", "093511.532500", "093511.992500", "093512.452500", "093512.912500", "093513.372500", "093513.832500", "093514.292500", "093514.752500", "093515.212500", "093515.672500", "093516.132500", "093516.592500", "093517.052500", "093517.512500", "093517.972500", "093518.432500", "093518.892500", "093519.352500", "093519.812500", "093520.272500", "093520.732500", "093521.192500", "093521.652500", "093522.112500", "093522.572500", "093523.032500", "093523.492500", "093523.952500", "093524.412500", "093524.872500", "093525.332500", "093525.792500", "093526.252500", "093526.712500", "093527.172500", "093527.632500", "093528.092500", "093528.552500", "093529.012500", "093529.472500", "093529.932500", "093530.392500", "093530.852500", "093531.312500", "093531.772500", "093532.232500", "093532.692500", "093533.152500", "093533.612500", "093534.072500", "093534.532500", "093534.992500", "093535.452500", "093535.912500", "093536.372500", "093536.832500", "093537.292500", "093537.752500", "093538.212500", "093538.672500", "093539.132500", "093539.592500", "093540.052500", "093540.512500", "093540.972500", "093541.432500", "093541.892500", "093542.352500", "093542.812500", "093543.272500", "093543.732500", "093544.192500", "093544.652500", "093545.112500", "093545.572500", "093546.032500", "093546.492500", "093546.952500", "093547.412500", "093547.872500", "093548.332500", "093548.792500", "093549.252500", "093549.712500", "093550.172500", "093550.632500", "093551.092500", "093551.552500", "093552.012500", "093552.472500", "093552.932500", "093553.392500", "093553.852500", "093554.312500", "093554.772500", "093555.232500", "093555.692500", "093556.152500", "093556.612500", "093557.072500", "093557.532500", "093557.992500", "093558.452500", "093558.912500", "093559.372500", "093559.832500", "093600.292500", "093600.752500", "093601.212500", "093601.672500", "093602.132500", "093602.592500", "093603.052500", "093603.512500", "093603.972500", "093604.432500", "093604.892500", "093605.352500", "093605.812500", "093606.272500", "093606.732500", "093607.192500", "093607.652500", "093608.112500", "093608.572500", "093609.032500", "093609.492500", "093609.952500", "093610.412500", "093610.872500", "093611.332500", "093611.792500", "093612.252500", "093612.712500", "093613.172500", "093613.632500", "093614.092500", "093614.552500", "093615.012500", "093615.472500", "093615.932500", "093616.392500", "093616.852500", "093617.312500", "093617.772500", "093618.232500", "093618.692500", "093619.152500", "093619.612500", "093620.072500", "093620.532500", "093620.992500", "093621.452500", "093621.912500", "093622.372500", "093622.832500", "093623.292500", "093623.752500", "093624.212500", "093624.672500", "093625.132500", "093625.592500", "093626.052500", "093626.512500", "093626.972500", "093627.432500", "093627.892500", "093628.352500", "093628.812500", "093629.272500", "093629.732500", "093630.192500", "093630.652500", "093631.112500", "093631.572500", "093632.032500", "093632.492500", "093632.952500", "093633.412500", "093633.872500", "093634.332500", "093634.792500", "093635.252500", "093635.712500", "093636.172500", "093636.632500", "093637.092500", "093637.552500", "093638.012500", "093638.472500", "093638.932500", "093639.392500", "093639.852500", "093640.312500", "093640.772500", "093641.232500", "093641.692500", "093642.152500", "093642.612500", "093643.072500", "093643.532500", "093643.992500", "093644.452500", "093644.912500", "093645.372500", "093645.832500", "093646.292500", "093646.752500", "093647.212500", "093647.672500", "093648.132500", "093648.592500", "093649.052500", "093649.512500", "093649.972500", "093650.432500", "093650.892500", "093651.352500", "093651.812500", "093652.272500", "093652.732500", "093653.192500", "093653.652500", "093654.112500", "093654.572500", "093655.032500", "093655.492500", "093655.952500", "093656.412500", "093656.872500", "093657.332500", "093657.792500", "093658.252500", "093658.712500", "093659.172500", "093659.632500", "093700.092500", "093700.552500", "093701.012500", "093701.472500", "093701.932500", "093702.392500", "093702.852500", "093703.312500", "093703.772500", "093704.232500", "093704.692500", "093705.152500", "093705.612500", "093706.072500", "093706.532500", "093706.992500", "093707.452500", "093707.912500", "093708.372500", "093708.832500", "093709.292500", "093709.752500", "093710.212500", "093710.672500", "093711.132500", "093711.592500", "093712.052500", "093712.512500", "093712.972500", "093713.432500", "093713.892500", "093714.352500", "093714.812500", "093715.272500", "093715.732500", "093716.192500", "093716.652500", "093717.112500", "093717.572500", "093718.032500", "093718.492500", "093718.952500", "093719.412500", "093719.872500", "093720.332500", "093720.792500", "093721.252500", "093721.712500", "093722.172500", "093722.632500", "093723.092500", "093723.552500", "093724.012500", "093724.472500", "093724.932500", "093725.392500", "093725.852500", "093726.312500", "093726.772500", "093727.232500", "093727.692500", "093728.152500", "093728.612500", "093729.072500", "093729.532500", "093729.992500", "093730.452500", "093730.912500", "093731.372500", "093731.832500", "093732.292500", "093732.752500", "093733.212500", "093733.672500", "093734.132500", "093734.592500", "093735.052500", "093735.512500", "093735.972500", "093736.432500", "093736.892500", "093737.352500", "093737.812500", "093738.272500", "093738.732500", "093739.192500", "093739.652500", "093740.112500", "093740.572500", "093741.032500", "093741.492500", "093741.952500", "093742.412500", "093742.872500", "093743.332500", "093743.792500", "093744.252500", "093744.712500", "093745.172500", "093745.632500", "093746.092500", "093746.552500", "093747.012500", "093747.472500", "093747.932500", "093748.392500", "093748.852500", "093749.312500", "093749.772500", "093750.232500", "093750.692500", "093751.152500", "093751.612500", "093752.072500", "093752.532500", "093752.992500", "093753.452500", "093753.912500", "093754.372500", "093754.832500", "093755.292500", "093755.752500", "093756.212500", "093756.672500", "093757.132500", "093757.592500", "093758.052500", "093758.512500", "093758.972500", "093759.432500", "093759.892500", "093800.352500", "093800.812500", "093801.272500", "093801.732500", "093802.192500", "093802.652500", "093803.112500", "093803.572500", "093804.032500", "093804.492500", "093804.952500", "093805.412500", "093805.872500", "093806.332500", "093806.792500", "093807.252500", "093807.712500", "093808.172500", "093808.632500", "093809.092500", "093809.552500", "093810.012500", "093810.472500", "093810.932500", "093811.392500", "093811.852500", "093812.312500", "093812.772500", "093813.232500", "093813.692500", "093814.152500", "093814.612500", "093815.072500", "093815.532500", "093815.992500", "093816.452500", "093816.912500", "093817.372500", "093817.832500", "093818.292500", "093818.752500", "093819.212500", "093819.672500", "093820.132500", "093820.592500", "093821.052500", "093821.512500", "093821.972500", "093822.432500", "093822.892500", "093823.352500", "093823.812500", "093824.272500", "093824.732500", "093825.192500", "093825.652500", "093826.112500", "093826.572500", "093827.032500", "093827.492500", "093827.952500", "093828.412500", "093828.872500", "093829.332500", "093829.792500", "093830.252500", "093830.712500", "093831.172500", "093831.632500", "093832.092500", "093832.552500", "093833.012500", "093833.472500", "093833.932500", "093834.392500", "093834.852500", "093835.312500", "093835.772500", "093836.232500", "093836.692500", "093837.152500", "093837.612500", "093838.072500", "093838.532500", "093838.992500", "093839.452500", "093839.912500", "093840.372500", "093840.832500", "093841.292500", "093841.752500", "093842.212500", "093842.672500", "093843.132500", "093843.592500", "093844.052500", "093844.512500", "093844.972500", "093845.432500", "093845.892500", "093846.352500", "093846.812500", "093847.272500", "093847.732500", "093848.192500", "093848.652500", "093849.112500", "093849.572500", "093850.032500", "093850.492500", "093850.952500", "093851.412500", "093851.872500", "093852.332500", "093852.792500", "093853.252500", "093853.712500", "093854.172500", "093854.632500", "093855.092500", "093855.552500", "093856.012500", "093856.472500", "093856.932500", "093857.392500", "093857.852500", "093858.312500", "093858.772500", "093859.232500", "093859.692500", "093900.152500", "093900.612500", "093901.072500", "093901.532500", "093901.992500", "093902.452500", "093902.912500", "093903.372500", "093903.832500", "093904.292500", "093904.752500", "093905.212500", "093905.672500", "093906.132500", "093906.592500", "093907.052500", "093907.512500", "093907.972500", "093908.432500", "093908.892500", "093909.352500", "093909.812500", "093910.272500", "093910.732500", "093911.192500", "093911.652500", "093912.112500", "093912.572500", "093913.032500", "093913.492500", "093913.952500", "093914.412500", "093914.872500", "093915.332500", "093915.792500", "093916.252500", "093916.712500", "093917.172500", "093917.632500", "093918.092500", "093918.552500", "093919.012500", "093919.472500", "093919.932500", "093920.392500", "093920.852500", "093921.312500", "093921.772500", "093922.232500", "093922.692500", "093923.152500", "093923.612500", "093924.072500", "093924.532500", "093924.992500", "093925.452500", "093925.912500", "093926.372500", "093926.832500", "093927.292500", "093927.752500", "093928.212500", "093928.672500", "093929.132500", "093929.592500", "093930.052500", "093930.512500", "093930.972500", "093931.432500", "093931.892500", "093932.352500", "093932.812500", "093933.272500", "093933.732500", "093934.192500", "093934.652500", "093935.112500", "093935.572500", "093936.032500", "093936.492500", "093936.952500", "093937.412500", "093937.872500", "093938.332500", "093938.792500", "093939.252500", "093939.712500", "093940.172500", "093940.632500", "093941.092500", "093941.552500", "093942.012500", "093942.472500", "093942.932500", "093943.392500", "093943.852500", "093944.312500", "093944.772500", "093945.232500", "093945.692500", "093946.152500", "093946.612500", "093947.072500", "093947.532500", "093947.992500", "093948.452500", "093948.912500", "093949.372500", "093949.832500", "093950.292500", "093950.752500", "093951.212500", "093951.672500", "093952.132500", "093952.592500", "093953.052500", "093953.512500", "093953.972500", "093954.432500", "093954.892500", "093955.352500", "093955.812500", "093956.272500", "093956.732500", "093957.192500", "093957.652500", "093958.112500", "093958.572500", "093959.032500", "093959.492500", "093959.952500", "094000.412500", "094000.872500", "094001.332500", "094001.792500", "094002.252500", "094002.712500", "094003.172500", "094003.632500", "094004.092500", "094004.552500", "094005.012500", "094005.472500", "094005.932500", "094006.392500", "094006.852500", "094007.312500", "094007.772500", "094008.232500", "094008.692500", "094009.152500", "094009.612500", "094010.072500", "094010.532500", "094010.992500", "094011.452500", "094011.912500", "094012.372500", "094012.832500", "094013.292500", "094013.752500", "094014.212500", "094014.672500", "094015.132500", "094015.592500", "094016.052500", "094016.512500", "094016.972500", "094017.432500", "094017.892500", "094018.352500", "094018.812500", "094019.272500", "094019.732500", "094020.192500", "094020.652500", "094021.112500", "094021.572500", "094022.032500", "094022.492500", "094022.952500", "094023.412500", "094023.872500", "094024.332500", "094024.792500", "094025.252500", "094025.712500", "094026.172500", "094026.632500", "094027.092500", "094027.552500"],
