{
  "AcquisitionMatrixPE": 82,
  "AcquisitionNumber": 1,
  "AcquisitionTime": "10:16:51.702500",
  "BandwidthPerPixelPhaseEncode": 24.888,
  "BaseResolution": 82,
  "BodyPartExamined": "BRAIN",
  "ConsistencyInfo": "N4_VE11E_LATEST_20181129",
  "ConversionSoftware": "dcm2niix",
  "ConversionSoftwareVersion": "v1.0.20201102",
  "DerivedVendorReportedEchoSpacing": 0.00049,
  "DeviceSerialNumber": "66112",
  "DwellTime": 2e-06,
  "EchoTime": 0.0272,
  "EchoTrainLength": 82,
  "EffectiveEchoSpacing": 0.00049,
  "FlipAngle": 44,
  "ImageComments": "Unaliased MB8/PE3",
  "ImageOrientationPatientDICOM": [0.999805, -0.0197302, -0.000136972, 0.0197209, 0.99907, 0.0383489],
  "ImageType": [
    "ORIGINAL",
    "PRIMARY",
    "M",
    "MB",
    "ND",
    "NORM",
    "MOSAIC"
],
  "ImagingFrequency": 123.252,
  "InPlanePhaseEncodingDirectionDICOM": "COL",
  "InstitutionAddress": "Maynard 3,Hanover,NH,US,03755",
  "InstitutionName": "Dartmouth College - PBS",
  "InstitutionalDepartmentName": "Department",
  "MRAcquisitionType": "2D",
  "MagneticFieldStrength": 3,
  "Manufacturer": "Siemens",
  "ManufacturersModelName": "Prisma",
  "Modality": "MR",
  "MultibandAccelerationFactor": 8,
  "PartialFourier": 1,
  "PatientPosition": "HFS",
  "PercentPhaseFOV": 100,
  "PercentSampling": 100,
  "PhaseEncodingDirection": "j-",
  "PhaseEncodingSteps": 82,
  "PhaseResolution": 1,
  "PixelBandwidth": 3050,
  "ProcedureStepDescription": "Wager_Wager^1076_spacetop",
  "ProtocolName": "func_run-03_task-alignvideo_acq-ap-mb8",
  "PulseSequenceDetails": "%CustomerSeq%\\cmrr_mbep2d_bold",
  "ReceiveCoilActiveElements": "HEA;HEP",
  "ReceiveCoilName": "Head_32",
  "ReconMatrixPE": 82,
  "RepetitionTime": 0.46,
  "SAR": 0.0896362,
  "ScanOptions": "FS",
  "ScanningSequence": "EP",
  "SequenceName": "epfid2d1_82",
  "SequenceVariant": "SK\\SS",
  "SeriesDescription": "func_run-03_task-alignvideo_acq-ap-mb8",
  "SeriesNumber": 34,
  "ShimSetting": [4131, -7733, -7209, 653, -88, -96, -19, 128],
  "SliceThickness": 2.7,
  "SliceTiming": [0, 0.2525, 0.0625, 0.315, 0.125, 0.3775, 0.19, 0, 0.2525, 0.0625, 0.315, 0.125, 0.3775, 0.19, 0, 0.2525, 0.0625, 0.315, 0.125, 0.3775, 0.19, 0, 0.2525, 0.0625, 0.315, 0.125, 0.3775, 0.19, 0, 0.2525, 0.0625, 0.315, 0.125, 0.3775, 0.19, 0, 0.2525, 0.0625, 0.315, 0.125, 0.3775, 0.19, 0, 0.2525, 0.0625, 0.315, 0.125, 0.3775, 0.19, 0, 0.2525, 0.0625, 0.315, 0.125, 0.3775, 0.19],
  "SoftwareVersions": "syngo MR E11",
  "SpacingBetweenSlices": 2.7,
  "StationName": "AWP66112",
  "TaskName": "alignvideo",
  "TotalReadoutTime": 0.03969,
  "TxRefAmp": 220.272,
  "WipMemBlock": "dd39b091-1a79-49af-8f04-a8346a921b8c||Sequence: R016 ve11e/master r/434b28f1; Aug  7 2019 18:53:46 by eja",
  "dcmmeta_affine": [
    [-2.6824045181274414, 0.0529097318649292, 0.0016734214732423425, 108.2618179321289],
    [0.05293457955121994, 2.6804311275482178, 0.10352914780378342, -100.70755004882812],
    [-0.00036748466663993895, -0.10288728028535843, 2.6980137825012207, -50.45344924926758],
    [0.0, 0.0, 0.0, 1.0]
],
  "dcmmeta_reorient_transform": [
    [0.0, -1.0, 0.0, 81.0],
    [1.0, 0.0, 0.0, 0.0],
    [0.0, 0.0, 1.0, 0.0],
    [0.0, 0.0, 0.0, 1.0]
],
  "dcmmeta_shape": [82, 82, 56, 1016],
  "dcmmeta_slice_dim": 2,
  "dcmmeta_version": 0.6,
  "global": {
    "const": {
      "AccessionNumber": "A003971",
      "AcquisitionMatrix": [82, 0, 0, 82],
      "AngioFlag": "N",
      "BitsAllocated": 16,
      "BitsStored": 16,
      "BodyPartExamined": "BRAIN",
      "Columns": 656,
      "EchoNumbers": 1,
      "EchoTime": 27.2,
      "EchoTrainLength": 82,
      "FlipAngle": 44.0,
      "HighBit": 15,
      "ImageOrientationPatient": [0.9998053320333, -0.0197301615955, -0.0001369715552, 0.01972090016825, 0.9990697915848, 0.03834889358579],
      "ImagePositionPatient": [-897.5827253966, -870.49890859459, -88.210499451825],
      "ImageType": [
        "ORIGINAL",
        "PRIMARY",
        "M",
        "MB",
        "ND",
        "NORM",
        "MOSAIC"
],
      "ImagedNucleus": "1H",
      "ImagingFrequency": 123.252177,
      "InPlanePhaseEncodingDirection": "COL",
      "MRAcquisitionType": "2D",
      "MagneticFieldStrength": 3.0,
      "Manufacturer": "SIEMENS",
      "ManufacturerModelName": "Prisma",
      "Modality": "MR",
      "NumberOfAverages": 1.0,
      "NumberOfPhaseEncodingSteps": 82,
      "PercentPhaseFieldOfView": 100.0,
      "PercentSampling": 100.0,
      "PerformedProcedureStepStartTime": "083257.524000",
      "PhotometricInterpretation": "MONOCHROME2",
      "PixelBandwidth": 3050.0,
      "PixelRepresentation": 0,
      "PixelSpacing": [2.6829268932343, 2.6829268932343],
      "ProtocolName": "func_run-03_task-alignvideo_acq-ap-mb8",
      "RepetitionTime": 460.0,
      "Rows": 656,
      "SAR": 0.08963620024251,
      "SamplesPerPixel": 1,
      "ScanOptions": "FS",
      "ScanningSequence": "EP",
      "SequenceName": "epfid2d1_82",
      "SequenceVariant": [
        "SK",
        "SS"
],
      "SeriesDescription": "func_run-03_task-alignvideo_acq-ap-mb8",
      "SeriesNumber": 34,
      "SeriesTime": "101713.864000",
      "SliceLocation": -54.210780089343,
      "SliceThickness": 2.7000000476837,
      "SmallestImagePixelValue": 0,
      "SoftwareVersions": "syngo MR E11",
      "SpacingBetweenSlices": 2.6999999771875,
      "SpecificCharacterSet": "ISO_IR 100",
      "StudyID": "1",
      "StudyTime": "083257.390000",
      "TransmitCoilName": "Body",
      "VariableFlipAngleFlag": "N",
      "WindowCenterWidthExplanation": "Algo1"
    },
    "slices": {}
  },
  "time": {
    "samples": {
      "AcquisitionNumber": [1, 2, 3, 4, 5, 6, 7, 8, 9, 10, 11, 12, 13, 14, 15, 16, 17, 18, 19, 20, 21, 22, 23, 24, 25, 26, 27, 28, 29, 30, 31, 32, 33, 34, 35, 36, 37, 38, 39, 40, 41, 42, 43, 44, 45, 46, 47, 48, 49, 50, 51, 52, 53, 54, 55, 56, 57, 58, 59, 60, 61, 62, 63, 64, 65, 66, 67, 68, 69, 70, 71, 72, 73, 74, 75, 76, 77, 78, 79, 80, 81, 82, 83, 84, 85, 86, 87, 88, 89, 90, 91, 92, 93, 94, 95, 96, 97, 98, 99, 100, 101, 102, 103, 104, 105, 106, 107, 108, 109, 110, 111, 112, 113, 114, 115, 116, 117, 118, 119, 120, 121, 122, 123, 124, 125, 126, 127, 128, 129, 130, 131, 132, 133, 134, 135, 136, 137, 138, 139, 140, 141, 142, 143, 144, 145, 146, 147, 148, 149, 150, 151, 152, 153, 154, 155, 156, 157, 158, 159, 160, 161, 162, 163, 164, 165, 166, 167, 168, 169, 170, 171, 172, 173, 174, 175, 176, 177, 178, 179, 180, 181, 182, 183, 184, 185, 186, 187, 188, 189, 190, 191, 192, 193, 194, 195, 196, 197, 198, 199, 200, 201, 202, 203, 204, 205, 206, 207, 208, 209, 210, 211, 212, 213, 214, 215, 216, 217, 218, 219, 220, 221, 222, 223, 224, 225, 226, 227, 228, 229, 230, 231, 232, 233, 234, 235, 236, 237, 238, 239, 240, 241, 242, 243, 244, 245, 246, 247, 248, 249, 250, 251, 252, 253, 254, 255, 256, 257, 258, 259, 260, 261, 262, 263, 264, 265, 266, 267, 268, 269, 270, 271, 272, 273, 274, 275, 276, 277, 278, 279, 280, 281, 282, 283, 284, 285, 286, 287, 288, 289, 290, 291, 292, 293, 294, 295, 296, 297, 298, 299, 300, 301, 302, 303, 304, 305, 306, 307, 308, 309, 310, 311, 312, 313, 314, 315, 316, 317, 318, 319, 320, 321, 322, 323, 324, 325, 326, 327, 328, 329, 330, 331, 332, 333, 334, 335, 336, 337, 338, 339, 340, 341, 342, 343, 344, 345, 346, 347, 348, 349, 350, 351, 352, 353, 354, 355, 356, 357, 358, 359, 360, 361, 362, 363, 364, 365, 366, 367, 368, 369, 370, 371, 372, 373, 374, 375, 376, 377, 378, 379, 380, 381, 382, 383, 384, 385, 386, 387, 388, 389, 390, 391, 392, 393, 394, 395, 396, 397, 398, 399, 400, 401, 402, 403, 404, 405, 406, 407, 408, 409, 410, 411, 412, 413, 414, 415, 416, 417, 418, 419, 420, 421, 422, 423, 424, 425, 426, 427, 428, 429, 430, 431, 432, 433, 434, 435, 436, 437, 438, 439, 440, 441, 442, 443, 444, 445, 446, 447, 448, 449, 450, 451, 452, 453, 454, 455, 456, 457, 458, 459, 460, 461, 462, 463, 464, 465, 466, 467, 468, 469, 470, 471, 472, 473, 474, 475, 476, 477, 478, 479, 480, 481, 482, 483, 484, 485, 486, 487, 488, 489, 490, 491, 492, 493, 494, 495, 496, 497, 498, 499, 500, 501, 502, 503, 504, 505, 506, 507, 508, 509, 510, 511, 512, 513, 514, 515, 516, 517, 518, 519, 520, 521, 522, 523, 524, 525, 526, 527, 528, 529, 530, 531, 532, 533, 534, 535, 536, 537, 538, 539, 540, 541, 542, 543, 544, 545, 546, 547, 548, 549, 550, 551, 552, 553, 554, 555, 556, 557, 558, 559, 560, 561, 562, 563, 564, 565, 566, 567, 568, 569, 570, 571, 572, 573, 574, 575, 576, 577, 578, 579, 580, 581, 582, 583, 584, 585, 586, 587, 588, 589, 590, 591, 592, 593, 594, 595, 596, 597, 598, 599, 600, 601, 602, 603, 604, 605, 606, 607, 608, 609, 610, 611, 612, 613, 614, 615, 616, 617, 618, 619, 620, 621, 622, 623, 624, 625, 626, 627, 628, 629, 630, 631, 632, 633, 634, 635, 636, 637, 638, 639, 640, 641, 642, 643, 644, 645, 646, 647, 648, 649, 650, 651, 652, 653, 654, 655, 656, 657, 658, 659, 660, 661, 662, 663, 664, 665, 666, 667, 668, 669, 670, 671, 672, 673, 674, 675, 676, 677, 678, 679, 680, 681, 682, 683, 684, 685, 686, 687, 688, 689, 690, 691, 692, 693, 694, 695, 696, 697, 698, 699, 700, 701, 702, 703, 704, 705, 706, 707, 708, 709, 710, 711, 712, 713, 714, 715, 716, 717, 718, 719, 720, 721, 722, 723, 724, 725, 726, 727, 728, 729, 730, 731, 732, 733, 734, 735, 736, 737, 738, 739, 740, 741, 742, 743, 744, 745, 746, 747, 748, 749, 750, 751, 752, 753, 754, 755, 756, 757, 758, 759, 760, 761, 762, 763, 764, 765, 766, 767, 768, 769, 770, 771, 772, 773, 774, 775, 776, 777, 778, 779, 780, 781, 782, 783, 784, 785, 786, 787, 788, 789, 790, 791, 792, 793, 794, 795, 796, 797, 798, 799, 800, 801, 802, 803, 804, 805, 806, 807, 808, 809, 810, 811, 812, 813, 814, 815, 816, 817, 818, 819, 820, 821, 822, 823, 824, 825, 826, 827, 828, 829, 830, 831, 832, 833, 834, 835, 836, 837, 838, 839, 840, 841, 842, 843, 844, 845, 846, 847, 848, 849, 850, 851, 852, 853, 854, 855, 856, 857, 858, 859, 860, 861, 862, 863, 864, 865, 866, 867, 868, 869, 870, 871, 872, 873, 874, 875, 876, 877, 878, 879, 880, 881, 882, 883, 884, 885, 886, 887, 888, 889, 890, 891, 892, 893, 894, 895, 896, 897, 898, 899, 900, 901, 902, 903, 904, 905, 906, 907, 908, 909, 910, 911, 912, 913, 914, 915, 916, 917, 918, 919, 920, 921, 922, 923, 924, 925, 926, 927, 928, 929, 930, 931, 932, 933, 934, 935, 936, 937, 938, 939, 940, 941, 942, 943, 944, 945, 946, 947, 948, 949, 950, 951, 952, 953, 954, 955, 956, 957, 958, 959, 960, 961, 962, 963, 964, 965, 966, 967, 968, 969, 970, 971, 972, 973, 974, 975, 976, 977, 978, 979, 980, 981, 982, 983, 984, 985, 986, 987, 988, 989, 990, 991, 992, 993, 994, 995, 996, 997, 998, 999, 1000, 1001, 1002, 1003, 1004, 1005, 1006, 1007, 1008, 1009, 1010, 1011, 1012, 1013, 1014, 1015, 1016],
      "AcquisitionTime": ["101651.702500", "101652.162500", "101652.622500", "101653.082500", "101653.542500", "101654.002500", "101654.462500", "101654.922500", "101655.382500", "101655.842500", "101656.302500", "101656.762500", "101657.222500", "101657.682500", "101658.142500", "101658.602500", "101659.062500", "101659.522500", "101659.982500", "101700.442500", "101700.902500", "101701.362500", "101701.822500", "101702.282500", "101702.742500", "101703.202500", "101703.662500", "101704.122500", "101704.582500", "101705.042500", "101705.502500", "101705.962500", "101706.422500", "101706.882500", "101707.342500", "101707.802500", "101708.262500", "101708.722500", "101709.182500", "101709.642500", "101710.102500", "101710.562500", "101711.022500", "101711.482500", "101711.942500", "101712.402500", "101712.862500", "101713.322500", "101713.782500", "101714.242500", "101714.702500", "101715.162500", "101715.622500", "101716.082500", "101716.542500", "101717.002500", "101717.462500", "101717.922500", "101718.382500", "101718.842500", "101719.302500", "101719.762500", "101720.222500", "101720.682500", "101721.142500", "101721.602500", "101722.062500", "101722.522500", "101722.982500", "101723.442500", "101723.902500", "101724.362500", "101724.822500", "101725.282500", "101725.742500", "101726.202500", "101726.662500", "101727.122500", "101727.582500", "101728.042500", "101728.502500", "101728.962500", "101729.422500", "101729.882500", "101730.342500", "101730.802500", "101731.262500", "101731.722500", "101732.182500", "101732.642500", "101733.102500", "101733.562500", "101734.022500", "101734.482500", "101734.942500", "101735.402500", "101735.862500", "101736.322500", "101736.782500", "101737.242500", "101737.702500", "101738.162500", "101738.622500", "101739.082500", "101739.542500", "101740.002500", "101740.462500", "101740.922500", "101741.382500", "101741.842500", "101742.302500", "101742.762500", "101743.222500", "101743.682500", "101744.142500", "101744.602500", "101745.062500", "101745.522500", "101745.982500", "101746.442500", "101746.902500", "101747.362500", "101747.822500", "101748.282500", "101748.742500", "101749.202500", "101749.662500", "101750.122500", "101750.582500", "101751.042500", "101751.502500", "101751.962500", "101752.422500", "101752.882500", "101753.342500", "101753.802500", "101754.262500", "101754.722500", "101755.182500", "101755.642500", "101756.102500", "101756.562500", "101757.022500", "101757.482500", "101757.942500", "101758.402500", "101758.862500", "101759.322500", "101759.782500", "101800.242500", "101800.702500", "101801.162500", "101801.622500", "101802.082500", "101802.542500", "101803.002500", "101803.462500", "101803.922500", "101804.382500", "101804.842500", "101805.302500", "101805.762500", "101806.222500", "101806.682500", "101807.142500", "101807.602500", "101808.062500", "101808.522500", "101808.982500", "101809.442500", "101809.902500", "101810.362500", "101810.822500", "101811.282500", "101811.742500", "101812.202500", "101812.662500", "101813.122500", "101813.582500", "101814.042500", "101814.502500", "101814.962500", "101815.422500", "101815.882500", "101816.342500", "101816.802500", "101817.262500", "101817.722500", "101818.182500", "101818.642500", "101819.102500", "101819.562500", "101820.022500", "101820.482500", "101820.942500", "101821.402500", "101821.862500", "101822.322500", "101822.782500", "101823.242500", "101823.702500", "101824.162500", "101824.622500", "101825.082500", "101825.542500", "101826.002500", "101826.462500", "101826.922500", "101827.382500", "101827.842500", "101828.302500", "101828.762500", "101829.222500", "101829.682500", "101830.142500", "101830.602500", "101831.062500", "101831.522500", "101831.982500", "101832.442500", "101832.902500", "101833.362500", "101833.822500", "101834.282500", "101834.742500", "101835.202500", "101835.662500", "101836.122500", "101836.582500", "101837.042500", "101837.502500", "101837.962500", "101838.422500", "101838.882500", "101839.342500", "101839.802500", "101840.262500", "101840.722500", "101841.182500", "101841.642500", "101842.102500", "101842.562500", "101843.022500", "101843.482500", "101843.942500", "101844.402500", "101844.862500", "101845.322500", "101845.782500", "101846.242500", "101846.702500", "101847.162500", "101847.622500", "101848.082500", "101848.542500", "101849.002500", "101849.462500", "101849.922500", "101850.382500", "101850.842500", "101851.302500", "101851.762500", "101852.222500", "101852.682500", "101853.142500", "101853.602500", "101854.062500", "101854.522500", "101854.982500", "101855.442500", "101855.902500", "101856.362500", "101856.822500", "101857.282500", "101857.742500", "101858.202500", "101858.662500", "101859.122500", "101859.582500", "101900.042500", "101900.502500", "101900.962500", "101901.422500", "101901.882500", "101902.342500", "101902.802500", "101903.262500", "101903.722500", "101904.182500", "101904.642500", "101905.102500", "101905.562500", "101906.022500", "101906.482500", "101906.942500", "101907.402500", "101907.862500", "101908.322500", "101908.782500", "101909.242500", "101909.702500", "101910.162500", "101910.622500", "101911.082500", "101911.542500", "101912.002500", "101912.462500", "101912.922500", "101913.382500", "101913.842500", "101914.302500", "101914.762500", "101915.222500", "101915.682500", "101916.142500", "101916.602500", "101917.062500", "101917.522500", "101917.982500", "101918.442500", "101918.902500", "101919.362500", "101919.822500", "101920.282500", "101920.742500", "101921.202500", "101921.662500", "101922.122500", "101922.582500", "101923.042500", "101923.502500", "101923.962500", "101924.422500", "101924.882500", "101925.342500", "101925.802500", "101926.262500", "101926.722500", "101927.182500", "101927.642500", "101928.102500", "101928.562500", "101929.022500", "101929.482500", "101929.942500", "101930.402500", "101930.862500", "101931.322500", "101931.782500", "101932.242500", "101932.702500", "101933.162500", "101933.622500", "101934.082500", "101934.542500", "101935.002500", "101935.462500", "101935.922500", "101936.382500", "101936.842500", "101937.302500", "101937.762500", "101938.222500", "101938.682500", "101939.142500", "101939.602500", "101940.062500", "101940.522500", "101940.982500", "101941.442500", "101941.902500", "101942.362500", "101942.822500", "101943.282500", "101943.742500", "101944.202500", "101944.662500", "101945.122500", "101945.582500", "101946.042500", "101946.502500", "101946.962500", "101947.422500", "101947.882500", "101948.342500", "101948.802500", "101949.262500", "101949.722500", "101950.182500", "101950.642500", "101951.102500", "101951.562500", "101952.022500", "101952.482500", "101952.942500", "101953.402500", "101953.862500", "101954.322500", "101954.782500", "101955.242500", "101955.702500", "101956.162500", "101956.622500", "101957.082500", "101957.542500", "101958.002500", "101958.462500", "101958.922500", "101959.382500", "101959.842500", "102000.302500", "102000.762500", "102001.222500", "102001.682500", "102002.142500", "102002.602500", "102003.062500", "102003.522500", "102003.982500", "102004.442500", "102004.902500", "102005.362500", "102005.822500", "102006.282500", "102006.742500", "102007.202500", "102007.662500", "102008.122500", "102008.582500", "102009.042500", "102009.502500", "102009.962500", "102010.422500", "102010.882500", "102011.342500", "102011.802500", "102012.262500", "102012.722500", "102013.182500", "102013.642500", "102014.102500", "102014.562500", "102015.022500", "102015.482500", "102015.942500", "102016.402500", "102016.862500", "102017.322500", "102017.782500", "102018.242500", "102018.702500", "102019.162500", "102019.622500", "102020.082500", "102020.542500", "102021.002500", "102021.462500", "102021.922500", "102022.382500", "102022.842500", "102023.302500", "102023.762500", "102024.222500", "102024.682500", "102025.142500", "102025.602500", "102026.062500", "102026.522500", "102026.982500", "102027.442500", "102027.902500", "102028.362500", "102028.822500", "102029.282500", "102029.742500", "102030.202500", "102030.662500", "102031.122500", "102031.582500", "102032.042500", "102032.502500", "102032.962500", "102033.422500", "102033.882500", "102034.342500", "102034.802500", "102035.262500", "102035.722500", "102036.182500", "102036.642500", "102037.102500", "102037.562500", "102038.022500", "102038.482500", "102038.942500", "102039.402500", "102039.862500", "102040.322500", "102040.782500", "102041.242500", "102041.702500", "102042.162500", "102042.622500", "102043.082500", "102043.542500", "102044.002500", "102044.462500", "102044.922500", "102045.382500", "102045.842500", "102046.302500", "102046.762500", "102047.222500", "102047.682500", "102048.142500", "102048.602500", "102049.062500", "102049.522500", "102049.982500", "102050.442500", "102050.902500", "102051.362500", "102051.822500", "102052.282500", "102052.742500", "102053.202500", "102053.662500", "102054.122500", "102054.582500", "102055.042500", "102055.502500", "102055.962500", "102056.422500", "102056.882500", "102057.342500", "102057.802500", "102058.262500", "102058.722500", "102059.182500", "102059.642500", "102100.102500", "102100.562500", "102101.022500", "102101.482500", "102101.942500", "102102.402500", "102102.862500", "102103.322500", "102103.782500", "102104.242500", "102104.702500", "102105.162500", "102105.622500", "102106.082500", "102106.542500", "102107.002500", "102107.462500", "102107.922500", "102108.382500", "102108.842500", "102109.302500", "102109.762500", "102110.222500", "102110.682500", "102111.142500", "102111.602500", "102112.062500", "102112.522500", "102112.982500", "102113.442500", "102113.902500", "102114.362500", "102114.822500", "102115.282500", "102115.742500", "102116.202500", "102116.662500", "102117.122500", "102117.582500", "102118.042500", "102118.502500", "102118.962500", "102119.422500", "102119.882500", "102120.342500", "102120.802500", "102121.262500", "102121.722500", "102122.182500", "102122.642500", "102123.102500", "102123.562500", "102124.022500", "102124.482500", "102124.942500", "102125.402500", "102125.862500", "102126.322500", "102126.782500", "102127.242500", "102127.702500", "102128.162500", "102128.622500", "102129.082500", "102129.542500", "102130.002500", "102130.462500", "102130.922500", "102131.382500", "102131.842500", "102132.302500", "102132.762500", "102133.222500", "102133.682500", "102134.142500", "102134.602500", "102135.062500", "102135.522500", "102135.982500", "102136.442500", "102136.902500", "102137.362500", "102137.822500", "102138.282500", "102138.742500", "102139.202500", "102139.662500", "102140.122500", "102140.582500", "102141.042500", "102141.502500", "102141.962500", "102142.422500", "102142.882500", "102143.342500", "102143.802500", "102144.262500", "102144.722500", "102145.182500", "102145.642500", "102146.102500", "102146.562500", "102147.022500", "102147.482500", "102147.942500", "102148.402500", "102148.862500", "102149.322500", "102149.782500", "102150.242500", "102150.702500", "102151.162500", "102151.622500", "102152.082500", "102152.542500", "102153.002500", "102153.462500", "102153.922500", "102154.382500", "102154.842500", "102155.302500", "102155.762500", "102156.222500", "102156.682500", "102157.142500", "102157.602500", "102158.062500", "102158.522500", "102158.982500", "102159.442500", "102159.902500", "102200.362500", "102200.822500", "102201.282500", "102201.742500", "102202.202500", "102202.662500", "102203.122500", "102203.582500", "102204.042500", "102204.502500", "102204.962500", "102205.422500", "102205.882500", "102206.342500", "102206.802500", "102207.262500", "102207.722500", "102208.182500", "102208.642500", "102209.102500", "102209.562500", "102210.022500", "102210.482500", "102210.942500", "102211.402500", "102211.862500", "102212.322500", "102212.782500", "102213.242500", "102213.702500", "102214.162500", "102214.622500", "102215.082500", "102215.542500", "102216.002500", "102216.462500", "102216.922500", "102217.382500", "102217.842500", "102218.302500", "102218.762500", "102219.222500", "102219.682500", "102220.142500", "102220.602500", "102221.062500", "102221.522500", "102221.982500", "102222.442500", "102222.902500", "102223.362500", "102223.822500", "102224.282500", "102224.742500", "102225.202500", "102225.662500", "102226.122500", "102226.582500", "102227.042500", "102227.502500", "102227.962500", "102228.422500", "102228.882500", "102229.342500", "102229.802500", "102230.262500", "102230.722500", "102231.182500", "102231.642500", "102232.102500", "102232.562500", "102233.022500", "102233.482500", "102233.942500", "102234.402500", "102234.862500", "102235.322500", "102235.782500", "102236.242500", "102236.702500", "102237.162500", "102237.622500", "102238.082500", "102238.542500", "102239.002500", "102239.462500", "102239.922500", "102240.382500", "102240.842500", "102241.302500", "102241.762500", "102242.222500", "102242.682500", "102243.142500", "102243.602500", "102244.062500", "102244.522500", "102244.982500", "102245.442500", "102245.902500", "102246.362500", "102246.822500", "102247.282500", "102247.742500", "102248.202500", "102248.662500", "102249.122500", "102249.582500", "102250.042500", "102250.502500", "102250.962500", "102251.422500", "102251.882500", "102252.342500", "102252.802500", "102253.262500", "102253.722500", "102254.182500", "102254.642500", "102255.102500", "102255.562500", "102256.022500", "102256.482500", "102256.942500", "102257.402500", "102257.862500", "102258.322500", "102258.782500", "102259.242500", "102259.702500", "102300.162500", "102300.622500", "102301.082500", "102301.542500", "102302.002500", "102302.462500", "102302.922500", "102303.382500", "102303.842500", "102304.302500", "102304.762500", "102305.222500", "102305.682500", "102306.142500", "102306.602500", "102307.062500", "102307.522500", "102307.982500", "102308.442500", "102308.902500", "102309.362500", "102309.822500", "102310.282500", "102310.742500", "102311.202500", "102311.662500", "102312.122500", "102312.582500", "102313.042500", "102313.502500", "102313.962500", "102314.422500", "102314.882500", "102315.342500", "102315.802500", "102316.262500", "102316.722500", "102317.182500", "102317.642500", "102318.102500", "102318.562500", "102319.022500", "102319.482500", "102319.942500", "102320.402500", "102320.862500", "102321.322500", "102321.782500", "102322.242500", "102322.702500", "102323.162500", "102323.622500", "102324.082500", "102324.542500", "102325.002500", "102325.462500", "102325.922500", "102326.382500", "102326.842500", "102327.302500", "102327.762500", "102328.222500", "102328.682500", "102329.142500", "102329.602500", "102330.062500", "102330.522500", "102330.982500", "102331.442500", "102331.902500", "102332.362500", "102332.822500", "102333.282500", "102333.742500", "102334.202500", "102334.662500", "102335.122500", "102335.582500", "102336.042500", "102336.502500", "102336.962500", "102337.422500", "102337.882500", "102338.342500", "102338.802500", "102339.262500", "102339.722500", "102340.182500", "102340.642500", "102341.102500", "102341.562500", "102342.022500", "102342.482500", "102342.942500", "102343.402500", "102343.862500", "102344.322500", "102344.782500", "102345.242500", "102345.702500", "102346.162500", "102346.622500", "102347.082500", "102347.542500", "102348.002500", "102348.462500", "102348.922500", "102349.382500", "102349.842500", "102350.302500", "102350.762500", "102351.222500", "102351.682500", "102352.142500", "102352.602500", "102353.062500", "102353.522500", "102353.982500", "102354.442500", "102354.902500", "102355.362500", "102355.822500", "102356.282500", "102356.742500", "102357.202500", "102357.662500", "102358.122500", "102358.582500", "102359.042500", "102359.502500", "102359.962500", "102400.422500", "102400.882500", "102401.342500", "102401.802500", "102402.262500", "102402.722500", "102403.182500", "102403.642500", "102404.102500", "102404.562500", "102405.022500", "102405.482500", "102405.942500", "102406.402500", "102406.862500", "102407.322500", "102407.782500", "102408.242500", "102408.702500", "102409.162500", "102409.622500", "102410.082500", "102410.542500", "102411.002500", "102411.462500", "102411.922500", "102412.382500", "102412.842500", "102413.302500", "102413.762500", "102414.222500", "102414.682500", "102415.142500", "102415.602500", "102416.062500", "102416.522500", "102416.982500", "102417.442500", "102417.902500", "102418.362500", "102418.822500", "102419.282500", "102419.742500", "102420.202500", "102420.662500", "102421.122500", "102421.582500", "102422.042500", "102422.502500", "102422.962500", "102423.422500", "102423.882500", "102424.342500", "102424.802500", "102425.262500", "102425.722500", "102426.182500", "102426.642500", "102427.102500", "102427.562500", "102428.022500", "102428.482500", "102428.942500", "102429.402500", "102429.862500", "102430.322500", "102430.782500", "102431.242500", "102431.702500", "102432.162500", "102432.622500", "102433.082500", "102433.542500", "102434.002500", "102434.462500", "102434.922500", "102435.382500", "102435.842500", "102436.302500", "102436.762500", "102437.222500", "102437.682500", "102438.142500", "102438.602500"],
