{
  "AcquisitionMatrixPE": 82,
  "AcquisitionNumber": 1,
  "AcquisitionTime": "09:18:14.062500",
  "BandwidthPerPixelPhaseEncode": 24.888,
  "BaseResolution": 82,
  "BodyPartExamined": "BRAIN",
  "ConsistencyInfo": "N4_VE11E_LATEST_20181129",
  "ConversionSoftware": "dcm2niix",
  "ConversionSoftwareVersion": "v1.0.20201102",
  "DerivedVendorReportedEchoSpacing": 0.00049,
  "DeviceSerialNumber": "66112",
  "DwellTime": 2e-06,
  "EchoTime": 0.0272,
  "EchoTrainLength": 82,
  "EffectiveEchoSpacing": 0.00049,
  "FlipAngle": 44,
  "ImageComments": "Unaliased MB8/PE3",
  "ImageOrientationPatientDICOM": [0.999979, 0.00277927, -0.00588939, -0.00226886, 0.996381, 0.0849663],
  "ImageType": [
    "ORIGINAL",
    "PRIMARY",
    "M",
    "MB",
    "ND",
    "NORM",
    "MOSAIC"
],
  "ImagingFrequency": 123.252,
  "InPlanePhaseEncodingDirectionDICOM": "COL",
  "InstitutionAddress": "Maynard 3,Hanover,NH,US,03755",
  "InstitutionName": "Dartmouth College - PBS",
  "InstitutionalDepartmentName": "Department",
  "MRAcquisitionType": "2D",
  "MagneticFieldStrength": 3,
  "Manufacturer": "Siemens",
  "ManufacturersModelName": "Prisma",
  "Modality": "MR",
  "MultibandAccelerationFactor": 8,
  "PartialFourier": 1,
  "PatientPosition": "HFS",
  "PercentPhaseFOV": 100,
  "PercentSampling": 100,
  "PhaseEncodingDirection": "j-",
  "PhaseEncodingSteps": 82,
  "PhaseResolution": 1,
  "PixelBandwidth": 3050,
  "ProcedureStepDescription": "Wager_Wager^1076_spacetop",
  "ProtocolName": "func_run-02_task-social_acq-ap-mb8",
  "PulseSequenceDetails": "%CustomerSeq%\\cmrr_mbep2d_bold",
  "ReceiveCoilActiveElements": "HEA;HEP",
  "ReceiveCoilName": "Head_32",
  "ReconMatrixPE": 82,
  "RepetitionTime": 0.46,
  "SAR": 0.0895572,
  "ScanOptions": "FS",
  "ScanningSequence": "EP",
  "SequenceName": "epfid2d1_82",
  "SequenceVariant": "SK\\SS",
  "SeriesDescription": "func_run-02_task-social_acq-ap-mb8",
  "SeriesNumber": 14,
  "ShimSetting": [4131, -7733, -7215, 631, -88, -92, -16, 128],
  "SliceThickness": 2.7,
  "SliceTiming": [0, 0.2525, 0.0625, 0.315, 0.125, 0.3775, 0.19, 0, 0.2525, 0.0625, 0.315, 0.125, 0.3775, 0.19, 0, 0.2525, 0.0625, 0.315, 0.125, 0.3775, 0.19, 0, 0.2525, 0.0625, 0.315, 0.125, 0.3775, 0.19, 0, 0.2525, 0.0625, 0.315, 0.125, 0.3775, 0.19, 0, 0.2525, 0.0625, 0.315, 0.125, 0.3775, 0.19, 0, 0.2525, 0.0625, 0.315, 0.125, 0.3775, 0.19, 0, 0.2525, 0.0625, 0.315, 0.125, 0.3775, 0.19],
  "SoftwareVersions": "syngo MR E11",
  "SpacingBetweenSlices": 2.7,
  "StationName": "AWP66112",
  "TaskName": "social",
  "TotalReadoutTime": 0.03969,
  "TxRefAmp": 220.272,
  "WipMemBlock": "48c3364b-fe30-42d0-8587-e22fe93947a0||Sequence: R016 ve11e/master r/434b28f1; Aug  7 2019 18:53:46 by eja",
  "dcmmeta_affine": [
    [-2.6828699111938477, -0.0060871965251863, -0.016481388360261917, 110.96304321289062],
    [-0.007456585299223661, 2.673218011856079, 0.2293679565191269, -95.1138916015625],
    [-0.01580079272389412, -0.22795826196670532, 2.6901893615722656, -44.75593185424805],
    [0.0, 0.0, 0.0, 1.0]
],
  "dcmmeta_reorient_transform": [
    [0.0, -1.0, 0.0, 81.0],
    [1.0, 0.0, 0.0, 0.0],
    [0.0, 0.0, 1.0, 0.0],
    [0.0, 0.0, 0.0, 1.0]
],
  "dcmmeta_shape": [82, 82, 56, 872],
  "dcmmeta_slice_dim": 2,
  "dcmmeta_version": 0.6,
  "global": {
    "const": {
      "AccessionNumber": "A003971",
      "AcquisitionMatrix": [82, 0, 0, 82],
      "AngioFlag": "N",
      "BitsAllocated": 16,
      "BitsStored": 16,
      "BodyPartExamined": "BRAIN",
      "Columns": 656,
      "EchoNumbers": 1,
      "EchoTime": 27.2,
      "EchoTrainLength": 82,
      "FlipAngle": 44.0,
      "HighBit": 15,
      "ImageOrientationPatient": [0.99997879516398, 0.00277927259023, -0.0058893858996, -0.0022688641149, 0.99638124593255, 0.08496625806477],
      "ImagePositionPatient": [-878.70664873851, -890.77038771401, -124.10974389099],
      "ImageType": [
        "ORIGINAL",
        "PRIMARY",
        "M",
        "MB",
        "ND",
        "NORM",
        "MOSAIC"
],
      "ImagedNucleus": "1H",
      "ImagingFrequency": 123.252171,
      "InPlanePhaseEncodingDirection": "COL",
      "MRAcquisitionType": "2D",
      "MagneticFieldStrength": 3.0,
      "Manufacturer": "SIEMENS",
      "ManufacturerModelName": "Prisma",
      "Modality": "MR",
      "NumberOfAverages": 1.0,
      "NumberOfPhaseEncodingSteps": 82,
      "PercentPhaseFieldOfView": 100.0,
      "PercentSampling": 100.0,
      "PerformedProcedureStepStartTime": "083257.524000",
      "PhotometricInterpretation": "MONOCHROME2",
      "PixelBandwidth": 3050.0,
      "PixelRepresentation": 0,
      "PixelSpacing": [2.6829268932343, 2.6829268932343],
      "ProtocolName": "func_run-02_task-social_acq-ap-mb8",
      "RepetitionTime": 460.0,
      "Rows": 656,
      "SAR": 0.0895572436543,
      "SamplesPerPixel": 1,
      "ScanOptions": "FS",
      "ScanningSequence": "EP",
      "SequenceName": "epfid2d1_82",
      "SequenceVariant": [
        "SK",
        "SS"
],
      "SeriesDescription": "func_run-02_task-social_acq-ap-mb8",
      "SeriesNumber": 14,
      "SeriesTime": "091833.771000",
      "SliceLocation": -53.350679570355,
      "SliceThickness": 2.7000000476837,
      "SmallestImagePixelValue": 0,
      "SoftwareVersions": "syngo MR E11",
      "SpacingBetweenSlices": 2.6999999482302,
      "SpecificCharacterSet": "ISO_IR 100",
      "StudyID": "1",
      "StudyTime": "083257.390000",
      "TransmitCoilName": "Body",
      "VariableFlipAngleFlag": "N",
      "WindowCenterWidthExplanation": "Algo1"
    },
    "slices": {}
  },
  "time": {
    "samples": {
      "AcquisitionNumber": [1, 2, 3, 4, 5, 6, 7, 8, 9, 10, 11, 12, 13, 14, 15, 16, 17, 18, 19, 20, 21, 22, 23, 24, 25, 26, 27, 28, 29, 30, 31, 32, 33, 34, 35, 36, 37, 38, 39, 40, 41, 42, 43, 44, 45, 46, 47, 48, 49, 50, 51, 52, 53, 54, 55, 56, 57, 58, 59, 60, 61, 62, 63, 64, 65, 66, 67, 68, 69, 70, 71, 72, 73, 74, 75, 76, 77, 78, 79, 80, 81, 82, 83, 84, 85, 86, 87, 88, 89, 90, 91, 92, 93, 94, 95, 96, 97, 98, 99, 100, 101, 102, 103, 104, 105, 106, 107, 108, 109, 110, 111, 112, 113, 114, 115, 116, 117, 118, 119, 120, 121, 122, 123, 124, 125, 126, 127, 128, 129, 130, 131, 132, 133, 134, 135, 136, 137, 138, 139, 140, 141, 142, 143, 144, 145, 146, 147, 148, 149, 150, 151, 152, 153, 154, 155, 156, 157, 158, 159, 160, 161, 162, 163, 164, 165, 166, 167, 168, 169, 170, 171, 172, 173, 174, 175, 176, 177, 178, 179, 180, 181, 182, 183, 184, 185, 186, 187, 188, 189, 190, 191, 192, 193, 194, 195, 196, 197, 198, 199, 200, 201, 202, 203, 204, 205, 206, 207, 208, 209, 210, 211, 212, 213, 214, 215, 216, 217, 218, 219, 220, 221, 222, 223, 224, 225, 226, 227, 228, 229, 230, 231, 232, 233, 234, 235, 236, 237, 238, 239, 240, 241, 242, 243, 244, 245, 246, 247, 248, 249, 250, 251, 252, 253, 254, 255, 256, 257, 258, 259, 260, 261, 262, 263, 264, 265, 266, 267, 268, 269, 270, 271, 272, 273, 274, 275, 276, 277, 278, 279, 280, 281, 282, 283, 284, 285, 286, 287, 288, 289, 290, 291, 292, 293, 294, 295, 296, 297, 298, 299, 300, 301, 302, 303, 304, 305, 306, 307, 308, 309, 310, 311, 312, 313, 314, 315, 316, 317, 318, 319, 320, 321, 322, 323, 324, 325, 326, 327, 328, 329, 330, 331, 332, 333, 334, 335, 336, 337, 338, 339, 340, 341, 342, 343, 344, 345, 346, 347, 348, 349, 350, 351, 352, 353, 354, 355, 356, 357, 358, 359, 360, 361, 362, 363, 364, 365, 366, 367, 368, 369, 370, 371, 372, 373, 374, 375, 376, 377, 378, 379, 380, 381, 382, 383, 384, 385, 386, 387, 388, 389, 390, 391, 392, 393, 394, 395, 396, 397, 398, 399, 400, 401, 402, 403, 404, 405, 406, 407, 408, 409, 410, 411, 412, 413, 414, 415, 416, 417, 418, 419, 420, 421, 422, 423, 424, 425, 426, 427, 428, 429, 430, 431, 432, 433, 434, 435, 436, 437, 438, 439, 440, 441, 442, 443, 444, 445, 446, 447, 448, 449, 450, 451, 452, 453, 454, 455, 456, 457, 458, 459, 460, 461, 462, 463, 464, 465, 466, 467, 468, 469, 470, 471, 472, 473, 474, 475, 476, 477, 478, 479, 480, 481, 482, 483, 484, 485, 486, 487, 488, 489, 490, 491, 492, 493, 494, 495, 496, 497, 498, 499, 500, 501, 502, 503, 504, 505, 506, 507, 508, 509, 510, 511, 512, 513, 514, 515, 516, 517, 518, 519, 520, 521, 522, 523, 524, 525, 526, 527, 528, 529, 530, 531, 532, 533, 534, 535, 536, 537, 538, 539, 540, 541, 542, 543, 544, 545, 546, 547, 548, 549, 550, 551, 552, 553, 554, 555, 556, 557, 558, 559, 560, 561, 562, 563, 564, 565, 566, 567, 568, 569, 570, 571, 572, 573, 574, 575, 576, 577, 578, 579, 580, 581, 582, 583, 584, 585, 586, 587, 588, 589, 590, 591, 592, 593, 594, 595, 596, 597, 598, 599, 600, 601, 602, 603, 604, 605, 606, 607, 608, 609, 610, 611, 612, 613, 614, 615, 616, 617, 618, 619, 620, 621, 622, 623, 624, 625, 626, 627, 628, 629, 630, 631, 632, 633, 634, 635, 636, 637, 638, 639, 640, 641, 642, 643, 644, 645, 646, 647, 648, 649, 650, 651, 652, 653, 654, 655, 656, 657, 658, 659, 660, 661, 662, 663, 664, 665, 666, 667, 668, 669, 670, 671, 672, 673, 674, 675, 676, 677, 678, 679, 680, 681, 682, 683, 684, 685, 686, 687, 688, 689, 690, 691, 692, 693, 694, 695, 696, 697, 698, 699, 700, 701, 702, 703, 704, 705, 706, 707, 708, 709, 710, 711, 712, 713, 714, 715, 716, 717, 718, 719, 720, 721, 722, 723, 724, 725, 726, 727, 728, 729, 730, 731, 732, 733, 734, 735, 736, 737, 738, 739, 740, 741, 742, 743, 744, 745, 746, 747, 748, 749, 750, 751, 752, 753, 754, 755, 756, 757, 758, 759, 760, 761, 762, 763, 764, 765, 766, 767, 768, 769, 770, 771, 772, 773, 774, 775, 776, 777, 778, 779, 780, 781, 782, 783, 784, 785, 786, 787, 788, 789, 790, 791, 792, 793, 794, 795, 796, 797, 798, 799, 800, 801, 802, 803, 804, 805, 806, 807, 808, 809, 810, 811, 812, 813, 814, 815, 816, 817, 818, 819, 820, 821, 822, 823, 824, 825, 826, 827, 828, 829, 830, 831, 832, 833, 834, 835, 836, 837, 838, 839, 840, 841, 842, 843, 844, 845, 846, 847, 848, 849, 850, 851, 852, 853, 854, 855, 856, 857, 858, 859, 860, 861, 862, 863, 864, 865, 866, 867, 868, 869, 870, 871, 872],
      "AcquisitionTime": ["091814.062500", "091814.522500", "091814.982500", "091815.442500", "091815.902500", "091816.362500", "091816.822500", "091817.282500", "091817.742500", "091818.202500", "091818.662500", "091819.122500", "091819.582500", "091820.042500", "091820.502500", "091820.962500", "091821.422500", "091821.882500", "091822.342500", "091822.802500", "091823.262500", "091823.722500", "091824.182500", "091824.642500", "091825.102500", "091825.562500", "091826.022500", "091826.482500", "091826.942500", "091827.402500", "091827.862500", "091828.322500", "091828.782500", "091829.242500", "091829.702500", "091830.162500", "091830.622500", "091831.082500", "091831.542500", "091832.002500", "091832.462500", "091832.922500", "091833.382500", "091833.842500", "091834.302500", "091834.762500", "091835.222500", "091835.682500", "091836.142500", "091836.602500", "091837.062500", "091837.522500", "091837.982500", "091838.442500", "091838.902500", "091839.362500", "091839.822500", "091840.282500", "091840.742500", "091841.202500", "091841.662500", "091842.122500", "091842.582500", "091843.042500", "091843.502500", "091843.962500", "091844.422500", "091844.882500", "091845.342500", "091845.802500", "091846.262500", "091846.722500", "091847.182500", "091847.642500", "091848.102500", "091848.562500", "091849.022500", "091849.482500", "091849.942500", "091850.402500", "091850.862500", "091851.322500", "091851.782500", "091852.242500", "091852.702500", "091853.162500", "091853.622500", "091854.082500", "091854.542500", "091855.002500", "091855.462500", "091855.922500", "091856.382500", "091856.842500", "091857.302500", "091857.762500", "091858.222500", "091858.682500", "091859.142500", "091859.602500", "091900.062500", "091900.522500", "091900.982500", "091901.442500", "091901.902500", "091902.362500", "091902.822500", "091903.282500", "091903.742500", "091904.202500", "091904.662500", "091905.122500", "091905.582500", "091906.042500", "091906.502500", "091906.962500", "091907.422500", "091907.882500", "091908.342500", "091908.802500", "091909.262500", "091909.722500", "091910.182500", "091910.642500", "091911.102500", "091911.562500", "091912.022500", "091912.482500", "091912.942500", "091913.402500", "091913.862500", "091914.322500", "091914.782500", "091915.242500", "091915.702500", "091916.162500", "091916.622500", "091917.082500", "091917.542500", "091918.002500", "091918.462500", "091918.922500", "091919.382500", "091919.842500", "091920.302500", "091920.762500", "091921.222500", "091921.682500", "091922.142500", "091922.602500", "091923.062500", "091923.522500", "091923.982500", "091924.442500", "091924.902500", "091925.362500", "091925.822500", "091926.282500", "091926.742500", "091927.202500", "091927.662500", "091928.122500", "091928.582500", "091929.042500", "091929.502500", "091929.962500", "091930.422500", "091930.882500", "091931.342500", "091931.802500", "091932.262500", "091932.722500", "091933.182500", "091933.642500", "091934.102500", "091934.562500", "091935.022500", "091935.482500", "091935.942500", "091936.402500", "091936.862500", "091937.322500", "091937.782500", "091938.242500", "091938.702500", "091939.162500", "091939.622500", "091940.082500", "091940.542500", "091941.002500", "091941.462500", "091941.922500", "091942.382500", "091942.842500", "091943.302500", "091943.762500", "091944.222500", "091944.682500", "091945.142500", "091945.602500", "091946.062500", "091946.522500", "091946.982500", "091947.442500", "091947.902500", "091948.362500", "091948.822500", "091949.282500", "091949.742500", "091950.202500", "091950.662500", "091951.122500", "091951.582500", "091952.042500", "091952.502500", "091952.962500", "091953.422500", "091953.882500", "091954.342500", "091954.802500", "091955.262500", "091955.722500", "091956.182500", "091956.642500", "091957.102500", "091957.562500", "091958.022500", "091958.482500", "091958.942500", "091959.402500", "091959.862500", "092000.322500", "092000.782500", "092001.242500", "092001.702500", "092002.162500", "092002.622500", "092003.082500", "092003.542500", "092004.002500", "092004.462500", "092004.922500", "092005.382500", "092005.842500", "092006.302500", "092006.762500", "092007.222500", "092007.682500", "092008.142500", "092008.602500", "092009.062500", "092009.522500", "092009.982500", "092010.442500", "092010.902500", "092011.362500", "092011.822500", "092012.282500", "092012.742500", "092013.202500", "092013.662500", "092014.122500", "092014.582500", "092015.042500", "092015.502500", "092015.962500", "092016.422500", "092016.882500", "092017.342500", "092017.802500", "092018.262500", "092018.722500", "092019.182500", "092019.642500", "092020.102500", "092020.562500", "092021.022500", "092021.482500", "092021.942500", "092022.402500", "092022.862500", "092023.322500", "092023.782500", "092024.242500", "092024.702500", "092025.162500", "092025.622500", "092026.082500", "092026.542500", "092027.002500", "092027.462500", "092027.922500", "092028.382500", "092028.842500", "092029.302500", "092029.762500", "092030.222500", "092030.682500", "092031.142500", "092031.602500", "092032.062500", "092032.522500", "092032.982500", "092033.442500", "092033.902500", "092034.362500", "092034.822500", "092035.282500", "092035.742500", "092036.202500", "092036.662500", "092037.122500", "092037.582500", "092038.042500", "092038.502500", "092038.962500", "092039.422500", "092039.882500", "092040.342500", "092040.802500", "092041.262500", "092041.722500", "092042.182500", "092042.642500", "092043.102500", "092043.562500", "092044.022500", "092044.482500", "092044.942500", "092045.402500", "092045.862500", "092046.322500", "092046.782500", "092047.242500", "092047.702500", "092048.162500", "092048.622500", "092049.082500", "092049.542500", "092050.002500", "092050.462500", "092050.922500", "092051.382500", "092051.842500", "092052.302500", "092052.762500", "092053.222500", "092053.682500", "092054.142500", "092054.602500", "092055.062500", "092055.522500", "092055.982500", "092056.442500", "092056.902500", "092057.362500", "092057.822500", "092058.282500", "092058.742500", "092059.202500", "092059.662500", "092100.122500", "092100.582500", "092101.042500", "092101.502500", "092101.962500", "092102.422500", "092102.882500", "092103.342500", "092103.802500", "092104.262500", "092104.722500", "092105.182500", "092105.642500", "092106.102500", "092106.562500", "092107.022500", "092107.482500", "092107.942500", "092108.402500", "092108.862500", "092109.322500", "092109.782500", "092110.242500", "092110.702500", "092111.162500", "092111.622500", "092112.082500", "092112.542500", "092113.002500", "092113.462500", "092113.922500", "092114.382500", "092114.842500", "092115.302500", "092115.762500", "092116.222500", "092116.682500", "092117.142500", "092117.602500", "092118.062500", "092118.522500", "092118.982500", "092119.442500", "092119.902500", "092120.362500", "092120.822500", "092121.282500", "092121.742500", "092122.202500", "092122.662500", "092123.122500", "092123.582500", "092124.042500", "092124.502500", "092124.962500", "092125.422500", "092125.882500", "092126.342500", "092126.802500", "092127.262500", "092127.722500", "092128.182500", "092128.642500", "092129.102500", "092129.562500", "092130.022500", "092130.482500", "092130.942500", "092131.402500", "092131.862500", "092132.322500", "092132.782500", "092133.242500", "092133.702500", "092134.162500", "092134.622500", "092135.082500", "092135.542500", "092136.002500", "092136.462500", "092136.922500", "092137.382500", "092137.842500", "092138.302500", "092138.762500", "092139.222500", "092139.682500", "092140.142500", "092140.602500", "092141.062500", "092141.522500", "092141.982500", "092142.442500", "092142.902500", "092143.362500", "092143.822500", "092144.282500", "092144.742500", "092145.202500", "092145.662500", "092146.122500", "092146.582500", "092147.042500", "092147.502500", "092147.962500", "092148.422500", "092148.882500", "092149.342500", "092149.802500", "092150.262500", "092150.722500", "092151.182500", "092151.642500", "092152.102500", "092152.562500", "092153.022500", "092153.482500", "092153.942500", "092154.402500", "092154.862500", "092155.322500", "092155.782500", "092156.242500", "092156.702500", "092157.162500", "092157.622500", "092158.082500", "092158.542500", "092159.002500", "092159.462500", "092159.922500", "092200.382500", "092200.842500", "092201.302500", "092201.762500", "092202.222500", "092202.682500", "092203.142500", "092203.602500", "092204.062500", "092204.522500", "092204.982500", "092205.442500", "092205.902500", "092206.362500", "092206.822500", "092207.282500", "092207.742500", "092208.202500", "092208.662500", "092209.122500", "092209.582500", "092210.042500", "092210.502500", "092210.962500", "092211.422500", "092211.882500", "092212.342500", "092212.802500", "092213.262500", "092213.722500", "092214.182500", "092214.642500", "092215.102500", "092215.562500", "092216.022500", "092216.482500", "092216.942500", "092217.402500", "092217.862500", "092218.322500", "092218.782500", "092219.242500", "092219.702500", "092220.162500", "092220.622500", "092221.082500", "092221.542500", "092222.002500", "092222.462500", "092222.922500", "092223.382500", "092223.842500", "092224.302500", "092224.762500", "092225.222500", "092225.682500", "092226.142500", "092226.602500", "092227.062500", "092227.522500", "092227.982500", "092228.442500", "092228.902500", "092229.362500", "092229.822500", "092230.282500", "092230.742500", "092231.202500", "092231.662500", "092232.122500", "092232.582500", "092233.042500", "092233.502500", "092233.962500", "092234.422500", "092234.882500", "092235.342500", "092235.802500", "092236.262500", "092236.722500", "092237.182500", "092237.642500", "092238.102500", "092238.562500", "092239.022500", "092239.482500", "092239.942500", "092240.402500", "092240.862500", "092241.322500", "092241.782500", "092242.242500", "092242.702500", "092243.162500", "092243.622500", "092244.082500", "092244.542500", "092245.002500", "092245.462500", "092245.922500", "092246.382500", "092246.842500", "092247.302500", "092247.762500", "092248.222500", "092248.682500", "092249.142500", "092249.602500", "092250.062500", "092250.522500", "092250.982500", "092251.442500", "092251.902500", "092252.362500", "092252.822500", "092253.282500", "092253.742500", "092254.202500", "092254.662500", "092255.122500", "092255.582500", "092256.042500", "092256.502500", "092256.962500", "092257.422500", "092257.882500", "092258.342500", "092258.802500", "092259.262500", "092259.722500", "092300.182500", "092300.642500", "092301.102500", "092301.562500", "092302.022500", "092302.482500", "092302.942500", "092303.402500", "092303.862500", "092304.322500", "092304.782500", "092305.242500", "092305.702500", "092306.162500", "092306.622500", "092307.082500", "092307.542500", "092308.002500", "092308.462500", "092308.922500", "092309.382500", "092309.842500", "092310.302500", "092310.762500", "092311.222500", "092311.682500", "092312.142500", "092312.602500", "092313.062500", "092313.522500", "092313.982500", "092314.442500", "092314.902500", "092315.362500", "092315.822500", "092316.282500", "092316.742500", "092317.202500", "092317.662500", "092318.122500", "092318.582500", "092319.042500", "092319.502500", "092319.962500", "092320.422500", "092320.882500", "092321.342500", "092321.802500", "092322.262500", "092322.722500", "092323.182500", "092323.642500", "092324.102500", "092324.562500", "092325.022500", "092325.482500", "092325.942500", "092326.402500", "092326.862500", "092327.322500", "092327.782500", "092328.242500", "092328.702500", "092329.162500", "092329.622500", "092330.082500", "092330.542500", "092331.002500", "092331.462500", "092331.922500", "092332.382500", "092332.842500", "092333.302500", "092333.762500", "092334.222500", "092334.682500", "092335.142500", "092335.602500", "092336.062500", "092336.522500", "092336.982500", "092337.442500", "092337.902500", "092338.362500", "092338.822500", "092339.282500", "092339.742500", "092340.202500", "092340.662500", "092341.122500", "092341.582500", "092342.042500", "092342.502500", "092342.962500", "092343.422500", "092343.882500", "092344.342500", "092344.802500", "092345.262500", "092345.722500", "092346.182500", "092346.642500", "092347.102500", "092347.562500", "092348.022500", "092348.482500", "092348.942500", "092349.402500", "092349.862500", "092350.322500", "092350.782500", "092351.242500", "092351.702500", "092352.162500", "092352.622500", "092353.082500", "092353.542500", "092354.002500", "092354.462500", "092354.922500", "092355.382500", "092355.842500", "092356.302500", "092356.762500", "092357.222500", "092357.682500", "092358.142500", "092358.602500", "092359.062500", "092359.522500", "092359.982500", "092400.442500", "092400.902500", "092401.362500", "092401.822500", "092402.282500", "092402.742500", "092403.202500", "092403.662500", "092404.122500", "092404.582500", "092405.042500", "092405.502500", "092405.962500", "092406.422500", "092406.882500", "092407.342500", "092407.802500", "092408.262500", "092408.722500", "092409.182500", "092409.642500", "092410.102500", "092410.562500", "092411.022500", "092411.482500", "092411.942500", "092412.402500", "092412.862500", "092413.322500", "092413.782500", "092414.242500", "092414.702500", "092415.162500", "092415.622500", "092416.082500", "092416.542500", "092417.002500", "092417.462500", "092417.922500", "092418.382500", "092418.842500", "092419.302500", "092419.762500", "092420.222500", "092420.682500", "092421.142500", "092421.602500", "092422.062500", "092422.522500", "092422.982500", "092423.442500", "092423.902500", "092424.362500", "092424.822500", "092425.282500", "092425.742500", "092426.202500", "092426.662500", "092427.122500", "092427.582500", "092428.042500", "092428.502500", "092428.962500", "092429.422500", "092429.882500", "092430.342500", "092430.802500", "092431.262500", "092431.722500", "092432.182500", "092432.642500", "092433.102500", "092433.562500", "092434.022500", "092434.482500", "092434.942500", "092435.402500", "092435.862500", "092436.322500", "092436.782500", "092437.242500", "092437.702500", "092438.162500", "092438.622500", "092439.082500", "092439.542500", "092440.002500", "092440.462500", "092440.922500", "092441.382500", "092441.842500", "092442.302500", "092442.762500", "092443.222500", "092443.682500", "092444.142500", "092444.602500", "092445.062500", "092445.522500", "092445.982500", "092446.442500", "092446.902500", "092447.362500", "092447.822500", "092448.282500", "092448.742500", "092449.202500", "092449.662500", "092450.122500", "092450.582500", "092451.042500", "092451.502500", "092451.962500", "092452.422500", "092452.882500", "092453.342500", "092453.802500", "092454.262500", "092454.722500"],
