{
  "AcquisitionMatrixPE": 82,
  "AcquisitionNumber": 1,
  "AcquisitionTime": "09:41:22.742500",
  "BandwidthPerPixelPhaseEncode": 24.888,
  "BaseResolution": 82,
  "BodyPartExamined": "BRAIN",
  "ConsistencyInfo": "N4_VE11E_LATEST_20181129",
  "ConversionSoftware": "dcm2niix",
  "ConversionSoftwareVersion": "v1.0.20201102",
  "DerivedVendorReportedEchoSpacing": 0.00049,
  "DeviceSerialNumber": "66112",
  "DwellTime": 2e-06,
  "EchoTime": 0.0272,
  "EchoTrainLength": 82,
  "EffectiveEchoSpacing": 0.00049,
  "FlipAngle": 44,
  "ImageComments": "Unaliased MB8/PE3",
  "ImageOrientationPatientDICOM": [0.999979, 0.00277927, -0.00588939, -0.00226886, 0.996381, 0.0849663],
  "ImageType": [
    "ORIGINAL",
    "PRIMARY",
    "M",
    "MB",
    "ND",
    "NORM",
    "MOSAIC"
],
  "ImagingFrequency": 123.252,
  "InPlanePhaseEncodingDirectionDICOM": "COL",
  "InstitutionAddress": "Maynard 3,Hanover,NH,US,03755",
  "InstitutionName": "Dartmouth College - PBS",
  "InstitutionalDepartmentName": "Department",
  "MRAcquisitionType": "2D",
  "MagneticFieldStrength": 3,
  "Manufacturer": "Siemens",
  "ManufacturersModelName": "Prisma",
  "Modality": "MR",
  "MultibandAccelerationFactor": 8,
  "PartialFourier": 1,
  "PatientPosition": "HFS",
  "PercentPhaseFOV": 100,
  "PercentSampling": 100,
  "PhaseEncodingDirection": "j-",
  "PhaseEncodingSteps": 82,
  "PhaseResolution": 1,
  "PixelBandwidth": 3050,
  "ProcedureStepDescription": "Wager_Wager^1076_spacetop",
  "ProtocolName": "func_run-05_task-social_acq-ap-mb8",
  "PulseSequenceDetails": "%CustomerSeq%\\cmrr_mbep2d_bold",
  "ReceiveCoilActiveElements": "HEA;HEP",
  "ReceiveCoilName": "Head_32",
  "ReconMatrixPE": 82,
  "RepetitionTime": 0.46,
  "SAR": 0.0895572,
  "ScanOptions": "FS",
  "ScanningSequence": "EP",
  "SequenceName": "epfid2d1_82",
  "SequenceVariant": "SK\\SS",
  "SeriesDescription": "func_run-05_task-social_acq-ap-mb8",
  "SeriesNumber": 20,
  "ShimSetting": [4131, -7733, -7215, 631, -88, -92, -16, 128],
  "SliceThickness": 2.7,
  "SliceTiming": [0, 0.25, 0.0625, 0.3125, 0.125, 0.375, 0.1875, 0, 0.25, 0.0625, 0.3125, 0.125, 0.375, 0.1875, 0, 0.25, 0.0625, 0.3125, 0.125, 0.375, 0.1875, 0, 0.25, 0.0625, 0.3125, 0.125, 0.375, 0.1875, 0, 0.25, 0.0625, 0.3125, 0.125, 0.375, 0.1875, 0, 0.25, 0.0625, 0.3125, 0.125, 0.375, 0.1875, 0, 0.25, 0.0625, 0.3125, 0.125, 0.375, 0.1875, 0, 0.25, 0.0625, 0.3125, 0.125, 0.375, 0.1875],
  "SoftwareVersions": "syngo MR E11",
  "SpacingBetweenSlices": 2.7,
  "StationName": "AWP66112",
  "TaskName": "social",
  "TotalReadoutTime": 0.03969,
  "TxRefAmp": 220.272,
  "WipMemBlock": "21bfad2a-2658-4bbb-9d0b-72fc95502113||Sequence: R016 ve11e/master r/434b28f1; Aug  7 2019 18:53:46 by eja",
  "dcmmeta_affine": [
    [-2.6828699111938477, -0.0060871965251863, -0.016481388360261917, 110.96304321289062],
    [-0.007456585299223661, 2.673218011856079, 0.2293679565191269, -95.1138916015625],
    [-0.01580079272389412, -0.22795826196670532, 2.6901893615722656, -44.75593185424805],
    [0.0, 0.0, 0.0, 1.0]
],
  "dcmmeta_reorient_transform": [
    [0.0, -1.0, 0.0, 81.0],
    [1.0, 0.0, 0.0, 0.0],
    [0.0, 0.0, 1.0, 0.0],
    [0.0, 0.0, 0.0, 1.0]
],
  "dcmmeta_shape": [82, 82, 56, 872],
  "dcmmeta_slice_dim": 2,
  "dcmmeta_version": 0.6,
  "global": {
    "const": {
      "AccessionNumber": "A003971",
      "AcquisitionMatrix": [82, 0, 0, 82],
      "AngioFlag": "N",
      "BitsAllocated": 16,
      "BitsStored": 16,
      "BodyPartExamined": "BRAIN",
      "Columns": 656,
      "EchoNumbers": 1,
      "EchoTime": 27.2,
      "EchoTrainLength": 82,
      "FlipAngle": 44.0,
      "HighBit": 15,
      "ImageOrientationPatient": [0.99997879516398, 0.00277927259023, -0.0058893858996, -0.0022688641149, 0.99638124593255, 0.08496625806477],
      "ImagePositionPatient": [-878.70664873851, -890.77038771401, -124.10974389099],
      "ImageType": [
        "ORIGINAL",
        "PRIMARY",
        "M",
        "MB",
        "ND",
        "NORM",
        "MOSAIC"
],
      "ImagedNucleus": "1H",
      "ImagingFrequency": 123.252175,
      "InPlanePhaseEncodingDirection": "COL",
      "MRAcquisitionType": "2D",
      "MagneticFieldStrength": 3.0,
      "Manufacturer": "SIEMENS",
      "ManufacturerModelName": "Prisma",
      "Modality": "MR",
      "NumberOfAverages": 1.0,
      "NumberOfPhaseEncodingSteps": 82,
      "PercentPhaseFieldOfView": 100.0,
      "PercentSampling": 100.0,
      "PerformedProcedureStepStartTime": "083257.524000",
      "PhotometricInterpretation": "MONOCHROME2",
      "PixelBandwidth": 3050.0,
      "PixelRepresentation": 0,
      "PixelSpacing": [2.6829268932343, 2.6829268932343],
      "ProtocolName": "func_run-05_task-social_acq-ap-mb8",
      "RepetitionTime": 460.0,
      "Rows": 656,
      "SAR": 0.0895572436543,
      "SamplesPerPixel": 1,
      "ScanOptions": "FS",
      "ScanningSequence": "EP",
      "SequenceName": "epfid2d1_82",
      "SequenceVariant": [
        "SK",
        "SS"
],
      "SeriesDescription": "func_run-05_task-social_acq-ap-mb8",
      "SeriesNumber": 20,
      "SeriesTime": "094133.771000",
      "SliceLocation": -53.350679570355,
      "SliceThickness": 2.7000000476837,
      "SmallestImagePixelValue": 0,
      "SoftwareVersions": "syngo MR E11",
      "SpacingBetweenSlices": 2.6999999482302,
      "SpecificCharacterSet": "ISO_IR 100",
      "StudyID": "1",
      "StudyTime": "083257.390000",
      "TransmitCoilName": "Body",
      "VariableFlipAngleFlag": "N",
      "WindowCenterWidthExplanation": "Algo1"
    },
    "slices": {}
  },
  "time": {
    "samples": {
      "AcquisitionNumber": [1, 2, 3, 4, 5, 6, 7, 8, 9, 10, 11, 12, 13, 14, 15, 16, 17, 18, 19, 20, 21, 22, 23, 24, 25, 26, 27, 28, 29, 30, 31, 32, 33, 34, 35, 36, 37, 38, 39, 40, 41, 42, 43, 44, 45, 46, 47, 48, 49, 50, 51, 52, 53, 54, 55, 56, 57, 58, 59, 60, 61, 62, 63, 64, 65, 66, 67, 68, 69, 70, 71, 72, 73, 74, 75, 76, 77, 78, 79, 80, 81, 82, 83, 84, 85, 86, 87, 88, 89, 90, 91, 92, 93, 94, 95, 96, 97, 98, 99, 100, 101, 102, 103, 104, 105, 106, 107, 108, 109, 110, 111, 112, 113, 114, 115, 116, 117, 118, 119, 120, 121, 122, 123, 124, 125, 126, 127, 128, 129, 130, 131, 132, 133, 134, 135, 136, 137, 138, 139, 140, 141, 142, 143, 144, 145, 146, 147, 148, 149, 150, 151, 152, 153, 154, 155, 156, 157, 158, 159, 160, 161, 162, 163, 164, 165, 166, 167, 168, 169, 170, 171, 172, 173, 174, 175, 176, 177, 178, 179, 180, 181, 182, 183, 184, 185, 186, 187, 188, 189, 190, 191, 192, 193, 194, 195, 196, 197, 198, 199, 200, 201, 202, 203, 204, 205, 206, 207, 208, 209, 210, 211, 212, 213, 214, 215, 216, 217, 218, 219, 220, 221, 222, 223, 224, 225, 226, 227, 228, 229, 230, 231, 232, 233, 234, 235, 236, 237, 238, 239, 240, 241, 242, 243, 244, 245, 246, 247, 248, 249, 250, 251, 252, 253, 254, 255, 256, 257, 258, 259, 260, 261, 262, 263, 264, 265, 266, 267, 268, 269, 270, 271, 272, 273, 274, 275, 276, 277, 278, 279, 280, 281, 282, 283, 284, 285, 286, 287, 288, 289, 290, 291, 292, 293, 294, 295, 296, 297, 298, 299, 300, 301, 302, 303, 304, 305, 306, 307, 308, 309, 310, 311, 312, 313, 314, 315, 316, 317, 318, 319, 320, 321, 322, 323, 324, 325, 326, 327, 328, 329, 330, 331, 332, 333, 334, 335, 336, 337, 338, 339, 340, 341, 342, 343, 344, 345, 346, 347, 348, 349, 350, 351, 352, 353, 354, 355, 356, 357, 358, 359, 360, 361, 362, 363, 364, 365, 366, 367, 368, 369, 370, 371, 372, 373, 374, 375, 376, 377, 378, 379, 380, 381, 382, 383, 384, 385, 386, 387, 388, 389, 390, 391, 392, 393, 394, 395, 396, 397, 398, 399, 400, 401, 402, 403, 404, 405, 406, 407, 408, 409, 410, 411, 412, 413, 414, 415, 416, 417, 418, 419, 420, 421, 422, 423, 424, 425, 426, 427, 428, 429, 430, 431, 432, 433, 434, 435, 436, 437, 438, 439, 440, 441, 442, 443, 444, 445, 446, 447, 448, 449, 450, 451, 452, 453, 454, 455, 456, 457, 458, 459, 460, 461, 462, 463, 464, 465, 466, 467, 468, 469, 470, 471, 472, 473, 474, 475, 476, 477, 478, 479, 480, 481, 482, 483, 484, 485, 486, 487, 488, 489, 490, 491, 492, 493, 494, 495, 496, 497, 498, 499, 500, 501, 502, 503, 504, 505, 506, 507, 508, 509, 510, 511, 512, 513, 514, 515, 516, 517, 518, 519, 520, 521, 522, 523, 524, 525, 526, 527, 528, 529, 530, 531, 532, 533, 534, 535, 536, 537, 538, 539, 540, 541, 542, 543, 544, 545, 546, 547, 548, 549, 550, 551, 552, 553, 554, 555, 556, 557, 558, 559, 560, 561, 562, 563, 564, 565, 566, 567, 568, 569, 570, 571, 572, 573, 574, 575, 576, 577, 578, 579, 580, 581, 582, 583, 584, 585, 586, 587, 588, 589, 590, 591, 592, 593, 594, 595, 596, 597, 598, 599, 600, 601, 602, 603, 604, 605, 606, 607, 608, 609, 610, 611, 612, 613, 614, 615, 616, 617, 618, 619, 620, 621, 622, 623, 624, 625, 626, 627, 628, 629, 630, 631, 632, 633, 634, 635, 636, 637, 638, 639, 640, 641, 642, 643, 644, 645, 646, 647, 648, 649, 650, 651, 652, 653, 654, 655, 656, 657, 658, 659, 660, 661, 662, 663, 664, 665, 666, 667, 668, 669, 670, 671, 672, 673, 674, 675, 676, 677, 678, 679, 680, 681, 682, 683, 684, 685, 686, 687, 688, 689, 690, 691, 692, 693, 694, 695, 696, 697, 698, 699, 700, 701, 702, 703, 704, 705, 706, 707, 708, 709, 710, 711, 712, 713, 714, 715, 716, 717, 718, 719, 720, 721, 722, 723, 724, 725, 726, 727, 728, 729, 730, 731, 732, 733, 734, 735, 736, 737, 738, 739, 740, 741, 742, 743, 744, 745, 746, 747, 748, 749, 750, 751, 752, 753, 754, 755, 756, 757, 758, 759, 760, 761, 762, 763, 764, 765, 766, 767, 768, 769, 770, 771, 772, 773, 774, 775, 776, 777, 778, 779, 780, 781, 782, 783, 784, 785, 786, 787, 788, 789, 790, 791, 792, 793, 794, 795, 796, 797, 798, 799, 800, 801, 802, 803, 804, 805, 806, 807, 808, 809, 810, 811, 812, 813, 814, 815, 816, 817, 818, 819, 820, 821, 822, 823, 824, 825, 826, 827, 828, 829, 830, 831, 832, 833, 834, 835, 836, 837, 838, 839, 840, 841, 842, 843, 844, 845, 846, 847, 848, 849, 850, 851, 852, 853, 854, 855, 856, 857, 858, 859, 860, 861, 862, 863, 864, 865, 866, 867, 868, 869, 870, 871, 872],
      "AcquisitionTime": ["094122.742500", "094123.202500", "094123.662500", "094124.122500", "094124.582500", "094125.042500", "094125.502500", "094125.962500", "094126.422500", "094126.882500", "094127.342500", "094127.802500", "094128.262500", "094128.722500", "094129.182500", "094129.642500", "094130.102500", "094130.562500", "094131.022500", "094131.482500", "094131.942500", "094132.402500", "094132.862500", "094133.322500", "094133.782500", "094134.242500", "094134.702500", "094135.162500", "094135.622500", "094136.082500", "094136.542500", "094137.002500", "094137.462500", "094137.922500", "094138.382500", "094138.842500", "094139.302500", "094139.762500", "094140.222500", "094140.682500", "094141.142500", "094141.602500", "094142.062500", "094142.522500", "094142.982500", "094143.442500", "094143.902500", "094144.362500", "094144.822500", "094145.282500", "094145.742500", "094146.202500", "094146.662500", "094147.122500", "094147.582500", "094148.042500", "094148.502500", "094148.962500", "094149.422500", "094149.882500", "094150.342500", "094150.802500", "094151.262500", "094151.722500", "094152.182500", "094152.642500", "094153.102500", "094153.562500", "094154.022500", "094154.482500", "094154.942500", "094155.402500", "094155.862500", "094156.322500", "094156.782500", "094157.242500", "094157.702500", "094158.162500", "094158.622500", "094159.082500", "094159.542500", "094200.002500", "094200.462500", "094200.922500", "094201.382500", "094201.842500", "094202.302500", "094202.762500", "094203.222500", "094203.682500", "094204.142500", "094204.602500", "094205.062500", "094205.522500", "094205.982500", "094206.442500", "094206.902500", "094207.362500", "094207.822500", "094208.282500", "094208.742500", "094209.202500", "094209.662500", "094210.122500", "094210.582500", "094211.042500", "094211.502500", "094211.962500", "094212.422500", "094212.882500", "094213.342500", "094213.802500", "094214.262500", "094214.722500", "094215.182500", "094215.642500", "094216.102500", "094216.562500", "094217.022500", "094217.482500", "094217.942500", "094218.402500", "094218.862500", "094219.322500", "094219.782500", "094220.242500", "094220.702500", "094221.162500", "094221.622500", "094222.082500", "094222.542500", "094223.002500", "094223.462500", "094223.922500", "094224.382500", "094224.842500", "094225.302500", "094225.762500", "094226.222500", "094226.682500", "094227.142500", "094227.602500", "094228.062500", "094228.522500", "094228.982500", "094229.442500", "094229.902500", "094230.362500", "094230.822500", "094231.282500", "094231.742500", "094232.202500", "094232.662500", "094233.122500", "094233.582500", "094234.042500", "094234.502500", "094234.962500", "094235.422500", "094235.882500", "094236.342500", "094236.802500", "094237.262500", "094237.722500", "094238.182500", "094238.642500", "094239.102500", "094239.562500", "094240.022500", "094240.482500", "094240.942500", "094241.402500", "094241.862500", "094242.322500", "094242.782500", "094243.242500", "094243.702500", "094244.162500", "094244.622500", "094245.082500", "094245.542500", "094246.002500", "094246.462500", "094246.922500", "094247.382500", "094247.842500", "094248.302500", "094248.762500", "094249.222500", "094249.682500", "094250.142500", "094250.602500", "094251.062500", "094251.522500", "094251.982500", "094252.442500", "094252.902500", "094253.362500", "094253.822500", "094254.282500", "094254.742500", "094255.202500", "094255.662500", "094256.122500", "094256.582500", "094257.042500", "094257.502500", "094257.962500", "094258.422500", "094258.882500", "094259.342500", "094259.802500", "094300.262500", "094300.722500", "094301.182500", "094301.642500", "094302.102500", "094302.562500", "094303.022500", "094303.482500", "094303.942500", "094304.402500", "094304.862500", "094305.322500", "094305.782500", "094306.242500", "094306.702500", "094307.162500", "094307.622500", "094308.082500", "094308.542500", "094309.002500", "094309.462500", "094309.922500", "094310.382500", "094310.842500", "094311.302500", "094311.762500", "094312.222500", "094312.682500", "094313.142500", "094313.602500", "094314.062500", "094314.522500", "094314.982500", "094315.442500", "094315.902500", "094316.362500", "094316.822500", "094317.282500", "094317.742500", "094318.202500", "094318.662500", "094319.122500", "094319.582500", "094320.042500", "094320.502500", "094320.962500", "094321.422500", "094321.882500", "094322.342500", "094322.802500", "094323.262500", "094323.722500", "094324.182500", "094324.642500", "094325.102500", "094325.562500", "094326.022500", "094326.482500", "094326.942500", "094327.402500", "094327.862500", "094328.322500", "094328.782500", "094329.242500", "094329.702500", "094330.162500", "094330.622500", "094331.082500", "094331.542500", "094332.002500", "094332.462500", "094332.922500", "094333.382500", "094333.842500", "094334.302500", "094334.762500", "094335.222500", "094335.682500", "094336.142500", "094336.602500", "094337.062500", "094337.522500", "094337.982500", "094338.442500", "094338.902500", "094339.362500", "094339.822500", "094340.282500", "094340.742500", "094341.202500", "094341.662500", "094342.122500", "094342.582500", "094343.042500", "094343.502500", "094343.962500", "094344.422500", "094344.882500", "094345.342500", "094345.802500", "094346.262500", "094346.722500", "094347.182500", "094347.642500", "094348.102500", "094348.562500", "094349.022500", "094349.482500", "094349.942500", "094350.402500", "094350.862500", "094351.322500", "094351.782500", "094352.242500", "094352.702500", "094353.162500", "094353.622500", "094354.082500", "094354.542500", "094355.002500", "094355.462500", "094355.922500", "094356.382500", "094356.842500", "094357.302500", "094357.762500", "094358.222500", "094358.682500", "094359.142500", "094359.602500", "094400.062500", "094400.522500", "094400.982500", "094401.442500", "094401.902500", "094402.362500", "094402.822500", "094403.282500", "094403.742500", "094404.202500", "094404.662500", "094405.122500", "094405.582500", "094406.042500", "094406.502500", "094406.962500", "094407.422500", "094407.882500", "094408.342500", "094408.802500", "094409.262500", "094409.722500", "094410.182500", "094410.642500", "094411.102500", "094411.562500", "094412.022500", "094412.482500", "094412.942500", "094413.402500", "094413.862500", "094414.322500", "094414.782500", "094415.242500", "094415.702500", "094416.162500", "094416.622500", "094417.082500", "094417.542500", "094418.002500", "094418.462500", "094418.922500", "094419.382500", "094419.842500", "094420.302500", "094420.762500", "094421.222500", "094421.682500", "094422.142500", "094422.602500", "094423.062500", "094423.522500", "094423.982500", "094424.442500", "094424.902500", "094425.362500", "094425.822500", "094426.282500", "094426.742500", "094427.202500", "094427.662500", "094428.122500", "094428.582500", "094429.042500", "094429.502500", "094429.962500", "094430.422500", "094430.882500", "094431.342500", "094431.802500", "094432.262500", "094432.722500", "094433.182500", "094433.642500", "094434.102500", "094434.562500", "094435.022500", "094435.482500", "094435.942500", "094436.402500", "094436.862500", "094437.322500", "094437.782500", "094438.242500", "094438.702500", "094439.162500", "094439.622500", "094440.082500", "094440.542500", "094441.002500", "094441.462500", "094441.922500", "094442.382500", "094442.842500", "094443.302500", "094443.762500", "094444.222500", "094444.682500", "094445.142500", "094445.602500", "094446.062500", "094446.522500", "094446.982500", "094447.442500", "094447.902500", "094448.362500", "094448.822500", "094449.282500", "094449.742500", "094450.202500", "094450.662500", "094451.122500", "094451.582500", "094452.042500", "094452.502500", "094452.962500", "094453.422500", "094453.882500", "094454.342500", "094454.802500", "094455.262500", "094455.722500", "094456.182500", "094456.642500", "094457.102500", "094457.562500", "094458.022500", "094458.482500", "094458.942500", "094459.402500", "094459.862500", "094500.322500", "094500.782500", "094501.242500", "094501.702500", "094502.162500", "094502.622500", "094503.082500", "094503.542500", "094504.002500", "094504.462500", "094504.922500", "094505.382500", "094505.842500", "094506.302500", "094506.762500", "094507.222500", "094507.682500", "094508.142500", "094508.602500", "094509.062500", "094509.522500", "094509.982500", "094510.442500", "094510.902500", "094511.362500", "094511.822500", "094512.282500", "094512.742500", "094513.202500", "094513.662500", "094514.122500", "094514.582500", "094515.042500", "094515.502500", "094515.962500", "094516.422500", "094516.882500", "094517.342500", "094517.802500", "094518.262500", "094518.722500", "094519.182500", "094519.642500", "094520.102500", "094520.562500", "094521.022500", "094521.482500", "094521.942500", "094522.402500", "094522.862500", "094523.322500", "094523.782500", "094524.242500", "094524.702500", "094525.162500", "094525.622500", "094526.082500", "094526.542500", "094527.002500", "094527.462500", "094527.922500", "094528.382500", "094528.842500", "094529.302500", "094529.762500", "094530.222500", "094530.682500", "094531.142500", "094531.602500", "094532.062500", "094532.522500", "094532.982500", "094533.442500", "094533.902500", "094534.362500", "094534.822500", "094535.282500", "094535.742500", "094536.202500", "094536.662500", "094537.122500", "094537.582500", "094538.042500", "094538.502500", "094538.962500", "094539.422500", "094539.882500", "094540.342500", "094540.802500", "094541.262500", "094541.722500", "094542.182500", "094542.642500", "094543.102500", "094543.562500", "094544.022500", "094544.482500", "094544.942500", "094545.402500", "094545.862500", "094546.322500", "094546.782500", "094547.242500", "094547.702500", "094548.162500", "094548.622500", "094549.082500", "094549.542500", "094550.002500", "094550.462500", "094550.922500", "094551.382500", "094551.842500", "094552.302500", "094552.762500", "094553.222500", "094553.682500", "094554.142500", "094554.602500", "094555.062500", "094555.522500", "094555.982500", "094556.442500", "094556.902500", "094557.362500", "094557.822500", "094558.282500", "094558.742500", "094559.202500", "094559.662500", "094600.122500", "094600.582500", "094601.042500", "094601.502500", "094601.962500", "094602.422500", "094602.882500", "094603.342500", "094603.802500", "094604.262500", "094604.722500", "094605.182500", "094605.642500", "094606.102500", "094606.562500", "094607.022500", "094607.482500", "094607.942500", "094608.402500", "094608.862500", "094609.322500", "094609.782500", "094610.242500", "094610.702500", "094611.162500", "094611.622500", "094612.082500", "094612.542500", "094613.002500", "094613.462500", "094613.922500", "094614.382500", "094614.842500", "094615.302500", "094615.762500", "094616.222500", "094616.682500", "094617.142500", "094617.602500", "094618.062500", "094618.522500", "094618.982500", "094619.442500", "094619.902500", "094620.362500", "094620.822500", "094621.282500", "094621.742500", "094622.202500", "094622.662500", "094623.122500", "094623.582500", "094624.042500", "094624.502500", "094624.962500", "094625.422500", "094625.882500", "094626.342500", "094626.802500", "094627.262500", "094627.722500", "094628.182500", "094628.642500", "094629.102500", "094629.562500", "094630.022500", "094630.482500", "094630.942500", "094631.402500", "094631.862500", "094632.322500", "094632.782500", "094633.242500", "094633.702500", "094634.162500", "094634.622500", "094635.082500", "094635.542500", "094636.002500", "094636.462500", "094636.922500", "094637.382500", "094637.842500", "094638.302500", "094638.762500", "094639.222500", "094639.682500", "094640.142500", "094640.602500", "094641.062500", "094641.522500", "094641.982500", "094642.442500", "094642.902500", "094643.362500", "094643.822500", "094644.282500", "094644.742500", "094645.202500", "094645.662500", "094646.122500", "094646.582500", "094647.042500", "094647.502500", "094647.962500", "094648.422500", "094648.882500", "094649.342500", "094649.802500", "094650.262500", "094650.722500", "094651.182500", "094651.642500", "094652.102500", "094652.562500", "094653.022500", "094653.482500", "094653.942500", "094654.402500", "094654.862500", "094655.322500", "094655.782500", "094656.242500", "094656.702500", "094657.162500", "094657.622500", "094658.082500", "094658.542500", "094659.002500", "094659.462500", "094659.922500", "094700.382500", "094700.842500", "094701.302500", "094701.762500", "094702.222500", "094702.682500", "094703.142500", "094703.602500", "094704.062500", "094704.522500", "094704.982500", "094705.442500", "094705.902500", "094706.362500", "094706.822500", "094707.282500", "094707.742500", "094708.202500", "094708.662500", "094709.122500", "094709.582500", "094710.042500", "094710.502500", "094710.962500", "094711.422500", "094711.882500", "094712.342500", "094712.802500", "094713.262500", "094713.722500", "094714.182500", "094714.642500", "094715.102500", "094715.562500", "094716.022500", "094716.482500", "094716.942500", "094717.402500", "094717.862500", "094718.322500", "094718.782500", "094719.242500", "094719.702500", "094720.162500", "094720.622500", "094721.082500", "094721.542500", "094722.002500", "094722.462500", "094722.922500", "094723.382500", "094723.842500", "094724.302500", "094724.762500", "094725.222500", "094725.682500", "094726.142500", "094726.602500", "094727.062500", "094727.522500", "094727.982500", "094728.442500", "094728.902500", "094729.362500", "094729.822500", "094730.282500", "094730.742500", "094731.202500", "094731.662500", "094732.122500", "094732.582500", "094733.042500", "094733.502500", "094733.962500", "094734.422500", "094734.882500", "094735.342500", "094735.802500", "094736.262500", "094736.722500", "094737.182500", "094737.642500", "094738.102500", "094738.562500", "094739.022500", "094739.482500", "094739.942500", "094740.402500", "094740.862500", "094741.322500", "094741.782500", "094742.242500", "094742.702500", "094743.162500", "094743.622500", "094744.082500", "094744.542500", "094745.002500", "094745.462500", "094745.922500", "094746.382500", "094746.842500", "094747.302500", "094747.762500", "094748.222500", "094748.682500", "094749.142500", "094749.602500", "094750.062500", "094750.522500", "094750.982500", "094751.442500", "094751.902500", "094752.362500", "094752.822500", "094753.282500", "094753.742500", "094754.202500", "094754.662500", "094755.122500", "094755.582500", "094756.042500", "094756.502500", "094756.962500", "094757.422500", "094757.882500", "094758.342500", "094758.802500", "094759.262500", "094759.722500", "094800.182500", "094800.642500", "094801.102500", "094801.562500", "094802.022500", "094802.482500", "094802.942500", "094803.402500"],
