{
  "AcquisitionMatrixPE": 82,
  "AcquisitionNumber": 1,
  "AcquisitionTime": "14:11:26.262500",
  "BandwidthPerPixelPhaseEncode": 24.888,
  "BaseResolution": 82,
  "BodyPartExamined": "BRAIN",
  "ConsistencyInfo": "N4_VE11E_LATEST_20181129",
  "ConversionSoftware": "dcm2niix",
  "ConversionSoftwareVersion": "v1.0.20201102",
  "DerivedVendorReportedEchoSpacing": 0.00049,
  "DeviceSerialNumber": "66112",
  "DwellTime": 2e-06,
  "EchoTime": 0.0272,
  "EchoTrainLength": 82,
  "EffectiveEchoSpacing": 0.00049,
  "FlipAngle": 44,
  "ImageComments": "Unaliased MB8/PE3",
  "ImageOrientationPatientDICOM": [0.994896, 0.0886373, -0.0482134, -0.0854677, 0.994267, 0.0642495],
  "ImageType": [
    "ORIGINAL",
    "PRIMARY",
    "M",
    "MB",
    "ND",
    "NORM",
    "MOSAIC"
],
  "ImagingFrequency": 123.259,
  "InPlanePhaseEncodingDirectionDICOM": "COL",
  "InstitutionAddress": "Maynard 3,Hanover,NH,US,03755",
  "InstitutionName": "Dartmouth College - PBS",
  "InstitutionalDepartmentName": "Department",
  "MRAcquisitionType": "2D",
  "MagneticFieldStrength": 3,
  "Manufacturer": "Siemens",
  "ManufacturersModelName": "Prisma",
  "Modality": "MR",
  "MultibandAccelerationFactor": 8,
  "PartialFourier": 1,
  "PatientPosition": "HFS",
  "PercentPhaseFOV": 100,
  "PercentSampling": 100,
  "PhaseEncodingDirection": "j-",
  "PhaseEncodingSteps": 82,
  "PhaseResolution": 1,
  "PixelBandwidth": 3050,
  "ProcedureStepDescription": "Wager_Wager^1076_spacetop",
  "ProtocolName": "func_run-04_task-social_acq-ap-mb8",
  "PulseSequenceDetails": "%CustomerSeq%\\cmrr_mbep2d_bold",
  "ReceiveCoilActiveElements": "HEA;HEP",
  "ReceiveCoilName": "Head_32",
  "ReconMatrixPE": 82,
  "RepetitionTime": 0.46,
  "SAR": 0.0740397,
  "ScanOptions": "FS",
  "ScanningSequence": "EP",
  "SequenceName": "epfid2d1_82",
  "SequenceVariant": "SK\\SS",
  "SeriesDescription": "func_run-04_task-social_acq-ap-mb8",
  "SeriesNumber": 14,
  "ShimSetting": [4216, -7725, -7252, 298, -76, 105, 138, 41],
  "SliceThickness": 2.7,
  "SliceTiming": [0, 0.2525, 0.065, 0.315, 0.1275, 0.3775, 0.19, 0, 0.2525, 0.065, 0.315, 0.1275, 0.3775, 0.19, 0, 0.2525, 0.065, 0.315, 0.1275, 0.3775, 0.19, 0, 0.2525, 0.065, 0.315, 0.1275, 0.3775, 0.19, 0, 0.2525, 0.065, 0.315, 0.1275, 0.3775, 0.19, 0, 0.2525, 0.065, 0.315, 0.1275, 0.3775, 0.19, 0, 0.2525, 0.065, 0.315, 0.1275, 0.3775, 0.19, 0, 0.2525, 0.065, 0.315, 0.1275, 0.3775, 0.19],
  "SoftwareVersions": "syngo MR E11",
  "SpacingBetweenSlices": 2.7,
  "StationName": "AWP66112",
  "TaskName": "social",
  "TotalReadoutTime": 0.03969,
  "TxRefAmp": 218.252,
  "WipMemBlock": "5e71a52a-79d5-4439-94a9-b148a39effcb||Sequence: R016 ve11e/master r/434b28f1; Aug  7 2019 18:53:46 by eja",
  "dcmmeta_affine": [
    [-2.669234275817871, -0.22930346429347992, -0.14480622112751007, 123.15885162353516],
    [-0.23780737817287445, 2.667546272277832, 0.16146251559257507, -97.81855773925781],
    [-0.1293531060218811, -0.17237676680088043, 2.691275119781494, -54.91480255126953],
    [0.0, 0.0, 0.0, 1.0]
],
  "dcmmeta_reorient_transform": [
    [0.0, -1.0, 0.0, 81.0],
    [1.0, 0.0, 0.0, 0.0],
    [0.0, 0.0, 1.0, 0.0],
    [0.0, 0.0, 0.0, 1.0]
],
  "dcmmeta_shape": [82, 82, 56, 872],
  "dcmmeta_slice_dim": 2,
  "dcmmeta_version": 0.6,
  "global": {
    "const": {
      "AccessionNumber": "A004508",
      "AcquisitionMatrix": [82, 0, 0, 82],
      "AngioFlag": "N",
      "BitsAllocated": 16,
      "BitsStored": 16,
      "BodyPartExamined": "BRAIN",
      "Columns": 656,
      "EchoNumbers": 1,
      "EchoTime": 27.2,
      "EchoTrainLength": 82,
      "FlipAngle": 44.0,
      "HighBit": 15,
      "ImageOrientationPatient": [0.99489642458115, 0.08863729359723, -0.0482134269617, -0.085467655282, 0.99426720690187, 0.06424952280097],
      "ImagePositionPatient": [-804.84543748902, -952.08917075148, -81.225114589517],
      "ImageType": [
        "ORIGINAL",
        "PRIMARY",
        "M",
        "MB",
        "ND",
        "NORM",
        "MOSAIC"
],
      "ImagedNucleus": "1H",
      "ImagingFrequency": 123.259095,
      "InPlanePhaseEncodingDirection": "COL",
      "MRAcquisitionType": "2D",
      "MagneticFieldStrength": 3.0,
      "Manufacturer": "SIEMENS",
      "ManufacturerModelName": "Prisma",
      "Modality": "MR",
      "NumberOfAverages": 1.0,
      "NumberOfPhaseEncodingSteps": 82,
      "PercentPhaseFieldOfView": 100.0,
      "PercentSampling": 100.0,
      "PerformedProcedureStepStartTime": "133432.127000",
      "PhotometricInterpretation": "MONOCHROME2",
      "PixelBandwidth": 3050.0,
      "PixelRepresentation": 0,
      "PixelSpacing": [2.6829268932343, 2.6829268932343],
      "ProtocolName": "func_run-04_task-social_acq-ap-mb8",
      "RepetitionTime": 460.0,
      "Rows": 656,
      "SAR": 0.07403973806561,
      "SamplesPerPixel": 1,
      "ScanOptions": "FS",
      "ScanningSequence": "EP",
      "SequenceName": "epfid2d1_82",
      "SequenceVariant": [
        "SK",
        "SS"
],
      "SeriesDescription": "func_run-04_task-social_acq-ap-mb8",
      "SeriesNumber": 14,
      "SeriesTime": "141156.042000",
      "SliceLocation": -67.192233515991,
      "SliceThickness": 2.7000000476837,
      "SmallestImagePixelValue": 0,
      "SoftwareVersions": "syngo MR E11",
      "SpacingBetweenSlices": 2.7000000448218,
      "SpecificCharacterSet": "ISO_IR 100",
      "StudyID": "1",
      "StudyTime": "133432.033000",
      "TransmitCoilName": "Body",
      "VariableFlipAngleFlag": "N",
      "WindowCenterWidthExplanation": "Algo1"
    },
    "slices": {}
  },
  "time": {
    "samples": {
      "AcquisitionNumber": [1, 2, 3, 4, 5, 6, 7, 8, 9, 10, 11, 12, 13, 14, 15, 16, 17, 18, 19, 20, 21, 22, 23, 24, 25, 26, 27, 28, 29, 30, 31, 32, 33, 34, 35, 36, 37, 38, 39, 40, 41, 42, 43, 44, 45, 46, 47, 48, 49, 50, 51, 52, 53, 54, 55, 56, 57, 58, 59, 60, 61, 62, 63, 64, 65, 66, 67, 68, 69, 70, 71, 72, 73, 74, 75, 76, 77, 78, 79, 80, 81, 82, 83, 84, 85, 86, 87, 88, 89, 90, 91, 92, 93, 94, 95, 96, 97, 98, 99, 100, 101, 102, 103, 104, 105, 106, 107, 108, 109, 110, 111, 112, 113, 114, 115, 116, 117, 118, 119, 120, 121, 122, 123, 124, 125, 126, 127, 128, 129, 130, 131, 132, 133, 134, 135, 136, 137, 138, 139, 140, 141, 142, 143, 144, 145, 146, 147, 148, 149, 150, 151, 152, 153, 154, 155, 156, 157, 158, 159, 160, 161, 162, 163, 164, 165, 166, 167, 168, 169, 170, 171, 172, 173, 174, 175, 176, 177, 178, 179, 180, 181, 182, 183, 184, 185, 186, 187, 188, 189, 190, 191, 192, 193, 194, 195, 196, 197, 198, 199, 200, 201, 202, 203, 204, 205, 206, 207, 208, 209, 210, 211, 212, 213, 214, 215, 216, 217, 218, 219, 220, 221, 222, 223, 224, 225, 226, 227, 228, 229, 230, 231, 232, 233, 234, 235, 236, 237, 238, 239, 240, 241, 242, 243, 244, 245, 246, 247, 248, 249, 250, 251, 252, 253, 254, 255, 256, 257, 258, 259, 260, 261, 262, 263, 264, 265, 266, 267, 268, 269, 270, 271, 272, 273, 274, 275, 276, 277, 278, 279, 280, 281, 282, 283, 284, 285, 286, 287, 288, 289, 290, 291, 292, 293, 294, 295, 296, 297, 298, 299, 300, 301, 302, 303, 304, 305, 306, 307, 308, 309, 310, 311, 312, 313, 314, 315, 316, 317, 318, 319, 320, 321, 322, 323, 324, 325, 326, 327, 328, 329, 330, 331, 332, 333, 334, 335, 336, 337, 338, 339, 340, 341, 342, 343, 344, 345, 346, 347, 348, 349, 350, 351, 352, 353, 354, 355, 356, 357, 358, 359, 360, 361, 362, 363, 364, 365, 366, 367, 368, 369, 370, 371, 372, 373, 374, 375, 376, 377, 378, 379, 380, 381, 382, 383, 384, 385, 386, 387, 388, 389, 390, 391, 392, 393, 394, 395, 396, 397, 398, 399, 400, 401, 402, 403, 404, 405, 406, 407, 408, 409, 410, 411, 412, 413, 414, 415, 416, 417, 418, 419, 420, 421, 422, 423, 424, 425, 426, 427, 428, 429, 430, 431, 432, 433, 434, 435, 436, 437, 438, 439, 440, 441, 442, 443, 444, 445, 446, 447, 448, 449, 450, 451, 452, 453, 454, 455, 456, 457, 458, 459, 460, 461, 462, 463, 464, 465, 466, 467, 468, 469, 470, 471, 472, 473, 474, 475, 476, 477, 478, 479, 480, 481, 482, 483, 484, 485, 486, 487, 488, 489, 490, 491, 492, 493, 494, 495, 496, 497, 498, 499, 500, 501, 502, 503, 504, 505, 506, 507, 508, 509, 510, 511, 512, 513, 514, 515, 516, 517, 518, 519, 520, 521, 522, 523, 524, 525, 526, 527, 528, 529, 530, 531, 532, 533, 534, 535, 536, 537, 538, 539, 540, 541, 542, 543, 544, 545, 546, 547, 548, 549, 550, 551, 552, 553, 554, 555, 556, 557, 558, 559, 560, 561, 562, 563, 564, 565, 566, 567, 568, 569, 570, 571, 572, 573, 574, 575, 576, 577, 578, 579, 580, 581, 582, 583, 584, 585, 586, 587, 588, 589, 590, 591, 592, 593, 594, 595, 596, 597, 598, 599, 600, 601, 602, 603, 604, 605, 606, 607, 608, 609, 610, 611, 612, 613, 614, 615, 616, 617, 618, 619, 620, 621, 622, 623, 624, 625, 626, 627, 628, 629, 630, 631, 632, 633, 634, 635, 636, 637, 638, 639, 640, 641, 642, 643, 644, 645, 646, 647, 648, 649, 650, 651, 652, 653, 654, 655, 656, 657, 658, 659, 660, 661, 662, 663, 664, 665, 666, 667, 668, 669, 670, 671, 672, 673, 674, 675, 676, 677, 678, 679, 680, 681, 682, 683, 684, 685, 686, 687, 688, 689, 690, 691, 692, 693, 694, 695, 696, 697, 698, 699, 700, 701, 702, 703, 704, 705, 706, 707, 708, 709, 710, 711, 712, 713, 714, 715, 716, 717, 718, 719, 720, 721, 722, 723, 724, 725, 726, 727, 728, 729, 730, 731, 732, 733, 734, 735, 736, 737, 738, 739, 740, 741, 742, 743, 744, 745, 746, 747, 748, 749, 750, 751, 752, 753, 754, 755, 756, 757, 758, 759, 760, 761, 762, 763, 764, 765, 766, 767, 768, 769, 770, 771, 772, 773, 774, 775, 776, 777, 778, 779, 780, 781, 782, 783, 784, 785, 786, 787, 788, 789, 790, 791, 792, 793, 794, 795, 796, 797, 798, 799, 800, 801, 802, 803, 804, 805, 806, 807, 808, 809, 810, 811, 812, 813, 814, 815, 816, 817, 818, 819, 820, 821, 822, 823, 824, 825, 826, 827, 828, 829, 830, 831, 832, 833, 834, 835, 836, 837, 838, 839, 840, 841, 842, 843, 844, 845, 846, 847, 848, 849, 850, 851, 852, 853, 854, 855, 856, 857, 858, 859, 860, 861, 862, 863, 864, 865, 866, 867, 868, 869, 870, 871, 872],
      "AcquisitionTime": ["141126.262500", "141126.722500", "141127.182500", "141127.642500", "141128.102500", "141128.562500", "141129.022500", "141129.482500", "141129.942500", "141130.402500", "141130.862500", "141131.322500", "141131.782500", "141132.242500", "141132.702500", "141133.162500", "141133.622500", "141134.082500", "141134.542500", "141135.002500", "141135.462500", "141135.922500", "141136.382500", "141136.842500", "141137.302500", "141137.762500", "141138.222500", "141138.682500", "141139.142500", "141139.602500", "141140.062500", "141140.522500", "141140.982500", "141141.442500", "141141.902500", "141142.362500", "141142.822500", "141143.282500", "141143.742500", "141144.202500", "141144.662500", "141145.122500", "141145.582500", "141146.042500", "141146.502500", "141146.962500", "141147.422500", "141147.882500", "141148.342500", "141148.802500", "141149.262500", "141149.722500", "141150.182500", "141150.642500", "141151.102500", "141151.562500", "141152.022500", "141152.482500", "141152.942500", "141153.402500", "141153.862500", "141154.322500", "141154.782500", "141155.242500", "141155.702500", "141156.162500", "141156.622500", "141157.082500", "141157.542500", "141158.002500", "141158.462500", "141158.922500", "141159.382500", "141159.842500", "141200.302500", "141200.762500", "141201.222500", "141201.682500", "141202.142500", "141202.602500", "141203.062500", "141203.522500", "141203.982500", "141204.442500", "141204.902500", "141205.362500", "141205.822500", "141206.282500", "141206.742500", "141207.202500", "141207.662500", "141208.122500", "141208.582500", "141209.042500", "141209.502500", "141209.962500", "141210.422500", "141210.882500", "141211.342500", "141211.802500", "141212.262500", "141212.722500", "141213.182500", "141213.642500", "141214.102500", "141214.562500", "141215.022500", "141215.482500", "141215.942500", "141216.402500", "141216.862500", "141217.322500", "141217.782500", "141218.242500", "141218.702500", "141219.162500", "141219.622500", "141220.082500", "141220.542500", "141221.002500", "141221.462500", "141221.922500", "141222.382500", "141222.842500", "141223.302500", "141223.762500", "141224.222500", "141224.682500", "141225.142500", "141225.602500", "141226.062500", "141226.522500", "141226.982500", "141227.442500", "141227.902500", "141228.362500", "141228.822500", "141229.282500", "141229.742500", "141230.202500", "141230.662500", "141231.122500", "141231.582500", "141232.042500", "141232.502500", "141232.962500", "141233.422500", "141233.882500", "141234.342500", "141234.802500", "141235.262500", "141235.722500", "141236.182500", "141236.642500", "141237.102500", "141237.562500", "141238.022500", "141238.482500", "141238.942500", "141239.402500", "141239.862500", "141240.322500", "141240.782500", "141241.242500", "141241.702500", "141242.162500", "141242.622500", "141243.082500", "141243.542500", "141244.002500", "141244.462500", "141244.922500", "141245.382500", "141245.842500", "141246.302500", "141246.762500", "141247.222500", "141247.682500", "141248.142500", "141248.602500", "141249.062500", "141249.522500", "141249.982500", "141250.442500", "141250.902500", "141251.362500", "141251.822500", "141252.282500", "141252.742500", "141253.202500", "141253.662500", "141254.122500", "141254.582500", "141255.042500", "141255.502500", "141255.962500", "141256.422500", "141256.882500", "141257.342500", "141257.802500", "141258.262500", "141258.722500", "141259.182500", "141259.642500", "141300.102500", "141300.562500", "141301.022500", "141301.482500", "141301.942500", "141302.402500", "141302.862500", "141303.322500", "141303.782500", "141304.242500", "141304.702500", "141305.162500", "141305.622500", "141306.082500", "141306.542500", "141307.002500", "141307.462500", "141307.922500", "141308.382500", "141308.842500", "141309.302500", "141309.762500", "141310.222500", "141310.682500", "141311.142500", "141311.602500", "141312.062500", "141312.522500", "141312.982500", "141313.442500", "141313.902500", "141314.362500", "141314.822500", "141315.282500", "141315.742500", "141316.202500", "141316.662500", "141317.122500", "141317.582500", "141318.042500", "141318.502500", "141318.962500", "141319.422500", "141319.882500", "141320.342500", "141320.802500", "141321.262500", "141321.722500", "141322.182500", "141322.642500", "141323.102500", "141323.562500", "141324.022500", "141324.482500", "141324.942500", "141325.402500", "141325.862500", "141326.322500", "141326.782500", "141327.242500", "141327.702500", "141328.162500", "141328.622500", "141329.082500", "141329.542500", "141330.002500", "141330.462500", "141330.922500", "141331.382500", "141331.842500", "141332.302500", "141332.762500", "141333.222500", "141333.682500", "141334.142500", "141334.602500", "141335.062500", "141335.522500", "141335.982500", "141336.442500", "141336.902500", "141337.362500", "141337.822500", "141338.282500", "141338.742500", "141339.202500", "141339.662500", "141340.122500", "141340.582500", "141341.042500", "141341.502500", "141341.962500", "141342.422500", "141342.882500", "141343.342500", "141343.802500", "141344.262500", "141344.722500", "141345.182500", "141345.642500", "141346.102500", "141346.562500", "141347.022500", "141347.482500", "141347.942500", "141348.402500", "141348.862500", "141349.322500", "141349.782500", "141350.242500", "141350.702500", "141351.162500", "141351.622500", "141352.082500", "141352.542500", "141353.002500", "141353.462500", "141353.922500", "141354.382500", "141354.842500", "141355.302500", "141355.762500", "141356.222500", "141356.682500", "141357.142500", "141357.602500", "141358.062500", "141358.522500", "141358.982500", "141359.442500", "141359.902500", "141400.362500", "141400.822500", "141401.282500", "141401.742500", "141402.202500", "141402.662500", "141403.122500", "141403.582500", "141404.042500", "141404.502500", "141404.962500", "141405.422500", "141405.882500", "141406.342500", "141406.802500", "141407.262500", "141407.722500", "141408.182500", "141408.642500", "141409.102500", "141409.562500", "141410.022500", "141410.482500", "141410.942500", "141411.402500", "141411.862500", "141412.322500", "141412.782500", "141413.242500", "141413.702500", "141414.162500", "141414.622500", "141415.082500", "141415.542500", "141416.002500", "141416.462500", "141416.922500", "141417.382500", "141417.842500", "141418.302500", "141418.762500", "141419.222500", "141419.682500", "141420.142500", "141420.602500", "141421.062500", "141421.522500", "141421.982500", "141422.442500", "141422.902500", "141423.362500", "141423.822500", "141424.282500", "141424.742500", "141425.202500", "141425.662500", "141426.122500", "141426.582500", "141427.042500", "141427.502500", "141427.962500", "141428.422500", "141428.882500", "141429.342500", "141429.802500", "141430.262500", "141430.722500", "141431.182500", "141431.642500", "141432.102500", "141432.562500", "141433.022500", "141433.482500", "141433.942500", "141434.402500", "141434.862500", "141435.322500", "141435.782500", "141436.242500", "141436.702500", "141437.162500", "141437.622500", "141438.082500", "141438.542500", "141439.002500", "141439.462500", "141439.922500", "141440.382500", "141440.842500", "141441.302500", "141441.762500", "141442.222500", "141442.682500", "141443.142500", "141443.602500", "141444.062500", "141444.522500", "141444.982500", "141445.442500", "141445.902500", "141446.362500", "141446.822500", "141447.282500", "141447.742500", "141448.202500", "141448.662500", "141449.122500", "141449.582500", "141450.042500", "141450.502500", "141450.962500", "141451.422500", "141451.882500", "141452.342500", "141452.802500", "141453.262500", "141453.722500", "141454.182500", "141454.642500", "141455.102500", "141455.562500", "141456.022500", "141456.482500", "141456.942500", "141457.402500", "141457.862500", "141458.322500", "141458.782500", "141459.242500", "141459.702500", "141500.162500", "141500.622500", "141501.082500", "141501.542500", "141502.002500", "141502.462500", "141502.922500", "141503.382500", "141503.842500", "141504.302500", "141504.762500", "141505.222500", "141505.682500", "141506.142500", "141506.602500", "141507.062500", "141507.522500", "141507.982500", "141508.442500", "141508.902500", "141509.362500", "141509.822500", "141510.282500", "141510.742500", "141511.202500", "141511.662500", "141512.122500", "141512.582500", "141513.042500", "141513.502500", "141513.962500", "141514.422500", "141514.882500", "141515.342500", "141515.802500", "141516.262500", "141516.722500", "141517.182500", "141517.642500", "141518.102500", "141518.562500", "141519.022500", "141519.482500", "141519.942500", "141520.402500", "141520.862500", "141521.322500", "141521.782500", "141522.242500", "141522.702500", "141523.162500", "141523.622500", "141524.082500", "141524.542500", "141525.002500", "141525.462500", "141525.922500", "141526.382500", "141526.842500", "141527.302500", "141527.762500", "141528.222500", "141528.682500", "141529.142500", "141529.602500", "141530.062500", "141530.522500", "141530.982500", "141531.442500", "141531.902500", "141532.362500", "141532.822500", "141533.282500", "141533.742500", "141534.202500", "141534.662500", "141535.122500", "141535.582500", "141536.042500", "141536.502500", "141536.962500", "141537.422500", "141537.882500", "141538.342500", "141538.802500", "141539.262500", "141539.722500", "141540.182500", "141540.642500", "141541.102500", "141541.562500", "141542.022500", "141542.482500", "141542.942500", "141543.402500", "141543.862500", "141544.322500", "141544.782500", "141545.242500", "141545.702500", "141546.162500", "141546.622500", "141547.082500", "141547.542500", "141548.002500", "141548.462500", "141548.922500", "141549.382500", "141549.842500", "141550.302500", "141550.762500", "141551.222500", "141551.682500", "141552.142500", "141552.602500", "141553.062500", "141553.522500", "141553.982500", "141554.442500", "141554.902500", "141555.362500", "141555.822500", "141556.282500", "141556.742500", "141557.202500", "141557.662500", "141558.122500", "141558.582500", "141559.042500", "141559.502500", "141559.962500", "141600.422500", "141600.882500", "141601.342500", "141601.802500", "141602.262500", "141602.722500", "141603.182500", "141603.642500", "141604.102500", "141604.562500", "141605.022500", "141605.482500", "141605.942500", "141606.402500", "141606.862500", "141607.322500", "141607.782500", "141608.242500", "141608.702500", "141609.162500", "141609.622500", "141610.082500", "141610.542500", "141611.002500", "141611.462500", "141611.922500", "141612.382500", "141612.842500", "141613.302500", "141613.762500", "141614.222500", "141614.682500", "141615.142500", "141615.602500", "141616.062500", "141616.522500", "141616.982500", "141617.442500", "141617.902500", "141618.362500", "141618.822500", "141619.282500", "141619.742500", "141620.202500", "141620.662500", "141621.122500", "141621.582500", "141622.042500", "141622.502500", "141622.962500", "141623.422500", "141623.882500", "141624.342500", "141624.802500", "141625.262500", "141625.722500", "141626.182500", "141626.642500", "141627.102500", "141627.562500", "141628.022500", "141628.482500", "141628.942500", "141629.402500", "141629.862500", "141630.322500", "141630.782500", "141631.242500", "141631.702500", "141632.162500", "141632.622500", "141633.082500", "141633.542500", "141634.002500", "141634.462500", "141634.922500", "141635.382500", "141635.842500", "141636.302500", "141636.762500", "141637.222500", "141637.682500", "141638.142500", "141638.602500", "141639.062500", "141639.522500", "141639.982500", "141640.442500", "141640.902500", "141641.362500", "141641.822500", "141642.282500", "141642.742500", "141643.202500", "141643.662500", "141644.122500", "141644.582500", "141645.042500", "141645.502500", "141645.962500", "141646.422500", "141646.882500", "141647.342500", "141647.802500", "141648.262500", "141648.722500", "141649.182500", "141649.642500", "141650.102500", "141650.562500", "141651.022500", "141651.482500", "141651.942500", "141652.402500", "141652.862500", "141653.322500", "141653.782500", "141654.242500", "141654.702500", "141655.162500", "141655.622500", "141656.082500", "141656.542500", "141657.002500", "141657.462500", "141657.922500", "141658.382500", "141658.842500", "141659.302500", "141659.762500", "141700.222500", "141700.682500", "141701.142500", "141701.602500", "141702.062500", "141702.522500", "141702.982500", "141703.442500", "141703.902500", "141704.362500", "141704.822500", "141705.282500", "141705.742500", "141706.202500", "141706.662500", "141707.122500", "141707.582500", "141708.042500", "141708.502500", "141708.962500", "141709.422500", "141709.882500", "141710.342500", "141710.802500", "141711.262500", "141711.722500", "141712.182500", "141712.642500", "141713.102500", "141713.562500", "141714.022500", "141714.482500", "141714.942500", "141715.402500", "141715.862500", "141716.322500", "141716.782500", "141717.242500", "141717.702500", "141718.162500", "141718.622500", "141719.082500", "141719.542500", "141720.002500", "141720.462500", "141720.922500", "141721.382500", "141721.842500", "141722.302500", "141722.762500", "141723.222500", "141723.682500", "141724.142500", "141724.602500", "141725.062500", "141725.522500", "141725.982500", "141726.442500", "141726.902500", "141727.362500", "141727.822500", "141728.282500", "141728.742500", "141729.202500", "141729.662500", "141730.122500", "141730.582500", "141731.042500", "141731.502500", "141731.962500", "141732.422500", "141732.882500", "141733.342500", "141733.802500", "141734.262500", "141734.722500", "141735.182500", "141735.642500", "141736.102500", "141736.562500", "141737.022500", "141737.482500", "141737.942500", "141738.402500", "141738.862500", "141739.322500", "141739.782500", "141740.242500", "141740.702500", "141741.162500", "141741.622500", "141742.082500", "141742.542500", "141743.002500", "141743.462500", "141743.922500", "141744.382500", "141744.842500", "141745.302500", "141745.762500", "141746.222500", "141746.682500", "141747.142500", "141747.602500", "141748.062500", "141748.522500", "141748.982500", "141749.442500", "141749.902500", "141750.362500", "141750.822500", "141751.282500", "141751.742500", "141752.202500", "141752.662500", "141753.122500", "141753.582500", "141754.042500", "141754.502500", "141754.962500", "141755.422500", "141755.882500", "141756.342500", "141756.802500", "141757.262500", "141757.722500", "141758.182500", "141758.642500", "141759.102500", "141759.562500", "141800.022500", "141800.482500", "141800.942500", "141801.402500", "141801.862500", "141802.322500", "141802.782500", "141803.242500", "141803.702500", "141804.162500", "141804.622500", "141805.082500", "141805.542500", "141806.002500", "141806.462500", "141806.922500"],
