{
  "AcquisitionMatrixPE": 82,
  "AcquisitionNumber": 1,
  "AcquisitionTime": "14:25:36.320000",
  "BandwidthPerPixelPhaseEncode": 24.888,
  "BaseResolution": 82,
  "BodyPartExamined": "BRAIN",
  "ConsistencyInfo": "N4_VE11E_LATEST_20181129",
  "ConversionSoftware": "dcm2niix",
  "ConversionSoftwareVersion": "v1.0.20201102",
  "DerivedVendorReportedEchoSpacing": 0.00049,
  "DeviceSerialNumber": "66112",
  "DwellTime": 2e-06,
  "EchoTime": 0.0272,
  "EchoTrainLength": 82,
  "EffectiveEchoSpacing": 0.00049,
  "FlipAngle": 44,
  "ImageComments": "Unaliased MB8/PE3",
  "ImageOrientationPatientDICOM": [0.994896, 0.0886373, -0.0482134, -0.0854677, 0.994267, 0.0642495],
  "ImageType": [
    "ORIGINAL",
    "PRIMARY",
    "M",
    "MB",
    "ND",
    "NORM",
    "MOSAIC"
],
  "ImagingFrequency": 123.259,
  "InPlanePhaseEncodingDirectionDICOM": "COL",
  "InstitutionAddress": "Maynard 3,Hanover,NH,US,03755",
  "InstitutionName": "Dartmouth College - PBS",
  "InstitutionalDepartmentName": "Department",
  "MRAcquisitionType": "2D",
  "MagneticFieldStrength": 3,
  "Manufacturer": "Siemens",
  "ManufacturersModelName": "Prisma",
  "Modality": "MR",
  "MultibandAccelerationFactor": 8,
  "PartialFourier": 1,
  "PatientPosition": "HFS",
  "PercentPhaseFOV": 100,
  "PercentSampling": 100,
  "PhaseEncodingDirection": "j-",
  "PhaseEncodingSteps": 82,
  "PhaseResolution": 1,
  "PixelBandwidth": 3050,
  "ProcedureStepDescription": "Wager_Wager^1076_spacetop",
  "ProtocolName": "func_run-06_task-social_acq-ap-mb8",
  "PulseSequenceDetails": "%CustomerSeq%\\cmrr_mbep2d_bold",
  "ReceiveCoilActiveElements": "HEA;HEP",
  "ReceiveCoilName": "Head_32",
  "ReconMatrixPE": 82,
  "RepetitionTime": 0.46,
  "SAR": 0.0740397,
  "ScanOptions": "FS",
  "ScanningSequence": "EP",
  "SequenceName": "epfid2d1_82",
  "SequenceVariant": "SK\\SS",
  "SeriesDescription": "func_run-06_task-social_acq-ap-mb8",
  "SeriesNumber": 18,
  "ShimSetting": [4216, -7725, -7252, 298, -76, 105, 138, 41],
  "SliceThickness": 2.7,
  "SliceTiming": [0, 0.2525, 0.0625, 0.315, 0.125, 0.3775, 0.1875, 0, 0.2525, 0.0625, 0.315, 0.125, 0.3775, 0.1875, 0, 0.2525, 0.0625, 0.315, 0.125, 0.3775, 0.1875, 0, 0.2525, 0.0625, 0.315, 0.125, 0.3775, 0.1875, 0, 0.2525, 0.0625, 0.315, 0.125, 0.3775, 0.1875, 0, 0.2525, 0.0625, 0.315, 0.125, 0.3775, 0.1875, 0, 0.2525, 0.0625, 0.315, 0.125, 0.3775, 0.1875, 0, 0.2525, 0.0625, 0.315, 0.125, 0.3775, 0.1875],
  "SoftwareVersions": "syngo MR E11",
  "SpacingBetweenSlices": 2.7,
  "StationName": "AWP66112",
  "TaskName": "social",
  "TotalReadoutTime": 0.03969,
  "TxRefAmp": 218.252,
  "WipMemBlock": "007133ff-f0fd-4f82-974b-1c6150db596a||Sequence: R016 ve11e/master r/434b28f1; Aug  7 2019 18:53:46 by eja",
  "dcmmeta_affine": [
    [-2.669234275817871, -0.22930346429347992, -0.14480622112751007, 123.15885162353516],
    [-0.23780737817287445, 2.667546272277832, 0.16146251559257507, -97.81855773925781],
    [-0.1293531060218811, -0.17237676680088043, 2.691275119781494, -54.91480255126953],
    [0.0, 0.0, 0.0, 1.0]
],
  "dcmmeta_reorient_transform": [
    [0.0, -1.0, 0.0, 81.0],
    [1.0, 0.0, 0.0, 0.0],
    [0.0, 0.0, 1.0, 0.0],
    [0.0, 0.0, 0.0, 1.0]
],
  "dcmmeta_shape": [82, 82, 56, 872],
  "dcmmeta_slice_dim": 2,
  "dcmmeta_version": 0.6,
  "global": {
    "const": {
      "AccessionNumber": "A004508",
      "AcquisitionMatrix": [82, 0, 0, 82],
      "AngioFlag": "N",
      "BitsAllocated": 16,
      "BitsStored": 16,
      "BodyPartExamined": "BRAIN",
      "Columns": 656,
      "EchoNumbers": 1,
      "EchoTime": 27.2,
      "EchoTrainLength": 82,
      "FlipAngle": 44.0,
      "HighBit": 15,
      "ImageOrientationPatient": [0.99489642458115, 0.08863729359723, -0.0482134269617, -0.085467655282, 0.99426720690187, 0.06424952280097],
      "ImagePositionPatient": [-804.84543748902, -952.08917075148, -81.225114589517],
      "ImageType": [
        "ORIGINAL",
        "PRIMARY",
        "M",
        "MB",
        "ND",
        "NORM",
        "MOSAIC"
],
      "ImagedNucleus": "1H",
      "ImagingFrequency": 123.259104,
      "InPlanePhaseEncodingDirection": "COL",
      "MRAcquisitionType": "2D",
      "MagneticFieldStrength": 3.0,
      "Manufacturer": "SIEMENS",
      "ManufacturerModelName": "Prisma",
      "Modality": "MR",
      "NumberOfAverages": 1.0,
      "NumberOfPhaseEncodingSteps": 82,
      "PercentPhaseFieldOfView": 100.0,
      "PercentSampling": 100.0,
      "PerformedProcedureStepStartTime": "133432.127000",
      "PhotometricInterpretation": "MONOCHROME2",
      "PixelBandwidth": 3050.0,
      "PixelRepresentation": 0,
      "PixelSpacing": [2.6829268932343, 2.6829268932343],
      "ProtocolName": "func_run-06_task-social_acq-ap-mb8",
      "RepetitionTime": 460.0,
      "Rows": 656,
      "SAR": 0.07403973806561,
      "SamplesPerPixel": 1,
      "ScanOptions": "FS",
      "ScanningSequence": "EP",
      "SequenceName": "epfid2d1_82",
      "SequenceVariant": [
        "SK",
        "SS"
],
      "SeriesDescription": "func_run-06_task-social_acq-ap-mb8",
      "SeriesNumber": 18,
      "SeriesTime": "142555.966000",
      "SliceLocation": -67.192233515991,
      "SliceThickness": 2.7000000476837,
      "SmallestImagePixelValue": 0,
      "SoftwareVersions": "syngo MR E11",
      "SpacingBetweenSlices": 2.7000000448218,
      "SpecificCharacterSet": "ISO_IR 100",
      "StudyID": "1",
      "StudyTime": "133432.033000",
      "TransmitCoilName": "Body",
      "VariableFlipAngleFlag": "N",
      "WindowCenterWidthExplanation": "Algo1"
    },
    "slices": {}
  },
  "time": {
    "samples": {
      "AcquisitionNumber": [1, 2, 3, 4, 5, 6, 7, 8, 9, 10, 11, 12, 13, 14, 15, 16, 17, 18, 19, 20, 21, 22, 23, 24, 25, 26, 27, 28, 29, 30, 31, 32, 33, 34, 35, 36, 37, 38, 39, 40, 41, 42, 43, 44, 45, 46, 47, 48, 49, 50, 51, 52, 53, 54, 55, 56, 57, 58, 59, 60, 61, 62, 63, 64, 65, 66, 67, 68, 69, 70, 71, 72, 73, 74, 75, 76, 77, 78, 79, 80, 81, 82, 83, 84, 85, 86, 87, 88, 89, 90, 91, 92, 93, 94, 95, 96, 97, 98, 99, 100, 101, 102, 103, 104, 105, 106, 107, 108, 109, 110, 111, 112, 113, 114, 115, 116, 117, 118, 119, 120, 121, 122, 123, 124, 125, 126, 127, 128, 129, 130, 131, 132, 133, 134, 135, 136, 137, 138, 139, 140, 141, 142, 143, 144, 145, 146, 147, 148, 149, 150, 151, 152, 153, 154, 155, 156, 157, 158, 159, 160, 161, 162, 163, 164, 165, 166, 167, 168, 169, 170, 171, 172, 173, 174, 175, 176, 177, 178, 179, 180, 181, 182, 183, 184, 185, 186, 187, 188, 189, 190, 191, 192, 193, 194, 195, 196, 197, 198, 199, 200, 201, 202, 203, 204, 205, 206, 207, 208, 209, 210, 211, 212, 213, 214, 215, 216, 217, 218, 219, 220, 221, 222, 223, 224, 225, 226, 227, 228, 229, 230, 231, 232, 233, 234, 235, 236, 237, 238, 239, 240, 241, 242, 243, 244, 245, 246, 247, 248, 249, 250, 251, 252, 253, 254, 255, 256, 257, 258, 259, 260, 261, 262, 263, 264, 265, 266, 267, 268, 269, 270, 271, 272, 273, 274, 275, 276, 277, 278, 279, 280, 281, 282, 283, 284, 285, 286, 287, 288, 289, 290, 291, 292, 293, 294, 295, 296, 297, 298, 299, 300, 301, 302, 303, 304, 305, 306, 307, 308, 309, 310, 311, 312, 313, 314, 315, 316, 317, 318, 319, 320, 321, 322, 323, 324, 325, 326, 327, 328, 329, 330, 331, 332, 333, 334, 335, 336, 337, 338, 339, 340, 341, 342, 343, 344, 345, 346, 347, 348, 349, 350, 351, 352, 353, 354, 355, 356, 357, 358, 359, 360, 361, 362, 363, 364, 365, 366, 367, 368, 369, 370, 371, 372, 373, 374, 375, 376, 377, 378, 379, 380, 381, 382, 383, 384, 385, 386, 387, 388, 389, 390, 391, 392, 393, 394, 395, 396, 397, 398, 399, 400, 401, 402, 403, 404, 405, 406, 407, 408, 409, 410, 411, 412, 413, 414, 415, 416, 417, 418, 419, 420, 421, 422, 423, 424, 425, 426, 427, 428, 429, 430, 431, 432, 433, 434, 435, 436, 437, 438, 439, 440, 441, 442, 443, 444, 445, 446, 447, 448, 449, 450, 451, 452, 453, 454, 455, 456, 457, 458, 459, 460, 461, 462, 463, 464, 465, 466, 467, 468, 469, 470, 471, 472, 473, 474, 475, 476, 477, 478, 479, 480, 481, 482, 483, 484, 485, 486, 487, 488, 489, 490, 491, 492, 493, 494, 495, 496, 497, 498, 499, 500, 501, 502, 503, 504, 505, 506, 507, 508, 509, 510, 511, 512, 513, 514, 515, 516, 517, 518, 519, 520, 521, 522, 523, 524, 525, 526, 527, 528, 529, 530, 531, 532, 533, 534, 535, 536, 537, 538, 539, 540, 541, 542, 543, 544, 545, 546, 547, 548, 549, 550, 551, 552, 553, 554, 555, 556, 557, 558, 559, 560, 561, 562, 563, 564, 565, 566, 567, 568, 569, 570, 571, 572, 573, 574, 575, 576, 577, 578, 579, 580, 581, 582, 583, 584, 585, 586, 587, 588, 589, 590, 591, 592, 593, 594, 595, 596, 597, 598, 599, 600, 601, 602, 603, 604, 605, 606, 607, 608, 609, 610, 611, 612, 613, 614, 615, 616, 617, 618, 619, 620, 621, 622, 623, 624, 625, 626, 627, 628, 629, 630, 631, 632, 633, 634, 635, 636, 637, 638, 639, 640, 641, 642, 643, 644, 645, 646, 647, 648, 649, 650, 651, 652, 653, 654, 655, 656, 657, 658, 659, 660, 661, 662, 663, 664, 665, 666, 667, 668, 669, 670, 671, 672, 673, 674, 675, 676, 677, 678, 679, 680, 681, 682, 683, 684, 685, 686, 687, 688, 689, 690, 691, 692, 693, 694, 695, 696, 697, 698, 699, 700, 701, 702, 703, 704, 705, 706, 707, 708, 709, 710, 711, 712, 713, 714, 715, 716, 717, 718, 719, 720, 721, 722, 723, 724, 725, 726, 727, 728, 729, 730, 731, 732, 733, 734, 735, 736, 737, 738, 739, 740, 741, 742, 743, 744, 745, 746, 747, 748, 749, 750, 751, 752, 753, 754, 755, 756, 757, 758, 759, 760, 761, 762, 763, 764, 765, 766, 767, 768, 769, 770, 771, 772, 773, 774, 775, 776, 777, 778, 779, 780, 781, 782, 783, 784, 785, 786, 787, 788, 789, 790, 791, 792, 793, 794, 795, 796, 797, 798, 799, 800, 801, 802, 803, 804, 805, 806, 807, 808, 809, 810, 811, 812, 813, 814, 815, 816, 817, 818, 819, 820, 821, 822, 823, 824, 825, 826, 827, 828, 829, 830, 831, 832, 833, 834, 835, 836, 837, 838, 839, 840, 841, 842, 843, 844, 845, 846, 847, 848, 849, 850, 851, 852, 853, 854, 855, 856, 857, 858, 859, 860, 861, 862, 863, 864, 865, 866, 867, 868, 869, 870, 871, 872],
      "AcquisitionTime": ["142536.320000", "142536.780000", "142537.240000", "142537.700000", "142538.160000", "142538.620000", "142539.080000", "142539.540000", "142540.000000", "142540.460000", "142540.920000", "142541.380000", "142541.840000", "142542.300000", "142542.760000", "142543.220000", "142543.680000", "142544.140000", "142544.600000", "142545.060000", "142545.520000", "142545.980000", "142546.440000", "142546.900000", "142547.360000", "142547.820000", "142548.280000", "142548.740000", "142549.200000", "142549.660000", "142550.120000", "142550.580000", "142551.040000", "142551.500000", "142551.960000", "142552.420000", "142552.880000", "142553.340000", "142553.800000", "142554.260000", "142554.720000", "142555.180000", "142555.640000", "142556.100000", "142556.560000", "142557.020000", "142557.480000", "142557.940000", "142558.400000", "142558.860000", "142559.320000", "142559.780000", "142600.240000", "142600.700000", "142601.160000", "142601.620000", "142602.080000", "142602.540000", "142603.000000", "142603.460000", "142603.920000", "142604.380000", "142604.840000", "142605.300000", "142605.760000", "142606.220000", "142606.680000", "142607.140000", "142607.600000", "142608.060000", "142608.520000", "142608.980000", "142609.440000", "142609.900000", "142610.360000", "142610.820000", "142611.280000", "142611.740000", "142612.200000", "142612.660000", "142613.120000", "142613.580000", "142614.040000", "142614.500000", "142614.960000", "142615.420000", "142615.880000", "142616.340000", "142616.800000", "142617.260000", "142617.720000", "142618.180000", "142618.640000", "142619.100000", "142619.560000", "142620.020000", "142620.480000", "142620.940000", "142621.400000", "142621.860000", "142622.320000", "142622.780000", "142623.240000", "142623.700000", "142624.160000", "142624.620000", "142625.080000", "142625.540000", "142626.000000", "142626.460000", "142626.920000", "142627.380000", "142627.840000", "142628.300000", "142628.760000", "142629.220000", "142629.680000", "142630.140000", "142630.600000", "142631.060000", "142631.520000", "142631.980000", "142632.440000", "142632.900000", "142633.360000", "142633.820000", "142634.280000", "142634.740000", "142635.200000", "142635.660000", "142636.120000", "142636.580000", "142637.040000", "142637.500000", "142637.960000", "142638.420000", "142638.880000", "142639.340000", "142639.800000", "142640.260000", "142640.720000", "142641.180000", "142641.640000", "142642.100000", "142642.560000", "142643.020000", "142643.480000", "142643.940000", "142644.400000", "142644.860000", "142645.320000", "142645.780000", "142646.240000", "142646.700000", "142647.160000", "142647.620000", "142648.080000", "142648.540000", "142649.000000", "142649.460000", "142649.920000", "142650.380000", "142650.840000", "142651.300000", "142651.760000", "142652.220000", "142652.680000", "142653.140000", "142653.600000", "142654.060000", "142654.520000", "142654.980000", "142655.440000", "142655.900000", "142656.360000", "142656.820000", "142657.280000", "142657.740000", "142658.200000", "142658.660000", "142659.120000", "142659.580000", "142700.040000", "142700.500000", "142700.960000", "142701.420000", "142701.880000", "142702.340000", "142702.800000", "142703.260000", "142703.720000", "142704.180000", "142704.640000", "142705.100000", "142705.560000", "142706.020000", "142706.480000", "142706.940000", "142707.400000", "142707.860000", "142708.320000", "142708.780000", "142709.240000", "142709.700000", "142710.160000", "142710.620000", "142711.080000", "142711.540000", "142712.000000", "142712.460000", "142712.920000", "142713.380000", "142713.840000", "142714.300000", "142714.760000", "142715.220000", "142715.680000", "142716.140000", "142716.600000", "142717.060000", "142717.520000", "142717.980000", "142718.440000", "142718.900000", "142719.360000", "142719.820000", "142720.280000", "142720.740000", "142721.200000", "142721.660000", "142722.120000", "142722.580000", "142723.040000", "142723.500000", "142723.960000", "142724.420000", "142724.880000", "142725.340000", "142725.800000", "142726.260000", "142726.720000", "142727.180000", "142727.640000", "142728.100000", "142728.560000", "142729.020000", "142729.480000", "142729.940000", "142730.400000", "142730.860000", "142731.320000", "142731.780000", "142732.240000", "142732.700000", "142733.160000", "142733.620000", "142734.080000", "142734.540000", "142735.000000", "142735.460000", "142735.920000", "142736.380000", "142736.840000", "142737.300000", "142737.760000", "142738.220000", "142738.680000", "142739.140000", "142739.600000", "142740.060000", "142740.520000", "142740.980000", "142741.440000", "142741.900000", "142742.360000", "142742.820000", "142743.280000", "142743.740000", "142744.200000", "142744.660000", "142745.120000", "142745.580000", "142746.040000", "142746.500000", "142746.960000", "142747.420000", "142747.880000", "142748.340000", "142748.800000", "142749.260000", "142749.720000", "142750.180000", "142750.640000", "142751.100000", "142751.560000", "142752.020000", "142752.480000", "142752.940000", "142753.400000", "142753.860000", "142754.320000", "142754.780000", "142755.240000", "142755.700000", "142756.160000", "142756.620000", "142757.080000", "142757.540000", "142758.000000", "142758.460000", "142758.920000", "142759.380000", "142759.840000", "142800.300000", "142800.760000", "142801.220000", "142801.680000", "142802.140000", "142802.600000", "142803.060000", "142803.520000", "142803.980000", "142804.440000", "142804.900000", "142805.360000", "142805.820000", "142806.280000", "142806.740000", "142807.200000", "142807.660000", "142808.120000", "142808.580000", "142809.040000", "142809.500000", "142809.960000", "142810.420000", "142810.880000", "142811.340000", "142811.800000", "142812.260000", "142812.720000", "142813.180000", "142813.640000", "142814.100000", "142814.560000", "142815.020000", "142815.480000", "142815.940000", "142816.400000", "142816.860000", "142817.320000", "142817.780000", "142818.240000", "142818.700000", "142819.160000", "142819.620000", "142820.080000", "142820.540000", "142821.000000", "142821.460000", "142821.920000", "142822.380000", "142822.840000", "142823.300000", "142823.760000", "142824.220000", "142824.680000", "142825.140000", "142825.600000", "142826.060000", "142826.520000", "142826.980000", "142827.440000", "142827.900000", "142828.360000", "142828.820000", "142829.280000", "142829.740000", "142830.200000", "142830.660000", "142831.120000", "142831.580000", "142832.040000", "142832.500000", "142832.960000", "142833.420000", "142833.880000", "142834.340000", "142834.800000", "142835.260000", "142835.720000", "142836.180000", "142836.640000", "142837.100000", "142837.560000", "142838.020000", "142838.480000", "142838.940000", "142839.400000", "142839.860000", "142840.320000", "142840.780000", "142841.240000", "142841.700000", "142842.160000", "142842.620000", "142843.080000", "142843.540000", "142844.000000", "142844.460000", "142844.920000", "142845.380000", "142845.840000", "142846.300000", "142846.760000", "142847.220000", "142847.680000", "142848.140000", "142848.600000", "142849.060000", "142849.520000", "142849.980000", "142850.440000", "142850.900000", "142851.360000", "142851.820000", "142852.280000", "142852.740000", "142853.200000", "142853.660000", "142854.120000", "142854.580000", "142855.040000", "142855.500000", "142855.960000", "142856.420000", "142856.880000", "142857.340000", "142857.800000", "142858.260000", "142858.720000", "142859.180000", "142859.640000", "142900.100000", "142900.560000", "142901.020000", "142901.480000", "142901.940000", "142902.400000", "142902.860000", "142903.320000", "142903.780000", "142904.240000", "142904.700000", "142905.160000", "142905.620000", "142906.080000", "142906.540000", "142907.000000", "142907.460000", "142907.920000", "142908.380000", "142908.840000", "142909.300000", "142909.760000", "142910.220000", "142910.680000", "142911.140000", "142911.600000", "142912.060000", "142912.520000", "142912.980000", "142913.440000", "142913.900000", "142914.360000", "142914.820000", "142915.280000", "142915.740000", "142916.200000", "142916.660000", "142917.120000", "142917.580000", "142918.040000", "142918.500000", "142918.960000", "142919.420000", "142919.880000", "142920.340000", "142920.800000", "142921.260000", "142921.720000", "142922.180000", "142922.640000", "142923.100000", "142923.560000", "142924.020000", "142924.480000", "142924.940000", "142925.400000", "142925.860000", "142926.320000", "142926.780000", "142927.240000", "142927.700000", "142928.160000", "142928.620000", "142929.080000", "142929.540000", "142930.000000", "142930.460000", "142930.920000", "142931.380000", "142931.840000", "142932.300000", "142932.760000", "142933.220000", "142933.680000", "142934.140000", "142934.600000", "142935.060000", "142935.520000", "142935.980000", "142936.440000", "142936.900000", "142937.360000", "142937.820000", "142938.280000", "142938.740000", "142939.200000", "142939.660000", "142940.120000", "142940.580000", "142941.040000", "142941.500000", "142941.960000", "142942.420000", "142942.880000", "142943.340000", "142943.800000", "142944.260000", "142944.720000", "142945.180000", "142945.640000", "142946.100000", "142946.560000", "142947.020000", "142947.480000", "142947.940000", "142948.400000", "142948.860000", "142949.320000", "142949.780000", "142950.240000", "142950.700000", "142951.160000", "142951.620000", "142952.080000", "142952.540000", "142953.000000", "142953.460000", "142953.920000", "142954.380000", "142954.840000", "142955.300000", "142955.760000", "142956.220000", "142956.680000", "142957.140000", "142957.600000", "142958.060000", "142958.520000", "142958.980000", "142959.440000", "142959.900000", "143000.360000", "143000.820000", "143001.280000", "143001.740000", "143002.200000", "143002.660000", "143003.120000", "143003.580000", "143004.040000", "143004.500000", "143004.960000", "143005.420000", "143005.880000", "143006.340000", "143006.800000", "143007.260000", "143007.720000", "143008.180000", "143008.640000", "143009.100000", "143009.560000", "143010.020000", "143010.480000", "143010.940000", "143011.400000", "143011.860000", "143012.320000", "143012.780000", "143013.240000", "143013.700000", "143014.160000", "143014.620000", "143015.080000", "143015.540000", "143016.000000", "143016.460000", "143016.920000", "143017.380000", "143017.840000", "143018.300000", "143018.760000", "143019.220000", "143019.680000", "143020.140000", "143020.600000", "143021.060000", "143021.520000", "143021.980000", "143022.440000", "143022.900000", "143023.360000", "143023.820000", "143024.280000", "143024.740000", "143025.200000", "143025.660000", "143026.120000", "143026.580000", "143027.040000", "143027.500000", "143027.960000", "143028.420000", "143028.880000", "143029.340000", "143029.800000", "143030.260000", "143030.720000", "143031.180000", "143031.640000", "143032.100000", "143032.560000", "143033.020000", "143033.480000", "143033.940000", "143034.400000", "143034.860000", "143035.320000", "143035.780000", "143036.240000", "143036.700000", "143037.160000", "143037.620000", "143038.080000", "143038.540000", "143039.000000", "143039.460000", "143039.920000", "143040.380000", "143040.840000", "143041.300000", "143041.760000", "143042.220000", "143042.680000", "143043.140000", "143043.600000", "143044.060000", "143044.520000", "143044.980000", "143045.440000", "143045.900000", "143046.360000", "143046.820000", "143047.280000", "143047.740000", "143048.200000", "143048.660000", "143049.120000", "143049.580000", "143050.040000", "143050.500000", "143050.960000", "143051.420000", "143051.880000", "143052.340000", "143052.800000", "143053.260000", "143053.720000", "143054.180000", "143054.640000", "143055.100000", "143055.560000", "143056.020000", "143056.480000", "143056.940000", "143057.400000", "143057.860000", "143058.320000", "143058.780000", "143059.240000", "143059.700000", "143100.160000", "143100.620000", "143101.080000", "143101.540000", "143102.000000", "143102.460000", "143102.920000", "143103.380000", "143103.840000", "143104.300000", "143104.760000", "143105.220000", "143105.680000", "143106.140000", "143106.600000", "143107.060000", "143107.520000", "143107.980000", "143108.440000", "143108.900000", "143109.360000", "143109.820000", "143110.280000", "143110.740000", "143111.200000", "143111.660000", "143112.120000", "143112.580000", "143113.040000", "143113.500000", "143113.960000", "143114.420000", "143114.880000", "143115.340000", "143115.800000", "143116.260000", "143116.720000", "143117.180000", "143117.640000", "143118.100000", "143118.560000", "143119.020000", "143119.480000", "143119.940000", "143120.400000", "143120.860000", "143121.320000", "143121.780000", "143122.240000", "143122.700000", "143123.160000", "143123.620000", "143124.080000", "143124.540000", "143125.000000", "143125.460000", "143125.920000", "143126.380000", "143126.840000", "143127.300000", "143127.760000", "143128.220000", "143128.680000", "143129.140000", "143129.600000", "143130.060000", "143130.520000", "143130.980000", "143131.440000", "143131.900000", "143132.360000", "143132.820000", "143133.280000", "143133.740000", "143134.200000", "143134.660000", "143135.120000", "143135.580000", "143136.040000", "143136.500000", "143136.960000", "143137.420000", "143137.880000", "143138.340000", "143138.800000", "143139.260000", "143139.720000", "143140.180000", "143140.640000", "143141.100000", "143141.560000", "143142.020000", "143142.480000", "143142.940000", "143143.400000", "143143.860000", "143144.320000", "143144.780000", "143145.240000", "143145.700000", "143146.160000", "143146.620000", "143147.080000", "143147.540000", "143148.000000", "143148.460000", "143148.920000", "143149.380000", "143149.840000", "143150.300000", "143150.760000", "143151.220000", "143151.680000", "143152.140000", "143152.600000", "143153.060000", "143153.520000", "143153.980000", "143154.440000", "143154.900000", "143155.360000", "143155.820000", "143156.280000", "143156.740000", "143157.200000", "143157.660000", "143158.120000", "143158.580000", "143159.040000", "143159.500000", "143159.960000", "143200.420000", "143200.880000", "143201.340000", "143201.800000", "143202.260000", "143202.720000", "143203.180000", "143203.640000", "143204.100000", "143204.560000", "143205.020000", "143205.480000", "143205.940000", "143206.400000", "143206.860000", "143207.320000", "143207.780000", "143208.240000", "143208.700000", "143209.160000", "143209.620000", "143210.080000", "143210.540000", "143211.000000", "143211.460000", "143211.920000", "143212.380000", "143212.840000", "143213.300000", "143213.760000", "143214.220000", "143214.680000", "143215.140000", "143215.600000", "143216.060000", "143216.520000", "143216.980000"],
