{
  "AcquisitionMatrixPE": 82,
  "AcquisitionNumber": 1,
  "AcquisitionTime": "13:49:17.320000",
  "BandwidthPerPixelPhaseEncode": 24.888,
  "BaseResolution": 82,
  "BodyPartExamined": "BRAIN",
  "ConsistencyInfo": "N4_VE11E_LATEST_20181129",
  "ConversionSoftware": "dcm2niix",
  "ConversionSoftwareVersion": "v1.0.20201102",
  "DerivedVendorReportedEchoSpacing": 0.00049,
  "DeviceSerialNumber": "66112",
  "DwellTime": 2e-06,
  "EchoTime": 0.0272,
  "EchoTrainLength": 82,
  "EffectiveEchoSpacing": 0.00049,
  "FlipAngle": 44,
  "ImageComments": "Unaliased MB8/PE3",
  "ImageOrientationPatientDICOM": [0.994896, 0.0886373, -0.0482134, -0.0854677, 0.994267, 0.0642495],
  "ImageType": [
    "ORIGINAL",
    "PRIMARY",
    "M",
    "MB",
    "ND",
    "NORM",
    "MOSAIC"
],
  "ImagingFrequency": 123.259,
  "InPlanePhaseEncodingDirectionDICOM": "COL",
  "InstitutionAddress": "Maynard 3,Hanover,NH,US,03755",
  "InstitutionName": "Dartmouth College - PBS",
  "InstitutionalDepartmentName": "Department",
  "MRAcquisitionType": "2D",
  "MagneticFieldStrength": 3,
  "Manufacturer": "Siemens",
  "ManufacturersModelName": "Prisma",
  "Modality": "MR",
  "MultibandAccelerationFactor": 8,
  "PartialFourier": 1,
  "PatientPosition": "HFS",
  "PercentPhaseFOV": 100,
  "PercentSampling": 100,
  "PhaseEncodingDirection": "j-",
  "PhaseEncodingSteps": 82,
  "PhaseResolution": 1,
  "PixelBandwidth": 3050,
  "ProcedureStepDescription": "Wager_Wager^1076_spacetop",
  "ProtocolName": "func_run-01_task-social_acq-ap-mb8",
  "PulseSequenceDetails": "%CustomerSeq%\\cmrr_mbep2d_bold",
  "ReceiveCoilActiveElements": "HEA;HEP",
  "ReceiveCoilName": "Head_32",
  "ReconMatrixPE": 82,
  "RepetitionTime": 0.46,
  "SAR": 0.0740397,
  "ScanOptions": "FS",
  "ScanningSequence": "EP",
  "SequenceName": "epfid2d1_82",
  "SequenceVariant": "SK\\SS",
  "SeriesDescription": "func_run-01_task-social_acq-ap-mb8",
  "SeriesNumber": 8,
  "ShimSetting": [4216, -7725, -7252, 298, -76, 105, 138, 41],
  "SliceThickness": 2.7,
  "SliceTiming": [0, 0.2525, 0.0625, 0.315, 0.1275, 0.3775, 0.19, 0, 0.2525, 0.0625, 0.315, 0.1275, 0.3775, 0.19, 0, 0.2525, 0.0625, 0.315, 0.1275, 0.3775, 0.19, 0, 0.2525, 0.0625, 0.315, 0.1275, 0.3775, 0.19, 0, 0.2525, 0.0625, 0.315, 0.1275, 0.3775, 0.19, 0, 0.2525, 0.0625, 0.315, 0.1275, 0.3775, 0.19, 0, 0.2525, 0.0625, 0.315, 0.1275, 0.3775, 0.19, 0, 0.2525, 0.0625, 0.315, 0.1275, 0.3775, 0.19],
  "SoftwareVersions": "syngo MR E11",
  "SpacingBetweenSlices": 2.7,
  "StationName": "AWP66112",
  "TaskName": "social",
  "TotalReadoutTime": 0.03969,
  "TxRefAmp": 218.252,
  "WipMemBlock": "283f7d19-d3e8-4cfc-b50e-76ad24e2a949||Sequence: R016 ve11e/master r/434b28f1; Aug  7 2019 18:53:46 by eja",
  "dcmmeta_affine": [
    [-2.669234275817871, -0.22930346429347992, -0.14480622112751007, 123.15885162353516],
    [-0.23780737817287445, 2.667546272277832, 0.16146251559257507, -97.81855773925781],
    [-0.1293531060218811, -0.17237676680088043, 2.691275119781494, -54.91480255126953],
    [0.0, 0.0, 0.0, 1.0]
],
  "dcmmeta_reorient_transform": [
    [0.0, -1.0, 0.0, 81.0],
    [1.0, 0.0, 0.0, 0.0],
    [0.0, 0.0, 1.0, 0.0],
    [0.0, 0.0, 0.0, 1.0]
],
  "dcmmeta_shape": [82, 82, 56, 872],
  "dcmmeta_slice_dim": 2,
  "dcmmeta_version": 0.6,
  "global": {
    "const": {
      "AccessionNumber": "A004508",
      "AcquisitionMatrix": [82, 0, 0, 82],
      "AngioFlag": "N",
      "BitsAllocated": 16,
      "BitsStored": 16,
      "BodyPartExamined": "BRAIN",
      "Columns": 656,
      "EchoNumbers": 1,
      "EchoTime": 27.2,
      "EchoTrainLength": 82,
      "FlipAngle": 44.0,
      "HighBit": 15,
      "ImageOrientationPatient": [0.99489642458115, 0.08863729359723, -0.0482134269617, -0.085467655282, 0.99426720690187, 0.06424952280097],
      "ImagePositionPatient": [-804.84543748902, -952.08917075148, -81.225114589517],
      "ImageType": [
        "ORIGINAL",
        "PRIMARY",
        "M",
        "MB",
        "ND",
        "NORM",
        "MOSAIC"
],
      "ImagedNucleus": "1H",
      "ImagingFrequency": 123.259072,
      "InPlanePhaseEncodingDirection": "COL",
      "MRAcquisitionType": "2D",
      "MagneticFieldStrength": 3.0,
      "Manufacturer": "SIEMENS",
      "ManufacturerModelName": "Prisma",
      "Modality": "MR",
      "NumberOfAverages": 1.0,
      "NumberOfPhaseEncodingSteps": 82,
      "PercentPhaseFieldOfView": 100.0,
      "PercentSampling": 100.0,
      "PerformedProcedureStepStartTime": "133432.127000",
      "PhotometricInterpretation": "MONOCHROME2",
      "PixelBandwidth": 3050.0,
      "PixelRepresentation": 0,
      "PixelSpacing": [2.6829268932343, 2.6829268932343],
      "ProtocolName": "func_run-01_task-social_acq-ap-mb8",
      "RepetitionTime": 460.0,
      "Rows": 656,
      "SAR": 0.07403973806561,
      "SamplesPerPixel": 1,
      "ScanOptions": "FS",
      "ScanningSequence": "EP",
      "SequenceName": "epfid2d1_82",
      "SequenceVariant": [
        "SK",
        "SS"
],
      "SeriesDescription": "func_run-01_task-social_acq-ap-mb8",
      "SeriesNumber": 8,
      "SeriesTime": "134936.047000",
      "SliceLocation": -67.192233515991,
      "SliceThickness": 2.7000000476837,
      "SmallestImagePixelValue": 0,
      "SoftwareVersions": "syngo MR E11",
      "SpacingBetweenSlices": 2.7000000448218,
      "SpecificCharacterSet": "ISO_IR 100",
      "StudyID": "1",
      "StudyTime": "133432.033000",
      "TransmitCoilName": "Body",
      "VariableFlipAngleFlag": "N",
      "WindowCenterWidthExplanation": "Algo1"
    },
    "slices": {}
  },
  "time": {
    "samples": {
      "AcquisitionNumber": [1, 2, 3, 4, 5, 6, 7, 8, 9, 10, 11, 12, 13, 14, 15, 16, 17, 18, 19, 20, 21, 22, 23, 24, 25, 26, 27, 28, 29, 30, 31, 32, 33, 34, 35, 36, 37, 38, 39, 40, 41, 42, 43, 44, 45, 46, 47, 48, 49, 50, 51, 52, 53, 54, 55, 56, 57, 58, 59, 60, 61, 62, 63, 64, 65, 66, 67, 68, 69, 70, 71, 72, 73, 74, 75, 76, 77, 78, 79, 80, 81, 82, 83, 84, 85, 86, 87, 88, 89, 90, 91, 92, 93, 94, 95, 96, 97, 98, 99, 100, 101, 102, 103, 104, 105, 106, 107, 108, 109, 110, 111, 112, 113, 114, 115, 116, 117, 118, 119, 120, 121, 122, 123, 124, 125, 126, 127, 128, 129, 130, 131, 132, 133, 134, 135, 136, 137, 138, 139, 140, 141, 142, 143, 144, 145, 146, 147, 148, 149, 150, 151, 152, 153, 154, 155, 156, 157, 158, 159, 160, 161, 162, 163, 164, 165, 166, 167, 168, 169, 170, 171, 172, 173, 174, 175, 176, 177, 178, 179, 180, 181, 182, 183, 184, 185, 186, 187, 188, 189, 190, 191, 192, 193, 194, 195, 196, 197, 198, 199, 200, 201, 202, 203, 204, 205, 206, 207, 208, 209, 210, 211, 212, 213, 214, 215, 216, 217, 218, 219, 220, 221, 222, 223, 224, 225, 226, 227, 228, 229, 230, 231, 232, 233, 234, 235, 236, 237, 238, 239, 240, 241, 242, 243, 244, 245, 246, 247, 248, 249, 250, 251, 252, 253, 254, 255, 256, 257, 258, 259, 260, 261, 262, 263, 264, 265, 266, 267, 268, 269, 270, 271, 272, 273, 274, 275, 276, 277, 278, 279, 280, 281, 282, 283, 284, 285, 286, 287, 288, 289, 290, 291, 292, 293, 294, 295, 296, 297, 298, 299, 300, 301, 302, 303, 304, 305, 306, 307, 308, 309, 310, 311, 312, 313, 314, 315, 316, 317, 318, 319, 320, 321, 322, 323, 324, 325, 326, 327, 328, 329, 330, 331, 332, 333, 334, 335, 336, 337, 338, 339, 340, 341, 342, 343, 344, 345, 346, 347, 348, 349, 350, 351, 352, 353, 354, 355, 356, 357, 358, 359, 360, 361, 362, 363, 364, 365, 366, 367, 368, 369, 370, 371, 372, 373, 374, 375, 376, 377, 378, 379, 380, 381, 382, 383, 384, 385, 386, 387, 388, 389, 390, 391, 392, 393, 394, 395, 396, 397, 398, 399, 400, 401, 402, 403, 404, 405, 406, 407, 408, 409, 410, 411, 412, 413, 414, 415, 416, 417, 418, 419, 420, 421, 422, 423, 424, 425, 426, 427, 428, 429, 430, 431, 432, 433, 434, 435, 436, 437, 438, 439, 440, 441, 442, 443, 444, 445, 446, 447, 448, 449, 450, 451, 452, 453, 454, 455, 456, 457, 458, 459, 460, 461, 462, 463, 464, 465, 466, 467, 468, 469, 470, 471, 472, 473, 474, 475, 476, 477, 478, 479, 480, 481, 482, 483, 484, 485, 486, 487, 488, 489, 490, 491, 492, 493, 494, 495, 496, 497, 498, 499, 500, 501, 502, 503, 504, 505, 506, 507, 508, 509, 510, 511, 512, 513, 514, 515, 516, 517, 518, 519, 520, 521, 522, 523, 524, 525, 526, 527, 528, 529, 530, 531, 532, 533, 534, 535, 536, 537, 538, 539, 540, 541, 542, 543, 544, 545, 546, 547, 548, 549, 550, 551, 552, 553, 554, 555, 556, 557, 558, 559, 560, 561, 562, 563, 564, 565, 566, 567, 568, 569, 570, 571, 572, 573, 574, 575, 576, 577, 578, 579, 580, 581, 582, 583, 584, 585, 586, 587, 588, 589, 590, 591, 592, 593, 594, 595, 596, 597, 598, 599, 600, 601, 602, 603, 604, 605, 606, 607, 608, 609, 610, 611, 612, 613, 614, 615, 616, 617, 618, 619, 620, 621, 622, 623, 624, 625, 626, 627, 628, 629, 630, 631, 632, 633, 634, 635, 636, 637, 638, 639, 640, 641, 642, 643, 644, 645, 646, 647, 648, 649, 650, 651, 652, 653, 654, 655, 656, 657, 658, 659, 660, 661, 662, 663, 664, 665, 666, 667, 668, 669, 670, 671, 672, 673, 674, 675, 676, 677, 678, 679, 680, 681, 682, 683, 684, 685, 686, 687, 688, 689, 690, 691, 692, 693, 694, 695, 696, 697, 698, 699, 700, 701, 702, 703, 704, 705, 706, 707, 708, 709, 710, 711, 712, 713, 714, 715, 716, 717, 718, 719, 720, 721, 722, 723, 724, 725, 726, 727, 728, 729, 730, 731, 732, 733, 734, 735, 736, 737, 738, 739, 740, 741, 742, 743, 744, 745, 746, 747, 748, 749, 750, 751, 752, 753, 754, 755, 756, 757, 758, 759, 760, 761, 762, 763, 764, 765, 766, 767, 768, 769, 770, 771, 772, 773, 774, 775, 776, 777, 778, 779, 780, 781, 782, 783, 784, 785, 786, 787, 788, 789, 790, 791, 792, 793, 794, 795, 796, 797, 798, 799, 800, 801, 802, 803, 804, 805, 806, 807, 808, 809, 810, 811, 812, 813, 814, 815, 816, 817, 818, 819, 820, 821, 822, 823, 824, 825, 826, 827, 828, 829, 830, 831, 832, 833, 834, 835, 836, 837, 838, 839, 840, 841, 842, 843, 844, 845, 846, 847, 848, 849, 850, 851, 852, 853, 854, 855, 856, 857, 858, 859, 860, 861, 862, 863, 864, 865, 866, 867, 868, 869, 870, 871, 872],
      "AcquisitionTime": ["134917.320000", "134917.780000", "134918.240000", "134918.700000", "134919.160000", "134919.620000", "134920.080000", "134920.540000", "134921.000000", "134921.460000", "134921.920000", "134922.380000", "134922.840000", "134923.300000", "134923.760000", "134924.220000", "134924.680000", "134925.140000", "134925.600000", "134926.060000", "134926.520000", "134926.980000", "134927.440000", "134927.900000", "134928.360000", "134928.820000", "134929.280000", "134929.740000", "134930.200000", "134930.660000", "134931.120000", "134931.580000", "134932.040000", "134932.500000", "134932.960000", "134933.420000", "134933.880000", "134934.340000", "134934.800000", "134935.260000", "134935.720000", "134936.180000", "134936.640000", "134937.100000", "134937.560000", "134938.020000", "134938.480000", "134938.940000", "134939.400000", "134939.860000", "134940.320000", "134940.780000", "134941.240000", "134941.700000", "134942.160000", "134942.620000", "134943.080000", "134943.540000", "134944.000000", "134944.460000", "134944.920000", "134945.380000", "134945.840000", "134946.300000", "134946.760000", "134947.220000", "134947.680000", "134948.140000", "134948.600000", "134949.060000", "134949.520000", "134949.980000", "134950.440000", "134950.900000", "134951.360000", "134951.820000", "134952.280000", "134952.740000", "134953.200000", "134953.660000", "134954.120000", "134954.580000", "134955.040000", "134955.500000", "134955.960000", "134956.420000", "134956.880000", "134957.340000", "134957.800000", "134958.260000", "134958.720000", "134959.180000", "134959.640000", "135000.100000", "135000.560000", "135001.020000", "135001.480000", "135001.940000", "135002.400000", "135002.860000", "135003.320000", "135003.780000", "135004.240000", "135004.700000", "135005.160000", "135005.620000", "135006.080000", "135006.540000", "135007.000000", "135007.460000", "135007.920000", "135008.380000", "135008.840000", "135009.300000", "135009.760000", "135010.220000", "135010.680000", "135011.140000", "135011.600000", "135012.060000", "135012.520000", "135012.980000", "135013.440000", "135013.900000", "135014.360000", "135014.820000", "135015.280000", "135015.740000", "135016.200000", "135016.660000", "135017.120000", "135017.580000", "135018.040000", "135018.500000", "135018.960000", "135019.420000", "135019.880000", "135020.340000", "135020.800000", "135021.260000", "135021.720000", "135022.180000", "135022.640000", "135023.100000", "135023.560000", "135024.020000", "135024.480000", "135024.940000", "135025.400000", "135025.860000", "135026.320000", "135026.780000", "135027.240000", "135027.700000", "135028.160000", "135028.620000", "135029.080000", "135029.540000", "135030.000000", "135030.460000", "135030.920000", "135031.380000", "135031.840000", "135032.300000", "135032.760000", "135033.220000", "135033.680000", "135034.140000", "135034.600000", "135035.060000", "135035.520000", "135035.980000", "135036.440000", "135036.900000", "135037.360000", "135037.820000", "135038.280000", "135038.740000", "135039.200000", "135039.660000", "135040.120000", "135040.580000", "135041.040000", "135041.500000", "135041.960000", "135042.420000", "135042.880000", "135043.340000", "135043.800000", "135044.260000", "135044.720000", "135045.180000", "135045.640000", "135046.100000", "135046.560000", "135047.020000", "135047.480000", "135047.940000", "135048.400000", "135048.860000", "135049.320000", "135049.780000", "135050.240000", "135050.700000", "135051.160000", "135051.620000", "135052.080000", "135052.540000", "135053.000000", "135053.460000", "135053.920000", "135054.380000", "135054.840000", "135055.300000", "135055.760000", "135056.220000", "135056.680000", "135057.140000", "135057.600000", "135058.060000", "135058.520000", "135058.980000", "135059.440000", "135059.900000", "135100.360000", "135100.820000", "135101.280000", "135101.740000", "135102.200000", "135102.660000", "135103.120000", "135103.580000", "135104.040000", "135104.500000", "135104.960000", "135105.420000", "135105.880000", "135106.340000", "135106.800000", "135107.260000", "135107.720000", "135108.180000", "135108.640000", "135109.100000", "135109.560000", "135110.020000", "135110.480000", "135110.940000", "135111.400000", "135111.860000", "135112.320000", "135112.780000", "135113.240000", "135113.700000", "135114.160000", "135114.620000", "135115.080000", "135115.540000", "135116.000000", "135116.460000", "135116.920000", "135117.380000", "135117.840000", "135118.300000", "135118.760000", "135119.220000", "135119.680000", "135120.140000", "135120.600000", "135121.060000", "135121.520000", "135121.980000", "135122.440000", "135122.900000", "135123.360000", "135123.820000", "135124.280000", "135124.740000", "135125.200000", "135125.660000", "135126.120000", "135126.580000", "135127.040000", "135127.500000", "135127.960000", "135128.420000", "135128.880000", "135129.340000", "135129.800000", "135130.260000", "135130.720000", "135131.180000", "135131.640000", "135132.100000", "135132.560000", "135133.020000", "135133.480000", "135133.940000", "135134.400000", "135134.860000", "135135.320000", "135135.780000", "135136.240000", "135136.700000", "135137.160000", "135137.620000", "135138.080000", "135138.540000", "135139.000000", "135139.460000", "135139.920000", "135140.380000", "135140.840000", "135141.300000", "135141.760000", "135142.220000", "135142.680000", "135143.140000", "135143.600000", "135144.060000", "135144.520000", "135144.980000", "135145.440000", "135145.900000", "135146.360000", "135146.820000", "135147.280000", "135147.740000", "135148.200000", "135148.660000", "135149.120000", "135149.580000", "135150.040000", "135150.500000", "135150.960000", "135151.420000", "135151.880000", "135152.340000", "135152.800000", "135153.260000", "135153.720000", "135154.180000", "135154.640000", "135155.100000", "135155.560000", "135156.020000", "135156.480000", "135156.940000", "135157.400000", "135157.860000", "135158.320000", "135158.780000", "135159.240000", "135159.700000", "135200.160000", "135200.620000", "135201.080000", "135201.540000", "135202.000000", "135202.460000", "135202.920000", "135203.380000", "135203.840000", "135204.300000", "135204.760000", "135205.220000", "135205.680000", "135206.140000", "135206.600000", "135207.060000", "135207.520000", "135207.980000", "135208.440000", "135208.900000", "135209.360000", "135209.820000", "135210.280000", "135210.740000", "135211.200000", "135211.660000", "135212.120000", "135212.580000", "135213.040000", "135213.500000", "135213.960000", "135214.420000", "135214.880000", "135215.340000", "135215.800000", "135216.260000", "135216.720000", "135217.180000", "135217.640000", "135218.100000", "135218.560000", "135219.020000", "135219.480000", "135219.940000", "135220.400000", "135220.860000", "135221.320000", "135221.780000", "135222.240000", "135222.700000", "135223.160000", "135223.620000", "135224.080000", "135224.540000", "135225.000000", "135225.460000", "135225.920000", "135226.380000", "135226.840000", "135227.300000", "135227.760000", "135228.220000", "135228.680000", "135229.140000", "135229.600000", "135230.060000", "135230.520000", "135230.980000", "135231.440000", "135231.900000", "135232.360000", "135232.820000", "135233.280000", "135233.740000", "135234.200000", "135234.660000", "135235.120000", "135235.580000", "135236.040000", "135236.500000", "135236.960000", "135237.420000", "135237.880000", "135238.340000", "135238.800000", "135239.260000", "135239.720000", "135240.180000", "135240.640000", "135241.100000", "135241.560000", "135242.020000", "135242.480000", "135242.940000", "135243.400000", "135243.860000", "135244.320000", "135244.780000", "135245.240000", "135245.700000", "135246.160000", "135246.620000", "135247.080000", "135247.540000", "135248.000000", "135248.460000", "135248.920000", "135249.380000", "135249.840000", "135250.300000", "135250.760000", "135251.220000", "135251.680000", "135252.140000", "135252.600000", "135253.060000", "135253.520000", "135253.980000", "135254.440000", "135254.900000", "135255.360000", "135255.820000", "135256.280000", "135256.740000", "135257.200000", "135257.660000", "135258.120000", "135258.580000", "135259.040000", "135259.500000", "135259.960000", "135300.420000", "135300.880000", "135301.340000", "135301.800000", "135302.260000", "135302.720000", "135303.180000", "135303.640000", "135304.100000", "135304.560000", "135305.020000", "135305.480000", "135305.940000", "135306.400000", "135306.860000", "135307.320000", "135307.780000", "135308.240000", "135308.700000", "135309.160000", "135309.620000", "135310.080000", "135310.540000", "135311.000000", "135311.460000", "135311.920000", "135312.380000", "135312.840000", "135313.300000", "135313.760000", "135314.220000", "135314.680000", "135315.140000", "135315.600000", "135316.060000", "135316.520000", "135316.980000", "135317.440000", "135317.900000", "135318.360000", "135318.820000", "135319.280000", "135319.740000", "135320.200000", "135320.660000", "135321.120000", "135321.580000", "135322.040000", "135322.500000", "135322.960000", "135323.420000", "135323.880000", "135324.340000", "135324.800000", "135325.260000", "135325.720000", "135326.180000", "135326.640000", "135327.100000", "135327.560000", "135328.020000", "135328.480000", "135328.940000", "135329.400000", "135329.860000", "135330.320000", "135330.780000", "135331.240000", "135331.700000", "135332.160000", "135332.620000", "135333.080000", "135333.540000", "135334.000000", "135334.460000", "135334.920000", "135335.380000", "135335.840000", "135336.300000", "135336.760000", "135337.220000", "135337.680000", "135338.140000", "135338.600000", "135339.060000", "135339.520000", "135339.980000", "135340.440000", "135340.900000", "135341.360000", "135341.820000", "135342.280000", "135342.740000", "135343.200000", "135343.660000", "135344.120000", "135344.580000", "135345.040000", "135345.500000", "135345.960000", "135346.420000", "135346.880000", "135347.340000", "135347.800000", "135348.260000", "135348.720000", "135349.180000", "135349.640000", "135350.100000", "135350.560000", "135351.020000", "135351.480000", "135351.940000", "135352.400000", "135352.860000", "135353.320000", "135353.780000", "135354.240000", "135354.700000", "135355.160000", "135355.620000", "135356.080000", "135356.540000", "135357.000000", "135357.460000", "135357.920000", "135358.380000", "135358.840000", "135359.300000", "135359.760000", "135400.220000", "135400.680000", "135401.140000", "135401.600000", "135402.060000", "135402.520000", "135402.980000", "135403.440000", "135403.900000", "135404.360000", "135404.820000", "135405.280000", "135405.740000", "135406.200000", "135406.660000", "135407.120000", "135407.580000", "135408.040000", "135408.500000", "135408.960000", "135409.420000", "135409.880000", "135410.340000", "135410.800000", "135411.260000", "135411.720000", "135412.180000", "135412.640000", "135413.100000", "135413.560000", "135414.020000", "135414.480000", "135414.940000", "135415.400000", "135415.860000", "135416.320000", "135416.780000", "135417.240000", "135417.700000", "135418.160000", "135418.620000", "135419.080000", "135419.540000", "135420.000000", "135420.460000", "135420.920000", "135421.380000", "135421.840000", "135422.300000", "135422.760000", "135423.220000", "135423.680000", "135424.140000", "135424.600000", "135425.060000", "135425.520000", "135425.980000", "135426.440000", "135426.900000", "135427.360000", "135427.820000", "135428.280000", "135428.740000", "135429.200000", "135429.660000", "135430.120000", "135430.580000", "135431.040000", "135431.500000", "135431.960000", "135432.420000", "135432.880000", "135433.340000", "135433.800000", "135434.260000", "135434.720000", "135435.180000", "135435.640000", "135436.100000", "135436.560000", "135437.020000", "135437.480000", "135437.940000", "135438.400000", "135438.860000", "135439.320000", "135439.780000", "135440.240000", "135440.700000", "135441.160000", "135441.620000", "135442.080000", "135442.540000", "135443.000000", "135443.460000", "135443.920000", "135444.380000", "135444.840000", "135445.300000", "135445.760000", "135446.220000", "135446.680000", "135447.140000", "135447.600000", "135448.060000", "135448.520000", "135448.980000", "135449.440000", "135449.900000", "135450.360000", "135450.820000", "135451.280000", "135451.740000", "135452.200000", "135452.660000", "135453.120000", "135453.580000", "135454.040000", "135454.500000", "135454.960000", "135455.420000", "135455.880000", "135456.340000", "135456.800000", "135457.260000", "135457.720000", "135458.180000", "135458.640000", "135459.100000", "135459.560000", "135500.020000", "135500.480000", "135500.940000", "135501.400000", "135501.860000", "135502.320000", "135502.780000", "135503.240000", "135503.700000", "135504.160000", "135504.620000", "135505.080000", "135505.540000", "135506.000000", "135506.460000", "135506.920000", "135507.380000", "135507.840000", "135508.300000", "135508.760000", "135509.220000", "135509.680000", "135510.140000", "135510.600000", "135511.060000", "135511.520000", "135511.980000", "135512.440000", "135512.900000", "135513.360000", "135513.820000", "135514.280000", "135514.740000", "135515.200000", "135515.660000", "135516.120000", "135516.580000", "135517.040000", "135517.500000", "135517.960000", "135518.420000", "135518.880000", "135519.340000", "135519.800000", "135520.260000", "135520.720000", "135521.180000", "135521.640000", "135522.100000", "135522.560000", "135523.020000", "135523.480000", "135523.940000", "135524.400000", "135524.860000", "135525.320000", "135525.780000", "135526.240000", "135526.700000", "135527.160000", "135527.620000", "135528.080000", "135528.540000", "135529.000000", "135529.460000", "135529.920000", "135530.380000", "135530.840000", "135531.300000", "135531.760000", "135532.220000", "135532.680000", "135533.140000", "135533.600000", "135534.060000", "135534.520000", "135534.980000", "135535.440000", "135535.900000", "135536.360000", "135536.820000", "135537.280000", "135537.740000", "135538.200000", "135538.660000", "135539.120000", "135539.580000", "135540.040000", "135540.500000", "135540.960000", "135541.420000", "135541.880000", "135542.340000", "135542.800000", "135543.260000", "135543.720000", "135544.180000", "135544.640000", "135545.100000", "135545.560000", "135546.020000", "135546.480000", "135546.940000", "135547.400000", "135547.860000", "135548.320000", "135548.780000", "135549.240000", "135549.700000", "135550.160000", "135550.620000", "135551.080000", "135551.540000", "135552.000000", "135552.460000", "135552.920000", "135553.380000", "135553.840000", "135554.300000", "135554.760000", "135555.220000", "135555.680000", "135556.140000", "135556.600000", "135557.060000", "135557.520000", "135557.980000"],
