{
  "AcquisitionMatrixPE": 82,
  "AcquisitionNumber": 1,
  "AcquisitionTime": "13:34:9.902500",
  "BandwidthPerPixelPhaseEncode": 24.888,
  "BaseResolution": 82,
  "BodyPartExamined": "BRAIN",
  "ConsistencyInfo": "N4_VE11E_LATEST_20181129",
  "ConversionSoftware": "dcm2niix",
  "ConversionSoftwareVersion": "v1.0.20201102",
  "DerivedVendorReportedEchoSpacing": 0.00049,
  "DeviceSerialNumber": "66112",
  "DwellTime": 2e-06,
  "EchoTime": 0.0272,
  "EchoTrainLength": 82,
  "EffectiveEchoSpacing": 0.00049,
  "FlipAngle": 44,
  "ImageComments": "Unaliased MB8/PE3",
  "ImageOrientationPatientDICOM": [0.996972, -0.0689398, -0.0359629, 0.0718137, 0.99371, 0.0859244],
  "ImageType": [
    "ORIGINAL",
    "PRIMARY",
    "M",
    "MB",
    "ND",
    "NORM",
    "MOSAIC"
],
  "ImagingFrequency": 123.259,
  "InPlanePhaseEncodingDirectionDICOM": "COL",
  "InstitutionAddress": "Maynard 3,Hanover,NH,US,03755",
  "InstitutionName": "Dartmouth College - PBS",
  "InstitutionalDepartmentName": "Department",
  "MRAcquisitionType": "2D",
  "MagneticFieldStrength": 3,
  "Manufacturer": "Siemens",
  "ManufacturersModelName": "Prisma",
  "Modality": "MR",
  "MultibandAccelerationFactor": 8,
  "PartialFourier": 1,
  "PatientPosition": "HFS",
  "PercentPhaseFOV": 100,
  "PercentSampling": 100,
  "PhaseEncodingDirection": "j-",
  "PhaseEncodingSteps": 82,
  "PhaseResolution": 1,
  "PixelBandwidth": 3050,
  "ProcedureStepDescription": "Wager_Wager^1076_spacetop",
  "ProtocolName": "func_run-01_task-social_acq-ap-mb8",
  "PulseSequenceDetails": "%CustomerSeq%\\cmrr_mbep2d_bold",
  "ReceiveCoilActiveElements": "HEA;HEP",
  "ReceiveCoilName": "Head_32",
  "ReconMatrixPE": 82,
  "RepetitionTime": 0.46,
  "SAR": 0.120818,
  "ScanOptions": "FS",
  "ScanningSequence": "EP",
  "SequenceName": "epfid2d1_82",
  "SequenceVariant": "SK\\SS",
  "SeriesDescription": "func_run-01_task-social_acq-ap-mb8",
  "SeriesNumber": 12,
  "ShimSetting": [4227, -7757, -7256, 128, -162, -15, 90, 132],
  "SliceThickness": 2.7,
  "SliceTiming": [0, 0.2525, 0.0625, 0.315, 0.125, 0.3775, 0.19, 0, 0.2525, 0.0625, 0.315, 0.125, 0.3775, 0.19, 0, 0.2525, 0.0625, 0.315, 0.125, 0.3775, 0.19, 0, 0.2525, 0.0625, 0.315, 0.125, 0.3775, 0.19, 0, 0.2525, 0.0625, 0.315, 0.125, 0.3775, 0.19, 0, 0.2525, 0.0625, 0.315, 0.125, 0.3775, 0.19, 0, 0.2525, 0.0625, 0.315, 0.125, 0.3775, 0.19, 0, 0.2525, 0.0625, 0.315, 0.125, 0.3775, 0.19],
  "SoftwareVersions": "syngo MR E11",
  "SpacingBetweenSlices": 2.7,
  "StationName": "AWP66112",
  "TaskName": "social",
  "TotalReadoutTime": 0.03969,
  "TxRefAmp": 252.89,
  "WipMemBlock": "dd869d6c-ea9e-454c-b9fa-6dc70bd1d9c1||Sequence: R016 ve11e/master r/434b28f1; Aug  7 2019 18:53:46 by eja",
  "dcmmeta_affine": [
    [-2.6748039722442627, 0.19267088174819946, -0.0804954543709755, 105.99474334716797],
    [0.18496042490005493, 2.6660516262054443, 0.23826664686203003, -104.41674041748047],
    [-0.09648595750331879, -0.23052893579006195, 2.6882615089416504, -67.41300964355469],
    [0.0, 0.0, 0.0, 1.0]
],
  "dcmmeta_reorient_transform": [
    [0.0, -1.0, 0.0, 81.0],
    [1.0, 0.0, 0.0, 0.0],
    [0.0, 0.0, 1.0, 0.0],
    [0.0, 0.0, 0.0, 1.0]
],
  "dcmmeta_shape": [82, 82, 56, 872],
  "dcmmeta_slice_dim": 2,
  "dcmmeta_version": 0.6,
  "global": {
    "const": {
      "AccessionNumber": "A004873",
      "AcquisitionMatrix": [82, 0, 0, 82],
      "AngioFlag": "N",
      "BitsAllocated": 16,
      "BitsStored": 16,
      "BodyPartExamined": "BRAIN",
      "Columns": 656,
      "EchoNumbers": 1,
      "EchoTime": 27.2,
      "EchoTrainLength": 82,
      "FlipAngle": 44.0,
      "HighBit": 15,
      "ImageOrientationPatient": [0.99697240235661, -0.0689397953161, -0.0359629470576, 0.0718136900299, 0.99371011283305, 0.08592441781949],
      "ImagePositionPatient": [-944.5663963798, -823.6065965179, -124.55618320935],
      "ImageType": [
        "ORIGINAL",
        "PRIMARY",
        "M",
        "MB",
        "ND",
        "NORM",
        "MOSAIC"
],
      "ImagedNucleus": "1H",
      "ImagingFrequency": 123.259073,
      "InPlanePhaseEncodingDirection": "COL",
      "MRAcquisitionType": "2D",
      "MagneticFieldStrength": 3.0,
      "Manufacturer": "SIEMENS",
      "ManufacturerModelName": "Prisma",
      "Modality": "MR",
      "NumberOfAverages": 1.0,
      "NumberOfPhaseEncodingSteps": 82,
      "PercentPhaseFieldOfView": 100.0,
      "PercentSampling": 100.0,
      "PerformedProcedureStepStartTime": "125814.640000",
      "PhotometricInterpretation": "MONOCHROME2",
      "PixelBandwidth": 3050.0,
      "PixelRepresentation": 0,
      "PixelSpacing": [2.6829268932343, 2.6829268932343],
      "ProtocolName": "func_run-01_task-social_acq-ap-mb8",
      "RepetitionTime": 460.0,
      "Rows": 656,
      "SAR": 0.12081799460836,
      "SamplesPerPixel": 1,
      "ScanOptions": "FS",
      "ScanningSequence": "EP",
      "SequenceName": "epfid2d1_82",
      "SequenceVariant": [
        "SK",
        "SS"
],
      "SeriesDescription": "func_run-01_task-social_acq-ap-mb8",
      "SeriesNumber": 12,
      "SeriesTime": "133428.459000",
      "SliceLocation": -79.494410000039,
      "SliceThickness": 2.7000000476837,
      "SmallestImagePixelValue": 0,
      "SoftwareVersions": "syngo MR E11",
      "SpacingBetweenSlices": 2.6999999878151,
      "SpecificCharacterSet": "ISO_IR 100",
      "StudyID": "1",
      "StudyTime": "125814.565000",
      "TransmitCoilName": "Body",
      "VariableFlipAngleFlag": "N",
      "WindowCenterWidthExplanation": "Algo1"
    },
    "slices": {}
  },
  "time": {
    "samples": {
      "AcquisitionNumber": [1, 2, 3, 4, 5, 6, 7, 8, 9, 10, 11, 12, 13, 14, 15, 16, 17, 18, 19, 20, 21, 22, 23, 24, 25, 26, 27, 28, 29, 30, 31, 32, 33, 34, 35, 36, 37, 38, 39, 40, 41, 42, 43, 44, 45, 46, 47, 48, 49, 50, 51, 52, 53, 54, 55, 56, 57, 58, 59, 60, 61, 62, 63, 64, 65, 66, 67, 68, 69, 70, 71, 72, 73, 74, 75, 76, 77, 78, 79, 80, 81, 82, 83, 84, 85, 86, 87, 88, 89, 90, 91, 92, 93, 94, 95, 96, 97, 98, 99, 100, 101, 102, 103, 104, 105, 106, 107, 108, 109, 110, 111, 112, 113, 114, 115, 116, 117, 118, 119, 120, 121, 122, 123, 124, 125, 126, 127, 128, 129, 130, 131, 132, 133, 134, 135, 136, 137, 138, 139, 140, 141, 142, 143, 144, 145, 146, 147, 148, 149, 150, 151, 152, 153, 154, 155, 156, 157, 158, 159, 160, 161, 162, 163, 164, 165, 166, 167, 168, 169, 170, 171, 172, 173, 174, 175, 176, 177, 178, 179, 180, 181, 182, 183, 184, 185, 186, 187, 188, 189, 190, 191, 192, 193, 194, 195, 196, 197, 198, 199, 200, 201, 202, 203, 204, 205, 206, 207, 208, 209, 210, 211, 212, 213, 214, 215, 216, 217, 218, 219, 220, 221, 222, 223, 224, 225, 226, 227, 228, 229, 230, 231, 232, 233, 234, 235, 236, 237, 238, 239, 240, 241, 242, 243, 244, 245, 246, 247, 248, 249, 250, 251, 252, 253, 254, 255, 256, 257, 258, 259, 260, 261, 262, 263, 264, 265, 266, 267, 268, 269, 270, 271, 272, 273, 274, 275, 276, 277, 278, 279, 280, 281, 282, 283, 284, 285, 286, 287, 288, 289, 290, 291, 292, 293, 294, 295, 296, 297, 298, 299, 300, 301, 302, 303, 304, 305, 306, 307, 308, 309, 310, 311, 312, 313, 314, 315, 316, 317, 318, 319, 320, 321, 322, 323, 324, 325, 326, 327, 328, 329, 330, 331, 332, 333, 334, 335, 336, 337, 338, 339, 340, 341, 342, 343, 344, 345, 346, 347, 348, 349, 350, 351, 352, 353, 354, 355, 356, 357, 358, 359, 360, 361, 362, 363, 364, 365, 366, 367, 368, 369, 370, 371, 372, 373, 374, 375, 376, 377, 378, 379, 380, 381, 382, 383, 384, 385, 386, 387, 388, 389, 390, 391, 392, 393, 394, 395, 396, 397, 398, 399, 400, 401, 402, 403, 404, 405, 406, 407, 408, 409, 410, 411, 412, 413, 414, 415, 416, 417, 418, 419, 420, 421, 422, 423, 424, 425, 426, 427, 428, 429, 430, 431, 432, 433, 434, 435, 436, 437, 438, 439, 440, 441, 442, 443, 444, 445, 446, 447, 448, 449, 450, 451, 452, 453, 454, 455, 456, 457, 458, 459, 460, 461, 462, 463, 464, 465, 466, 467, 468, 469, 470, 471, 472, 473, 474, 475, 476, 477, 478, 479, 480, 481, 482, 483, 484, 485, 486, 487, 488, 489, 490, 491, 492, 493, 494, 495, 496, 497, 498, 499, 500, 501, 502, 503, 504, 505, 506, 507, 508, 509, 510, 511, 512, 513, 514, 515, 516, 517, 518, 519, 520, 521, 522, 523, 524, 525, 526, 527, 528, 529, 530, 531, 532, 533, 534, 535, 536, 537, 538, 539, 540, 541, 542, 543, 544, 545, 546, 547, 548, 549, 550, 551, 552, 553, 554, 555, 556, 557, 558, 559, 560, 561, 562, 563, 564, 565, 566, 567, 568, 569, 570, 571, 572, 573, 574, 575, 576, 577, 578, 579, 580, 581, 582, 583, 584, 585, 586, 587, 588, 589, 590, 591, 592, 593, 594, 595, 596, 597, 598, 599, 600, 601, 602, 603, 604, 605, 606, 607, 608, 609, 610, 611, 612, 613, 614, 615, 616, 617, 618, 619, 620, 621, 622, 623, 624, 625, 626, 627, 628, 629, 630, 631, 632, 633, 634, 635, 636, 637, 638, 639, 640, 641, 642, 643, 644, 645, 646, 647, 648, 649, 650, 651, 652, 653, 654, 655, 656, 657, 658, 659, 660, 661, 662, 663, 664, 665, 666, 667, 668, 669, 670, 671, 672, 673, 674, 675, 676, 677, 678, 679, 680, 681, 682, 683, 684, 685, 686, 687, 688, 689, 690, 691, 692, 693, 694, 695, 696, 697, 698, 699, 700, 701, 702, 703, 704, 705, 706, 707, 708, 709, 710, 711, 712, 713, 714, 715, 716, 717, 718, 719, 720, 721, 722, 723, 724, 725, 726, 727, 728, 729, 730, 731, 732, 733, 734, 735, 736, 737, 738, 739, 740, 741, 742, 743, 744, 745, 746, 747, 748, 749, 750, 751, 752, 753, 754, 755, 756, 757, 758, 759, 760, 761, 762, 763, 764, 765, 766, 767, 768, 769, 770, 771, 772, 773, 774, 775, 776, 777, 778, 779, 780, 781, 782, 783, 784, 785, 786, 787, 788, 789, 790, 791, 792, 793, 794, 795, 796, 797, 798, 799, 800, 801, 802, 803, 804, 805, 806, 807, 808, 809, 810, 811, 812, 813, 814, 815, 816, 817, 818, 819, 820, 821, 822, 823, 824, 825, 826, 827, 828, 829, 830, 831, 832, 833, 834, 835, 836, 837, 838, 839, 840, 841, 842, 843, 844, 845, 846, 847, 848, 849, 850, 851, 852, 853, 854, 855, 856, 857, 858, 859, 860, 861, 862, 863, 864, 865, 866, 867, 868, 869, 870, 871, 872],
      "AcquisitionTime": ["133409.902500", "133410.362500", "133410.822500", "133411.282500", "133411.742500", "133412.202500", "133412.662500", "133413.122500", "133413.582500", "133414.042500", "133414.502500", "133414.962500", "133415.422500", "133415.882500", "133416.342500", "133416.802500", "133417.262500", "133417.722500", "133418.182500", "133418.642500", "133419.102500", "133419.562500", "133420.022500", "133420.482500", "133420.942500", "133421.402500", "133421.862500", "133422.322500", "133422.782500", "133423.242500", "133423.702500", "133424.162500", "133424.622500", "133425.082500", "133425.542500", "133426.002500", "133426.462500", "133426.922500", "133427.382500", "133427.842500", "133428.302500", "133428.762500", "133429.222500", "133429.682500", "133430.142500", "133430.602500", "133431.062500", "133431.522500", "133431.982500", "133432.442500", "133432.902500", "133433.362500", "133433.822500", "133434.282500", "133434.742500", "133435.202500", "133435.662500", "133436.122500", "133436.582500", "133437.042500", "133437.502500", "133437.962500", "133438.422500", "133438.882500", "133439.342500", "133439.802500", "133440.262500", "133440.722500", "133441.182500", "133441.642500", "133442.102500", "133442.562500", "133443.022500", "133443.482500", "133443.942500", "133444.402500", "133444.862500", "133445.322500", "133445.782500", "133446.242500", "133446.702500", "133447.162500", "133447.622500", "133448.082500", "133448.542500", "133449.002500", "133449.462500", "133449.922500", "133450.382500", "133450.842500", "133451.302500", "133451.762500", "133452.222500", "133452.682500", "133453.142500", "133453.602500", "133454.062500", "133454.522500", "133454.982500", "133455.442500", "133455.902500", "133456.362500", "133456.822500", "133457.282500", "133457.742500", "133458.202500", "133458.662500", "133459.122500", "133459.582500", "133500.042500", "133500.502500", "133500.962500", "133501.422500", "133501.882500", "133502.342500", "133502.802500", "133503.262500", "133503.722500", "133504.182500", "133504.642500", "133505.102500", "133505.562500", "133506.022500", "133506.482500", "133506.942500", "133507.402500", "133507.862500", "133508.322500", "133508.782500", "133509.242500", "133509.702500", "133510.162500", "133510.622500", "133511.082500", "133511.542500", "133512.002500", "133512.462500", "133512.922500", "133513.382500", "133513.842500", "133514.302500", "133514.762500", "133515.222500", "133515.682500", "133516.142500", "133516.602500", "133517.062500", "133517.522500", "133517.982500", "133518.442500", "133518.902500", "133519.362500", "133519.822500", "133520.282500", "133520.742500", "133521.202500", "133521.662500", "133522.122500", "133522.582500", "133523.042500", "133523.502500", "133523.962500", "133524.422500", "133524.882500", "133525.342500", "133525.802500", "133526.262500", "133526.722500", "133527.182500", "133527.642500", "133528.102500", "133528.562500", "133529.022500", "133529.482500", "133529.942500", "133530.402500", "133530.862500", "133531.322500", "133531.782500", "133532.242500", "133532.702500", "133533.162500", "133533.622500", "133534.082500", "133534.542500", "133535.002500", "133535.462500", "133535.922500", "133536.382500", "133536.842500", "133537.302500", "133537.762500", "133538.222500", "133538.682500", "133539.142500", "133539.602500", "133540.062500", "133540.522500", "133540.982500", "133541.442500", "133541.902500", "133542.362500", "133542.822500", "133543.282500", "133543.742500", "133544.202500", "133544.662500", "133545.122500", "133545.582500", "133546.042500", "133546.502500", "133546.962500", "133547.422500", "133547.882500", "133548.342500", "133548.802500", "133549.262500", "133549.722500", "133550.182500", "133550.642500", "133551.102500", "133551.562500", "133552.022500", "133552.482500", "133552.942500", "133553.402500", "133553.862500", "133554.322500", "133554.782500", "133555.242500", "133555.702500", "133556.162500", "133556.622500", "133557.082500", "133557.542500", "133558.002500", "133558.462500", "133558.922500", "133559.382500", "133559.842500", "133600.302500", "133600.762500", "133601.222500", "133601.682500", "133602.142500", "133602.602500", "133603.062500", "133603.522500", "133603.982500", "133604.442500", "133604.902500", "133605.362500", "133605.822500", "133606.282500", "133606.742500", "133607.202500", "133607.662500", "133608.122500", "133608.582500", "133609.042500", "133609.502500", "133609.962500", "133610.422500", "133610.882500", "133611.342500", "133611.802500", "133612.262500", "133612.722500", "133613.182500", "133613.642500", "133614.102500", "133614.562500", "133615.022500", "133615.482500", "133615.942500", "133616.402500", "133616.862500", "133617.322500", "133617.782500", "133618.242500", "133618.702500", "133619.162500", "133619.622500", "133620.082500", "133620.542500", "133621.002500", "133621.462500", "133621.922500", "133622.382500", "133622.842500", "133623.302500", "133623.762500", "133624.222500", "133624.682500", "133625.142500", "133625.602500", "133626.062500", "133626.522500", "133626.982500", "133627.442500", "133627.902500", "133628.362500", "133628.822500", "133629.282500", "133629.742500", "133630.202500", "133630.662500", "133631.122500", "133631.582500", "133632.042500", "133632.502500", "133632.962500", "133633.422500", "133633.882500", "133634.342500", "133634.802500", "133635.262500", "133635.722500", "133636.182500", "133636.642500", "133637.102500", "133637.562500", "133638.022500", "133638.482500", "133638.942500", "133639.402500", "133639.862500", "133640.322500", "133640.782500", "133641.242500", "133641.702500", "133642.162500", "133642.622500", "133643.082500", "133643.542500", "133644.002500", "133644.462500", "133644.922500", "133645.382500", "133645.842500", "133646.302500", "133646.762500", "133647.222500", "133647.682500", "133648.142500", "133648.602500", "133649.062500", "133649.522500", "133649.982500", "133650.442500", "133650.902500", "133651.362500", "133651.822500", "133652.282500", "133652.742500", "133653.202500", "133653.662500", "133654.122500", "133654.582500", "133655.042500", "133655.502500", "133655.962500", "133656.422500", "133656.882500", "133657.342500", "133657.802500", "133658.262500", "133658.722500", "133659.182500", "133659.642500", "133700.102500", "133700.562500", "133701.022500", "133701.482500", "133701.942500", "133702.402500", "133702.862500", "133703.322500", "133703.782500", "133704.242500", "133704.702500", "133705.162500", "133705.622500", "133706.082500", "133706.542500", "133707.002500", "133707.462500", "133707.922500", "133708.382500", "133708.842500", "133709.302500", "133709.762500", "133710.222500", "133710.682500", "133711.142500", "133711.602500", "133712.062500", "133712.522500", "133712.982500", "133713.442500", "133713.902500", "133714.362500", "133714.822500", "133715.282500", "133715.742500", "133716.202500", "133716.662500", "133717.122500", "133717.582500", "133718.042500", "133718.502500", "133718.962500", "133719.422500", "133719.882500", "133720.342500", "133720.802500", "133721.262500", "133721.722500", "133722.182500", "133722.642500", "133723.102500", "133723.562500", "133724.022500", "133724.482500", "133724.942500", "133725.402500", "133725.862500", "133726.322500", "133726.782500", "133727.242500", "133727.702500", "133728.162500", "133728.622500", "133729.082500", "133729.542500", "133730.002500", "133730.462500", "133730.922500", "133731.382500", "133731.842500", "133732.302500", "133732.762500", "133733.222500", "133733.682500", "133734.142500", "133734.602500", "133735.062500", "133735.522500", "133735.982500", "133736.442500", "133736.902500", "133737.362500", "133737.822500", "133738.282500", "133738.742500", "133739.202500", "133739.662500", "133740.122500", "133740.582500", "133741.042500", "133741.502500", "133741.962500", "133742.422500", "133742.882500", "133743.342500", "133743.802500", "133744.262500", "133744.722500", "133745.182500", "133745.642500", "133746.102500", "133746.562500", "133747.022500", "133747.482500", "133747.942500", "133748.402500", "133748.862500", "133749.322500", "133749.782500", "133750.242500", "133750.702500", "133751.162500", "133751.622500", "133752.082500", "133752.542500", "133753.002500", "133753.462500", "133753.922500", "133754.382500", "133754.842500", "133755.302500", "133755.762500", "133756.222500", "133756.682500", "133757.142500", "133757.602500", "133758.062500", "133758.522500", "133758.982500", "133759.442500", "133759.902500", "133800.362500", "133800.822500", "133801.282500", "133801.742500", "133802.202500", "133802.662500", "133803.122500", "133803.582500", "133804.042500", "133804.502500", "133804.962500", "133805.422500", "133805.882500", "133806.342500", "133806.802500", "133807.262500", "133807.722500", "133808.182500", "133808.642500", "133809.102500", "133809.562500", "133810.022500", "133810.482500", "133810.942500", "133811.402500", "133811.862500", "133812.322500", "133812.782500", "133813.242500", "133813.702500", "133814.162500", "133814.622500", "133815.082500", "133815.542500", "133816.002500", "133816.462500", "133816.922500", "133817.382500", "133817.842500", "133818.302500", "133818.762500", "133819.222500", "133819.682500", "133820.142500", "133820.602500", "133821.062500", "133821.522500", "133821.982500", "133822.442500", "133822.902500", "133823.362500", "133823.822500", "133824.282500", "133824.742500", "133825.202500", "133825.662500", "133826.122500", "133826.582500", "133827.042500", "133827.502500", "133827.962500", "133828.422500", "133828.882500", "133829.342500", "133829.802500", "133830.262500", "133830.722500", "133831.182500", "133831.642500", "133832.102500", "133832.562500", "133833.022500", "133833.482500", "133833.942500", "133834.402500", "133834.862500", "133835.322500", "133835.782500", "133836.242500", "133836.702500", "133837.162500", "133837.622500", "133838.082500", "133838.542500", "133839.002500", "133839.462500", "133839.922500", "133840.382500", "133840.842500", "133841.302500", "133841.762500", "133842.222500", "133842.682500", "133843.142500", "133843.602500", "133844.062500", "133844.522500", "133844.982500", "133845.442500", "133845.902500", "133846.362500", "133846.822500", "133847.282500", "133847.742500", "133848.202500", "133848.662500", "133849.122500", "133849.582500", "133850.042500", "133850.502500", "133850.962500", "133851.422500", "133851.882500", "133852.342500", "133852.802500", "133853.262500", "133853.722500", "133854.182500", "133854.642500", "133855.102500", "133855.562500", "133856.022500", "133856.482500", "133856.942500", "133857.402500", "133857.862500", "133858.322500", "133858.782500", "133859.242500", "133859.702500", "133900.162500", "133900.622500", "133901.082500", "133901.542500", "133902.002500", "133902.462500", "133902.922500", "133903.382500", "133903.842500", "133904.302500", "133904.762500", "133905.222500", "133905.682500", "133906.142500", "133906.602500", "133907.062500", "133907.522500", "133907.982500", "133908.442500", "133908.902500", "133909.362500", "133909.822500", "133910.282500", "133910.742500", "133911.202500", "133911.662500", "133912.122500", "133912.582500", "133913.042500", "133913.502500", "133913.962500", "133914.422500", "133914.882500", "133915.342500", "133915.802500", "133916.262500", "133916.722500", "133917.182500", "133917.642500", "133918.102500", "133918.562500", "133919.022500", "133919.482500", "133919.942500", "133920.402500", "133920.862500", "133921.322500", "133921.782500", "133922.242500", "133922.702500", "133923.162500", "133923.622500", "133924.082500", "133924.542500", "133925.002500", "133925.462500", "133925.922500", "133926.382500", "133926.842500", "133927.302500", "133927.762500", "133928.222500", "133928.682500", "133929.142500", "133929.602500", "133930.062500", "133930.522500", "133930.982500", "133931.442500", "133931.902500", "133932.362500", "133932.822500", "133933.282500", "133933.742500", "133934.202500", "133934.662500", "133935.122500", "133935.582500", "133936.042500", "133936.502500", "133936.962500", "133937.422500", "133937.882500", "133938.342500", "133938.802500", "133939.262500", "133939.722500", "133940.182500", "133940.642500", "133941.102500", "133941.562500", "133942.022500", "133942.482500", "133942.942500", "133943.402500", "133943.862500", "133944.322500", "133944.782500", "133945.242500", "133945.702500", "133946.162500", "133946.622500", "133947.082500", "133947.542500", "133948.002500", "133948.462500", "133948.922500", "133949.382500", "133949.842500", "133950.302500", "133950.762500", "133951.222500", "133951.682500", "133952.142500", "133952.602500", "133953.062500", "133953.522500", "133953.982500", "133954.442500", "133954.902500", "133955.362500", "133955.822500", "133956.282500", "133956.742500", "133957.202500", "133957.662500", "133958.122500", "133958.582500", "133959.042500", "133959.502500", "133959.962500", "134000.422500", "134000.882500", "134001.342500", "134001.802500", "134002.262500", "134002.722500", "134003.182500", "134003.642500", "134004.102500", "134004.562500", "134005.022500", "134005.482500", "134005.942500", "134006.402500", "134006.862500", "134007.322500", "134007.782500", "134008.242500", "134008.702500", "134009.162500", "134009.622500", "134010.082500", "134010.542500", "134011.002500", "134011.462500", "134011.922500", "134012.382500", "134012.842500", "134013.302500", "134013.762500", "134014.222500", "134014.682500", "134015.142500", "134015.602500", "134016.062500", "134016.522500", "134016.982500", "134017.442500", "134017.902500", "134018.362500", "134018.822500", "134019.282500", "134019.742500", "134020.202500", "134020.662500", "134021.122500", "134021.582500", "134022.042500", "134022.502500", "134022.962500", "134023.422500", "134023.882500", "134024.342500", "134024.802500", "134025.262500", "134025.722500", "134026.182500", "134026.642500", "134027.102500", "134027.562500", "134028.022500", "134028.482500", "134028.942500", "134029.402500", "134029.862500", "134030.322500", "134030.782500", "134031.242500", "134031.702500", "134032.162500", "134032.622500", "134033.082500", "134033.542500", "134034.002500", "134034.462500", "134034.922500", "134035.382500", "134035.842500", "134036.302500", "134036.762500", "134037.222500", "134037.682500", "134038.142500", "134038.602500", "134039.062500", "134039.522500", "134039.982500", "134040.442500", "134040.902500", "134041.362500", "134041.822500", "134042.282500", "134042.742500", "134043.202500", "134043.662500", "134044.122500", "134044.582500", "134045.042500", "134045.502500", "134045.962500", "134046.422500", "134046.882500", "134047.342500", "134047.802500", "134048.262500", "134048.722500", "134049.182500", "134049.642500", "134050.102500", "134050.562500"],
