{
  "AcquisitionMatrixPE": 82,
  "AcquisitionNumber": 1,
  "AcquisitionTime": "13:42:18.392500",
  "BandwidthPerPixelPhaseEncode": 24.888,
  "BaseResolution": 82,
  "BodyPartExamined": "BRAIN",
  "ConsistencyInfo": "N4_VE11E_LATEST_20181129",
  "ConversionSoftware": "dcm2niix",
  "ConversionSoftwareVersion": "v1.0.20201102",
  "DerivedVendorReportedEchoSpacing": 0.00049,
  "DeviceSerialNumber": "66112",
  "DwellTime": 2e-06,
  "EchoTime": 0.0272,
  "EchoTrainLength": 82,
  "EffectiveEchoSpacing": 0.00049,
  "FlipAngle": 44,
  "ImageComments": "Unaliased MB8/PE3",
  "ImageOrientationPatientDICOM": [0.996972, -0.0689398, -0.0359629, 0.0718137, 0.99371, 0.0859244],
  "ImageType": [
    "ORIGINAL",
    "PRIMARY",
    "M",
    "MB",
    "ND",
    "NORM",
    "MOSAIC"
],
  "ImagingFrequency": 123.259,
  "InPlanePhaseEncodingDirectionDICOM": "COL",
  "InstitutionAddress": "Maynard 3,Hanover,NH,US,03755",
  "InstitutionName": "Dartmouth College - PBS",
  "InstitutionalDepartmentName": "Department",
  "MRAcquisitionType": "2D",
  "MagneticFieldStrength": 3,
  "Manufacturer": "Siemens",
  "ManufacturersModelName": "Prisma",
  "Modality": "MR",
  "MultibandAccelerationFactor": 8,
  "PartialFourier": 1,
  "PatientPosition": "HFS",
  "PercentPhaseFOV": 100,
  "PercentSampling": 100,
  "PhaseEncodingDirection": "j-",
  "PhaseEncodingSteps": 82,
  "PhaseResolution": 1,
  "PixelBandwidth": 3050,
  "ProcedureStepDescription": "Wager_Wager^1076_spacetop",
  "ProtocolName": "func_run-02_task-social_acq-ap-mb8",
  "PulseSequenceDetails": "%CustomerSeq%\\cmrr_mbep2d_bold",
  "ReceiveCoilActiveElements": "HEA;HEP",
  "ReceiveCoilName": "Head_32",
  "ReconMatrixPE": 82,
  "RepetitionTime": 0.46,
  "SAR": 0.120818,
  "ScanOptions": "FS",
  "ScanningSequence": "EP",
  "SequenceName": "epfid2d1_82",
  "SequenceVariant": "SK\\SS",
  "SeriesDescription": "func_run-02_task-social_acq-ap-mb8",
  "SeriesNumber": 14,
  "ShimSetting": [4227, -7757, -7256, 128, -162, -15, 90, 132],
  "SliceThickness": 2.7,
  "SliceTiming": [0, 0.25, 0.0625, 0.315, 0.125, 0.3775, 0.1875, 0, 0.25, 0.0625, 0.315, 0.125, 0.3775, 0.1875, 0, 0.25, 0.0625, 0.315, 0.125, 0.3775, 0.1875, 0, 0.25, 0.0625, 0.315, 0.125, 0.3775, 0.1875, 0, 0.25, 0.0625, 0.315, 0.125, 0.3775, 0.1875, 0, 0.25, 0.0625, 0.315, 0.125, 0.3775, 0.1875, 0, 0.25, 0.0625, 0.315, 0.125, 0.3775, 0.1875, 0, 0.25, 0.0625, 0.315, 0.125, 0.3775, 0.1875],
  "SoftwareVersions": "syngo MR E11",
  "SpacingBetweenSlices": 2.7,
  "StationName": "AWP66112",
  "TaskName": "social",
  "TotalReadoutTime": 0.03969,
  "TxRefAmp": 252.89,
  "WipMemBlock": "423b38cb-b474-4abd-9258-417a82ec2cb3||Sequence: R016 ve11e/master r/434b28f1; Aug  7 2019 18:53:46 by eja",
  "dcmmeta_affine": [
    [-2.6748039722442627, 0.19267088174819946, -0.0804954543709755, 105.99474334716797],
    [0.18496042490005493, 2.6660516262054443, 0.23826664686203003, -104.41674041748047],
    [-0.09648595750331879, -0.23052893579006195, 2.6882615089416504, -67.41300964355469],
    [0.0, 0.0, 0.0, 1.0]
],
  "dcmmeta_reorient_transform": [
    [0.0, -1.0, 0.0, 81.0],
    [1.0, 0.0, 0.0, 0.0],
    [0.0, 0.0, 1.0, 0.0],
    [0.0, 0.0, 0.0, 1.0]
],
  "dcmmeta_shape": [82, 82, 56, 872],
  "dcmmeta_slice_dim": 2,
  "dcmmeta_version": 0.6,
  "global": {
    "const": {
      "AccessionNumber": "A004873",
      "AcquisitionMatrix": [82, 0, 0, 82],
      "AngioFlag": "N",
      "BitsAllocated": 16,
      "BitsStored": 16,
      "BodyPartExamined": "BRAIN",
      "Columns": 656,
      "EchoNumbers": 1,
      "EchoTime": 27.2,
      "EchoTrainLength": 82,
      "FlipAngle": 44.0,
      "HighBit": 15,
      "ImageOrientationPatient": [0.99697240235661, -0.0689397953161, -0.0359629470576, 0.0718136900299, 0.99371011283305, 0.08592441781949],
      "ImagePositionPatient": [-944.5663963798, -823.6065965179, -124.55618320935],
      "ImageType": [
        "ORIGINAL",
        "PRIMARY",
        "M",
        "MB",
        "ND",
        "NORM",
        "MOSAIC"
],
      "ImagedNucleus": "1H",
      "ImagingFrequency": 123.259076,
      "InPlanePhaseEncodingDirection": "COL",
      "MRAcquisitionType": "2D",
      "MagneticFieldStrength": 3.0,
      "Manufacturer": "SIEMENS",
      "ManufacturerModelName": "Prisma",
      "Modality": "MR",
      "NumberOfAverages": 1.0,
      "NumberOfPhaseEncodingSteps": 82,
      "PercentPhaseFieldOfView": 100.0,
      "PercentSampling": 100.0,
      "PerformedProcedureStepStartTime": "125814.640000",
      "PhotometricInterpretation": "MONOCHROME2",
      "PixelBandwidth": 3050.0,
      "PixelRepresentation": 0,
      "PixelSpacing": [2.6829268932343, 2.6829268932343],
      "ProtocolName": "func_run-02_task-social_acq-ap-mb8",
      "RepetitionTime": 460.0,
      "Rows": 656,
      "SAR": 0.12081799460836,
      "SamplesPerPixel": 1,
      "ScanOptions": "FS",
      "ScanningSequence": "EP",
      "SequenceName": "epfid2d1_82",
      "SequenceVariant": [
        "SK",
        "SS"
],
      "SeriesDescription": "func_run-02_task-social_acq-ap-mb8",
      "SeriesNumber": 14,
      "SeriesTime": "134228.287000",
      "SliceLocation": -79.494410000039,
      "SliceThickness": 2.7000000476837,
      "SmallestImagePixelValue": 0,
      "SoftwareVersions": "syngo MR E11",
      "SpacingBetweenSlices": 2.6999999878151,
      "SpecificCharacterSet": "ISO_IR 100",
      "StudyID": "1",
      "StudyTime": "125814.565000",
      "TransmitCoilName": "Body",
      "VariableFlipAngleFlag": "N",
      "WindowCenterWidthExplanation": "Algo1"
    },
    "slices": {}
  },
  "time": {
    "samples": {
      "AcquisitionNumber": [1, 2, 3, 4, 5, 6, 7, 8, 9, 10, 11, 12, 13, 14, 15, 16, 17, 18, 19, 20, 21, 22, 23, 24, 25, 26, 27, 28, 29, 30, 31, 32, 33, 34, 35, 36, 37, 38, 39, 40, 41, 42, 43, 44, 45, 46, 47, 48, 49, 50, 51, 52, 53, 54, 55, 56, 57, 58, 59, 60, 61, 62, 63, 64, 65, 66, 67, 68, 69, 70, 71, 72, 73, 74, 75, 76, 77, 78, 79, 80, 81, 82, 83, 84, 85, 86, 87, 88, 89, 90, 91, 92, 93, 94, 95, 96, 97, 98, 99, 100, 101, 102, 103, 104, 105, 106, 107, 108, 109, 110, 111, 112, 113, 114, 115, 116, 117, 118, 119, 120, 121, 122, 123, 124, 125, 126, 127, 128, 129, 130, 131, 132, 133, 134, 135, 136, 137, 138, 139, 140, 141, 142, 143, 144, 145, 146, 147, 148, 149, 150, 151, 152, 153, 154, 155, 156, 157, 158, 159, 160, 161, 162, 163, 164, 165, 166, 167, 168, 169, 170, 171, 172, 173, 174, 175, 176, 177, 178, 179, 180, 181, 182, 183, 184, 185, 186, 187, 188, 189, 190, 191, 192, 193, 194, 195, 196, 197, 198, 199, 200, 201, 202, 203, 204, 205, 206, 207, 208, 209, 210, 211, 212, 213, 214, 215, 216, 217, 218, 219, 220, 221, 222, 223, 224, 225, 226, 227, 228, 229, 230, 231, 232, 233, 234, 235, 236, 237, 238, 239, 240, 241, 242, 243, 244, 245, 246, 247, 248, 249, 250, 251, 252, 253, 254, 255, 256, 257, 258, 259, 260, 261, 262, 263, 264, 265, 266, 267, 268, 269, 270, 271, 272, 273, 274, 275, 276, 277, 278, 279, 280, 281, 282, 283, 284, 285, 286, 287, 288, 289, 290, 291, 292, 293, 294, 295, 296, 297, 298, 299, 300, 301, 302, 303, 304, 305, 306, 307, 308, 309, 310, 311, 312, 313, 314, 315, 316, 317, 318, 319, 320, 321, 322, 323, 324, 325, 326, 327, 328, 329, 330, 331, 332, 333, 334, 335, 336, 337, 338, 339, 340, 341, 342, 343, 344, 345, 346, 347, 348, 349, 350, 351, 352, 353, 354, 355, 356, 357, 358, 359, 360, 361, 362, 363, 364, 365, 366, 367, 368, 369, 370, 371, 372, 373, 374, 375, 376, 377, 378, 379, 380, 381, 382, 383, 384, 385, 386, 387, 388, 389, 390, 391, 392, 393, 394, 395, 396, 397, 398, 399, 400, 401, 402, 403, 404, 405, 406, 407, 408, 409, 410, 411, 412, 413, 414, 415, 416, 417, 418, 419, 420, 421, 422, 423, 424, 425, 426, 427, 428, 429, 430, 431, 432, 433, 434, 435, 436, 437, 438, 439, 440, 441, 442, 443, 444, 445, 446, 447, 448, 449, 450, 451, 452, 453, 454, 455, 456, 457, 458, 459, 460, 461, 462, 463, 464, 465, 466, 467, 468, 469, 470, 471, 472, 473, 474, 475, 476, 477, 478, 479, 480, 481, 482, 483, 484, 485, 486, 487, 488, 489, 490, 491, 492, 493, 494, 495, 496, 497, 498, 499, 500, 501, 502, 503, 504, 505, 506, 507, 508, 509, 510, 511, 512, 513, 514, 515, 516, 517, 518, 519, 520, 521, 522, 523, 524, 525, 526, 527, 528, 529, 530, 531, 532, 533, 534, 535, 536, 537, 538, 539, 540, 541, 542, 543, 544, 545, 546, 547, 548, 549, 550, 551, 552, 553, 554, 555, 556, 557, 558, 559, 560, 561, 562, 563, 564, 565, 566, 567, 568, 569, 570, 571, 572, 573, 574, 575, 576, 577, 578, 579, 580, 581, 582, 583, 584, 585, 586, 587, 588, 589, 590, 591, 592, 593, 594, 595, 596, 597, 598, 599, 600, 601, 602, 603, 604, 605, 606, 607, 608, 609, 610, 611, 612, 613, 614, 615, 616, 617, 618, 619, 620, 621, 622, 623, 624, 625, 626, 627, 628, 629, 630, 631, 632, 633, 634, 635, 636, 637, 638, 639, 640, 641, 642, 643, 644, 645, 646, 647, 648, 649, 650, 651, 652, 653, 654, 655, 656, 657, 658, 659, 660, 661, 662, 663, 664, 665, 666, 667, 668, 669, 670, 671, 672, 673, 674, 675, 676, 677, 678, 679, 680, 681, 682, 683, 684, 685, 686, 687, 688, 689, 690, 691, 692, 693, 694, 695, 696, 697, 698, 699, 700, 701, 702, 703, 704, 705, 706, 707, 708, 709, 710, 711, 712, 713, 714, 715, 716, 717, 718, 719, 720, 721, 722, 723, 724, 725, 726, 727, 728, 729, 730, 731, 732, 733, 734, 735, 736, 737, 738, 739, 740, 741, 742, 743, 744, 745, 746, 747, 748, 749, 750, 751, 752, 753, 754, 755, 756, 757, 758, 759, 760, 761, 762, 763, 764, 765, 766, 767, 768, 769, 770, 771, 772, 773, 774, 775, 776, 777, 778, 779, 780, 781, 782, 783, 784, 785, 786, 787, 788, 789, 790, 791, 792, 793, 794, 795, 796, 797, 798, 799, 800, 801, 802, 803, 804, 805, 806, 807, 808, 809, 810, 811, 812, 813, 814, 815, 816, 817, 818, 819, 820, 821, 822, 823, 824, 825, 826, 827, 828, 829, 830, 831, 832, 833, 834, 835, 836, 837, 838, 839, 840, 841, 842, 843, 844, 845, 846, 847, 848, 849, 850, 851, 852, 853, 854, 855, 856, 857, 858, 859, 860, 861, 862, 863, 864, 865, 866, 867, 868, 869, 870, 871, 872],
      "AcquisitionTime": ["134218.392500", "134218.852500", "134219.312500", "134219.772500", "134220.232500", "134220.692500", "134221.152500", "134221.612500", "134222.072500", "134222.532500", "134222.992500", "134223.452500", "134223.912500", "134224.372500", "134224.832500", "134225.292500", "134225.752500", "134226.212500", "134226.672500", "134227.132500", "134227.592500", "134228.052500", "134228.512500", "134228.972500", "134229.432500", "134229.892500", "134230.352500", "134230.812500", "134231.272500", "134231.732500", "134232.192500", "134232.652500", "134233.112500", "134233.572500", "134234.032500", "134234.492500", "134234.952500", "134235.412500", "134235.872500", "134236.332500", "134236.792500", "134237.252500", "134237.712500", "134238.172500", "134238.632500", "134239.092500", "134239.552500", "134240.012500", "134240.472500", "134240.932500", "134241.392500", "134241.852500", "134242.312500", "134242.772500", "134243.232500", "134243.692500", "134244.152500", "134244.612500", "134245.072500", "134245.532500", "134245.992500", "134246.452500", "134246.912500", "134247.372500", "134247.832500", "134248.292500", "134248.752500", "134249.212500", "134249.672500", "134250.132500", "134250.592500", "134251.052500", "134251.512500", "134251.972500", "134252.432500", "134252.892500", "134253.352500", "134253.812500", "134254.272500", "134254.732500", "134255.192500", "134255.652500", "134256.112500", "134256.572500", "134257.032500", "134257.492500", "134257.952500", "134258.412500", "134258.872500", "134259.332500", "134259.792500", "134300.252500", "134300.712500", "134301.172500", "134301.632500", "134302.092500", "134302.552500", "134303.012500", "134303.472500", "134303.932500", "134304.392500", "134304.852500", "134305.312500", "134305.772500", "134306.232500", "134306.692500", "134307.152500", "134307.612500", "134308.072500", "134308.532500", "134308.992500", "134309.452500", "134309.912500", "134310.372500", "134310.832500", "134311.292500", "134311.752500", "134312.212500", "134312.672500", "134313.132500", "134313.592500", "134314.052500", "134314.512500", "134314.972500", "134315.432500", "134315.892500", "134316.352500", "134316.812500", "134317.272500", "134317.732500", "134318.192500", "134318.652500", "134319.112500", "134319.572500", "134320.032500", "134320.492500", "134320.952500", "134321.412500", "134321.872500", "134322.332500", "134322.792500", "134323.252500", "134323.712500", "134324.172500", "134324.632500", "134325.092500", "134325.552500", "134326.012500", "134326.472500", "134326.932500", "134327.392500", "134327.852500", "134328.312500", "134328.772500", "134329.232500", "134329.692500", "134330.152500", "134330.612500", "134331.072500", "134331.532500", "134331.992500", "134332.452500", "134332.912500", "134333.372500", "134333.832500", "134334.292500", "134334.752500", "134335.212500", "134335.672500", "134336.132500", "134336.592500", "134337.052500", "134337.512500", "134337.972500", "134338.432500", "134338.892500", "134339.352500", "134339.812500", "134340.272500", "134340.732500", "134341.192500", "134341.652500", "134342.112500", "134342.572500", "134343.032500", "134343.492500", "134343.952500", "134344.412500", "134344.872500", "134345.332500", "134345.792500", "134346.252500", "134346.712500", "134347.172500", "134347.632500", "134348.092500", "134348.552500", "134349.012500", "134349.472500", "134349.932500", "134350.392500", "134350.852500", "134351.312500", "134351.772500", "134352.232500", "134352.692500", "134353.152500", "134353.612500", "134354.072500", "134354.532500", "134354.992500", "134355.452500", "134355.912500", "134356.372500", "134356.832500", "134357.292500", "134357.752500", "134358.212500", "134358.672500", "134359.132500", "134359.592500", "134400.052500", "134400.512500", "134400.972500", "134401.432500", "134401.892500", "134402.352500", "134402.812500", "134403.272500", "134403.732500", "134404.192500", "134404.652500", "134405.112500", "134405.572500", "134406.032500", "134406.492500", "134406.952500", "134407.412500", "134407.872500", "134408.332500", "134408.792500", "134409.252500", "134409.712500", "134410.172500", "134410.632500", "134411.092500", "134411.552500", "134412.012500", "134412.472500", "134412.932500", "134413.392500", "134413.852500", "134414.312500", "134414.772500", "134415.232500", "134415.692500", "134416.152500", "134416.612500", "134417.072500", "134417.532500", "134417.992500", "134418.452500", "134418.912500", "134419.372500", "134419.832500", "134420.292500", "134420.752500", "134421.212500", "134421.672500", "134422.132500", "134422.592500", "134423.052500", "134423.512500", "134423.972500", "134424.432500", "134424.892500", "134425.352500", "134425.812500", "134426.272500", "134426.732500", "134427.192500", "134427.652500", "134428.112500", "134428.572500", "134429.032500", "134429.492500", "134429.952500", "134430.412500", "134430.872500", "134431.332500", "134431.792500", "134432.252500", "134432.712500", "134433.172500", "134433.632500", "134434.092500", "134434.552500", "134435.012500", "134435.472500", "134435.932500", "134436.392500", "134436.852500", "134437.312500", "134437.772500", "134438.232500", "134438.692500", "134439.152500", "134439.612500", "134440.072500", "134440.532500", "134440.992500", "134441.452500", "134441.912500", "134442.372500", "134442.832500", "134443.292500", "134443.752500", "134444.212500", "134444.672500", "134445.132500", "134445.592500", "134446.052500", "134446.512500", "134446.972500", "134447.432500", "134447.892500", "134448.352500", "134448.812500", "134449.272500", "134449.732500", "134450.192500", "134450.652500", "134451.112500", "134451.572500", "134452.032500", "134452.492500", "134452.952500", "134453.412500", "134453.872500", "134454.332500", "134454.792500", "134455.252500", "134455.712500", "134456.172500", "134456.632500", "134457.092500", "134457.552500", "134458.012500", "134458.472500", "134458.932500", "134459.392500", "134459.852500", "134500.312500", "134500.772500", "134501.232500", "134501.692500", "134502.152500", "134502.612500", "134503.072500", "134503.532500", "134503.992500", "134504.452500", "134504.912500", "134505.372500", "134505.832500", "134506.292500", "134506.752500", "134507.212500", "134507.672500", "134508.132500", "134508.592500", "134509.052500", "134509.512500", "134509.972500", "134510.432500", "134510.892500", "134511.352500", "134511.812500", "134512.272500", "134512.732500", "134513.192500", "134513.652500", "134514.112500", "134514.572500", "134515.032500", "134515.492500", "134515.952500", "134516.412500", "134516.872500", "134517.332500", "134517.792500", "134518.252500", "134518.712500", "134519.172500", "134519.632500", "134520.092500", "134520.552500", "134521.012500", "134521.472500", "134521.932500", "134522.392500", "134522.852500", "134523.312500", "134523.772500", "134524.232500", "134524.692500", "134525.152500", "134525.612500", "134526.072500", "134526.532500", "134526.992500", "134527.452500", "134527.912500", "134528.372500", "134528.832500", "134529.292500", "134529.752500", "134530.212500", "134530.672500", "134531.132500", "134531.592500", "134532.052500", "134532.512500", "134532.972500", "134533.432500", "134533.892500", "134534.352500", "134534.812500", "134535.272500", "134535.732500", "134536.192500", "134536.652500", "134537.112500", "134537.572500", "134538.032500", "134538.492500", "134538.952500", "134539.412500", "134539.872500", "134540.332500", "134540.792500", "134541.252500", "134541.712500", "134542.172500", "134542.632500", "134543.092500", "134543.552500", "134544.012500", "134544.472500", "134544.932500", "134545.392500", "134545.852500", "134546.312500", "134546.772500", "134547.232500", "134547.692500", "134548.152500", "134548.612500", "134549.072500", "134549.532500", "134549.992500", "134550.452500", "134550.912500", "134551.372500", "134551.832500", "134552.292500", "134552.752500", "134553.212500", "134553.672500", "134554.132500", "134554.592500", "134555.052500", "134555.512500", "134555.972500", "134556.432500", "134556.892500", "134557.352500", "134557.812500", "134558.272500", "134558.732500", "134559.192500", "134559.652500", "134600.112500", "134600.572500", "134601.032500", "134601.492500", "134601.952500", "134602.412500", "134602.872500", "134603.332500", "134603.792500", "134604.252500", "134604.712500", "134605.172500", "134605.632500", "134606.092500", "134606.552500", "134607.012500", "134607.472500", "134607.932500", "134608.392500", "134608.852500", "134609.312500", "134609.772500", "134610.232500", "134610.692500", "134611.152500", "134611.612500", "134612.072500", "134612.532500", "134612.992500", "134613.452500", "134613.912500", "134614.372500", "134614.832500", "134615.292500", "134615.752500", "134616.212500", "134616.672500", "134617.132500", "134617.592500", "134618.052500", "134618.512500", "134618.972500", "134619.432500", "134619.892500", "134620.352500", "134620.812500", "134621.272500", "134621.732500", "134622.192500", "134622.652500", "134623.112500", "134623.572500", "134624.032500", "134624.492500", "134624.952500", "134625.412500", "134625.872500", "134626.332500", "134626.792500", "134627.252500", "134627.712500", "134628.172500", "134628.632500", "134629.092500", "134629.552500", "134630.012500", "134630.472500", "134630.932500", "134631.392500", "134631.852500", "134632.312500", "134632.772500", "134633.232500", "134633.692500", "134634.152500", "134634.612500", "134635.072500", "134635.532500", "134635.992500", "134636.452500", "134636.912500", "134637.372500", "134637.832500", "134638.292500", "134638.752500", "134639.212500", "134639.672500", "134640.132500", "134640.592500", "134641.052500", "134641.512500", "134641.972500", "134642.432500", "134642.892500", "134643.352500", "134643.812500", "134644.272500", "134644.732500", "134645.192500", "134645.652500", "134646.112500", "134646.572500", "134647.032500", "134647.492500", "134647.952500", "134648.412500", "134648.872500", "134649.332500", "134649.792500", "134650.252500", "134650.712500", "134651.172500", "134651.632500", "134652.092500", "134652.552500", "134653.012500", "134653.472500", "134653.932500", "134654.392500", "134654.852500", "134655.312500", "134655.772500", "134656.232500", "134656.692500", "134657.152500", "134657.612500", "134658.072500", "134658.532500", "134658.992500", "134659.452500", "134659.912500", "134700.372500", "134700.832500", "134701.292500", "134701.752500", "134702.212500", "134702.672500", "134703.132500", "134703.592500", "134704.052500", "134704.512500", "134704.972500", "134705.432500", "134705.892500", "134706.352500", "134706.812500", "134707.272500", "134707.732500", "134708.192500", "134708.652500", "134709.112500", "134709.572500", "134710.032500", "134710.492500", "134710.952500", "134711.412500", "134711.872500", "134712.332500", "134712.792500", "134713.252500", "134713.712500", "134714.172500", "134714.632500", "134715.092500", "134715.552500", "134716.012500", "134716.472500", "134716.932500", "134717.392500", "134717.852500", "134718.312500", "134718.772500", "134719.232500", "134719.692500", "134720.152500", "134720.612500", "134721.072500", "134721.532500", "134721.992500", "134722.452500", "134722.912500", "134723.372500", "134723.832500", "134724.292500", "134724.752500", "134725.212500", "134725.672500", "134726.132500", "134726.592500", "134727.052500", "134727.512500", "134727.972500", "134728.432500", "134728.892500", "134729.352500", "134729.812500", "134730.272500", "134730.732500", "134731.192500", "134731.652500", "134732.112500", "134732.572500", "134733.032500", "134733.492500", "134733.952500", "134734.412500", "134734.872500", "134735.332500", "134735.792500", "134736.252500", "134736.712500", "134737.172500", "134737.632500", "134738.092500", "134738.552500", "134739.012500", "134739.472500", "134739.932500", "134740.392500", "134740.852500", "134741.312500", "134741.772500", "134742.232500", "134742.692500", "134743.152500", "134743.612500", "134744.072500", "134744.532500", "134744.992500", "134745.452500", "134745.912500", "134746.372500", "134746.832500", "134747.292500", "134747.752500", "134748.212500", "134748.672500", "134749.132500", "134749.592500", "134750.052500", "134750.512500", "134750.972500", "134751.432500", "134751.892500", "134752.352500", "134752.812500", "134753.272500", "134753.732500", "134754.192500", "134754.652500", "134755.112500", "134755.572500", "134756.032500", "134756.492500", "134756.952500", "134757.412500", "134757.872500", "134758.332500", "134758.792500", "134759.252500", "134759.712500", "134800.172500", "134800.632500", "134801.092500", "134801.552500", "134802.012500", "134802.472500", "134802.932500", "134803.392500", "134803.852500", "134804.312500", "134804.772500", "134805.232500", "134805.692500", "134806.152500", "134806.612500", "134807.072500", "134807.532500", "134807.992500", "134808.452500", "134808.912500", "134809.372500", "134809.832500", "134810.292500", "134810.752500", "134811.212500", "134811.672500", "134812.132500", "134812.592500", "134813.052500", "134813.512500", "134813.972500", "134814.432500", "134814.892500", "134815.352500", "134815.812500", "134816.272500", "134816.732500", "134817.192500", "134817.652500", "134818.112500", "134818.572500", "134819.032500", "134819.492500", "134819.952500", "134820.412500", "134820.872500", "134821.332500", "134821.792500", "134822.252500", "134822.712500", "134823.172500", "134823.632500", "134824.092500", "134824.552500", "134825.012500", "134825.472500", "134825.932500", "134826.392500", "134826.852500", "134827.312500", "134827.772500", "134828.232500", "134828.692500", "134829.152500", "134829.612500", "134830.072500", "134830.532500", "134830.992500", "134831.452500", "134831.912500", "134832.372500", "134832.832500", "134833.292500", "134833.752500", "134834.212500", "134834.672500", "134835.132500", "134835.592500", "134836.052500", "134836.512500", "134836.972500", "134837.432500", "134837.892500", "134838.352500", "134838.812500", "134839.272500", "134839.732500", "134840.192500", "134840.652500", "134841.112500", "134841.572500", "134842.032500", "134842.492500", "134842.952500", "134843.412500", "134843.872500", "134844.332500", "134844.792500", "134845.252500", "134845.712500", "134846.172500", "134846.632500", "134847.092500", "134847.552500", "134848.012500", "134848.472500", "134848.932500", "134849.392500", "134849.852500", "134850.312500", "134850.772500", "134851.232500", "134851.692500", "134852.152500", "134852.612500", "134853.072500", "134853.532500", "134853.992500", "134854.452500", "134854.912500", "134855.372500", "134855.832500", "134856.292500", "134856.752500", "134857.212500", "134857.672500", "134858.132500", "134858.592500", "134859.052500"],
