{
  "AcquisitionMatrixPE": 82,
  "AcquisitionNumber": 1,
  "AcquisitionTime": "14:12:3.965000",
  "BandwidthPerPixelPhaseEncode": 24.888,
  "BaseResolution": 82,
  "BodyPartExamined": "BRAIN",
  "ConsistencyInfo": "N4_VE11E_LATEST_20181129",
  "ConversionSoftware": "dcm2niix",
  "ConversionSoftwareVersion": "v1.0.20201102",
  "DerivedVendorReportedEchoSpacing": 0.00049,
  "DeviceSerialNumber": "66112",
  "DwellTime": 2e-06,
  "EchoTime": 0.0272,
  "EchoTrainLength": 82,
  "EffectiveEchoSpacing": 0.00049,
  "FlipAngle": 44,
  "ImageComments": "Unaliased MB8/PE3",
  "ImageOrientationPatientDICOM": [0.996972, -0.0689398, -0.0359629, 0.0718137, 0.99371, 0.0859244],
  "ImageType": [
    "ORIGINAL",
    "PRIMARY",
    "M",
    "MB",
    "ND",
    "NORM",
    "MOSAIC"
],
  "ImagingFrequency": 123.259,
  "InPlanePhaseEncodingDirectionDICOM": "COL",
  "InstitutionAddress": "Maynard 3,Hanover,NH,US,03755",
  "InstitutionName": "Dartmouth College - PBS",
  "InstitutionalDepartmentName": "Department",
  "MRAcquisitionType": "2D",
  "MagneticFieldStrength": 3,
  "Manufacturer": "Siemens",
  "ManufacturersModelName": "Prisma",
  "Modality": "MR",
  "MultibandAccelerationFactor": 8,
  "PartialFourier": 1,
  "PatientPosition": "HFS",
  "PercentPhaseFOV": 100,
  "PercentSampling": 100,
  "PhaseEncodingDirection": "j-",
  "PhaseEncodingSteps": 82,
  "PhaseResolution": 1,
  "PixelBandwidth": 3050,
  "ProcedureStepDescription": "Wager_Wager^1076_spacetop",
  "ProtocolName": "func_run-06_task-social_acq-ap-mb8",
  "PulseSequenceDetails": "%CustomerSeq%\\cmrr_mbep2d_bold",
  "ReceiveCoilActiveElements": "HEA;HEP",
  "ReceiveCoilName": "Head_32",
  "ReconMatrixPE": 82,
  "RepetitionTime": 0.46,
  "SAR": 0.120818,
  "ScanOptions": "FS",
  "ScanningSequence": "EP",
  "SequenceName": "epfid2d1_82",
  "SequenceVariant": "SK\\SS",
  "SeriesDescription": "func_run-06_task-social_acq-ap-mb8",
  "SeriesNumber": 22,
  "ShimSetting": [4227, -7757, -7256, 128, -162, -15, 90, 132],
  "SliceThickness": 2.7,
  "SliceTiming": [0, 0.2525, 0.065, 0.315, 0.1275, 0.3775, 0.19, 0, 0.2525, 0.065, 0.315, 0.1275, 0.3775, 0.19, 0, 0.2525, 0.065, 0.315, 0.1275, 0.3775, 0.19, 0, 0.2525, 0.065, 0.315, 0.1275, 0.3775, 0.19, 0, 0.2525, 0.065, 0.315, 0.1275, 0.3775, 0.19, 0, 0.2525, 0.065, 0.315, 0.1275, 0.3775, 0.19, 0, 0.2525, 0.065, 0.315, 0.1275, 0.3775, 0.19, 0, 0.2525, 0.065, 0.315, 0.1275, 0.3775, 0.19],
  "SoftwareVersions": "syngo MR E11",
  "SpacingBetweenSlices": 2.7,
  "StationName": "AWP66112",
  "TaskName": "social",
  "TotalReadoutTime": 0.03969,
  "TxRefAmp": 252.89,
  "WipMemBlock": "54878255-592c-4f63-8090-9e5a7db1c018||Sequence: R016 ve11e/master r/434b28f1; Aug  7 2019 18:53:46 by eja",
  "dcmmeta_affine": [
    [-2.6748039722442627, 0.19267088174819946, -0.0804954543709755, 105.99474334716797],
    [0.18496042490005493, 2.6660516262054443, 0.23826664686203003, -104.41674041748047],
    [-0.09648595750331879, -0.23052893579006195, 2.6882615089416504, -67.41300964355469],
    [0.0, 0.0, 0.0, 1.0]
],
  "dcmmeta_reorient_transform": [
    [0.0, -1.0, 0.0, 81.0],
    [1.0, 0.0, 0.0, 0.0],
    [0.0, 0.0, 1.0, 0.0],
    [0.0, 0.0, 0.0, 1.0]
],
  "dcmmeta_shape": [82, 82, 56, 872],
  "dcmmeta_slice_dim": 2,
  "dcmmeta_version": 0.6,
  "global": {
    "const": {
      "AccessionNumber": "A004873",
      "AcquisitionMatrix": [82, 0, 0, 82],
      "AngioFlag": "N",
      "BitsAllocated": 16,
      "BitsStored": 16,
      "BodyPartExamined": "BRAIN",
      "Columns": 656,
      "EchoNumbers": 1,
      "EchoTime": 27.2,
      "EchoTrainLength": 82,
      "FlipAngle": 44.0,
      "HighBit": 15,
      "ImageOrientationPatient": [0.99697240235661, -0.0689397953161, -0.0359629470576, 0.0718136900299, 0.99371011283305, 0.08592441781949],
      "ImagePositionPatient": [-944.5663963798, -823.6065965179, -124.55618320935],
      "ImageType": [
        "ORIGINAL",
        "PRIMARY",
        "M",
        "MB",
        "ND",
        "NORM",
        "MOSAIC"
],
      "ImagedNucleus": "1H",
      "ImagingFrequency": 123.259084,
      "InPlanePhaseEncodingDirection": "COL",
      "MRAcquisitionType": "2D",
      "MagneticFieldStrength": 3.0,
      "Manufacturer": "SIEMENS",
      "ManufacturerModelName": "Prisma",
      "Modality": "MR",
      "NumberOfAverages": 1.0,
      "NumberOfPhaseEncodingSteps": 82,
      "PercentPhaseFieldOfView": 100.0,
      "PercentSampling": 100.0,
      "PerformedProcedureStepStartTime": "125814.640000",
      "PhotometricInterpretation": "MONOCHROME2",
      "PixelBandwidth": 3050.0,
      "PixelRepresentation": 0,
      "PixelSpacing": [2.6829268932343, 2.6829268932343],
      "ProtocolName": "func_run-06_task-social_acq-ap-mb8",
      "RepetitionTime": 460.0,
      "Rows": 656,
      "SAR": 0.12081799460836,
      "SamplesPerPixel": 1,
      "ScanOptions": "FS",
      "ScanningSequence": "EP",
      "SequenceName": "epfid2d1_82",
      "SequenceVariant": [
        "SK",
        "SS"
],
      "SeriesDescription": "func_run-06_task-social_acq-ap-mb8",
      "SeriesNumber": 22,
      "SeriesTime": "141228.387000",
      "SliceLocation": -79.494410000039,
      "SliceThickness": 2.7000000476837,
      "SmallestImagePixelValue": 0,
      "SoftwareVersions": "syngo MR E11",
      "SpacingBetweenSlices": 2.6999999878151,
      "SpecificCharacterSet": "ISO_IR 100",
      "StudyID": "1",
      "StudyTime": "125814.565000",
      "TransmitCoilName": "Body",
      "VariableFlipAngleFlag": "N",
      "WindowCenterWidthExplanation": "Algo1"
    },
    "slices": {}
  },
  "time": {
    "samples": {
      "AcquisitionNumber": [1, 2, 3, 4, 5, 6, 7, 8, 9, 10, 11, 12, 13, 14, 15, 16, 17, 18, 19, 20, 21, 22, 23, 24, 25, 26, 27, 28, 29, 30, 31, 32, 33, 34, 35, 36, 37, 38, 39, 40, 41, 42, 43, 44, 45, 46, 47, 48, 49, 50, 51, 52, 53, 54, 55, 56, 57, 58, 59, 60, 61, 62, 63, 64, 65, 66, 67, 68, 69, 70, 71, 72, 73, 74, 75, 76, 77, 78, 79, 80, 81, 82, 83, 84, 85, 86, 87, 88, 89, 90, 91, 92, 93, 94, 95, 96, 97, 98, 99, 100, 101, 102, 103, 104, 105, 106, 107, 108, 109, 110, 111, 112, 113, 114, 115, 116, 117, 118, 119, 120, 121, 122, 123, 124, 125, 126, 127, 128, 129, 130, 131, 132, 133, 134, 135, 136, 137, 138, 139, 140, 141, 142, 143, 144, 145, 146, 147, 148, 149, 150, 151, 152, 153, 154, 155, 156, 157, 158, 159, 160, 161, 162, 163, 164, 165, 166, 167, 168, 169, 170, 171, 172, 173, 174, 175, 176, 177, 178, 179, 180, 181, 182, 183, 184, 185, 186, 187, 188, 189, 190, 191, 192, 193, 194, 195, 196, 197, 198, 199, 200, 201, 202, 203, 204, 205, 206, 207, 208, 209, 210, 211, 212, 213, 214, 215, 216, 217, 218, 219, 220, 221, 222, 223, 224, 225, 226, 227, 228, 229, 230, 231, 232, 233, 234, 235, 236, 237, 238, 239, 240, 241, 242, 243, 244, 245, 246, 247, 248, 249, 250, 251, 252, 253, 254, 255, 256, 257, 258, 259, 260, 261, 262, 263, 264, 265, 266, 267, 268, 269, 270, 271, 272, 273, 274, 275, 276, 277, 278, 279, 280, 281, 282, 283, 284, 285, 286, 287, 288, 289, 290, 291, 292, 293, 294, 295, 296, 297, 298, 299, 300, 301, 302, 303, 304, 305, 306, 307, 308, 309, 310, 311, 312, 313, 314, 315, 316, 317, 318, 319, 320, 321, 322, 323, 324, 325, 326, 327, 328, 329, 330, 331, 332, 333, 334, 335, 336, 337, 338, 339, 340, 341, 342, 343, 344, 345, 346, 347, 348, 349, 350, 351, 352, 353, 354, 355, 356, 357, 358, 359, 360, 361, 362, 363, 364, 365, 366, 367, 368, 369, 370, 371, 372, 373, 374, 375, 376, 377, 378, 379, 380, 381, 382, 383, 384, 385, 386, 387, 388, 389, 390, 391, 392, 393, 394, 395, 396, 397, 398, 399, 400, 401, 402, 403, 404, 405, 406, 407, 408, 409, 410, 411, 412, 413, 414, 415, 416, 417, 418, 419, 420, 421, 422, 423, 424, 425, 426, 427, 428, 429, 430, 431, 432, 433, 434, 435, 436, 437, 438, 439, 440, 441, 442, 443, 444, 445, 446, 447, 448, 449, 450, 451, 452, 453, 454, 455, 456, 457, 458, 459, 460, 461, 462, 463, 464, 465, 466, 467, 468, 469, 470, 471, 472, 473, 474, 475, 476, 477, 478, 479, 480, 481, 482, 483, 484, 485, 486, 487, 488, 489, 490, 491, 492, 493, 494, 495, 496, 497, 498, 499, 500, 501, 502, 503, 504, 505, 506, 507, 508, 509, 510, 511, 512, 513, 514, 515, 516, 517, 518, 519, 520, 521, 522, 523, 524, 525, 526, 527, 528, 529, 530, 531, 532, 533, 534, 535, 536, 537, 538, 539, 540, 541, 542, 543, 544, 545, 546, 547, 548, 549, 550, 551, 552, 553, 554, 555, 556, 557, 558, 559, 560, 561, 562, 563, 564, 565, 566, 567, 568, 569, 570, 571, 572, 573, 574, 575, 576, 577, 578, 579, 580, 581, 582, 583, 584, 585, 586, 587, 588, 589, 590, 591, 592, 593, 594, 595, 596, 597, 598, 599, 600, 601, 602, 603, 604, 605, 606, 607, 608, 609, 610, 611, 612, 613, 614, 615, 616, 617, 618, 619, 620, 621, 622, 623, 624, 625, 626, 627, 628, 629, 630, 631, 632, 633, 634, 635, 636, 637, 638, 639, 640, 641, 642, 643, 644, 645, 646, 647, 648, 649, 650, 651, 652, 653, 654, 655, 656, 657, 658, 659, 660, 661, 662, 663, 664, 665, 666, 667, 668, 669, 670, 671, 672, 673, 674, 675, 676, 677, 678, 679, 680, 681, 682, 683, 684, 685, 686, 687, 688, 689, 690, 691, 692, 693, 694, 695, 696, 697, 698, 699, 700, 701, 702, 703, 704, 705, 706, 707, 708, 709, 710, 711, 712, 713, 714, 715, 716, 717, 718, 719, 720, 721, 722, 723, 724, 725, 726, 727, 728, 729, 730, 731, 732, 733, 734, 735, 736, 737, 738, 739, 740, 741, 742, 743, 744, 745, 746, 747, 748, 749, 750, 751, 752, 753, 754, 755, 756, 757, 758, 759, 760, 761, 762, 763, 764, 765, 766, 767, 768, 769, 770, 771, 772, 773, 774, 775, 776, 777, 778, 779, 780, 781, 782, 783, 784, 785, 786, 787, 788, 789, 790, 791, 792, 793, 794, 795, 796, 797, 798, 799, 800, 801, 802, 803, 804, 805, 806, 807, 808, 809, 810, 811, 812, 813, 814, 815, 816, 817, 818, 819, 820, 821, 822, 823, 824, 825, 826, 827, 828, 829, 830, 831, 832, 833, 834, 835, 836, 837, 838, 839, 840, 841, 842, 843, 844, 845, 846, 847, 848, 849, 850, 851, 852, 853, 854, 855, 856, 857, 858, 859, 860, 861, 862, 863, 864, 865, 866, 867, 868, 869, 870, 871, 872],
      "AcquisitionTime": ["141203.965000", "141204.425000", "141204.885000", "141205.345000", "141205.805000", "141206.265000", "141206.725000", "141207.185000", "141207.645000", "141208.105000", "141208.565000", "141209.025000", "141209.485000", "141209.945000", "141210.405000", "141210.865000", "141211.325000", "141211.785000", "141212.245000", "141212.705000", "141213.165000", "141213.625000", "141214.085000", "141214.545000", "141215.005000", "141215.465000", "141215.925000", "141216.385000", "141216.845000", "141217.305000", "141217.765000", "141218.225000", "141218.685000", "141219.145000", "141219.605000", "141220.065000", "141220.525000", "141220.985000", "141221.445000", "141221.905000", "141222.365000", "141222.825000", "141223.285000", "141223.745000", "141224.205000", "141224.665000", "141225.125000", "141225.585000", "141226.045000", "141226.505000", "141226.965000", "141227.425000", "141227.885000", "141228.345000", "141228.805000", "141229.265000", "141229.725000", "141230.185000", "141230.645000", "141231.105000", "141231.565000", "141232.025000", "141232.485000", "141232.945000", "141233.405000", "141233.865000", "141234.325000", "141234.785000", "141235.245000", "141235.705000", "141236.165000", "141236.625000", "141237.085000", "141237.545000", "141238.005000", "141238.465000", "141238.925000", "141239.385000", "141239.845000", "141240.305000", "141240.765000", "141241.225000", "141241.685000", "141242.145000", "141242.605000", "141243.065000", "141243.525000", "141243.985000", "141244.445000", "141244.905000", "141245.365000", "141245.825000", "141246.285000", "141246.745000", "141247.205000", "141247.665000", "141248.125000", "141248.585000", "141249.045000", "141249.505000", "141249.965000", "141250.425000", "141250.885000", "141251.345000", "141251.805000", "141252.265000", "141252.725000", "141253.185000", "141253.645000", "141254.105000", "141254.565000", "141255.025000", "141255.485000", "141255.945000", "141256.405000", "141256.865000", "141257.325000", "141257.785000", "141258.245000", "141258.705000", "141259.165000", "141259.625000", "141300.085000", "141300.545000", "141301.005000", "141301.465000", "141301.925000", "141302.385000", "141302.845000", "141303.305000", "141303.765000", "141304.225000", "141304.685000", "141305.145000", "141305.605000", "141306.065000", "141306.525000", "141306.985000", "141307.445000", "141307.905000", "141308.365000", "141308.825000", "141309.285000", "141309.745000", "141310.205000", "141310.665000", "141311.125000", "141311.585000", "141312.045000", "141312.505000", "141312.965000", "141313.425000", "141313.885000", "141314.345000", "141314.805000", "141315.265000", "141315.725000", "141316.185000", "141316.645000", "141317.105000", "141317.565000", "141318.025000", "141318.485000", "141318.945000", "141319.405000", "141319.865000", "141320.325000", "141320.785000", "141321.245000", "141321.705000", "141322.165000", "141322.625000", "141323.085000", "141323.545000", "141324.005000", "141324.465000", "141324.925000", "141325.385000", "141325.845000", "141326.305000", "141326.765000", "141327.225000", "141327.685000", "141328.145000", "141328.605000", "141329.065000", "141329.525000", "141329.985000", "141330.445000", "141330.905000", "141331.365000", "141331.825000", "141332.285000", "141332.745000", "141333.205000", "141333.665000", "141334.125000", "141334.585000", "141335.045000", "141335.505000", "141335.965000", "141336.425000", "141336.885000", "141337.345000", "141337.805000", "141338.265000", "141338.725000", "141339.185000", "141339.645000", "141340.105000", "141340.565000", "141341.025000", "141341.485000", "141341.945000", "141342.405000", "141342.865000", "141343.325000", "141343.785000", "141344.245000", "141344.705000", "141345.165000", "141345.625000", "141346.085000", "141346.545000", "141347.005000", "141347.465000", "141347.925000", "141348.385000", "141348.845000", "141349.305000", "141349.765000", "141350.225000", "141350.685000", "141351.145000", "141351.605000", "141352.065000", "141352.525000", "141352.985000", "141353.445000", "141353.905000", "141354.365000", "141354.825000", "141355.285000", "141355.745000", "141356.205000", "141356.665000", "141357.125000", "141357.585000", "141358.045000", "141358.505000", "141358.965000", "141359.425000", "141359.885000", "141400.345000", "141400.805000", "141401.265000", "141401.725000", "141402.185000", "141402.645000", "141403.105000", "141403.565000", "141404.025000", "141404.485000", "141404.945000", "141405.405000", "141405.865000", "141406.325000", "141406.785000", "141407.245000", "141407.705000", "141408.165000", "141408.625000", "141409.085000", "141409.545000", "141410.005000", "141410.465000", "141410.925000", "141411.385000", "141411.845000", "141412.305000", "141412.765000", "141413.225000", "141413.685000", "141414.145000", "141414.605000", "141415.065000", "141415.525000", "141415.985000", "141416.445000", "141416.905000", "141417.365000", "141417.825000", "141418.285000", "141418.745000", "141419.205000", "141419.665000", "141420.125000", "141420.585000", "141421.045000", "141421.505000", "141421.965000", "141422.425000", "141422.885000", "141423.345000", "141423.805000", "141424.265000", "141424.725000", "141425.185000", "141425.645000", "141426.105000", "141426.565000", "141427.025000", "141427.485000", "141427.945000", "141428.405000", "141428.865000", "141429.325000", "141429.785000", "141430.245000", "141430.705000", "141431.165000", "141431.625000", "141432.085000", "141432.545000", "141433.005000", "141433.465000", "141433.925000", "141434.385000", "141434.845000", "141435.305000", "141435.765000", "141436.225000", "141436.685000", "141437.145000", "141437.605000", "141438.065000", "141438.525000", "141438.985000", "141439.445000", "141439.905000", "141440.365000", "141440.825000", "141441.285000", "141441.745000", "141442.205000", "141442.665000", "141443.125000", "141443.585000", "141444.045000", "141444.505000", "141444.965000", "141445.425000", "141445.885000", "141446.345000", "141446.805000", "141447.265000", "141447.725000", "141448.185000", "141448.645000", "141449.105000", "141449.565000", "141450.025000", "141450.485000", "141450.945000", "141451.405000", "141451.865000", "141452.325000", "141452.785000", "141453.245000", "141453.705000", "141454.165000", "141454.625000", "141455.085000", "141455.545000", "141456.005000", "141456.465000", "141456.925000", "141457.385000", "141457.845000", "141458.305000", "141458.765000", "141459.225000", "141459.685000", "141500.145000", "141500.605000", "141501.065000", "141501.525000", "141501.985000", "141502.445000", "141502.905000", "141503.365000", "141503.825000", "141504.285000", "141504.745000", "141505.205000", "141505.665000", "141506.125000", "141506.585000", "141507.045000", "141507.505000", "141507.965000", "141508.425000", "141508.885000", "141509.345000", "141509.805000", "141510.265000", "141510.725000", "141511.185000", "141511.645000", "141512.105000", "141512.565000", "141513.025000", "141513.485000", "141513.945000", "141514.405000", "141514.865000", "141515.325000", "141515.785000", "141516.245000", "141516.705000", "141517.165000", "141517.625000", "141518.085000", "141518.545000", "141519.005000", "141519.465000", "141519.925000", "141520.385000", "141520.845000", "141521.305000", "141521.765000", "141522.225000", "141522.685000", "141523.145000", "141523.605000", "141524.065000", "141524.525000", "141524.985000", "141525.445000", "141525.905000", "141526.365000", "141526.825000", "141527.285000", "141527.745000", "141528.205000", "141528.665000", "141529.125000", "141529.585000", "141530.045000", "141530.505000", "141530.965000", "141531.425000", "141531.885000", "141532.345000", "141532.805000", "141533.265000", "141533.725000", "141534.185000", "141534.645000", "141535.105000", "141535.565000", "141536.025000", "141536.485000", "141536.945000", "141537.405000", "141537.865000", "141538.325000", "141538.785000", "141539.245000", "141539.705000", "141540.165000", "141540.625000", "141541.085000", "141541.545000", "141542.005000", "141542.465000", "141542.925000", "141543.385000", "141543.845000", "141544.305000", "141544.765000", "141545.225000", "141545.685000", "141546.145000", "141546.605000", "141547.065000", "141547.525000", "141547.985000", "141548.445000", "141548.905000", "141549.365000", "141549.825000", "141550.285000", "141550.745000", "141551.205000", "141551.665000", "141552.125000", "141552.585000", "141553.045000", "141553.505000", "141553.965000", "141554.425000", "141554.885000", "141555.345000", "141555.805000", "141556.265000", "141556.725000", "141557.185000", "141557.645000", "141558.105000", "141558.565000", "141559.025000", "141559.485000", "141559.945000", "141600.405000", "141600.865000", "141601.325000", "141601.785000", "141602.245000", "141602.705000", "141603.165000", "141603.625000", "141604.085000", "141604.545000", "141605.005000", "141605.465000", "141605.925000", "141606.385000", "141606.845000", "141607.305000", "141607.765000", "141608.225000", "141608.685000", "141609.145000", "141609.605000", "141610.065000", "141610.525000", "141610.985000", "141611.445000", "141611.905000", "141612.365000", "141612.825000", "141613.285000", "141613.745000", "141614.205000", "141614.665000", "141615.125000", "141615.585000", "141616.045000", "141616.505000", "141616.965000", "141617.425000", "141617.885000", "141618.345000", "141618.805000", "141619.265000", "141619.725000", "141620.185000", "141620.645000", "141621.105000", "141621.565000", "141622.025000", "141622.485000", "141622.945000", "141623.405000", "141623.865000", "141624.325000", "141624.785000", "141625.245000", "141625.705000", "141626.165000", "141626.625000", "141627.085000", "141627.545000", "141628.005000", "141628.465000", "141628.925000", "141629.385000", "141629.845000", "141630.305000", "141630.765000", "141631.225000", "141631.685000", "141632.145000", "141632.605000", "141633.065000", "141633.525000", "141633.985000", "141634.445000", "141634.905000", "141635.365000", "141635.825000", "141636.285000", "141636.745000", "141637.205000", "141637.665000", "141638.125000", "141638.585000", "141639.045000", "141639.505000", "141639.965000", "141640.425000", "141640.885000", "141641.345000", "141641.805000", "141642.265000", "141642.725000", "141643.185000", "141643.645000", "141644.105000", "141644.565000", "141645.025000", "141645.485000", "141645.945000", "141646.405000", "141646.865000", "141647.325000", "141647.785000", "141648.245000", "141648.705000", "141649.165000", "141649.625000", "141650.085000", "141650.545000", "141651.005000", "141651.465000", "141651.925000", "141652.385000", "141652.845000", "141653.305000", "141653.765000", "141654.225000", "141654.685000", "141655.145000", "141655.605000", "141656.065000", "141656.525000", "141656.985000", "141657.445000", "141657.905000", "141658.365000", "141658.825000", "141659.285000", "141659.745000", "141700.205000", "141700.665000", "141701.125000", "141701.585000", "141702.045000", "141702.505000", "141702.965000", "141703.425000", "141703.885000", "141704.345000", "141704.805000", "141705.265000", "141705.725000", "141706.185000", "141706.645000", "141707.105000", "141707.565000", "141708.025000", "141708.485000", "141708.945000", "141709.405000", "141709.865000", "141710.325000", "141710.785000", "141711.245000", "141711.705000", "141712.165000", "141712.625000", "141713.085000", "141713.545000", "141714.005000", "141714.465000", "141714.925000", "141715.385000", "141715.845000", "141716.305000", "141716.765000", "141717.225000", "141717.685000", "141718.145000", "141718.605000", "141719.065000", "141719.525000", "141719.985000", "141720.445000", "141720.905000", "141721.365000", "141721.825000", "141722.285000", "141722.745000", "141723.205000", "141723.665000", "141724.125000", "141724.585000", "141725.045000", "141725.505000", "141725.965000", "141726.425000", "141726.885000", "141727.345000", "141727.805000", "141728.265000", "141728.725000", "141729.185000", "141729.645000", "141730.105000", "141730.565000", "141731.025000", "141731.485000", "141731.945000", "141732.405000", "141732.865000", "141733.325000", "141733.785000", "141734.245000", "141734.705000", "141735.165000", "141735.625000", "141736.085000", "141736.545000", "141737.005000", "141737.465000", "141737.925000", "141738.385000", "141738.845000", "141739.305000", "141739.765000", "141740.225000", "141740.685000", "141741.145000", "141741.605000", "141742.065000", "141742.525000", "141742.985000", "141743.445000", "141743.905000", "141744.365000", "141744.825000", "141745.285000", "141745.745000", "141746.205000", "141746.665000", "141747.125000", "141747.585000", "141748.045000", "141748.505000", "141748.965000", "141749.425000", "141749.885000", "141750.345000", "141750.805000", "141751.265000", "141751.725000", "141752.185000", "141752.645000", "141753.105000", "141753.565000", "141754.025000", "141754.485000", "141754.945000", "141755.405000", "141755.865000", "141756.325000", "141756.785000", "141757.245000", "141757.705000", "141758.165000", "141758.625000", "141759.085000", "141759.545000", "141800.005000", "141800.465000", "141800.925000", "141801.385000", "141801.845000", "141802.305000", "141802.765000", "141803.225000", "141803.685000", "141804.145000", "141804.605000", "141805.065000", "141805.525000", "141805.985000", "141806.445000", "141806.905000", "141807.365000", "141807.825000", "141808.285000", "141808.745000", "141809.205000", "141809.665000", "141810.125000", "141810.585000", "141811.045000", "141811.505000", "141811.965000", "141812.425000", "141812.885000", "141813.345000", "141813.805000", "141814.265000", "141814.725000", "141815.185000", "141815.645000", "141816.105000", "141816.565000", "141817.025000", "141817.485000", "141817.945000", "141818.405000", "141818.865000", "141819.325000", "141819.785000", "141820.245000", "141820.705000", "141821.165000", "141821.625000", "141822.085000", "141822.545000", "141823.005000", "141823.465000", "141823.925000", "141824.385000", "141824.845000", "141825.305000", "141825.765000", "141826.225000", "141826.685000", "141827.145000", "141827.605000", "141828.065000", "141828.525000", "141828.985000", "141829.445000", "141829.905000", "141830.365000", "141830.825000", "141831.285000", "141831.745000", "141832.205000", "141832.665000", "141833.125000", "141833.585000", "141834.045000", "141834.505000", "141834.965000", "141835.425000", "141835.885000", "141836.345000", "141836.805000", "141837.265000", "141837.725000", "141838.185000", "141838.645000", "141839.105000", "141839.565000", "141840.025000", "141840.485000", "141840.945000", "141841.405000", "141841.865000", "141842.325000", "141842.785000", "141843.245000", "141843.705000", "141844.165000", "141844.625000"],
