{
  "AcquisitionMatrixPE": 140,
  "AcquisitionNumber": 1,
  "AcquisitionTime": "21:08:57.090000",
  "BandwidthPerPixelPhaseEncode": 10.352,
  "BaseResolution": 140,
  "BodyPartExamined": "BRAIN",
  "ConsistencyInfo": "N4_VE11E_LATEST_20181129",
  "ConversionSoftware": "dcm2niix",
  "ConversionSoftwareVersion": "v1.0.20201102",
  "DerivedVendorReportedEchoSpacing": 0.000689998,
  "DeviceSerialNumber": "66112",
  "DiffusionScheme": "Monopolar",
  "DwellTime": 2.1e-06,
  "EchoTime": 0.0884,
  "EchoTrainLength": 105,
  "EffectiveEchoSpacing": 0.000689998,
  "FlipAngle": 90,
  "ImageComments": "Unaliased MB3/PE3 SENSE1",
  "ImageOrientationPatientDICOM": [0.995101, -0.0442485, 0.0884109, 0.0457093, 0.998849, -0.0145664],
  "ImageType": [
    "ORIGINAL",
    "PRIMARY",
    "DIFFUSION",
    "NONE",
    "MB",
    "ND",
    "MOSAIC"
],
  "ImagingFrequency": 123.259,
  "InPlanePhaseEncodingDirectionDICOM": "COL",
  "InstitutionAddress": "Maynard 3,Hanover,NH,US,03755",
  "InstitutionName": "Dartmouth College - PBS",
  "InstitutionalDepartmentName": "Department",
  "MRAcquisitionType": "2D",
  "MagneticFieldStrength": 3,
  "Manufacturer": "Siemens",
  "ManufacturersModelName": "Prisma",
  "Modality": "MR",
  "MultibandAccelerationFactor": 3,
  "PartialFourier": 0.75,
  "PatientPosition": "HFS",
  "PercentPhaseFOV": 100,
  "PercentSampling": 100,
  "PhaseEncodingDirection": "j-",
  "PhaseEncodingSteps": 105,
  "PhaseResolution": 1,
  "PixelBandwidth": 1700,
  "ProcedureStepDescription": "Wager_Wager^1076_spacetop",
  "ProtocolName": "dwi_acq-96dir-6b0-mb",
  "PulseSequenceDetails": "%CustomerSeq%\\cmrr_mbep2d_diff",
  "ReceiveCoilActiveElements": "HEA;HEP",
  "ReceiveCoilName": "Head_32",
  "ReconMatrixPE": 140,
  "RepetitionTime": 4.11,
  "SAR": 0.214558,
  "ScanOptions": "PFP\\FS",
  "ScanningSequence": "EP",
  "SequenceName": "ep_b5#1",
  "SequenceVariant": "SK\\SS",
  "SeriesDescription": "dwi_acq-96dir-6b0-mb",
  "SeriesNumber": 8,
  "ShimSetting": [4255, -7730, -7315, 294, -187, -105, -59, 73],
  "SliceThickness": 1.7,
  "SliceTiming": [0, 2.12, 0.1525, 2.2725, 0.3025, 2.4225, 0.455, 2.575, 0.605, 2.7275, 0.7575, 2.8775, 0.9075, 3.03, 1.06, 3.18, 1.2125, 3.3325, 1.3625, 3.485, 1.515, 3.635, 1.665, 3.7875, 1.8175, 3.9375, 1.97, 0, 2.12, 0.1525, 2.2725, 0.3025, 2.4225, 0.455, 2.575, 0.605, 2.7275, 0.7575, 2.8775, 0.9075, 3.03, 1.06, 3.18, 1.2125, 3.3325, 1.3625, 3.485, 1.515, 3.635, 1.665, 3.7875, 1.8175, 3.9375, 1.97, 0, 2.12, 0.1525, 2.2725, 0.3025, 2.4225, 0.455, 2.575, 0.605, 2.7275, 0.7575, 2.8775, 0.9075, 3.03, 1.06, 3.18, 1.2125, 3.3325, 1.3625, 3.485, 1.515, 3.635, 1.665, 3.7875, 1.8175, 3.9375, 1.97],
  "SoftwareVersions": "syngo MR E11",
  "SpacingBetweenSlices": 1.7,
  "StationName": "AWP66112",
  "TotalReadoutTime": 0.0959097,
  "TxRefAmp": 240.42,
  "WipMemBlock": "72419f7d-d5df-4607-91c7-576a8baf35e5||Sequence: R016 ve11e/master r/434b28f1; Aug  7 2019 19:06:17 by eja",
  "dcmmeta_affine": [
    [-1.7058870792388916, 0.07835888117551804, 0.1490297168493271, 104.82026672363281],
    [0.07585461437702179, 1.712311863899231, -0.03151168301701546, -107.72666931152344],
    [0.15156149864196777, 0.024971047416329384, 1.693161964416504, -136.02987670898438],
    [0.0, 0.0, 0.0, 1.0]
],
  "dcmmeta_reorient_transform": [
    [0.0, -1.0, 0.0, 139.0],
    [1.0, 0.0, 0.0, 0.0],
    [0.0, 0.0, 1.0, 0.0],
    [0.0, 0.0, 0.0, 1.0]
],
  "dcmmeta_shape": [140, 140, 81, 103],
  "dcmmeta_slice_dim": 2,
  "dcmmeta_version": 0.6,
  "global": {
    "const": {
      "AccessionNumber": "A004819",
      "AcquisitionMatrix": [140, 0, 0, 140],
      "AngioFlag": "N",
      "BitsAllocated": 16,
      "BitsStored": 16,
      "BodyPartExamined": "BRAIN",
      "Columns": 1260,
      "EchoNumbers": 1,
      "EchoTime": 88.4,
      "EchoTrainLength": 105,
      "FlipAngle": 90.0,
      "HighBit": 15,
      "ImageOrientationPatient": [0.99510079146924, -0.0442485242155, 0.08841087558691, 0.0457093470068, 0.99884857426377, -0.0145664438849],
      "ImagePositionPatient": [-1114.889896405, -1046.7007331705, -203.44955783123],
      "ImageType": [
        "ORIGINAL",
        "PRIMARY",
        "DIFFUSION",
        "NONE",
        "MB",
        "ND",
        "MOSAIC"
],
      "ImagedNucleus": "1H",
      "ImagingFrequency": 123.259118,
      "InPlanePhaseEncodingDirection": "COL",
      "MRAcquisitionType": "2D",
      "MagneticFieldStrength": 3.0,
      "Manufacturer": "SIEMENS",
      "ManufacturerModelName": "Prisma",
      "Modality": "MR",
      "NumberOfAverages": 1.0,
      "NumberOfPhaseEncodingSteps": 105,
      "PercentPhaseFieldOfView": 100.0,
      "PercentSampling": 100.0,
      "PerformedProcedureStepStartTime": "204905.529000",
      "PhotometricInterpretation": "MONOCHROME2",
      "PixelBandwidth": 1700.0,
      "PixelRepresentation": 0,
      "PixelSpacing": [1.7142857313156, 1.7142857313156],
      "ProtocolName": "dwi_acq-96dir-6b0-mb",
      "RepetitionTime": 4110.0,
      "Rows": 1260,
      "SAR": 0.21455776104574,
      "SamplesPerPixel": 1,
      "ScanOptions": [
        "PFP",
        "FS"
],
      "ScanningSequence": "EP",
      "SequenceVariant": [
        "SK",
        "SS"
],
      "SeriesDescription": "dwi_acq-96dir-6b0-mb",
      "SeriesNumber": 8,
      "SeriesTime": "211022.625000",
      "SliceLocation": -124.29683654878,
      "SliceThickness": 1.7000000476837,
      "SmallestImagePixelValue": 0,
      "SoftwareVersions": "syngo MR E11",
      "SpacingBetweenSlices": 1.7000000342967,
      "SpecificCharacterSet": "ISO_IR 100",
      "StudyID": "1",
      "StudyTime": "204905.478000",
      "TransmitCoilName": "Body",
      "VariableFlipAngleFlag": "N",
      "WindowCenterWidthExplanation": "Algo1"
    },
    "slices": {}
  },
  "time": {
    "samples": {
      "AcquisitionNumber": [1, 2, 3, 4, 5, 6, 7, 8, 9, 10, 11, 12, 13, 14, 15, 16, 17, 18, 19, 20, 21, 22, 23, 24, 25, 26, 27, 28, 29, 30, 31, 32, 33, 34, 35, 36, 37, 38, 39, 40, 41, 42, 43, 44, 45, 46, 47, 48, 49, 50, 51, 52, 53, 54, 55, 56, 57, 58, 59, 60, 61, 62, 63, 64, 65, 66, 67, 68, 69, 70, 71, 72, 73, 74, 75, 76, 77, 78, 79, 80, 81, 82, 83, 84, 85, 86, 87, 88, 89, 90, 91, 92, 93, 94, 95, 96, 97, 98, 99, 100, 101, 102, 103],
      "AcquisitionTime": ["210857.090000", "210901.200000", "210905.310000", "210909.420000", "210913.530000", "210917.640000", "210921.750000", "210925.860000", "210929.970000", "210934.080000", "210938.190000", "210942.300000", "210946.410000", "210950.520000", "210954.630000", "210958.740000", "211002.850000", "211006.960000", "211011.070000", "211015.180000", "211019.290000", "211023.400000", "211027.510000", "211031.620000", "211035.730000", "211039.840000", "211043.950000", "211048.060000", "211052.170000", "211056.280000", "211100.390000", "211104.500000", "211108.610000", "211112.720000", "211116.830000", "211120.940000", "211125.050000", "211129.160000", "211133.270000", "211137.380000", "211141.490000", "211145.600000", "211149.710000", "211153.820000", "211157.930000", "211202.040000", "211206.150000", "211210.260000", "211214.370000", "211218.480000", "211222.590000", "211226.700000", "211230.810000", "211234.920000", "211239.030000", "211243.140000", "211247.250000", "211251.360000", "211255.470000", "211259.580000", "211303.690000", "211307.800000", "211311.910000", "211316.020000", "211320.130000", "211324.240000", "211328.350000", "211332.460000", "211336.570000", "211340.680000", "211344.790000", "211348.900000", "211353.010000", "211357.120000", "211401.230000", "211405.340000", "211409.450000", "211413.560000", "211417.670000", "211421.780000", "211425.890000", "211430.000000", "211434.110000", "211438.220000", "211442.330000", "211446.440000", "211450.550000", "211454.660000", "211458.770000", "211502.880000", "211506.990000", "211511.100000", "211515.210000", "211519.320000", "211523.430000", "211527.540000", "211531.650000", "211535.760000", "211539.870000", "211543.980000", "211548.090000", "211552.200000", "211556.310000"],
      "ContentTime": ["211022.629000", "211022.633000", "211022.636000", "211022.639000", "211022.642000", "211022.649000", "211022.657000", "211022.660000", "211022.663000", "211022.666000", "211022.669000", "211022.672000", "211022.675000", "211022.678000", "211022.681000", "211022.683000", "211022.686000", "211022.690000", "211022.693000", "211022.696000", "211142.624000", "211142.627000", "211142.630000", "211142.633000", "211142.636000", "211142.639000", "211142.648000", "211142.651000", "211142.654000", "211142.657000", "211142.660000", "211142.663000", "211142.666000", "211142.669000", "211142.672000", "211142.675000", "211142.678000", "211142.681000", "211142.684000", "211142.687000", "211302.624000", "211302.627000", "211302.630000", "211302.633000", "211302.636000", "211302.649000", "211302.652000", "211302.656000", "211302.659000", "211302.662000", "211302.665000", "211302.668000", "211302.671000", "211302.674000", "211302.677000", "211302.680000", "211302.683000", "211302.686000", "211302.689000", "211422.624000", "211422.627000", "211422.630000", "211422.633000", "211422.636000", "211422.639000", "211422.642000", "211422.645000", "211422.648000", "211422.651000", "211422.654000", "211422.657000", "211422.660000", "211422.663000", "211422.666000", "211422.669000", "211422.672000", "211422.675000", "211422.678000", "211422.681000", "211601.085000", "211601.088000", "211601.092000", "211601.095000", "211601.098000", "211601.102000", "211601.105000", "211601.108000", "211601.111000", "211601.114000", "211601.117000", "211601.120000", "211601.123000", "211601.126000", "211601.129000", "211601.157000", "211601.160000", "211601.163000", "211601.166000", "211601.169000", "211601.172000", "211601.175000", "211601.178000", "211601.181000"],
      "InstanceCreationTime": ["211022.629000", "211022.633000", "211022.636000", "211022.639000", "211022.642000", "211022.649000", "211022.657000", "211022.660000", "211022.663000", "211022.666000", "211022.669000", "211022.672000", "211022.675000", "211022.678000", "211022.681000", "211022.683000", "211022.686000", "211022.690000", "211022.693000", "211022.696000", "211142.624000", "211142.627000", "211142.630000", "211142.633000", "211142.636000", "211142.639000", "211142.648000", "211142.651000", "211142.654000", "211142.657000", "211142.660000", "211142.663000", "211142.666000", "211142.669000", "211142.672000", "211142.675000", "211142.678000", "211142.681000", "211142.684000", "211142.687000", "211302.624000", "211302.627000", "211302.630000", "211302.633000", "211302.636000", "211302.649000", "211302.652000", "211302.656000", "211302.659000", "211302.662000", "211302.665000", "211302.668000", "211302.671000", "211302.674000", "211302.677000", "211302.680000", "211302.683000", "211302.686000", "211302.689000", "211422.624000", "211422.627000", "211422.630000", "211422.633000", "211422.636000", "211422.639000", "211422.642000", "211422.645000", "211422.648000", "211422.651000", "211422.654000", "211422.657000", "211422.660000", "211422.663000", "211422.666000", "211422.669000", "211422.672000", "211422.675000", "211422.678000", "211422.681000", "211601.085000", "211601.088000", "211601.092000", "211601.095000", "211601.098000", "211601.102000", "211601.105000", "211601.108000", "211601.111000", "211601.114000", "211601.117000", "211601.120000", "211601.123000", "211601.126000", "211601.129000", "211601.157000", "211601.160000", "211601.163000", "211601.166000", "211601.169000", "211601.172000", "211601.175000", "211601.178000", "211601.181000"],
      "InstanceNumber": [1, 2, 3, 4, 5, 6, 7, 8, 9, 10, 11, 12, 13, 14, 15, 16, 17, 18, 19, 20, 21, 22, 23, 24, 25, 26, 27, 28, 29, 30, 31, 32, 33, 34, 35, 36, 37, 38, 39, 40, 41, 42, 43, 44, 45, 46, 47, 48, 49, 50, 51, 52, 53, 54, 55, 56, 57, 58, 59, 60, 61, 62, 63, 64, 65, 66, 67, 68, 69, 70, 71, 72, 73, 74, 75, 76, 77, 78, 79, 80, 81, 82, 83, 84, 85, 86, 87, 88, 89, 90, 91, 92, 93, 94, 95, 96, 97, 98, 99, 100, 101, 102, 103],
      "LargestImagePixelValue": [65535, 65535, 44812, 47608, 49050, 43599, 48635, 47779, 65535, 29706, 33163, 35000, 29664, 35339, 29416, 30266, 34046, 35682, 33315, 33571, 33583, 30950, 35201, 32853, 65535, 16373, 19052, 15716, 18702, 14901, 17850, 17054, 19869, 16883, 18050, 18665, 15080, 19373, 15050, 17057, 65535, 9396, 11835, 11082, 9690, 9993, 10773, 8996, 9691, 8201, 9874, 10467, 10001, 9993, 10691, 8336, 10158, 11507, 10870, 10712, 10212, 12009, 9925, 10181, 10685, 9813, 10408, 9496, 10206, 9464, 9178, 10199, 10228, 65535, 10431, 11342, 8969, 9128, 9757, 11881, 8199, 10645, 8889, 8624, 9769, 8766, 11224, 8458, 8738, 9286, 8693, 9792, 11314, 8561, 11750, 10988, 10623, 10659, 10861, 8293, 10915, 10125, 65535],
      "SequenceName": [
 "ep_b5#1",
 "ep_b5#1",
 "ep_b500#2",
 "ep_b495#3",
 "ep_b500#4",
 "ep_b505#5",
 "ep_b495#6",
 "ep_b500#7",
 "ep_b5#8",
 "ep_b1000#9",
 "ep_b1005#10",
 "ep_b995#11",
 "ep_b1005#12",
 "ep_b995#13",
 "ep_b995#14",
 "ep_b1005#15",
 "ep_b1000#16",
 "ep_b1005#17",
 "ep_b1000#18",
 "ep_b1000#19",
 "ep_b995#20",
 "ep_b1000#21",
 "ep_b1005#22",
 "ep_b1005#23",
 "ep_b5#24",
 "ep_b2000#25",
 "ep_b1995#26",
 "ep_b1990#27",
 "ep_b2000#28",
 "ep_b2005#29",
 "ep_b2010#30",
 "ep_b2000#31",
 "ep_b2010#32",
 "ep_b1995#33",
 "ep_b1995#34",
 "ep_b1995#35",
 "ep_b2005#36",
 "ep_b2000#37",
 "ep_b2005#38",
 "ep_b1995#39",
 "ep_b5#40",
 "ep_b3000#41",
 "ep_b3005#42",
 "ep_b3010#43",
 "ep_b3010#44",
 "ep_b3000#45",
 "ep_b3000#46",
 "ep_b2990#47",
 "ep_b3005#48",
 "ep_b3005#49",
 "ep_b2990#50",
 "ep_b2990#51",
 "ep_b2995#52",
 "ep_b2995#53",
 "ep_b3005#54",
 "ep_b3000#55",
 "ep_b2995#56",
 "ep_b2995#57",
 "ep_b2990#58",
 "ep_b2990#59",
 "ep_b3000#60",
 "ep_b2990#61",
 "ep_b2990#62",
 "ep_b3000#63",
 "ep_b3000#64",
 "ep_b3010#65",
 "ep_b3000#66",
 "ep_b3005#67",
 "ep_b3010#68",
 "ep_b3005#69",
 "ep_b3005#70",
 "ep_b3005#71",
 "ep_b2990#72",
 "ep_b5#73",
 "ep_b3010#74",
 "ep_b3005#75",
 "ep_b3005#76",
 "ep_b3000#77",
 "ep_b2990#78",
 "ep_b3005#79",
 "ep_b2995#80",
 "ep_b3010#81",
 "ep_b3005#82",
 "ep_b3005#83",
 "ep_b3000#84",
 "ep_b3000#85",
 "ep_b3010#86",
 "ep_b3010#87",
 "ep_b2990#88",
 "ep_b3010#89",
 "ep_b2990#90",
 "ep_b2995#91",
 "ep_b2990#92",
 "ep_b2995#93",
 "ep_b3005#94",
 "ep_b3005#95",
 "ep_b2995#96",
 "ep_b3000#97",
 "ep_b2990#98",
 "ep_b2995#99",
 "ep_b3000#100",
 "ep_b2995#101",
 "ep_b5#102"
],
      "WindowCenter": [9752.0, 9750.0, 6817.0, 6902.0, 6858.0, 6766.0, 6938.0, 6839.0, 9761.0, 5169.0, 5208.0, 5252.0, 5110.0, 5303.0, 5225.0, 5179.0, 5189.0, 5168.0, 5204.0, 5179.0, 5285.0, 5189.0, 5205.0, 5213.0, 9812.0, 3317.0, 3363.0, 3402.0, 3371.0, 3321.0, 3394.0, 3327.0, 3352.0, 3353.0, 3417.0, 3406.0, 3269.0, 3359.0, 3370.0, 3329.0, 9768.0, 2308.0, 2350.0, 2389.0, 2383.0, 2310.0, 2353.0, 2377.0, 2263.0, 2243.0, 2397.0, 2449.0, 2315.0, 2346.0, 2367.0, 2230.0, 2344.0, 2380.0, 2433.0, 2437.0, 2337.0, 2457.0, 2421.0, 2335.0, 2379.0, 2382.0, 2350.0, 2355.0, 2362.0, 2317.0, 2306.0, 2396.0, 2449.0, 9797.0, 2419.0, 2329.0, 2259.0, 2302.0, 2355.0, 2349.0, 2269.0, 2378.0, 2362.0, 2278.0, 2329.0, 2283.0, 2358.0, 2280.0, 2352.0, 2357.0, 2339.0, 2336.0, 2404.0, 2309.0, 2382.0, 2378.0, 2406.0, 2362.0, 2447.0, 2267.0, 2368.0, 2354.0, 9809.0],
      "WindowWidth": [21645.0, 21632.0, 14450.0, 14612.0, 14513.0, 14352.0, 14687.0, 14481.0, 21670.0, 11160.0, 11212.0, 11301.0, 11047.0, 11410.0, 11269.0, 11168.0, 11175.0, 11137.0, 11212.0, 11155.0, 11365.0, 11194.0, 11199.0, 11214.0, 21926.0, 7555.0, 7632.0, 7725.0, 7640.0, 7570.0, 7689.0, 7567.0, 7609.0, 7621.0, 7739.0, 7717.0, 7469.0, 7616.0, 7655.0, 7575.0, 21732.0, 5612.0, 5627.0, 5733.0, 5732.0, 5592.0, 5652.0, 5745.0, 5480.0, 5494.0, 5759.0, 5852.0, 5611.0, 5677.0, 5702.0, 5467.0, 5668.0, 5694.0, 5821.0, 5835.0, 5640.0, 5861.0, 5808.0, 5636.0, 5725.0, 5733.0, 5663.0, 5684.0, 5684.0, 5615.0, 5603.0, 5764.0, 5857.0, 21868.0, 5789.0, 5601.0, 5492.0, 5587.0, 5680.0, 5628.0, 5537.0, 5711.0, 5715.0, 5542.0, 5637.0, 5568.0, 5660.0, 5548.0, 5696.0, 5682.0, 5677.0, 5630.0, 5760.0, 5615.0, 5707.0, 5719.0, 5777.0, 5679.0, 5847.0, 5527.0, 5707.0, 5686.0, 21900.0]
    },
    "slices": {}
  }
}