{
  "AcquisitionMatrixPE": 82,
  "AcquisitionNumber": 1,
  "AcquisitionTime": "17:03:38.345000",
  "BandwidthPerPixelPhaseEncode": 24.888,
  "BaseResolution": 82,
  "BodyPartExamined": "BRAIN",
  "ConsistencyInfo": "N4_VE11C_LATEST_20160120",
  "ConversionSoftware": "dcm2niix",
  "ConversionSoftwareVersion": "v1.0.20201102",
  "DerivedVendorReportedEchoSpacing": 0.00049,
  "DeviceSerialNumber": "66112",
  "DwellTime": 2e-06,
  "EchoTime": 0.0272,
  "EchoTrainLength": 82,
  "EffectiveEchoSpacing": 0.00049,
  "FlipAngle": 44,
  "ImageComments": "Unaliased MB8/PE3",
  "ImageOrientationPatientDICOM": [0.998711, 0.0496185, -0.0107279, -0.0504178, 0.994153, -0.0954906],
  "ImageType": [
    "ORIGINAL",
    "PRIMARY",
    "FMRI",
    "NONE",
    "MB",
    "ND",
    "NORM",
    "MOSAIC"
],
  "ImagingFrequency": 123.252,
  "InPlanePhaseEncodingDirectionDICOM": "COL",
  "InstitutionAddress": "Maynard 3,Hanover,NH,US,03755",
  "InstitutionName": "Dartmouth College - PBS",
  "InstitutionalDepartmentName": "Department",
  "MRAcquisitionType": "2D",
  "MagneticFieldStrength": 3,
  "Manufacturer": "Siemens",
  "ManufacturersModelName": "Prisma",
  "Modality": "MR",
  "MultibandAccelerationFactor": 8,
  "PartialFourier": 1,
  "PatientPosition": "HFS",
  "PercentPhaseFOV": 100,
  "PercentSampling": 100,
  "PhaseEncodingDirection": "j-",
  "PhaseEncodingSteps": 82,
  "PhaseResolution": 1,
  "PixelBandwidth": 3050,
  "ProcedureStepDescription": "Wager_Wager^1076_spacetop",
  "ProtocolName": "func_run-03_task-alignvideo_acq-ap-mb8",
  "PulseSequenceDetails": "%CustomerSeq%\\cmrr_mbep2d_bold",
  "ReceiveCoilActiveElements": "HEA;HEP",
  "ReceiveCoilName": "Head_32",
  "ReconMatrixPE": 82,
  "RepetitionTime": 0.46,
  "SAR": 0.108815,
  "ScanOptions": "FS",
  "ScanningSequence": "EP",
  "SequenceName": "epfid2d1_82",
  "SequenceVariant": "SK\\SS",
  "SeriesDescription": "func_run-03_task-alignvideo_acq-ap-mb8",
  "SeriesNumber": 66,
  "ShimSetting": [4145, -7725, -7222, 510, -33, -29, -149, 57],
  "SliceThickness": 2.7,
  "SliceTiming": [0, 0.25, 0.0625, 0.3125, 0.125, 0.3775, 0.1875, 0, 0.25, 0.0625, 0.3125, 0.125, 0.3775, 0.1875, 0, 0.25, 0.0625, 0.3125, 0.125, 0.3775, 0.1875, 0, 0.25, 0.0625, 0.3125, 0.125, 0.3775, 0.1875, 0, 0.25, 0.0625, 0.3125, 0.125, 0.3775, 0.1875, 0, 0.25, 0.0625, 0.3125, 0.125, 0.3775, 0.1875, 0, 0.25, 0.0625, 0.3125, 0.125, 0.3775, 0.1875, 0, 0.25, 0.0625, 0.3125, 0.125, 0.3775, 0.1875],
  "SoftwareVersions": "syngo MR E11",
  "SpacingBetweenSlices": 2.7,
  "StationName": "AWP66112",
  "TaskName": "alignvideo",
  "TotalReadoutTime": 0.03969,
  "TxRefAmp": 252.242,
  "WipMemBlock": "d2686441-e030-4a3f-83d5-be53979dc279||Sequence: R016 ve11c/master r/e634e98; Dec 19 2017 11:00:25 by eja",
  "dcmmeta_affine": [
    [-2.6794676780700684, -0.1352672576904297, -0.016002951189875603, 118.39840698242188],
    [-0.13312283158302307, 2.66723895072937, -0.25895264744758606, -90.2393569946289],
    [-0.028782039880752563, 0.2561943829059601, 2.6875057220458984, -54.835044860839844],
    [0.0, 0.0, 0.0, 1.0]
],
  "dcmmeta_reorient_transform": [
    [0.0, -1.0, 0.0, 81.0],
    [1.0, 0.0, 0.0, 0.0],
    [0.0, 0.0, 1.0, 0.0],
    [0.0, 0.0, 0.0, 1.0]
],
  "dcmmeta_shape": [82, 82, 56, 1016],
  "dcmmeta_slice_dim": 2,
  "dcmmeta_version": 0.6,
  "global": {
    "const": {
      "AccessionNumber": "A003587",
      "AcquisitionMatrix": [82, 0, 0, 82],
      "AngioFlag": "N",
      "BitsAllocated": 16,
      "BitsStored": 12,
      "BodyPartExamined": "BRAIN",
      "Columns": 656,
      "EchoNumbers": 1,
      "EchoTime": 27.2,
      "EchoTrainLength": 82,
      "FlipAngle": 44.0,
      "HighBit": 11,
      "ImageOrientationPatient": [0.99871062705141, 0.04961851094159, -0.0107278509741, -0.0504177931054, 0.99415269696961, -0.0954906343389],
      "ImagePositionPatient": [-837.62725945712, -929.51085233388, 47.704935319649],
      "ImageType": [
        "ORIGINAL",
        "PRIMARY",
        "FMRI",
        "NONE",
        "MB",
        "ND",
        "NORM",
        "MOSAIC"
],
      "ImagedNucleus": "1H",
      "ImagingFrequency": 123.252174,
      "InPlanePhaseEncodingDirection": "COL",
      "MRAcquisitionType": "2D",
      "MagneticFieldStrength": 3.0,
      "Manufacturer": "SIEMENS",
      "ManufacturerModelName": "Prisma",
      "Modality": "MR",
      "NumberOfAverages": 1.0,
      "NumberOfPhaseEncodingSteps": 82,
      "PercentPhaseFieldOfView": 100.0,
      "PercentSampling": 100.0,
      "PerformedProcedureStepStartTime": "153007.324000",
      "PhotometricInterpretation": "MONOCHROME2",
      "PixelBandwidth": 3050.0,
      "PixelRepresentation": 0,
      "PixelSpacing": [2.6829268932343, 2.6829268932343],
      "ProtocolName": "func_run-03_task-alignvideo_acq-ap-mb8",
      "RepetitionTime": 460.0,
      "Rows": 656,
      "SAR": 0.10881538858242,
      "SamplesPerPixel": 1,
      "ScanOptions": "FS",
      "ScanningSequence": "EP",
      "SequenceName": "epfid2d1_82",
      "SequenceVariant": [
        "SK",
        "SS"
],
      "SeriesDescription": "func_run-03_task-alignvideo_acq-ap-mb8",
      "SeriesNumber": 66,
      "SeriesTime": "170342.869000",
      "SliceLocation": -46.628336440778,
      "SliceThickness": 2.7000000476837,
      "SmallestImagePixelValue": 0,
      "SoftwareVersions": "syngo MR E11",
      "SpacingBetweenSlices": 2.7000000239226,
      "SpecificCharacterSet": "ISO_IR 100",
      "StudyID": "2",
      "StudyTime": "153007.224000",
      "TransmitCoilName": "Body",
      "VariableFlipAngleFlag": "N",
      "WindowCenterWidthExplanation": "Algo1",
      "dBdt": 0.0},
    "slices": {}
  },
  "time": {
    "samples": {
      "AcquisitionNumber": [1, 2, 3, 4, 5, 6, 7, 8, 9, 10, 11, 12, 13, 14, 15, 16, 17, 18, 19, 20, 21, 22, 23, 24, 25, 26, 27, 28, 29, 30, 31, 32, 33, 34, 35, 36, 37, 38, 39, 40, 41, 42, 43, 44, 45, 46, 47, 48, 49, 50, 51, 52, 53, 54, 55, 56, 57, 58, 59, 60, 61, 62, 63, 64, 65, 66, 67, 68, 69, 70, 71, 72, 73, 74, 75, 76, 77, 78, 79, 80, 81, 82, 83, 84, 85, 86, 87, 88, 89, 90, 91, 92, 93, 94, 95, 96, 97, 98, 99, 100, 101, 102, 103, 104, 105, 106, 107, 108, 109, 110, 111, 112, 113, 114, 115, 116, 117, 118, 119, 120, 121, 122, 123, 124, 125, 126, 127, 128, 129, 130, 131, 132, 133, 134, 135, 136, 137, 138, 139, 140, 141, 142, 143, 144, 145, 146, 147, 148, 149, 150, 151, 152, 153, 154, 155, 156, 157, 158, 159, 160, 161, 162, 163, 164, 165, 166, 167, 168, 169, 170, 171, 172, 173, 174, 175, 176, 177, 178, 179, 180, 181, 182, 183, 184, 185, 186, 187, 188, 189, 190, 191, 192, 193, 194, 195, 196, 197, 198, 199, 200, 201, 202, 203, 204, 205, 206, 207, 208, 209, 210, 211, 212, 213, 214, 215, 216, 217, 218, 219, 220, 221, 222, 223, 224, 225, 226, 227, 228, 229, 230, 231, 232, 233, 234, 235, 236, 237, 238, 239, 240, 241, 242, 243, 244, 245, 246, 247, 248, 249, 250, 251, 252, 253, 254, 255, 256, 257, 258, 259, 260, 261, 262, 263, 264, 265, 266, 267, 268, 269, 270, 271, 272, 273, 274, 275, 276, 277, 278, 279, 280, 281, 282, 283, 284, 285, 286, 287, 288, 289, 290, 291, 292, 293, 294, 295, 296, 297, 298, 299, 300, 301, 302, 303, 304, 305, 306, 307, 308, 309, 310, 311, 312, 313, 314, 315, 316, 317, 318, 319, 320, 321, 322, 323, 324, 325, 326, 327, 328, 329, 330, 331, 332, 333, 334, 335, 336, 337, 338, 339, 340, 341, 342, 343, 344, 345, 346, 347, 348, 349, 350, 351, 352, 353, 354, 355, 356, 357, 358, 359, 360, 361, 362, 363, 364, 365, 366, 367, 368, 369, 370, 371, 372, 373, 374, 375, 376, 377, 378, 379, 380, 381, 382, 383, 384, 385, 386, 387, 388, 389, 390, 391, 392, 393, 394, 395, 396, 397, 398, 399, 400, 401, 402, 403, 404, 405, 406, 407, 408, 409, 410, 411, 412, 413, 414, 415, 416, 417, 418, 419, 420, 421, 422, 423, 424, 425, 426, 427, 428, 429, 430, 431, 432, 433, 434, 435, 436, 437, 438, 439, 440, 441, 442, 443, 444, 445, 446, 447, 448, 449, 450, 451, 452, 453, 454, 455, 456, 457, 458, 459, 460, 461, 462, 463, 464, 465, 466, 467, 468, 469, 470, 471, 472, 473, 474, 475, 476, 477, 478, 479, 480, 481, 482, 483, 484, 485, 486, 487, 488, 489, 490, 491, 492, 493, 494, 495, 496, 497, 498, 499, 500, 501, 502, 503, 504, 505, 506, 507, 508, 509, 510, 511, 512, 513, 514, 515, 516, 517, 518, 519, 520, 521, 522, 523, 524, 525, 526, 527, 528, 529, 530, 531, 532, 533, 534, 535, 536, 537, 538, 539, 540, 541, 542, 543, 544, 545, 546, 547, 548, 549, 550, 551, 552, 553, 554, 555, 556, 557, 558, 559, 560, 561, 562, 563, 564, 565, 566, 567, 568, 569, 570, 571, 572, 573, 574, 575, 576, 577, 578, 579, 580, 581, 582, 583, 584, 585, 586, 587, 588, 589, 590, 591, 592, 593, 594, 595, 596, 597, 598, 599, 600, 601, 602, 603, 604, 605, 606, 607, 608, 609, 610, 611, 612, 613, 614, 615, 616, 617, 618, 619, 620, 621, 622, 623, 624, 625, 626, 627, 628, 629, 630, 631, 632, 633, 634, 635, 636, 637, 638, 639, 640, 641, 642, 643, 644, 645, 646, 647, 648, 649, 650, 651, 652, 653, 654, 655, 656, 657, 658, 659, 660, 661, 662, 663, 664, 665, 666, 667, 668, 669, 670, 671, 672, 673, 674, 675, 676, 677, 678, 679, 680, 681, 682, 683, 684, 685, 686, 687, 688, 689, 690, 691, 692, 693, 694, 695, 696, 697, 698, 699, 700, 701, 702, 703, 704, 705, 706, 707, 708, 709, 710, 711, 712, 713, 714, 715, 716, 717, 718, 719, 720, 721, 722, 723, 724, 725, 726, 727, 728, 729, 730, 731, 732, 733, 734, 735, 736, 737, 738, 739, 740, 741, 742, 743, 744, 745, 746, 747, 748, 749, 750, 751, 752, 753, 754, 755, 756, 757, 758, 759, 760, 761, 762, 763, 764, 765, 766, 767, 768, 769, 770, 771, 772, 773, 774, 775, 776, 777, 778, 779, 780, 781, 782, 783, 784, 785, 786, 787, 788, 789, 790, 791, 792, 793, 794, 795, 796, 797, 798, 799, 800, 801, 802, 803, 804, 805, 806, 807, 808, 809, 810, 811, 812, 813, 814, 815, 816, 817, 818, 819, 820, 821, 822, 823, 824, 825, 826, 827, 828, 829, 830, 831, 832, 833, 834, 835, 836, 837, 838, 839, 840, 841, 842, 843, 844, 845, 846, 847, 848, 849, 850, 851, 852, 853, 854, 855, 856, 857, 858, 859, 860, 861, 862, 863, 864, 865, 866, 867, 868, 869, 870, 871, 872, 873, 874, 875, 876, 877, 878, 879, 880, 881, 882, 883, 884, 885, 886, 887, 888, 889, 890, 891, 892, 893, 894, 895, 896, 897, 898, 899, 900, 901, 902, 903, 904, 905, 906, 907, 908, 909, 910, 911, 912, 913, 914, 915, 916, 917, 918, 919, 920, 921, 922, 923, 924, 925, 926, 927, 928, 929, 930, 931, 932, 933, 934, 935, 936, 937, 938, 939, 940, 941, 942, 943, 944, 945, 946, 947, 948, 949, 950, 951, 952, 953, 954, 955, 956, 957, 958, 959, 960, 961, 962, 963, 964, 965, 966, 967, 968, 969, 970, 971, 972, 973, 974, 975, 976, 977, 978, 979, 980, 981, 982, 983, 984, 985, 986, 987, 988, 989, 990, 991, 992, 993, 994, 995, 996, 997, 998, 999, 1000, 1001, 1002, 1003, 1004, 1005, 1006, 1007, 1008, 1009, 1010, 1011, 1012, 1013, 1014, 1015, 1016],
      "AcquisitionTime": ["170338.345000", "170338.805000", "170339.265000", "170339.725000", "170340.185000", "170340.645000", "170341.105000", "170341.565000", "170342.025000", "170342.485000", "170342.945000", "170343.405000", "170343.865000", "170344.325000", "170344.785000", "170345.245000", "170345.705000", "170346.165000", "170346.625000", "170347.085000", "170347.545000", "170348.005000", "170348.465000", "170348.925000", "170349.385000", "170349.845000", "170350.305000", "170350.765000", "170351.225000", "170351.685000", "170352.145000", "170352.605000", "170353.065000", "170353.525000", "170353.985000", "170354.445000", "170354.905000", "170355.365000", "170355.825000", "170356.285000", "170356.745000", "170357.205000", "170357.665000", "170358.125000", "170358.585000", "170359.045000", "170359.505000", "170359.965000", "170400.425000", "170400.885000", "170401.345000", "170401.805000", "170402.265000", "170402.725000", "170403.185000", "170403.645000", "170404.105000", "170404.565000", "170405.025000", "170405.485000", "170405.945000", "170406.405000", "170406.865000", "170407.325000", "170407.785000", "170408.245000", "170408.705000", "170409.165000", "170409.625000", "170410.085000", "170410.545000", "170411.005000", "170411.465000", "170411.925000", "170412.385000", "170412.845000", "170413.305000", "170413.765000", "170414.225000", "170414.685000", "170415.145000", "170415.605000", "170416.065000", "170416.525000", "170416.985000", "170417.445000", "170417.905000", "170418.365000", "170418.825000", "170419.285000", "170419.745000", "170420.205000", "170420.665000", "170421.125000", "170421.585000", "170422.045000", "170422.505000", "170422.965000", "170423.425000", "170423.885000", "170424.345000", "170424.805000", "170425.265000", "170425.725000", "170426.185000", "170426.645000", "170427.105000", "170427.565000", "170428.025000", "170428.485000", "170428.945000", "170429.405000", "170429.865000", "170430.325000", "170430.785000", "170431.245000", "170431.705000", "170432.165000", "170432.625000", "170433.085000", "170433.545000", "170434.005000", "170434.465000", "170434.925000", "170435.385000", "170435.845000", "170436.305000", "170436.765000", "170437.225000", "170437.685000", "170438.145000", "170438.605000", "170439.065000", "170439.525000", "170439.985000", "170440.445000", "170440.905000", "170441.365000", "170441.825000", "170442.285000", "170442.745000", "170443.205000", "170443.665000", "170444.125000", "170444.585000", "170445.045000", "170445.505000", "170445.965000", "170446.425000", "170446.885000", "170447.345000", "170447.805000", "170448.265000", "170448.725000", "170449.185000", "170449.645000", "170450.105000", "170450.565000", "170451.025000", "170451.485000", "170451.945000", "170452.405000", "170452.865000", "170453.325000", "170453.785000", "170454.245000", "170454.705000", "170455.165000", "170455.625000", "170456.085000", "170456.545000", "170457.005000", "170457.465000", "170457.925000", "170458.385000", "170458.845000", "170459.305000", "170459.765000", "170500.225000", "170500.685000", "170501.145000", "170501.605000", "170502.065000", "170502.525000", "170502.985000", "170503.445000", "170503.905000", "170504.365000", "170504.825000", "170505.285000", "170505.745000", "170506.205000", "170506.665000", "170507.125000", "170507.585000", "170508.045000", "170508.505000", "170508.965000", "170509.425000", "170509.885000", "170510.345000", "170510.805000", "170511.265000", "170511.725000", "170512.185000", "170512.645000", "170513.105000", "170513.565000", "170514.025000", "170514.485000", "170514.945000", "170515.405000", "170515.865000", "170516.325000", "170516.785000", "170517.245000", "170517.705000", "170518.165000", "170518.625000", "170519.085000", "170519.545000", "170520.005000", "170520.465000", "170520.925000", "170521.385000", "170521.845000", "170522.305000", "170522.765000", "170523.225000", "170523.685000", "170524.145000", "170524.605000", "170525.065000", "170525.525000", "170525.985000", "170526.445000", "170526.905000", "170527.365000", "170527.825000", "170528.285000", "170528.745000", "170529.205000", "170529.665000", "170530.125000", "170530.585000", "170531.045000", "170531.505000", "170531.965000", "170532.425000", "170532.885000", "170533.345000", "170533.805000", "170534.265000", "170534.725000", "170535.185000", "170535.645000", "170536.105000", "170536.565000", "170537.025000", "170537.485000", "170537.945000", "170538.405000", "170538.865000", "170539.325000", "170539.785000", "170540.245000", "170540.705000", "170541.165000", "170541.625000", "170542.085000", "170542.545000", "170543.005000", "170543.465000", "170543.925000", "170544.385000", "170544.845000", "170545.305000", "170545.765000", "170546.225000", "170546.685000", "170547.145000", "170547.605000", "170548.065000", "170548.525000", "170548.985000", "170549.445000", "170549.905000", "170550.365000", "170550.825000", "170551.285000", "170551.745000", "170552.205000", "170552.665000", "170553.125000", "170553.585000", "170554.045000", "170554.505000", "170554.965000", "170555.425000", "170555.885000", "170556.345000", "170556.805000", "170557.265000", "170557.725000", "170558.185000", "170558.645000", "170559.105000", "170559.565000", "170600.025000", "170600.485000", "170600.945000", "170601.405000", "170601.865000", "170602.325000", "170602.785000", "170603.245000", "170603.705000", "170604.165000", "170604.625000", "170605.085000", "170605.545000", "170606.005000", "170606.465000", "170606.925000", "170607.385000", "170607.845000", "170608.305000", "170608.765000", "170609.225000", "170609.685000", "170610.145000", "170610.605000", "170611.065000", "170611.525000", "170611.985000", "170612.445000", "170612.905000", "170613.365000", "170613.825000", "170614.285000", "170614.745000", "170615.205000", "170615.665000", "170616.125000", "170616.585000", "170617.045000", "170617.505000", "170617.965000", "170618.425000", "170618.885000", "170619.345000", "170619.805000", "170620.265000", "170620.725000", "170621.185000", "170621.645000", "170622.105000", "170622.565000", "170623.025000", "170623.485000", "170623.945000", "170624.405000", "170624.865000", "170625.325000", "170625.785000", "170626.245000", "170626.705000", "170627.165000", "170627.625000", "170628.085000", "170628.545000", "170629.005000", "170629.465000", "170629.925000", "170630.385000", "170630.845000", "170631.305000", "170631.765000", "170632.225000", "170632.685000", "170633.145000", "170633.605000", "170634.065000", "170634.525000", "170634.985000", "170635.445000", "170635.905000", "170636.365000", "170636.825000", "170637.285000", "170637.745000", "170638.205000", "170638.665000", "170639.125000", "170639.585000", "170640.045000", "170640.505000", "170640.965000", "170641.425000", "170641.885000", "170642.345000", "170642.805000", "170643.265000", "170643.725000", "170644.185000", "170644.645000", "170645.105000", "170645.565000", "170646.025000", "170646.485000", "170646.945000", "170647.405000", "170647.865000", "170648.325000", "170648.785000", "170649.245000", "170649.705000", "170650.165000", "170650.625000", "170651.085000", "170651.545000", "170652.005000", "170652.465000", "170652.925000", "170653.385000", "170653.845000", "170654.305000", "170654.765000", "170655.225000", "170655.685000", "170656.145000", "170656.605000", "170657.065000", "170657.525000", "170657.985000", "170658.445000", "170658.905000", "170659.365000", "170659.825000", "170700.285000", "170700.745000", "170701.205000", "170701.665000", "170702.125000", "170702.585000", "170703.045000", "170703.505000", "170703.965000", "170704.425000", "170704.885000", "170705.345000", "170705.805000", "170706.265000", "170706.725000", "170707.185000", "170707.645000", "170708.105000", "170708.565000", "170709.025000", "170709.485000", "170709.945000", "170710.405000", "170710.865000", "170711.325000", "170711.785000", "170712.245000", "170712.705000", "170713.165000", "170713.625000", "170714.085000", "170714.545000", "170715.005000", "170715.465000", "170715.925000", "170716.385000", "170716.845000", "170717.305000", "170717.765000", "170718.225000", "170718.685000", "170719.145000", "170719.605000", "170720.065000", "170720.525000", "170720.985000", "170721.445000", "170721.905000", "170722.365000", "170722.825000", "170723.285000", "170723.745000", "170724.205000", "170724.665000", "170725.125000", "170725.585000", "170726.045000", "170726.505000", "170726.965000", "170727.425000", "170727.885000", "170728.345000", "170728.805000", "170729.265000", "170729.725000", "170730.185000", "170730.645000", "170731.105000", "170731.565000", "170732.025000", "170732.485000", "170732.945000", "170733.405000", "170733.865000", "170734.325000", "170734.785000", "170735.245000", "170735.705000", "170736.165000", "170736.625000", "170737.085000", "170737.545000", "170738.005000", "170738.465000", "170738.925000", "170739.385000", "170739.845000", "170740.305000", "170740.765000", "170741.225000", "170741.685000", "170742.145000", "170742.605000", "170743.065000", "170743.525000", "170743.985000", "170744.445000", "170744.905000", "170745.365000", "170745.825000", "170746.285000", "170746.745000", "170747.205000", "170747.665000", "170748.125000", "170748.585000", "170749.045000", "170749.505000", "170749.965000", "170750.425000", "170750.885000", "170751.345000", "170751.805000", "170752.265000", "170752.725000", "170753.185000", "170753.645000", "170754.105000", "170754.565000", "170755.025000", "170755.485000", "170755.945000", "170756.405000", "170756.865000", "170757.325000", "170757.785000", "170758.245000", "170758.705000", "170759.165000", "170759.625000", "170800.085000", "170800.545000", "170801.005000", "170801.465000", "170801.925000", "170802.385000", "170802.845000", "170803.305000", "170803.765000", "170804.225000", "170804.685000", "170805.145000", "170805.605000", "170806.065000", "170806.525000", "170806.985000", "170807.445000", "170807.905000", "170808.365000", "170808.825000", "170809.285000", "170809.745000", "170810.205000", "170810.665000", "170811.125000", "170811.585000", "170812.045000", "170812.505000", "170812.965000", "170813.425000", "170813.885000", "170814.345000", "170814.805000", "170815.265000", "170815.725000", "170816.185000", "170816.645000", "170817.105000", "170817.565000", "170818.025000", "170818.485000", "170818.945000", "170819.405000", "170819.865000", "170820.325000", "170820.785000", "170821.245000", "170821.705000", "170822.165000", "170822.625000", "170823.085000", "170823.545000", "170824.005000", "170824.465000", "170824.925000", "170825.385000", "170825.845000", "170826.305000", "170826.765000", "170827.225000", "170827.685000", "170828.145000", "170828.605000", "170829.065000", "170829.525000", "170829.985000", "170830.445000", "170830.905000", "170831.365000", "170831.825000", "170832.285000", "170832.745000", "170833.205000", "170833.665000", "170834.125000", "170834.585000", "170835.045000", "170835.505000", "170835.965000", "170836.425000", "170836.885000", "170837.345000", "170837.805000", "170838.265000", "170838.725000", "170839.185000", "170839.645000", "170840.105000", "170840.565000", "170841.025000", "170841.485000", "170841.945000", "170842.405000", "170842.865000", "170843.325000", "170843.785000", "170844.245000", "170844.705000", "170845.165000", "170845.625000", "170846.085000", "170846.545000", "170847.005000", "170847.465000", "170847.925000", "170848.385000", "170848.845000", "170849.305000", "170849.765000", "170850.225000", "170850.685000", "170851.145000", "170851.605000", "170852.065000", "170852.525000", "170852.985000", "170853.445000", "170853.905000", "170854.365000", "170854.825000", "170855.285000", "170855.745000", "170856.205000", "170856.665000", "170857.125000", "170857.585000", "170858.045000", "170858.505000", "170858.965000", "170859.425000", "170859.885000", "170900.345000", "170900.805000", "170901.265000", "170901.725000", "170902.185000", "170902.645000", "170903.105000", "170903.565000", "170904.025000", "170904.485000", "170904.945000", "170905.405000", "170905.865000", "170906.325000", "170906.785000", "170907.245000", "170907.705000", "170908.165000", "170908.625000", "170909.085000", "170909.545000", "170910.005000", "170910.465000", "170910.925000", "170911.385000", "170911.845000", "170912.305000", "170912.765000", "170913.225000", "170913.685000", "170914.145000", "170914.605000", "170915.065000", "170915.525000", "170915.985000", "170916.445000", "170916.905000", "170917.365000", "170917.825000", "170918.285000", "170918.745000", "170919.205000", "170919.665000", "170920.125000", "170920.585000", "170921.045000", "170921.505000", "170921.965000", "170922.425000", "170922.885000", "170923.345000", "170923.805000", "170924.265000", "170924.725000", "170925.185000", "170925.645000", "170926.105000", "170926.565000", "170927.025000", "170927.485000", "170927.945000", "170928.405000", "170928.865000", "170929.325000", "170929.785000", "170930.245000", "170930.705000", "170931.165000", "170931.625000", "170932.085000", "170932.545000", "170933.005000", "170933.465000", "170933.925000", "170934.385000", "170934.845000", "170935.305000", "170935.765000", "170936.225000", "170936.685000", "170937.145000", "170937.605000", "170938.065000", "170938.525000", "170938.985000", "170939.445000", "170939.905000", "170940.365000", "170940.825000", "170941.285000", "170941.745000", "170942.205000", "170942.665000", "170943.125000", "170943.585000", "170944.045000", "170944.505000", "170944.965000", "170945.425000", "170945.885000", "170946.345000", "170946.805000", "170947.265000", "170947.725000", "170948.185000", "170948.645000", "170949.105000", "170949.565000", "170950.025000", "170950.485000", "170950.945000", "170951.405000", "170951.865000", "170952.325000", "170952.785000", "170953.245000", "170953.705000", "170954.165000", "170954.625000", "170955.085000", "170955.545000", "170956.005000", "170956.465000", "170956.925000", "170957.385000", "170957.845000", "170958.305000", "170958.765000", "170959.225000", "170959.685000", "171000.145000", "171000.605000", "171001.065000", "171001.525000", "171001.985000", "171002.445000", "171002.905000", "171003.365000", "171003.825000", "171004.285000", "171004.745000", "171005.205000", "171005.665000", "171006.125000", "171006.585000", "171007.045000", "171007.505000", "171007.965000", "171008.425000", "171008.885000", "171009.345000", "171009.805000", "171010.265000", "171010.725000", "171011.185000", "171011.645000", "171012.105000", "171012.565000", "171013.025000", "171013.485000", "171013.945000", "171014.405000", "171014.865000", "171015.325000", "171015.785000", "171016.245000", "171016.705000", "171017.165000", "171017.625000", "171018.085000", "171018.545000", "171019.005000", "171019.465000", "171019.925000", "171020.385000", "171020.845000", "171021.305000", "171021.765000", "171022.225000", "171022.685000", "171023.145000", "171023.605000", "171024.065000", "171024.525000", "171024.985000", "171025.445000", "171025.905000", "171026.365000", "171026.825000", "171027.285000", "171027.745000", "171028.205000", "171028.665000", "171029.125000", "171029.585000", "171030.045000", "171030.505000", "171030.965000", "171031.425000", "171031.885000", "171032.345000", "171032.805000", "171033.265000", "171033.725000", "171034.185000", "171034.645000", "171035.105000", "171035.565000", "171036.025000", "171036.485000", "171036.945000", "171037.405000", "171037.865000", "171038.325000", "171038.785000", "171039.245000", "171039.705000", "171040.165000", "171040.625000", "171041.085000", "171041.545000", "171042.005000", "171042.465000", "171042.925000", "171043.385000", "171043.845000", "171044.305000", "171044.765000", "171045.225000", "171045.685000", "171046.145000", "171046.605000", "171047.065000", "171047.525000", "171047.985000", "171048.445000", "171048.905000", "171049.365000", "171049.825000", "171050.285000", "171050.745000", "171051.205000", "171051.665000", "171052.125000", "171052.585000", "171053.045000", "171053.505000", "171053.965000", "171054.425000", "171054.885000", "171055.345000", "171055.805000", "171056.265000", "171056.725000", "171057.185000", "171057.645000", "171058.105000", "171058.565000", "171059.025000", "171059.485000", "171059.945000", "171100.405000", "171100.865000", "171101.325000", "171101.785000", "171102.245000", "171102.705000", "171103.165000", "171103.625000", "171104.085000", "171104.545000", "171105.005000", "171105.465000", "171105.925000", "171106.385000", "171106.845000", "171107.305000", "171107.765000", "171108.225000", "171108.685000", "171109.145000", "171109.605000", "171110.065000", "171110.525000", "171110.985000", "171111.445000", "171111.905000", "171112.365000", "171112.825000", "171113.285000", "171113.745000", "171114.205000", "171114.665000", "171115.125000", "171115.585000", "171116.045000", "171116.505000", "171116.965000", "171117.425000", "171117.885000", "171118.345000", "171118.805000", "171119.265000", "171119.725000", "171120.185000", "171120.645000", "171121.105000", "171121.565000", "171122.025000", "171122.485000", "171122.945000", "171123.405000", "171123.865000", "171124.325000", "171124.785000", "171125.245000"],
