{
  "AcquisitionMatrixPE": 82,
  "AcquisitionNumber": 1,
  "AcquisitionTime": "16:44:16.660000",
  "BandwidthPerPixelPhaseEncode": 24.888,
  "BaseResolution": 82,
  "BodyPartExamined": "BRAIN",
  "ConsistencyInfo": "N4_VE11C_LATEST_20160120",
  "ConversionSoftware": "dcm2niix",
  "ConversionSoftwareVersion": "v1.0.20201102",
  "DerivedVendorReportedEchoSpacing": 0.00049,
  "DeviceSerialNumber": "66112",
  "DwellTime": 2e-06,
  "EchoTime": 0.0272,
  "EchoTrainLength": 82,
  "EffectiveEchoSpacing": 0.00049,
  "FlipAngle": 44,
  "ImageComments": "Unaliased MB8/PE3",
  "ImageOrientationPatientDICOM": [0.998711, 0.0496185, -0.0107279, -0.0504178, 0.994153, -0.0954906],
  "ImageType": [
    "ORIGINAL",
    "PRIMARY",
    "FMRI",
    "NONE",
    "MB",
    "ND",
    "NORM",
    "MOSAIC"
],
  "ImagingFrequency": 123.252,
  "InPlanePhaseEncodingDirectionDICOM": "COL",
  "InstitutionAddress": "Maynard 3,Hanover,NH,US,03755",
  "InstitutionName": "Dartmouth College - PBS",
  "InstitutionalDepartmentName": "Department",
  "MRAcquisitionType": "2D",
  "MagneticFieldStrength": 3,
  "Manufacturer": "Siemens",
  "ManufacturersModelName": "Prisma",
  "Modality": "MR",
  "MultibandAccelerationFactor": 8,
  "PartialFourier": 1,
  "PatientPosition": "HFS",
  "PercentPhaseFOV": 100,
  "PercentSampling": 100,
  "PhaseEncodingDirection": "j-",
  "PhaseEncodingSteps": 82,
  "PhaseResolution": 1,
  "PixelBandwidth": 3050,
  "ProcedureStepDescription": "Wager_Wager^1076_spacetop",
  "ProtocolName": "func_run-01_task-alignvideo_acq-ap-mb8",
  "PulseSequenceDetails": "%CustomerSeq%\\cmrr_mbep2d_bold",
  "ReceiveCoilActiveElements": "HEA;HEP",
  "ReceiveCoilName": "Head_32",
  "ReconMatrixPE": 82,
  "RepetitionTime": 0.46,
  "SAR": 0.108846,
  "ScanOptions": "FS",
  "ScanningSequence": "EP",
  "SequenceName": "epfid2d1_82",
  "SequenceVariant": "SK\\SS",
  "SeriesDescription": "func_run-01_task-alignvideo_acq-ap-mb8",
  "SeriesNumber": 52,
  "ShimSetting": [4145, -7725, -7222, 510, -33, -29, -149, 57],
  "SliceThickness": 2.7,
  "SliceTiming": [0, 0.2525, 0.0625, 0.315, 0.125, 0.3775, 0.19, 0, 0.2525, 0.0625, 0.315, 0.125, 0.3775, 0.19, 0, 0.2525, 0.0625, 0.315, 0.125, 0.3775, 0.19, 0, 0.2525, 0.0625, 0.315, 0.125, 0.3775, 0.19, 0, 0.2525, 0.0625, 0.315, 0.125, 0.3775, 0.19, 0, 0.2525, 0.0625, 0.315, 0.125, 0.3775, 0.19, 0, 0.2525, 0.0625, 0.315, 0.125, 0.3775, 0.19, 0, 0.2525, 0.0625, 0.315, 0.125, 0.3775, 0.19],
  "SoftwareVersions": "syngo MR E11",
  "SpacingBetweenSlices": 2.7,
  "StationName": "AWP66112",
  "TaskName": "alignvideo",
  "TotalReadoutTime": 0.03969,
  "TxRefAmp": 252.242,
  "WipMemBlock": "4e4a6269-1d36-4fe6-ac01-570e6fd6783f||Sequence: R016 ve11c/master r/e634e98; Dec 19 2017 11:00:25 by eja",
  "dcmmeta_affine": [
    [-2.6794676780700684, -0.1352672576904297, -0.016002951189875603, 118.39840698242188],
    [-0.13312283158302307, 2.66723895072937, -0.25895264744758606, -90.2393569946289],
    [-0.028782039880752563, 0.2561943829059601, 2.6875057220458984, -54.835044860839844],
    [0.0, 0.0, 0.0, 1.0]
],
  "dcmmeta_reorient_transform": [
    [0.0, -1.0, 0.0, 81.0],
    [1.0, 0.0, 0.0, 0.0],
    [0.0, 0.0, 1.0, 0.0],
    [0.0, 0.0, 0.0, 1.0]
],
  "dcmmeta_shape": [82, 82, 56, 1073],
  "dcmmeta_slice_dim": 2,
  "dcmmeta_version": 0.6,
  "global": {
    "const": {
      "AccessionNumber": "A003587",
      "AcquisitionMatrix": [82, 0, 0, 82],
      "AngioFlag": "N",
      "BitsAllocated": 16,
      "BitsStored": 12,
      "BodyPartExamined": "BRAIN",
      "Columns": 656,
      "EchoNumbers": 1,
      "EchoTime": 27.2,
      "EchoTrainLength": 82,
      "FlipAngle": 44.0,
      "HighBit": 11,
      "ImageOrientationPatient": [0.99871062705141, 0.04961851094159, -0.0107278509741, -0.0504177931054, 0.99415269696961, -0.0954906343389],
      "ImagePositionPatient": [-837.62725945712, -929.51085233388, 47.704935319649],
      "ImageType": [
        "ORIGINAL",
        "PRIMARY",
        "FMRI",
        "NONE",
        "MB",
        "ND",
        "NORM",
        "MOSAIC"
],
      "ImagedNucleus": "1H",
      "ImagingFrequency": 123.252171,
      "InPlanePhaseEncodingDirection": "COL",
      "MRAcquisitionType": "2D",
      "MagneticFieldStrength": 3.0,
      "Manufacturer": "SIEMENS",
      "ManufacturerModelName": "Prisma",
      "Modality": "MR",
      "NumberOfAverages": 1.0,
      "NumberOfPhaseEncodingSteps": 82,
      "PercentPhaseFieldOfView": 100.0,
      "PercentSampling": 100.0,
      "PerformedProcedureStepStartTime": "153007.324000",
      "PhotometricInterpretation": "MONOCHROME2",
      "PixelBandwidth": 3050.0,
      "PixelRepresentation": 0,
      "PixelSpacing": [2.6829268932343, 2.6829268932343],
      "ProtocolName": "func_run-01_task-alignvideo_acq-ap-mb8",
      "RepetitionTime": 460.0,
      "Rows": 656,
      "SAR": 0.10884632154427,
      "SamplesPerPixel": 1,
      "ScanOptions": "FS",
      "ScanningSequence": "EP",
      "SequenceName": "epfid2d1_82",
      "SequenceVariant": [
        "SK",
        "SS"
],
      "SeriesDescription": "func_run-01_task-alignvideo_acq-ap-mb8",
      "SeriesNumber": 52,
      "SeriesTime": "164420.329000",
      "SliceLocation": -46.628336440778,
      "SliceThickness": 2.7000000476837,
      "SmallestImagePixelValue": 0,
      "SoftwareVersions": "syngo MR E11",
      "SpacingBetweenSlices": 2.7000000239226,
      "SpecificCharacterSet": "ISO_IR 100",
      "StudyID": "2",
      "StudyTime": "153007.224000",
      "TransmitCoilName": "Body",
      "VariableFlipAngleFlag": "N",
      "WindowCenterWidthExplanation": "Algo1",
      "dBdt": 0.0},
    "slices": {}
  },
  "time": {
    "samples": {
      "AcquisitionNumber": [1, 2, 3, 4, 5, 6, 7, 8, 9, 10, 11, 12, 13, 14, 15, 16, 17, 18, 19, 20, 21, 22, 23, 24, 25, 26, 27, 28, 29, 30, 31, 32, 33, 34, 35, 36, 37, 38, 39, 40, 41, 42, 43, 44, 45, 46, 47, 48, 49, 50, 51, 52, 53, 54, 55, 56, 57, 58, 59, 60, 61, 62, 63, 64, 65, 66, 67, 68, 69, 70, 71, 72, 73, 74, 75, 76, 77, 78, 79, 80, 81, 82, 83, 84, 85, 86, 87, 88, 89, 90, 91, 92, 93, 94, 95, 96, 97, 98, 99, 100, 101, 102, 103, 104, 105, 106, 107, 108, 109, 110, 111, 112, 113, 114, 115, 116, 117, 118, 119, 120, 121, 122, 123, 124, 125, 126, 127, 128, 129, 130, 131, 132, 133, 134, 135, 136, 137, 138, 139, 140, 141, 142, 143, 144, 145, 146, 147, 148, 149, 150, 151, 152, 153, 154, 155, 156, 157, 158, 159, 160, 161, 162, 163, 164, 165, 166, 167, 168, 169, 170, 171, 172, 173, 174, 175, 176, 177, 178, 179, 180, 181, 182, 183, 184, 185, 186, 187, 188, 189, 190, 191, 192, 193, 194, 195, 196, 197, 198, 199, 200, 201, 202, 203, 204, 205, 206, 207, 208, 209, 210, 211, 212, 213, 214, 215, 216, 217, 218, 219, 220, 221, 222, 223, 224, 225, 226, 227, 228, 229, 230, 231, 232, 233, 234, 235, 236, 237, 238, 239, 240, 241, 242, 243, 244, 245, 246, 247, 248, 249, 250, 251, 252, 253, 254, 255, 256, 257, 258, 259, 260, 261, 262, 263, 264, 265, 266, 267, 268, 269, 270, 271, 272, 273, 274, 275, 276, 277, 278, 279, 280, 281, 282, 283, 284, 285, 286, 287, 288, 289, 290, 291, 292, 293, 294, 295, 296, 297, 298, 299, 300, 301, 302, 303, 304, 305, 306, 307, 308, 309, 310, 311, 312, 313, 314, 315, 316, 317, 318, 319, 320, 321, 322, 323, 324, 325, 326, 327, 328, 329, 330, 331, 332, 333, 334, 335, 336, 337, 338, 339, 340, 341, 342, 343, 344, 345, 346, 347, 348, 349, 350, 351, 352, 353, 354, 355, 356, 357, 358, 359, 360, 361, 362, 363, 364, 365, 366, 367, 368, 369, 370, 371, 372, 373, 374, 375, 376, 377, 378, 379, 380, 381, 382, 383, 384, 385, 386, 387, 388, 389, 390, 391, 392, 393, 394, 395, 396, 397, 398, 399, 400, 401, 402, 403, 404, 405, 406, 407, 408, 409, 410, 411, 412, 413, 414, 415, 416, 417, 418, 419, 420, 421, 422, 423, 424, 425, 426, 427, 428, 429, 430, 431, 432, 433, 434, 435, 436, 437, 438, 439, 440, 441, 442, 443, 444, 445, 446, 447, 448, 449, 450, 451, 452, 453, 454, 455, 456, 457, 458, 459, 460, 461, 462, 463, 464, 465, 466, 467, 468, 469, 470, 471, 472, 473, 474, 475, 476, 477, 478, 479, 480, 481, 482, 483, 484, 485, 486, 487, 488, 489, 490, 491, 492, 493, 494, 495, 496, 497, 498, 499, 500, 501, 502, 503, 504, 505, 506, 507, 508, 509, 510, 511, 512, 513, 514, 515, 516, 517, 518, 519, 520, 521, 522, 523, 524, 525, 526, 527, 528, 529, 530, 531, 532, 533, 534, 535, 536, 537, 538, 539, 540, 541, 542, 543, 544, 545, 546, 547, 548, 549, 550, 551, 552, 553, 554, 555, 556, 557, 558, 559, 560, 561, 562, 563, 564, 565, 566, 567, 568, 569, 570, 571, 572, 573, 574, 575, 576, 577, 578, 579, 580, 581, 582, 583, 584, 585, 586, 587, 588, 589, 590, 591, 592, 593, 594, 595, 596, 597, 598, 599, 600, 601, 602, 603, 604, 605, 606, 607, 608, 609, 610, 611, 612, 613, 614, 615, 616, 617, 618, 619, 620, 621, 622, 623, 624, 625, 626, 627, 628, 629, 630, 631, 632, 633, 634, 635, 636, 637, 638, 639, 640, 641, 642, 643, 644, 645, 646, 647, 648, 649, 650, 651, 652, 653, 654, 655, 656, 657, 658, 659, 660, 661, 662, 663, 664, 665, 666, 667, 668, 669, 670, 671, 672, 673, 674, 675, 676, 677, 678, 679, 680, 681, 682, 683, 684, 685, 686, 687, 688, 689, 690, 691, 692, 693, 694, 695, 696, 697, 698, 699, 700, 701, 702, 703, 704, 705, 706, 707, 708, 709, 710, 711, 712, 713, 714, 715, 716, 717, 718, 719, 720, 721, 722, 723, 724, 725, 726, 727, 728, 729, 730, 731, 732, 733, 734, 735, 736, 737, 738, 739, 740, 741, 742, 743, 744, 745, 746, 747, 748, 749, 750, 751, 752, 753, 754, 755, 756, 757, 758, 759, 760, 761, 762, 763, 764, 765, 766, 767, 768, 769, 770, 771, 772, 773, 774, 775, 776, 777, 778, 779, 780, 781, 782, 783, 784, 785, 786, 787, 788, 789, 790, 791, 792, 793, 794, 795, 796, 797, 798, 799, 800, 801, 802, 803, 804, 805, 806, 807, 808, 809, 810, 811, 812, 813, 814, 815, 816, 817, 818, 819, 820, 821, 822, 823, 824, 825, 826, 827, 828, 829, 830, 831, 832, 833, 834, 835, 836, 837, 838, 839, 840, 841, 842, 843, 844, 845, 846, 847, 848, 849, 850, 851, 852, 853, 854, 855, 856, 857, 858, 859, 860, 861, 862, 863, 864, 865, 866, 867, 868, 869, 870, 871, 872, 873, 874, 875, 876, 877, 878, 879, 880, 881, 882, 883, 884, 885, 886, 887, 888, 889, 890, 891, 892, 893, 894, 895, 896, 897, 898, 899, 900, 901, 902, 903, 904, 905, 906, 907, 908, 909, 910, 911, 912, 913, 914, 915, 916, 917, 918, 919, 920, 921, 922, 923, 924, 925, 926, 927, 928, 929, 930, 931, 932, 933, 934, 935, 936, 937, 938, 939, 940, 941, 942, 943, 944, 945, 946, 947, 948, 949, 950, 951, 952, 953, 954, 955, 956, 957, 958, 959, 960, 961, 962, 963, 964, 965, 966, 967, 968, 969, 970, 971, 972, 973, 974, 975, 976, 977, 978, 979, 980, 981, 982, 983, 984, 985, 986, 987, 988, 989, 990, 991, 992, 993, 994, 995, 996, 997, 998, 999, 1000, 1001, 1002, 1003, 1004, 1005, 1006, 1007, 1008, 1009, 1010, 1011, 1012, 1013, 1014, 1015, 1016, 1017, 1018, 1019, 1020, 1021, 1022, 1023, 1024, 1025, 1026, 1027, 1028, 1029, 1030, 1031, 1032, 1033, 1034, 1035, 1036, 1037, 1038, 1039, 1040, 1041, 1042, 1043, 1044, 1045, 1046, 1047, 1048, 1049, 1050, 1051, 1052, 1053, 1054, 1055, 1056, 1057, 1058, 1059, 1060, 1061, 1062, 1063, 1064, 1065, 1066, 1067, 1068, 1069, 1070, 1071, 1072, 1073],
      "AcquisitionTime": ["164416.660000", "164417.120000", "164417.580000", "164418.040000", "164418.500000", "164418.960000", "164419.420000", "164419.880000", "164420.340000", "164420.800000", "164421.260000", "164421.720000", "164422.180000", "164422.640000", "164423.100000", "164423.560000", "164424.020000", "164424.480000", "164424.940000", "164425.400000", "164425.860000", "164426.320000", "164426.780000", "164427.240000", "164427.700000", "164428.160000", "164428.620000", "164429.080000", "164429.540000", "164430.000000", "164430.460000", "164430.920000", "164431.380000", "164431.840000", "164432.300000", "164432.760000", "164433.220000", "164433.680000", "164434.140000", "164434.600000", "164435.060000", "164435.520000", "164435.980000", "164436.440000", "164436.900000", "164437.360000", "164437.820000", "164438.280000", "164438.740000", "164439.200000", "164439.660000", "164440.120000", "164440.580000", "164441.040000", "164441.500000", "164441.960000", "164442.420000", "164442.880000", "164443.340000", "164443.800000", "164444.260000", "164444.720000", "164445.180000", "164445.640000", "164446.100000", "164446.560000", "164447.020000", "164447.480000", "164447.940000", "164448.400000", "164448.860000", "164449.320000", "164449.780000", "164450.240000", "164450.700000", "164451.160000", "164451.620000", "164452.080000", "164452.540000", "164453.000000", "164453.460000", "164453.920000", "164454.380000", "164454.840000", "164455.300000", "164455.760000", "164456.220000", "164456.680000", "164457.140000", "164457.600000", "164458.060000", "164458.520000", "164458.980000", "164459.440000", "164459.900000", "164500.360000", "164500.820000", "164501.280000", "164501.740000", "164502.200000", "164502.660000", "164503.120000", "164503.580000", "164504.040000", "164504.500000", "164504.960000", "164505.420000", "164505.880000", "164506.340000", "164506.800000", "164507.260000", "164507.720000", "164508.180000", "164508.640000", "164509.100000", "164509.560000", "164510.020000", "164510.480000", "164510.940000", "164511.400000", "164511.860000", "164512.320000", "164512.780000", "164513.240000", "164513.700000", "164514.160000", "164514.620000", "164515.080000", "164515.540000", "164516.000000", "164516.460000", "164516.920000", "164517.380000", "164517.840000", "164518.300000", "164518.760000", "164519.220000", "164519.680000", "164520.140000", "164520.600000", "164521.060000", "164521.520000", "164521.980000", "164522.440000", "164522.900000", "164523.360000", "164523.820000", "164524.280000", "164524.740000", "164525.200000", "164525.660000", "164526.120000", "164526.580000", "164527.040000", "164527.500000", "164527.960000", "164528.420000", "164528.880000", "164529.340000", "164529.800000", "164530.260000", "164530.720000", "164531.180000", "164531.640000", "164532.100000", "164532.560000", "164533.020000", "164533.480000", "164533.940000", "164534.400000", "164534.860000", "164535.320000", "164535.780000", "164536.240000", "164536.700000", "164537.160000", "164537.620000", "164538.080000", "164538.540000", "164539.000000", "164539.460000", "164539.920000", "164540.380000", "164540.840000", "164541.300000", "164541.760000", "164542.220000", "164542.680000", "164543.140000", "164543.600000", "164544.060000", "164544.520000", "164544.980000", "164545.440000", "164545.900000", "164546.360000", "164546.820000", "164547.280000", "164547.740000", "164548.200000", "164548.660000", "164549.120000", "164549.580000", "164550.040000", "164550.500000", "164550.960000", "164551.420000", "164551.880000", "164552.340000", "164552.800000", "164553.260000", "164553.720000", "164554.180000", "164554.640000", "164555.100000", "164555.560000", "164556.020000", "164556.480000", "164556.940000", "164557.400000", "164557.860000", "164558.320000", "164558.780000", "164559.240000", "164559.700000", "164600.160000", "164600.620000", "164601.080000", "164601.540000", "164602.000000", "164602.460000", "164602.920000", "164603.380000", "164603.840000", "164604.300000", "164604.760000", "164605.220000", "164605.680000", "164606.140000", "164606.600000", "164607.060000", "164607.520000", "164607.980000", "164608.440000", "164608.900000", "164609.360000", "164609.820000", "164610.280000", "164610.740000", "164611.200000", "164611.660000", "164612.120000", "164612.580000", "164613.040000", "164613.500000", "164613.960000", "164614.420000", "164614.880000", "164615.340000", "164615.800000", "164616.260000", "164616.720000", "164617.180000", "164617.640000", "164618.100000", "164618.560000", "164619.020000", "164619.480000", "164619.940000", "164620.400000", "164620.860000", "164621.320000", "164621.780000", "164622.240000", "164622.700000", "164623.160000", "164623.620000", "164624.080000", "164624.540000", "164625.000000", "164625.460000", "164625.920000", "164626.380000", "164626.840000", "164627.300000", "164627.760000", "164628.220000", "164628.680000", "164629.140000", "164629.600000", "164630.060000", "164630.520000", "164630.980000", "164631.440000", "164631.900000", "164632.360000", "164632.820000", "164633.280000", "164633.740000", "164634.200000", "164634.660000", "164635.120000", "164635.580000", "164636.040000", "164636.500000", "164636.960000", "164637.420000", "164637.880000", "164638.340000", "164638.800000", "164639.260000", "164639.720000", "164640.180000", "164640.640000", "164641.100000", "164641.560000", "164642.020000", "164642.480000", "164642.940000", "164643.400000", "164643.860000", "164644.320000", "164644.780000", "164645.240000", "164645.700000", "164646.160000", "164646.620000", "164647.080000", "164647.540000", "164648.000000", "164648.460000", "164648.920000", "164649.380000", "164649.840000", "164650.300000", "164650.760000", "164651.220000", "164651.680000", "164652.140000", "164652.600000", "164653.060000", "164653.520000", "164653.980000", "164654.440000", "164654.900000", "164655.360000", "164655.820000", "164656.280000", "164656.740000", "164657.200000", "164657.660000", "164658.120000", "164658.580000", "164659.040000", "164659.500000", "164659.960000", "164700.420000", "164700.880000", "164701.340000", "164701.800000", "164702.260000", "164702.720000", "164703.180000", "164703.640000", "164704.100000", "164704.560000", "164705.020000", "164705.480000", "164705.940000", "164706.400000", "164706.860000", "164707.320000", "164707.780000", "164708.240000", "164708.700000", "164709.160000", "164709.620000", "164710.080000", "164710.540000", "164711.000000", "164711.460000", "164711.920000", "164712.380000", "164712.840000", "164713.300000", "164713.760000", "164714.220000", "164714.680000", "164715.140000", "164715.600000", "164716.060000", "164716.520000", "164716.980000", "164717.440000", "164717.900000", "164718.360000", "164718.820000", "164719.280000", "164719.740000", "164720.200000", "164720.660000", "164721.120000", "164721.580000", "164722.040000", "164722.500000", "164722.960000", "164723.420000", "164723.880000", "164724.340000", "164724.800000", "164725.260000", "164725.720000", "164726.180000", "164726.640000", "164727.100000", "164727.560000", "164728.020000", "164728.480000", "164728.940000", "164729.400000", "164729.860000", "164730.320000", "164730.780000", "164731.240000", "164731.700000", "164732.160000", "164732.620000", "164733.080000", "164733.540000", "164734.000000", "164734.460000", "164734.920000", "164735.380000", "164735.840000", "164736.300000", "164736.760000", "164737.220000", "164737.680000", "164738.140000", "164738.600000", "164739.060000", "164739.520000", "164739.980000", "164740.440000", "164740.900000", "164741.360000", "164741.820000", "164742.280000", "164742.740000", "164743.200000", "164743.660000", "164744.120000", "164744.580000", "164745.040000", "164745.500000", "164745.960000", "164746.420000", "164746.880000", "164747.340000", "164747.800000", "164748.260000", "164748.720000", "164749.180000", "164749.640000", "164750.100000", "164750.560000", "164751.020000", "164751.480000", "164751.940000", "164752.400000", "164752.860000", "164753.320000", "164753.780000", "164754.240000", "164754.700000", "164755.160000", "164755.620000", "164756.080000", "164756.540000", "164757.000000", "164757.460000", "164757.920000", "164758.380000", "164758.840000", "164759.300000", "164759.760000", "164800.220000", "164800.680000", "164801.140000", "164801.600000", "164802.060000", "164802.520000", "164802.980000", "164803.440000", "164803.900000", "164804.360000", "164804.820000", "164805.280000", "164805.740000", "164806.200000", "164806.660000", "164807.120000", "164807.580000", "164808.040000", "164808.500000", "164808.960000", "164809.420000", "164809.880000", "164810.340000", "164810.800000", "164811.260000", "164811.720000", "164812.180000", "164812.640000", "164813.100000", "164813.560000", "164814.020000", "164814.480000", "164814.940000", "164815.400000", "164815.860000", "164816.320000", "164816.780000", "164817.240000", "164817.700000", "164818.160000", "164818.620000", "164819.080000", "164819.540000", "164820.000000", "164820.460000", "164820.920000", "164821.380000", "164821.840000", "164822.300000", "164822.760000", "164823.220000", "164823.680000", "164824.140000", "164824.600000", "164825.060000", "164825.520000", "164825.980000", "164826.440000", "164826.900000", "164827.360000", "164827.820000", "164828.280000", "164828.740000", "164829.200000", "164829.660000", "164830.120000", "164830.580000", "164831.040000", "164831.500000", "164831.960000", "164832.420000", "164832.880000", "164833.340000", "164833.800000", "164834.260000", "164834.720000", "164835.180000", "164835.640000", "164836.100000", "164836.560000", "164837.020000", "164837.480000", "164837.940000", "164838.400000", "164838.860000", "164839.320000", "164839.780000", "164840.240000", "164840.700000", "164841.160000", "164841.620000", "164842.080000", "164842.540000", "164843.000000", "164843.460000", "164843.920000", "164844.380000", "164844.840000", "164845.300000", "164845.760000", "164846.220000", "164846.680000", "164847.140000", "164847.600000", "164848.060000", "164848.520000", "164848.980000", "164849.440000", "164849.900000", "164850.360000", "164850.820000", "164851.280000", "164851.740000", "164852.200000", "164852.660000", "164853.120000", "164853.580000", "164854.040000", "164854.500000", "164854.960000", "164855.420000", "164855.880000", "164856.340000", "164856.800000", "164857.260000", "164857.720000", "164858.180000", "164858.640000", "164859.100000", "164859.560000", "164900.020000", "164900.480000", "164900.940000", "164901.400000", "164901.860000", "164902.320000", "164902.780000", "164903.240000", "164903.700000", "164904.160000", "164904.620000", "164905.080000", "164905.540000", "164906.000000", "164906.460000", "164906.920000", "164907.380000", "164907.840000", "164908.300000", "164908.760000", "164909.220000", "164909.680000", "164910.140000", "164910.600000", "164911.060000", "164911.520000", "164911.980000", "164912.440000", "164912.900000", "164913.360000", "164913.820000", "164914.280000", "164914.740000", "164915.200000", "164915.660000", "164916.120000", "164916.580000", "164917.040000", "164917.500000", "164917.960000", "164918.420000", "164918.880000", "164919.340000", "164919.800000", "164920.260000", "164920.720000", "164921.180000", "164921.640000", "164922.100000", "164922.560000", "164923.020000", "164923.480000", "164923.940000", "164924.400000", "164924.860000", "164925.320000", "164925.780000", "164926.240000", "164926.700000", "164927.160000", "164927.620000", "164928.080000", "164928.540000", "164929.000000", "164929.460000", "164929.920000", "164930.380000", "164930.840000", "164931.300000", "164931.760000", "164932.220000", "164932.680000", "164933.140000", "164933.600000", "164934.060000", "164934.520000", "164934.980000", "164935.440000", "164935.900000", "164936.360000", "164936.820000", "164937.280000", "164937.740000", "164938.200000", "164938.660000", "164939.120000", "164939.580000", "164940.040000", "164940.500000", "164940.960000", "164941.420000", "164941.880000", "164942.340000", "164942.800000", "164943.260000", "164943.720000", "164944.180000", "164944.640000", "164945.100000", "164945.560000", "164946.020000", "164946.480000", "164946.940000", "164947.400000", "164947.860000", "164948.320000", "164948.780000", "164949.240000", "164949.700000", "164950.160000", "164950.620000", "164951.080000", "164951.540000", "164952.000000", "164952.460000", "164952.920000", "164953.380000", "164953.840000", "164954.300000", "164954.760000", "164955.220000", "164955.680000", "164956.140000", "164956.600000", "164957.060000", "164957.520000", "164957.980000", "164958.440000", "164958.900000", "164959.360000", "164959.820000", "165000.280000", "165000.740000", "165001.200000", "165001.660000", "165002.120000", "165002.580000", "165003.040000", "165003.500000", "165003.960000", "165004.420000", "165004.880000", "165005.340000", "165005.800000", "165006.260000", "165006.720000", "165007.180000", "165007.640000", "165008.100000", "165008.560000", "165009.020000", "165009.480000", "165009.940000", "165010.400000", "165010.860000", "165011.320000", "165011.780000", "165012.240000", "165012.700000", "165013.160000", "165013.620000", "165014.080000", "165014.540000", "165015.000000", "165015.460000", "165015.920000", "165016.380000", "165016.840000", "165017.300000", "165017.760000", "165018.220000", "165018.680000", "165019.140000", "165019.600000", "165020.060000", "165020.520000", "165020.980000", "165021.440000", "165021.900000", "165022.360000", "165022.820000", "165023.280000", "165023.740000", "165024.200000", "165024.660000", "165025.120000", "165025.580000", "165026.040000", "165026.500000", "165026.960000", "165027.420000", "165027.880000", "165028.340000", "165028.800000", "165029.260000", "165029.720000", "165030.180000", "165030.640000", "165031.100000", "165031.560000", "165032.020000", "165032.480000", "165032.940000", "165033.400000", "165033.860000", "165034.320000", "165034.780000", "165035.240000", "165035.700000", "165036.160000", "165036.620000", "165037.080000", "165037.540000", "165038.000000", "165038.460000", "165038.920000", "165039.380000", "165039.840000", "165040.300000", "165040.760000", "165041.220000", "165041.680000", "165042.140000", "165042.600000", "165043.060000", "165043.520000", "165043.980000", "165044.440000", "165044.900000", "165045.360000", "165045.820000", "165046.280000", "165046.740000", "165047.200000", "165047.660000", "165048.120000", "165048.580000", "165049.040000", "165049.500000", "165049.960000", "165050.420000", "165050.880000", "165051.340000", "165051.800000", "165052.260000", "165052.720000", "165053.180000", "165053.640000", "165054.100000", "165054.560000", "165055.020000", "165055.480000", "165055.940000", "165056.400000", "165056.860000", "165057.320000", "165057.780000", "165058.240000", "165058.700000", "165059.160000", "165059.620000", "165100.080000", "165100.540000", "165101.000000", "165101.460000", "165101.920000", "165102.380000", "165102.840000", "165103.300000", "165103.760000", "165104.220000", "165104.680000", "165105.140000", "165105.600000", "165106.060000", "165106.520000", "165106.980000", "165107.440000", "165107.900000", "165108.360000", "165108.820000", "165109.280000", "165109.740000", "165110.200000", "165110.660000", "165111.120000", "165111.580000", "165112.040000", "165112.500000", "165112.960000", "165113.420000", "165113.880000", "165114.340000", "165114.800000", "165115.260000", "165115.720000", "165116.180000", "165116.640000", "165117.100000", "165117.560000", "165118.020000", "165118.480000", "165118.940000", "165119.400000", "165119.860000", "165120.320000", "165120.780000", "165121.240000", "165121.700000", "165122.160000", "165122.620000", "165123.080000", "165123.540000", "165124.000000", "165124.460000", "165124.920000", "165125.380000", "165125.840000", "165126.300000", "165126.760000", "165127.220000", "165127.680000", "165128.140000", "165128.600000", "165129.060000", "165129.520000", "165129.980000", "165130.440000", "165130.900000", "165131.360000", "165131.820000", "165132.280000", "165132.740000", "165133.200000", "165133.660000", "165134.120000", "165134.580000", "165135.040000", "165135.500000", "165135.960000", "165136.420000", "165136.880000", "165137.340000", "165137.800000", "165138.260000", "165138.720000", "165139.180000", "165139.640000", "165140.100000", "165140.560000", "165141.020000", "165141.480000", "165141.940000", "165142.400000", "165142.860000", "165143.320000", "165143.780000", "165144.240000", "165144.700000", "165145.160000", "165145.620000", "165146.080000", "165146.540000", "165147.000000", "165147.460000", "165147.920000", "165148.380000", "165148.840000", "165149.300000", "165149.760000", "165150.220000", "165150.680000", "165151.140000", "165151.600000", "165152.060000", "165152.520000", "165152.980000", "165153.440000", "165153.900000", "165154.360000", "165154.820000", "165155.280000", "165155.740000", "165156.200000", "165156.660000", "165157.120000", "165157.580000", "165158.040000", "165158.500000", "165158.960000", "165159.420000", "165159.880000", "165200.340000", "165200.800000", "165201.260000", "165201.720000", "165202.180000", "165202.640000", "165203.100000", "165203.560000", "165204.020000", "165204.480000", "165204.940000", "165205.400000", "165205.860000", "165206.320000", "165206.780000", "165207.240000", "165207.700000", "165208.160000", "165208.620000", "165209.080000", "165209.540000", "165210.000000", "165210.460000", "165210.920000", "165211.380000", "165211.840000", "165212.300000", "165212.760000", "165213.220000", "165213.680000", "165214.140000", "165214.600000", "165215.060000", "165215.520000", "165215.980000", "165216.440000", "165216.900000", "165217.360000", "165217.820000", "165218.280000", "165218.740000", "165219.200000", "165219.660000", "165220.120000", "165220.580000", "165221.040000", "165221.500000", "165221.960000", "165222.420000", "165222.880000", "165223.340000", "165223.800000", "165224.260000", "165224.720000", "165225.180000", "165225.640000", "165226.100000", "165226.560000", "165227.020000", "165227.480000", "165227.940000", "165228.400000", "165228.860000", "165229.320000", "165229.780000"],
