{
  "AcquisitionMatrixPE": 82,
  "AcquisitionNumber": 1,
  "AcquisitionTime": "16:26:34.155000",
  "BandwidthPerPixelPhaseEncode": 24.888,
  "BaseResolution": 82,
  "BodyPartExamined": "BRAIN",
  "ConsistencyInfo": "N4_VE11C_LATEST_20160120",
  "ConversionSoftware": "dcm2niix",
  "ConversionSoftwareVersion": "v1.0.20201102",
  "DerivedVendorReportedEchoSpacing": 0.00049,
  "DeviceSerialNumber": "66112",
  "DwellTime": 2e-06,
  "EchoTime": 0.0272,
  "EchoTrainLength": 82,
  "EffectiveEchoSpacing": 0.00049,
  "FlipAngle": 44,
  "ImageComments": "Unaliased MB8/PE3",
  "ImageOrientationPatientDICOM": [0.998124, 0.0592693, 0.0153485, -0.0570271, 0.991232, -0.119196],
  "ImageType": [
    "ORIGINAL",
    "PRIMARY",
    "FMRI",
    "NONE",
    "MB",
    "ND",
    "NORM",
    "MOSAIC"
],
  "ImagingFrequency": 123.252,
  "InPlanePhaseEncodingDirectionDICOM": "COL",
  "InstitutionAddress": "Maynard 3,Hanover,NH,US,03755",
  "InstitutionName": "Dartmouth College - PBS",
  "InstitutionalDepartmentName": "Department",
  "MRAcquisitionType": "2D",
  "MagneticFieldStrength": 3,
  "Manufacturer": "Siemens",
  "ManufacturersModelName": "Prisma",
  "Modality": "MR",
  "MultibandAccelerationFactor": 8,
  "PartialFourier": 1,
  "PatientPosition": "HFS",
  "PercentPhaseFOV": 100,
  "PercentSampling": 100,
  "PhaseEncodingDirection": "j-",
  "PhaseEncodingSteps": 82,
  "PhaseResolution": 1,
  "PixelBandwidth": 3050,
  "ProcedureStepDescription": "Wager_Wager^1076_spacetop",
  "ProtocolName": "func_run-04_task-social_acq-ap-mb8",
  "PulseSequenceDetails": "%CustomerSeq%\\cmrr_mbep2d_bold",
  "ReceiveCoilActiveElements": "HEA;HEP",
  "ReceiveCoilName": "Head_32",
  "ReconMatrixPE": 82,
  "RepetitionTime": 0.46,
  "SAR": 0.10872,
  "ScanOptions": "FS",
  "ScanningSequence": "EP",
  "SequenceName": "epfid2d1_82",
  "SequenceVariant": "SK\\SS",
  "SeriesDescription": "func_run-04_task-social_acq-ap-mb8",
  "SeriesNumber": 32,
  "ShimSetting": [4146, -7727, -7223, 514, -28, -36, -151, 58],
  "SliceThickness": 2.7,
  "SliceTiming": [0, 0.2525, 0.0625, 0.315, 0.125, 0.3775, 0.19, 0, 0.2525, 0.0625, 0.315, 0.125, 0.3775, 0.19, 0, 0.2525, 0.0625, 0.315, 0.125, 0.3775, 0.19, 0, 0.2525, 0.0625, 0.315, 0.125, 0.3775, 0.19, 0, 0.2525, 0.0625, 0.315, 0.125, 0.3775, 0.19, 0, 0.2525, 0.0625, 0.315, 0.125, 0.3775, 0.19, 0, 0.2525, 0.0625, 0.315, 0.125, 0.3775, 0.19, 0, 0.2525, 0.0625, 0.315, 0.125, 0.3775, 0.19],
  "SoftwareVersions": "syngo MR E11",
  "SpacingBetweenSlices": 2.7,
  "StationName": "AWP66112",
  "TaskName": "social",
  "TotalReadoutTime": 0.03969,
  "TxRefAmp": 252.242,
  "WipMemBlock": "f174d03d-c9b1-41a2-a63d-be11a0d874d6||Sequence: R016 ve11c/master r/e634e98; Dec 19 2017 11:00:25 by eja",
  "dcmmeta_affine": [
    [-2.677893877029419, -0.1529996544122696, 0.060152068734169006, 115.83840942382812],
    [-0.15901528298854828, 2.6594021320343018, -0.3188624978065491, -84.88642120361328],
    [0.04117877036333084, 0.3197944164276123, 2.6804306507110596, -63.06828689575195],
    [0.0, 0.0, 0.0, 1.0]
],
  "dcmmeta_reorient_transform": [
    [0.0, -1.0, 0.0, 81.0],
    [1.0, 0.0, 0.0, 0.0],
    [0.0, 0.0, 1.0, 0.0],
    [0.0, 0.0, 0.0, 1.0]
],
  "dcmmeta_shape": [82, 82, 56, 872],
  "dcmmeta_slice_dim": 2,
  "dcmmeta_version": 0.6,
  "global": {
    "const": {
      "AccessionNumber": "A003587",
      "AcquisitionMatrix": [82, 0, 0, 82],
      "AngioFlag": "N",
      "BitsAllocated": 16,
      "BitsStored": 12,
      "BodyPartExamined": "BRAIN",
      "Columns": 656,
      "EchoNumbers": 1,
      "EchoTime": 27.2,
      "EchoTrainLength": 82,
      "FlipAngle": 44.0,
      "HighBit": 11,
      "ImageOrientationPatient": [0.99812402608098, 0.05926933118573, 0.01534845075873, -0.0570271432337, 0.99123165543727, -0.1191960997419],
      "ImagePositionPatient": [-828.09005503751, -939.41092296058, 42.797752742023],
      "ImageType": [
        "ORIGINAL",
        "PRIMARY",
        "FMRI",
        "NONE",
        "MB",
        "ND",
        "NORM",
        "MOSAIC"
],
      "ImagedNucleus": "1H",
      "ImagingFrequency": 123.25217,
      "InPlanePhaseEncodingDirection": "COL",
      "MRAcquisitionType": "2D",
      "MagneticFieldStrength": 3.0,
      "Manufacturer": "SIEMENS",
      "ManufacturerModelName": "Prisma",
      "Modality": "MR",
      "NumberOfAverages": 1.0,
      "NumberOfPhaseEncodingSteps": 82,
      "PercentPhaseFieldOfView": 100.0,
      "PercentSampling": 100.0,
      "PerformedProcedureStepStartTime": "153007.324000",
      "PhotometricInterpretation": "MONOCHROME2",
      "PixelBandwidth": 3050.0,
      "PixelRepresentation": 0,
      "PixelSpacing": [2.6829268932343, 2.6829268932343],
      "ProtocolName": "func_run-04_task-social_acq-ap-mb8",
      "RepetitionTime": 460.0,
      "Rows": 656,
      "SAR": 0.10871952760317,
      "SamplesPerPixel": 1,
      "ScanOptions": "FS",
      "ScanningSequence": "EP",
      "SequenceName": "epfid2d1_82",
      "SequenceVariant": [
        "SK",
        "SS"
],
      "SeriesDescription": "func_run-04_task-social_acq-ap-mb8",
      "SeriesNumber": 32,
      "SeriesTime": "162638.290000",
      "SliceLocation": -50.00561281004,
      "SliceThickness": 2.7000000476837,
      "SmallestImagePixelValue": 0,
      "SoftwareVersions": "syngo MR E11",
      "SpacingBetweenSlices": 2.7000000928578,
      "SpecificCharacterSet": "ISO_IR 100",
      "StudyID": "2",
      "StudyTime": "153007.224000",
      "TransmitCoilName": "Body",
      "VariableFlipAngleFlag": "N",
      "WindowCenterWidthExplanation": "Algo1",
      "dBdt": 0.0},
    "slices": {}
  },
  "time": {
    "samples": {
      "AcquisitionNumber": [1, 2, 3, 4, 5, 6, 7, 8, 9, 10, 11, 12, 13, 14, 15, 16, 17, 18, 19, 20, 21, 22, 23, 24, 25, 26, 27, 28, 29, 30, 31, 32, 33, 34, 35, 36, 37, 38, 39, 40, 41, 42, 43, 44, 45, 46, 47, 48, 49, 50, 51, 52, 53, 54, 55, 56, 57, 58, 59, 60, 61, 62, 63, 64, 65, 66, 67, 68, 69, 70, 71, 72, 73, 74, 75, 76, 77, 78, 79, 80, 81, 82, 83, 84, 85, 86, 87, 88, 89, 90, 91, 92, 93, 94, 95, 96, 97, 98, 99, 100, 101, 102, 103, 104, 105, 106, 107, 108, 109, 110, 111, 112, 113, 114, 115, 116, 117, 118, 119, 120, 121, 122, 123, 124, 125, 126, 127, 128, 129, 130, 131, 132, 133, 134, 135, 136, 137, 138, 139, 140, 141, 142, 143, 144, 145, 146, 147, 148, 149, 150, 151, 152, 153, 154, 155, 156, 157, 158, 159, 160, 161, 162, 163, 164, 165, 166, 167, 168, 169, 170, 171, 172, 173, 174, 175, 176, 177, 178, 179, 180, 181, 182, 183, 184, 185, 186, 187, 188, 189, 190, 191, 192, 193, 194, 195, 196, 197, 198, 199, 200, 201, 202, 203, 204, 205, 206, 207, 208, 209, 210, 211, 212, 213, 214, 215, 216, 217, 218, 219, 220, 221, 222, 223, 224, 225, 226, 227, 228, 229, 230, 231, 232, 233, 234, 235, 236, 237, 238, 239, 240, 241, 242, 243, 244, 245, 246, 247, 248, 249, 250, 251, 252, 253, 254, 255, 256, 257, 258, 259, 260, 261, 262, 263, 264, 265, 266, 267, 268, 269, 270, 271, 272, 273, 274, 275, 276, 277, 278, 279, 280, 281, 282, 283, 284, 285, 286, 287, 288, 289, 290, 291, 292, 293, 294, 295, 296, 297, 298, 299, 300, 301, 302, 303, 304, 305, 306, 307, 308, 309, 310, 311, 312, 313, 314, 315, 316, 317, 318, 319, 320, 321, 322, 323, 324, 325, 326, 327, 328, 329, 330, 331, 332, 333, 334, 335, 336, 337, 338, 339, 340, 341, 342, 343, 344, 345, 346, 347, 348, 349, 350, 351, 352, 353, 354, 355, 356, 357, 358, 359, 360, 361, 362, 363, 364, 365, 366, 367, 368, 369, 370, 371, 372, 373, 374, 375, 376, 377, 378, 379, 380, 381, 382, 383, 384, 385, 386, 387, 388, 389, 390, 391, 392, 393, 394, 395, 396, 397, 398, 399, 400, 401, 402, 403, 404, 405, 406, 407, 408, 409, 410, 411, 412, 413, 414, 415, 416, 417, 418, 419, 420, 421, 422, 423, 424, 425, 426, 427, 428, 429, 430, 431, 432, 433, 434, 435, 436, 437, 438, 439, 440, 441, 442, 443, 444, 445, 446, 447, 448, 449, 450, 451, 452, 453, 454, 455, 456, 457, 458, 459, 460, 461, 462, 463, 464, 465, 466, 467, 468, 469, 470, 471, 472, 473, 474, 475, 476, 477, 478, 479, 480, 481, 482, 483, 484, 485, 486, 487, 488, 489, 490, 491, 492, 493, 494, 495, 496, 497, 498, 499, 500, 501, 502, 503, 504, 505, 506, 507, 508, 509, 510, 511, 512, 513, 514, 515, 516, 517, 518, 519, 520, 521, 522, 523, 524, 525, 526, 527, 528, 529, 530, 531, 532, 533, 534, 535, 536, 537, 538, 539, 540, 541, 542, 543, 544, 545, 546, 547, 548, 549, 550, 551, 552, 553, 554, 555, 556, 557, 558, 559, 560, 561, 562, 563, 564, 565, 566, 567, 568, 569, 570, 571, 572, 573, 574, 575, 576, 577, 578, 579, 580, 581, 582, 583, 584, 585, 586, 587, 588, 589, 590, 591, 592, 593, 594, 595, 596, 597, 598, 599, 600, 601, 602, 603, 604, 605, 606, 607, 608, 609, 610, 611, 612, 613, 614, 615, 616, 617, 618, 619, 620, 621, 622, 623, 624, 625, 626, 627, 628, 629, 630, 631, 632, 633, 634, 635, 636, 637, 638, 639, 640, 641, 642, 643, 644, 645, 646, 647, 648, 649, 650, 651, 652, 653, 654, 655, 656, 657, 658, 659, 660, 661, 662, 663, 664, 665, 666, 667, 668, 669, 670, 671, 672, 673, 674, 675, 676, 677, 678, 679, 680, 681, 682, 683, 684, 685, 686, 687, 688, 689, 690, 691, 692, 693, 694, 695, 696, 697, 698, 699, 700, 701, 702, 703, 704, 705, 706, 707, 708, 709, 710, 711, 712, 713, 714, 715, 716, 717, 718, 719, 720, 721, 722, 723, 724, 725, 726, 727, 728, 729, 730, 731, 732, 733, 734, 735, 736, 737, 738, 739, 740, 741, 742, 743, 744, 745, 746, 747, 748, 749, 750, 751, 752, 753, 754, 755, 756, 757, 758, 759, 760, 761, 762, 763, 764, 765, 766, 767, 768, 769, 770, 771, 772, 773, 774, 775, 776, 777, 778, 779, 780, 781, 782, 783, 784, 785, 786, 787, 788, 789, 790, 791, 792, 793, 794, 795, 796, 797, 798, 799, 800, 801, 802, 803, 804, 805, 806, 807, 808, 809, 810, 811, 812, 813, 814, 815, 816, 817, 818, 819, 820, 821, 822, 823, 824, 825, 826, 827, 828, 829, 830, 831, 832, 833, 834, 835, 836, 837, 838, 839, 840, 841, 842, 843, 844, 845, 846, 847, 848, 849, 850, 851, 852, 853, 854, 855, 856, 857, 858, 859, 860, 861, 862, 863, 864, 865, 866, 867, 868, 869, 870, 871, 872],
      "AcquisitionTime": ["162634.155000", "162634.615000", "162635.075000", "162635.535000", "162635.995000", "162636.455000", "162636.915000", "162637.375000", "162637.835000", "162638.295000", "162638.755000", "162639.215000", "162639.675000", "162640.135000", "162640.595000", "162641.055000", "162641.515000", "162641.975000", "162642.435000", "162642.895000", "162643.355000", "162643.815000", "162644.275000", "162644.735000", "162645.195000", "162645.655000", "162646.115000", "162646.575000", "162647.035000", "162647.495000", "162647.955000", "162648.415000", "162648.875000", "162649.335000", "162649.795000", "162650.255000", "162650.715000", "162651.175000", "162651.635000", "162652.095000", "162652.555000", "162653.015000", "162653.475000", "162653.935000", "162654.395000", "162654.855000", "162655.315000", "162655.775000", "162656.235000", "162656.695000", "162657.155000", "162657.615000", "162658.075000", "162658.535000", "162658.995000", "162659.455000", "162659.915000", "162700.375000", "162700.835000", "162701.295000", "162701.755000", "162702.215000", "162702.675000", "162703.135000", "162703.595000", "162704.055000", "162704.515000", "162704.975000", "162705.435000", "162705.895000", "162706.355000", "162706.815000", "162707.275000", "162707.735000", "162708.195000", "162708.655000", "162709.115000", "162709.575000", "162710.035000", "162710.495000", "162710.955000", "162711.415000", "162711.875000", "162712.335000", "162712.795000", "162713.255000", "162713.715000", "162714.175000", "162714.635000", "162715.095000", "162715.555000", "162716.015000", "162716.475000", "162716.935000", "162717.395000", "162717.855000", "162718.315000", "162718.775000", "162719.235000", "162719.695000", "162720.155000", "162720.615000", "162721.075000", "162721.535000", "162721.995000", "162722.455000", "162722.915000", "162723.375000", "162723.835000", "162724.295000", "162724.755000", "162725.215000", "162725.675000", "162726.135000", "162726.595000", "162727.055000", "162727.515000", "162727.975000", "162728.435000", "162728.895000", "162729.355000", "162729.815000", "162730.275000", "162730.735000", "162731.195000", "162731.655000", "162732.115000", "162732.575000", "162733.035000", "162733.495000", "162733.955000", "162734.415000", "162734.875000", "162735.335000", "162735.795000", "162736.255000", "162736.715000", "162737.175000", "162737.635000", "162738.095000", "162738.555000", "162739.015000", "162739.475000", "162739.935000", "162740.395000", "162740.855000", "162741.315000", "162741.775000", "162742.235000", "162742.695000", "162743.155000", "162743.615000", "162744.075000", "162744.535000", "162744.995000", "162745.455000", "162745.915000", "162746.375000", "162746.835000", "162747.295000", "162747.755000", "162748.215000", "162748.675000", "162749.135000", "162749.595000", "162750.055000", "162750.515000", "162750.975000", "162751.435000", "162751.895000", "162752.355000", "162752.815000", "162753.275000", "162753.735000", "162754.195000", "162754.655000", "162755.115000", "162755.575000", "162756.035000", "162756.495000", "162756.955000", "162757.415000", "162757.875000", "162758.335000", "162758.795000", "162759.255000", "162759.715000", "162800.175000", "162800.635000", "162801.095000", "162801.555000", "162802.015000", "162802.475000", "162802.935000", "162803.395000", "162803.855000", "162804.315000", "162804.775000", "162805.235000", "162805.695000", "162806.155000", "162806.615000", "162807.075000", "162807.535000", "162807.995000", "162808.455000", "162808.915000", "162809.375000", "162809.835000", "162810.295000", "162810.755000", "162811.215000", "162811.675000", "162812.135000", "162812.595000", "162813.055000", "162813.515000", "162813.975000", "162814.435000", "162814.895000", "162815.355000", "162815.815000", "162816.275000", "162816.735000", "162817.195000", "162817.655000", "162818.115000", "162818.575000", "162819.035000", "162819.495000", "162819.955000", "162820.415000", "162820.875000", "162821.335000", "162821.795000", "162822.255000", "162822.715000", "162823.175000", "162823.635000", "162824.095000", "162824.555000", "162825.015000", "162825.475000", "162825.935000", "162826.395000", "162826.855000", "162827.315000", "162827.775000", "162828.235000", "162828.695000", "162829.155000", "162829.615000", "162830.075000", "162830.535000", "162830.995000", "162831.455000", "162831.915000", "162832.375000", "162832.835000", "162833.295000", "162833.755000", "162834.215000", "162834.675000", "162835.135000", "162835.595000", "162836.055000", "162836.515000", "162836.975000", "162837.435000", "162837.895000", "162838.355000", "162838.815000", "162839.275000", "162839.735000", "162840.195000", "162840.655000", "162841.115000", "162841.575000", "162842.035000", "162842.495000", "162842.955000", "162843.415000", "162843.875000", "162844.335000", "162844.795000", "162845.255000", "162845.715000", "162846.175000", "162846.635000", "162847.095000", "162847.555000", "162848.015000", "162848.475000", "162848.935000", "162849.395000", "162849.855000", "162850.315000", "162850.775000", "162851.235000", "162851.695000", "162852.155000", "162852.615000", "162853.075000", "162853.535000", "162853.995000", "162854.455000", "162854.915000", "162855.375000", "162855.835000", "162856.295000", "162856.755000", "162857.215000", "162857.675000", "162858.135000", "162858.595000", "162859.055000", "162859.515000", "162859.975000", "162900.435000", "162900.895000", "162901.355000", "162901.815000", "162902.275000", "162902.735000", "162903.195000", "162903.655000", "162904.115000", "162904.575000", "162905.035000", "162905.495000", "162905.955000", "162906.415000", "162906.875000", "162907.335000", "162907.795000", "162908.255000", "162908.715000", "162909.175000", "162909.635000", "162910.095000", "162910.555000", "162911.015000", "162911.475000", "162911.935000", "162912.395000", "162912.855000", "162913.315000", "162913.775000", "162914.235000", "162914.695000", "162915.155000", "162915.615000", "162916.075000", "162916.535000", "162916.995000", "162917.455000", "162917.915000", "162918.375000", "162918.835000", "162919.295000", "162919.755000", "162920.215000", "162920.675000", "162921.135000", "162921.595000", "162922.055000", "162922.515000", "162922.975000", "162923.435000", "162923.895000", "162924.355000", "162924.815000", "162925.275000", "162925.735000", "162926.195000", "162926.655000", "162927.115000", "162927.575000", "162928.035000", "162928.495000", "162928.955000", "162929.415000", "162929.875000", "162930.335000", "162930.795000", "162931.255000", "162931.715000", "162932.175000", "162932.635000", "162933.095000", "162933.555000", "162934.015000", "162934.475000", "162934.935000", "162935.395000", "162935.855000", "162936.315000", "162936.775000", "162937.235000", "162937.695000", "162938.155000", "162938.615000", "162939.075000", "162939.535000", "162939.995000", "162940.455000", "162940.915000", "162941.375000", "162941.835000", "162942.295000", "162942.755000", "162943.215000", "162943.675000", "162944.135000", "162944.595000", "162945.055000", "162945.515000", "162945.975000", "162946.435000", "162946.895000", "162947.355000", "162947.815000", "162948.275000", "162948.735000", "162949.195000", "162949.655000", "162950.115000", "162950.575000", "162951.035000", "162951.495000", "162951.955000", "162952.415000", "162952.875000", "162953.335000", "162953.795000", "162954.255000", "162954.715000", "162955.175000", "162955.635000", "162956.095000", "162956.555000", "162957.015000", "162957.475000", "162957.935000", "162958.395000", "162958.855000", "162959.315000", "162959.775000", "163000.235000", "163000.695000", "163001.155000", "163001.615000", "163002.075000", "163002.535000", "163002.995000", "163003.455000", "163003.915000", "163004.375000", "163004.835000", "163005.295000", "163005.755000", "163006.215000", "163006.675000", "163007.135000", "163007.595000", "163008.055000", "163008.515000", "163008.975000", "163009.435000", "163009.895000", "163010.355000", "163010.815000", "163011.275000", "163011.735000", "163012.195000", "163012.655000", "163013.115000", "163013.575000", "163014.035000", "163014.495000", "163014.955000", "163015.415000", "163015.875000", "163016.335000", "163016.795000", "163017.255000", "163017.715000", "163018.175000", "163018.635000", "163019.095000", "163019.555000", "163020.015000", "163020.475000", "163020.935000", "163021.395000", "163021.855000", "163022.315000", "163022.775000", "163023.235000", "163023.695000", "163024.155000", "163024.615000", "163025.075000", "163025.535000", "163025.995000", "163026.455000", "163026.915000", "163027.375000", "163027.835000", "163028.295000", "163028.755000", "163029.215000", "163029.675000", "163030.135000", "163030.595000", "163031.055000", "163031.515000", "163031.975000", "163032.435000", "163032.895000", "163033.355000", "163033.815000", "163034.275000", "163034.735000", "163035.195000", "163035.655000", "163036.115000", "163036.575000", "163037.035000", "163037.495000", "163037.955000", "163038.415000", "163038.875000", "163039.335000", "163039.795000", "163040.255000", "163040.715000", "163041.175000", "163041.635000", "163042.095000", "163042.555000", "163043.015000", "163043.475000", "163043.935000", "163044.395000", "163044.855000", "163045.315000", "163045.775000", "163046.235000", "163046.695000", "163047.155000", "163047.615000", "163048.075000", "163048.535000", "163048.995000", "163049.455000", "163049.915000", "163050.375000", "163050.835000", "163051.295000", "163051.755000", "163052.215000", "163052.675000", "163053.135000", "163053.595000", "163054.055000", "163054.515000", "163054.975000", "163055.435000", "163055.895000", "163056.355000", "163056.815000", "163057.275000", "163057.735000", "163058.195000", "163058.655000", "163059.115000", "163059.575000", "163100.035000", "163100.495000", "163100.955000", "163101.415000", "163101.875000", "163102.335000", "163102.795000", "163103.255000", "163103.715000", "163104.175000", "163104.635000", "163105.095000", "163105.555000", "163106.015000", "163106.475000", "163106.935000", "163107.395000", "163107.855000", "163108.315000", "163108.775000", "163109.235000", "163109.695000", "163110.155000", "163110.615000", "163111.075000", "163111.535000", "163111.995000", "163112.455000", "163112.915000", "163113.375000", "163113.835000", "163114.295000", "163114.755000", "163115.215000", "163115.675000", "163116.135000", "163116.595000", "163117.055000", "163117.515000", "163117.975000", "163118.435000", "163118.895000", "163119.355000", "163119.815000", "163120.275000", "163120.735000", "163121.195000", "163121.655000", "163122.115000", "163122.575000", "163123.035000", "163123.495000", "163123.955000", "163124.415000", "163124.875000", "163125.335000", "163125.795000", "163126.255000", "163126.715000", "163127.175000", "163127.635000", "163128.095000", "163128.555000", "163129.015000", "163129.475000", "163129.935000", "163130.395000", "163130.855000", "163131.315000", "163131.775000", "163132.235000", "163132.695000", "163133.155000", "163133.615000", "163134.075000", "163134.535000", "163134.995000", "163135.455000", "163135.915000", "163136.375000", "163136.835000", "163137.295000", "163137.755000", "163138.215000", "163138.675000", "163139.135000", "163139.595000", "163140.055000", "163140.515000", "163140.975000", "163141.435000", "163141.895000", "163142.355000", "163142.815000", "163143.275000", "163143.735000", "163144.195000", "163144.655000", "163145.115000", "163145.575000", "163146.035000", "163146.495000", "163146.955000", "163147.415000", "163147.875000", "163148.335000", "163148.795000", "163149.255000", "163149.715000", "163150.175000", "163150.635000", "163151.095000", "163151.555000", "163152.015000", "163152.475000", "163152.935000", "163153.395000", "163153.855000", "163154.315000", "163154.775000", "163155.235000", "163155.695000", "163156.155000", "163156.615000", "163157.075000", "163157.535000", "163157.995000", "163158.455000", "163158.915000", "163159.375000", "163159.835000", "163200.295000", "163200.755000", "163201.215000", "163201.675000", "163202.135000", "163202.595000", "163203.055000", "163203.515000", "163203.975000", "163204.435000", "163204.895000", "163205.355000", "163205.815000", "163206.275000", "163206.735000", "163207.195000", "163207.655000", "163208.115000", "163208.575000", "163209.035000", "163209.495000", "163209.955000", "163210.415000", "163210.875000", "163211.335000", "163211.795000", "163212.255000", "163212.715000", "163213.175000", "163213.635000", "163214.095000", "163214.555000", "163215.015000", "163215.475000", "163215.935000", "163216.395000", "163216.855000", "163217.315000", "163217.775000", "163218.235000", "163218.695000", "163219.155000", "163219.615000", "163220.075000", "163220.535000", "163220.995000", "163221.455000", "163221.915000", "163222.375000", "163222.835000", "163223.295000", "163223.755000", "163224.215000", "163224.675000", "163225.135000", "163225.595000", "163226.055000", "163226.515000", "163226.975000", "163227.435000", "163227.895000", "163228.355000", "163228.815000", "163229.275000", "163229.735000", "163230.195000", "163230.655000", "163231.115000", "163231.575000", "163232.035000", "163232.495000", "163232.955000", "163233.415000", "163233.875000", "163234.335000", "163234.795000", "163235.255000", "163235.715000", "163236.175000", "163236.635000", "163237.095000", "163237.555000", "163238.015000", "163238.475000", "163238.935000", "163239.395000", "163239.855000", "163240.315000", "163240.775000", "163241.235000", "163241.695000", "163242.155000", "163242.615000", "163243.075000", "163243.535000", "163243.995000", "163244.455000", "163244.915000", "163245.375000", "163245.835000", "163246.295000", "163246.755000", "163247.215000", "163247.675000", "163248.135000", "163248.595000", "163249.055000", "163249.515000", "163249.975000", "163250.435000", "163250.895000", "163251.355000", "163251.815000", "163252.275000", "163252.735000", "163253.195000", "163253.655000", "163254.115000", "163254.575000", "163255.035000", "163255.495000", "163255.955000", "163256.415000", "163256.875000", "163257.335000", "163257.795000", "163258.255000", "163258.715000", "163259.175000", "163259.635000", "163300.095000", "163300.555000", "163301.015000", "163301.475000", "163301.935000", "163302.395000", "163302.855000", "163303.315000", "163303.775000", "163304.235000", "163304.695000", "163305.155000", "163305.615000", "163306.075000", "163306.535000", "163306.995000", "163307.455000", "163307.915000", "163308.375000", "163308.835000", "163309.295000", "163309.755000", "163310.215000", "163310.675000", "163311.135000", "163311.595000", "163312.055000", "163312.515000", "163312.975000", "163313.435000", "163313.895000", "163314.355000", "163314.815000"],
