{
  "AcquisitionMatrixPE": 82,
  "AcquisitionNumber": 1,
  "AcquisitionTime": "09:57:52.635000",
  "BandwidthPerPixelPhaseEncode": 24.888,
  "BaseResolution": 82,
  "BodyPartExamined": "BRAIN",
  "ConsistencyInfo": "N4_VE11E_LATEST_20181129",
  "ConversionSoftware": "dcm2niix",
  "ConversionSoftwareVersion": "v1.0.20201102",
  "DerivedVendorReportedEchoSpacing": 0.00049,
  "DeviceSerialNumber": "66112",
  "DwellTime": 2e-06,
  "EchoTime": 0.0272,
  "EchoTrainLength": 82,
  "EffectiveEchoSpacing": 0.00049,
  "FlipAngle": 44,
  "ImageComments": "Unaliased MB8/PE3",
  "ImageOrientationPatientDICOM": [0.998913, 0.0437386, 0.016128, -0.0444869, 0.997788, 0.0493986],
  "ImageType": [
    "ORIGINAL",
    "PRIMARY",
    "M",
    "MB",
    "ND",
    "NORM",
    "MOSAIC"
],
  "ImagingFrequency": 123.252,
  "InPlanePhaseEncodingDirectionDICOM": "COL",
  "InstitutionAddress": "Maynard 3,Hanover,NH,US,03755",
  "InstitutionName": "dartmouth_brain_imaging_center",
  "InstitutionalDepartmentName": "Department",
  "MRAcquisitionType": "2D",
  "MagneticFieldStrength": 3,
  "Manufacturer": "Siemens",
  "ManufacturersModelName": "Prisma",
  "Modality": "MR",
  "MultibandAccelerationFactor": 8,
  "PartialFourier": 1,
  "PatientPosition": "HFS",
  "PercentPhaseFOV": 100,
  "PercentSampling": 100,
  "PhaseEncodingDirection": "j-",
  "PhaseEncodingSteps": 82,
  "PhaseResolution": 1,
  "PixelBandwidth": 3050,
  "ProcedureStepDescription": "Wager_Wager^1076_spacetop",
  "ProtocolName": "func_run-03_task-faces_acq-ap-mb8",
  "PulseSequenceDetails": "%CustomerSeq%\\cmrr_mbep2d_bold",
  "ReceiveCoilActiveElements": "HEA;HEP",
  "ReceiveCoilName": "Head_32",
  "ReconMatrixPE": 82,
  "RepetitionTime": 0.46,
  "SAR": 0.0870736,
  "ScanOptions": "FS",
  "ScanningSequence": "EP",
  "SequenceName": "epfid2d1_82",
  "SequenceVariant": "SK\\SS",
  "SeriesDescription": "func_run-03_task-faces_acq-ap-mb8",
  "SeriesNumber": 24,
  "ShimSetting": [4117, -7717, -7235, 588, -97, -58, 27, 133],
  "SliceThickness": 2.7,
  "SliceTiming": [0, 0.2525, 0.0625, 0.315, 0.125, 0.3775, 0.1875, 0, 0.2525, 0.0625, 0.315, 0.125, 0.3775, 0.1875, 0, 0.2525, 0.0625, 0.315, 0.125, 0.3775, 0.1875, 0, 0.2525, 0.0625, 0.315, 0.125, 0.3775, 0.1875, 0, 0.2525, 0.0625, 0.315, 0.125, 0.3775, 0.1875, 0, 0.2525, 0.0625, 0.315, 0.125, 0.3775, 0.1875, 0, 0.2525, 0.0625, 0.315, 0.125, 0.3775, 0.1875, 0, 0.2525, 0.0625, 0.315, 0.125, 0.3775, 0.1875],
  "SoftwareVersions": "syngo MR E11",
  "SpacingBetweenSlices": 2.7,
  "StationName": "AWP66112",
  "TaskName": "faces",
  "TotalReadoutTime": 0.03969,
  "TxRefAmp": 221.24,
  "WipMemBlock": "04f66641-430b-42d3-a48d-b472bdae4c16||Sequence: R016 ve11e/master r/434b28f1; Aug  7 2019 18:53:46 by eja",
  "dcmmeta_affine": [
    [-2.6800100803375244, -0.11935500055551529, 0.037615496665239334, 118.99472045898438],
    [-0.1173473373055458, 2.6769919395446777, 0.13516847789287567, -91.03534698486328],
    [0.04327015578746796, -0.13253289461135864, 2.696352005004883, -59.009254455566406],
    [0.0, 0.0, 0.0, 1.0]
],
  "dcmmeta_reorient_transform": [
    [0.0, -1.0, 0.0, 81.0],
    [1.0, 0.0, 0.0, 0.0],
    [0.0, 0.0, 1.0, 0.0],
    [0.0, 0.0, 0.0, 1.0]
],
  "dcmmeta_shape": [82, 82, 56, 914],
  "dcmmeta_slice_dim": 2,
  "dcmmeta_version": 0.6,
  "global": {
    "const": {
      "AccessionNumber": "A003993",
      "AcquisitionMatrix": [82, 0, 0, 82],
      "AngioFlag": "N",
      "BitsAllocated": 16,
      "BitsStored": 16,
      "BodyPartExamined": "BRAIN",
      "Columns": 656,
      "EchoNumbers": 1,
      "EchoTime": 27.2,
      "EchoTrainLength": 82,
      "FlipAngle": 44.0,
      "HighBit": 15,
      "ImageOrientationPatient": [0.99891282290818, 0.04373855184115, 0.01612796678015, -0.04448686225, 0.99778790097154, 0.04939862105318],
      "ImagePositionPatient": [-844.23496998381, -927.77639549632, -120.19989387687],
      "ImageType": [
        "ORIGINAL",
        "PRIMARY",
        "M",
        "MB",
        "ND",
        "NORM",
        "MOSAIC"
],
      "ImagedNucleus": "1H",
      "ImagingFrequency": 123.25221,
      "InPlanePhaseEncodingDirection": "COL",
      "MRAcquisitionType": "2D",
      "MagneticFieldStrength": 3.0,
      "Manufacturer": "SIEMENS",
      "ManufacturerModelName": "Prisma",
      "Modality": "MR",
      "NumberOfAverages": 1.0,
      "NumberOfPhaseEncodingSteps": 82,
      "PercentPhaseFieldOfView": 100.0,
      "PercentSampling": 100.0,
      "PerformedProcedureStepStartTime": "083607.063000",
      "PhotometricInterpretation": "MONOCHROME2",
      "PixelBandwidth": 3050.0,
      "PixelRepresentation": 0,
      "PixelSpacing": [2.6829268932343, 2.6829268932343],
      "ProtocolName": "func_run-03_task-faces_acq-ap-mb8",
      "RepetitionTime": 460.0,
      "Rows": 656,
      "SAR": 0.08707358545918,
      "SamplesPerPixel": 1,
      "ScanOptions": "FS",
      "ScanningSequence": "EP",
      "SequenceName": "epfid2d1_82",
      "SequenceVariant": [
        "SK",
        "SS"
],
      "SeriesDescription": "func_run-03_task-faces_acq-ap-mb8",
      "SeriesNumber": 24,
      "SeriesTime": "095809.546000",
      "SliceLocation": -61.829182809787,
      "SliceThickness": 2.7000000476837,
      "SmallestImagePixelValue": 0,
      "SoftwareVersions": "syngo MR E11",
      "SpacingBetweenSlices": 2.700000024592,
      "SpecificCharacterSet": "ISO_IR 100",
      "StudyID": "1",
      "StudyTime": "083606.890000",
      "TransmitCoilName": "Body",
      "VariableFlipAngleFlag": "N",
      "WindowCenterWidthExplanation": "Algo1"
    },
    "slices": {}
  },
  "time": {
    "samples": {
      "AcquisitionNumber": [1, 2, 3, 4, 5, 6, 7, 8, 9, 10, 11, 12, 13, 14, 15, 16, 17, 18, 19, 20, 21, 22, 23, 24, 25, 26, 27, 28, 29, 30, 31, 32, 33, 34, 35, 36, 37, 38, 39, 40, 41, 42, 43, 44, 45, 46, 47, 48, 49, 50, 51, 52, 53, 54, 55, 56, 57, 58, 59, 60, 61, 62, 63, 64, 65, 66, 67, 68, 69, 70, 71, 72, 73, 74, 75, 76, 77, 78, 79, 80, 81, 82, 83, 84, 85, 86, 87, 88, 89, 90, 91, 92, 93, 94, 95, 96, 97, 98, 99, 100, 101, 102, 103, 104, 105, 106, 107, 108, 109, 110, 111, 112, 113, 114, 115, 116, 117, 118, 119, 120, 121, 122, 123, 124, 125, 126, 127, 128, 129, 130, 131, 132, 133, 134, 135, 136, 137, 138, 139, 140, 141, 142, 143, 144, 145, 146, 147, 148, 149, 150, 151, 152, 153, 154, 155, 156, 157, 158, 159, 160, 161, 162, 163, 164, 165, 166, 167, 168, 169, 170, 171, 172, 173, 174, 175, 176, 177, 178, 179, 180, 181, 182, 183, 184, 185, 186, 187, 188, 189, 190, 191, 192, 193, 194, 195, 196, 197, 198, 199, 200, 201, 202, 203, 204, 205, 206, 207, 208, 209, 210, 211, 212, 213, 214, 215, 216, 217, 218, 219, 220, 221, 222, 223, 224, 225, 226, 227, 228, 229, 230, 231, 232, 233, 234, 235, 236, 237, 238, 239, 240, 241, 242, 243, 244, 245, 246, 247, 248, 249, 250, 251, 252, 253, 254, 255, 256, 257, 258, 259, 260, 261, 262, 263, 264, 265, 266, 267, 268, 269, 270, 271, 272, 273, 274, 275, 276, 277, 278, 279, 280, 281, 282, 283, 284, 285, 286, 287, 288, 289, 290, 291, 292, 293, 294, 295, 296, 297, 298, 299, 300, 301, 302, 303, 304, 305, 306, 307, 308, 309, 310, 311, 312, 313, 314, 315, 316, 317, 318, 319, 320, 321, 322, 323, 324, 325, 326, 327, 328, 329, 330, 331, 332, 333, 334, 335, 336, 337, 338, 339, 340, 341, 342, 343, 344, 345, 346, 347, 348, 349, 350, 351, 352, 353, 354, 355, 356, 357, 358, 359, 360, 361, 362, 363, 364, 365, 366, 367, 368, 369, 370, 371, 372, 373, 374, 375, 376, 377, 378, 379, 380, 381, 382, 383, 384, 385, 386, 387, 388, 389, 390, 391, 392, 393, 394, 395, 396, 397, 398, 399, 400, 401, 402, 403, 404, 405, 406, 407, 408, 409, 410, 411, 412, 413, 414, 415, 416, 417, 418, 419, 420, 421, 422, 423, 424, 425, 426, 427, 428, 429, 430, 431, 432, 433, 434, 435, 436, 437, 438, 439, 440, 441, 442, 443, 444, 445, 446, 447, 448, 449, 450, 451, 452, 453, 454, 455, 456, 457, 458, 459, 460, 461, 462, 463, 464, 465, 466, 467, 468, 469, 470, 471, 472, 473, 474, 475, 476, 477, 478, 479, 480, 481, 482, 483, 484, 485, 486, 487, 488, 489, 490, 491, 492, 493, 494, 495, 496, 497, 498, 499, 500, 501, 502, 503, 504, 505, 506, 507, 508, 509, 510, 511, 512, 513, 514, 515, 516, 517, 518, 519, 520, 521, 522, 523, 524, 525, 526, 527, 528, 529, 530, 531, 532, 533, 534, 535, 536, 537, 538, 539, 540, 541, 542, 543, 544, 545, 546, 547, 548, 549, 550, 551, 552, 553, 554, 555, 556, 557, 558, 559, 560, 561, 562, 563, 564, 565, 566, 567, 568, 569, 570, 571, 572, 573, 574, 575, 576, 577, 578, 579, 580, 581, 582, 583, 584, 585, 586, 587, 588, 589, 590, 591, 592, 593, 594, 595, 596, 597, 598, 599, 600, 601, 602, 603, 604, 605, 606, 607, 608, 609, 610, 611, 612, 613, 614, 615, 616, 617, 618, 619, 620, 621, 622, 623, 624, 625, 626, 627, 628, 629, 630, 631, 632, 633, 634, 635, 636, 637, 638, 639, 640, 641, 642, 643, 644, 645, 646, 647, 648, 649, 650, 651, 652, 653, 654, 655, 656, 657, 658, 659, 660, 661, 662, 663, 664, 665, 666, 667, 668, 669, 670, 671, 672, 673, 674, 675, 676, 677, 678, 679, 680, 681, 682, 683, 684, 685, 686, 687, 688, 689, 690, 691, 692, 693, 694, 695, 696, 697, 698, 699, 700, 701, 702, 703, 704, 705, 706, 707, 708, 709, 710, 711, 712, 713, 714, 715, 716, 717, 718, 719, 720, 721, 722, 723, 724, 725, 726, 727, 728, 729, 730, 731, 732, 733, 734, 735, 736, 737, 738, 739, 740, 741, 742, 743, 744, 745, 746, 747, 748, 749, 750, 751, 752, 753, 754, 755, 756, 757, 758, 759, 760, 761, 762, 763, 764, 765, 766, 767, 768, 769, 770, 771, 772, 773, 774, 775, 776, 777, 778, 779, 780, 781, 782, 783, 784, 785, 786, 787, 788, 789, 790, 791, 792, 793, 794, 795, 796, 797, 798, 799, 800, 801, 802, 803, 804, 805, 806, 807, 808, 809, 810, 811, 812, 813, 814, 815, 816, 817, 818, 819, 820, 821, 822, 823, 824, 825, 826, 827, 828, 829, 830, 831, 832, 833, 834, 835, 836, 837, 838, 839, 840, 841, 842, 843, 844, 845, 846, 847, 848, 849, 850, 851, 852, 853, 854, 855, 856, 857, 858, 859, 860, 861, 862, 863, 864, 865, 866, 867, 868, 869, 870, 871, 872, 873, 874, 875, 876, 877, 878, 879, 880, 881, 882, 883, 884, 885, 886, 887, 888, 889, 890, 891, 892, 893, 894, 895, 896, 897, 898, 899, 900, 901, 902, 903, 904, 905, 906, 907, 908, 909, 910, 911, 912, 913, 914],
      "AcquisitionTime": ["095752.635000", "095753.095000", "095753.555000", "095754.015000", "095754.475000", "095754.935000", "095755.395000", "095755.855000", "095756.315000", "095756.775000", "095757.235000", "095757.695000", "095758.155000", "095758.615000", "095759.075000", "095759.535000", "095759.995000", "095800.455000", "095800.915000", "095801.375000", "095801.835000", "095802.295000", "095802.755000", "095803.215000", "095803.675000", "095804.135000", "095804.595000", "095805.055000", "095805.515000", "095805.975000", "095806.435000", "095806.895000", "095807.355000", "095807.815000", "095808.275000", "095808.735000", "095809.195000", "095809.655000", "095810.115000", "095810.575000", "095811.035000", "095811.495000", "095811.955000", "095812.415000", "095812.875000", "095813.335000", "095813.795000", "095814.255000", "095814.715000", "095815.175000", "095815.635000", "095816.095000", "095816.555000", "095817.015000", "095817.475000", "095817.935000", "095818.395000", "095818.855000", "095819.315000", "095819.775000", "095820.235000", "095820.695000", "095821.155000", "095821.615000", "095822.075000", "095822.535000", "095822.995000", "095823.455000", "095823.915000", "095824.375000", "095824.835000", "095825.295000", "095825.755000", "095826.215000", "095826.675000", "095827.135000", "095827.595000", "095828.055000", "095828.515000", "095828.975000", "095829.435000", "095829.895000", "095830.355000", "095830.815000", "095831.275000", "095831.735000", "095832.195000", "095832.655000", "095833.115000", "095833.575000", "095834.035000", "095834.495000", "095834.955000", "095835.415000", "095835.875000", "095836.335000", "095836.795000", "095837.255000", "095837.715000", "095838.175000", "095838.635000", "095839.095000", "095839.555000", "095840.015000", "095840.475000", "095840.935000", "095841.395000", "095841.855000", "095842.315000", "095842.775000", "095843.235000", "095843.695000", "095844.155000", "095844.615000", "095845.075000", "095845.535000", "095845.995000", "095846.455000", "095846.915000", "095847.375000", "095847.835000", "095848.295000", "095848.755000", "095849.215000", "095849.675000", "095850.135000", "095850.595000", "095851.055000", "095851.515000", "095851.975000", "095852.435000", "095852.895000", "095853.355000", "095853.815000", "095854.275000", "095854.735000", "095855.195000", "095855.655000", "095856.115000", "095856.575000", "095857.035000", "095857.495000", "095857.955000", "095858.415000", "095858.875000", "095859.335000", "095859.795000", "095900.255000", "095900.715000", "095901.175000", "095901.635000", "095902.095000", "095902.555000", "095903.015000", "095903.475000", "095903.935000", "095904.395000", "095904.855000", "095905.315000", "095905.775000", "095906.235000", "095906.695000", "095907.155000", "095907.615000", "095908.075000", "095908.535000", "095908.995000", "095909.455000", "095909.915000", "095910.375000", "095910.835000", "095911.295000", "095911.755000", "095912.215000", "095912.675000", "095913.135000", "095913.595000", "095914.055000", "095914.515000", "095914.975000", "095915.435000", "095915.895000", "095916.355000", "095916.815000", "095917.275000", "095917.735000", "095918.195000", "095918.655000", "095919.115000", "095919.575000", "095920.035000", "095920.495000", "095920.955000", "095921.415000", "095921.875000", "095922.335000", "095922.795000", "095923.255000", "095923.715000", "095924.175000", "095924.635000", "095925.095000", "095925.555000", "095926.015000", "095926.475000", "095926.935000", "095927.395000", "095927.855000", "095928.315000", "095928.775000", "095929.235000", "095929.695000", "095930.155000", "095930.615000", "095931.075000", "095931.535000", "095931.995000", "095932.455000", "095932.915000", "095933.375000", "095933.835000", "095934.295000", "095934.755000", "095935.215000", "095935.675000", "095936.135000", "095936.595000", "095937.055000", "095937.515000", "095937.975000", "095938.435000", "095938.895000", "095939.355000", "095939.815000", "095940.275000", "095940.735000", "095941.195000", "095941.655000", "095942.115000", "095942.575000", "095943.035000", "095943.495000", "095943.955000", "095944.415000", "095944.875000", "095945.335000", "095945.795000", "095946.255000", "095946.715000", "095947.175000", "095947.635000", "095948.095000", "095948.555000", "095949.015000", "095949.475000", "095949.935000", "095950.395000", "095950.855000", "095951.315000", "095951.775000", "095952.235000", "095952.695000", "095953.155000", "095953.615000", "095954.075000", "095954.535000", "095954.995000", "095955.455000", "095955.915000", "095956.375000", "095956.835000", "095957.295000", "095957.755000", "095958.215000", "095958.675000", "095959.135000", "095959.595000", "100000.055000", "100000.515000", "100000.975000", "100001.435000", "100001.895000", "100002.355000", "100002.815000", "100003.275000", "100003.735000", "100004.195000", "100004.655000", "100005.115000", "100005.575000", "100006.035000", "100006.495000", "100006.955000", "100007.415000", "100007.875000", "100008.335000", "100008.795000", "100009.255000", "100009.715000", "100010.175000", "100010.635000", "100011.095000", "100011.555000", "100012.015000", "100012.475000", "100012.935000", "100013.395000", "100013.855000", "100014.315000", "100014.775000", "100015.235000", "100015.695000", "100016.155000", "100016.615000", "100017.075000", "100017.535000", "100017.995000", "100018.455000", "100018.915000", "100019.375000", "100019.835000", "100020.295000", "100020.755000", "100021.215000", "100021.675000", "100022.135000", "100022.595000", "100023.055000", "100023.515000", "100023.975000", "100024.435000", "100024.895000", "100025.355000", "100025.815000", "100026.275000", "100026.735000", "100027.195000", "100027.655000", "100028.115000", "100028.575000", "100029.035000", "100029.495000", "100029.955000", "100030.415000", "100030.875000", "100031.335000", "100031.795000", "100032.255000", "100032.715000", "100033.175000", "100033.635000", "100034.095000", "100034.555000", "100035.015000", "100035.475000", "100035.935000", "100036.395000", "100036.855000", "100037.315000", "100037.775000", "100038.235000", "100038.695000", "100039.155000", "100039.615000", "100040.075000", "100040.535000", "100040.995000", "100041.455000", "100041.915000", "100042.375000", "100042.835000", "100043.295000", "100043.755000", "100044.215000", "100044.675000", "100045.135000", "100045.595000", "100046.055000", "100046.515000", "100046.975000", "100047.435000", "100047.895000", "100048.355000", "100048.815000", "100049.275000", "100049.735000", "100050.195000", "100050.655000", "100051.115000", "100051.575000", "100052.035000", "100052.495000", "100052.955000", "100053.415000", "100053.875000", "100054.335000", "100054.795000", "100055.255000", "100055.715000", "100056.175000", "100056.635000", "100057.095000", "100057.555000", "100058.015000", "100058.475000", "100058.935000", "100059.395000", "100059.855000", "100100.315000", "100100.775000", "100101.235000", "100101.695000", "100102.155000", "100102.615000", "100103.075000", "100103.535000", "100103.995000", "100104.455000", "100104.915000", "100105.375000", "100105.835000", "100106.295000", "100106.755000", "100107.215000", "100107.675000", "100108.135000", "100108.595000", "100109.055000", "100109.515000", "100109.975000", "100110.435000", "100110.895000", "100111.355000", "100111.815000", "100112.275000", "100112.735000", "100113.195000", "100113.655000", "100114.115000", "100114.575000", "100115.035000", "100115.495000", "100115.955000", "100116.415000", "100116.875000", "100117.335000", "100117.795000", "100118.255000", "100118.715000", "100119.175000", "100119.635000", "100120.095000", "100120.555000", "100121.015000", "100121.475000", "100121.935000", "100122.395000", "100122.855000", "100123.315000", "100123.775000", "100124.235000", "100124.695000", "100125.155000", "100125.615000", "100126.075000", "100126.535000", "100126.995000", "100127.455000", "100127.915000", "100128.375000", "100128.835000", "100129.295000", "100129.755000", "100130.215000", "100130.675000", "100131.135000", "100131.595000", "100132.055000", "100132.515000", "100132.975000", "100133.435000", "100133.895000", "100134.355000", "100134.815000", "100135.275000", "100135.735000", "100136.195000", "100136.655000", "100137.115000", "100137.575000", "100138.035000", "100138.495000", "100138.955000", "100139.415000", "100139.875000", "100140.335000", "100140.795000", "100141.255000", "100141.715000", "100142.175000", "100142.635000", "100143.095000", "100143.555000", "100144.015000", "100144.475000", "100144.935000", "100145.395000", "100145.855000", "100146.315000", "100146.775000", "100147.235000", "100147.695000", "100148.155000", "100148.615000", "100149.075000", "100149.535000", "100149.995000", "100150.455000", "100150.915000", "100151.375000", "100151.835000", "100152.295000", "100152.755000", "100153.215000", "100153.675000", "100154.135000", "100154.595000", "100155.055000", "100155.515000", "100155.975000", "100156.435000", "100156.895000", "100157.355000", "100157.815000", "100158.275000", "100158.735000", "100159.195000", "100159.655000", "100200.115000", "100200.575000", "100201.035000", "100201.495000", "100201.955000", "100202.415000", "100202.875000", "100203.335000", "100203.795000", "100204.255000", "100204.715000", "100205.175000", "100205.635000", "100206.095000", "100206.555000", "100207.015000", "100207.475000", "100207.935000", "100208.395000", "100208.855000", "100209.315000", "100209.775000", "100210.235000", "100210.695000", "100211.155000", "100211.615000", "100212.075000", "100212.535000", "100212.995000", "100213.455000", "100213.915000", "100214.375000", "100214.835000", "100215.295000", "100215.755000", "100216.215000", "100216.675000", "100217.135000", "100217.595000", "100218.055000", "100218.515000", "100218.975000", "100219.435000", "100219.895000", "100220.355000", "100220.815000", "100221.275000", "100221.735000", "100222.195000", "100222.655000", "100223.115000", "100223.575000", "100224.035000", "100224.495000", "100224.955000", "100225.415000", "100225.875000", "100226.335000", "100226.795000", "100227.255000", "100227.715000", "100228.175000", "100228.635000", "100229.095000", "100229.555000", "100230.015000", "100230.475000", "100230.935000", "100231.395000", "100231.855000", "100232.315000", "100232.775000", "100233.235000", "100233.695000", "100234.155000", "100234.615000", "100235.075000", "100235.535000", "100235.995000", "100236.455000", "100236.915000", "100237.375000", "100237.835000", "100238.295000", "100238.755000", "100239.215000", "100239.675000", "100240.135000", "100240.595000", "100241.055000", "100241.515000", "100241.975000", "100242.435000", "100242.895000", "100243.355000", "100243.815000", "100244.275000", "100244.735000", "100245.195000", "100245.655000", "100246.115000", "100246.575000", "100247.035000", "100247.495000", "100247.955000", "100248.415000", "100248.875000", "100249.335000", "100249.795000", "100250.255000", "100250.715000", "100251.175000", "100251.635000", "100252.095000", "100252.555000", "100253.015000", "100253.475000", "100253.935000", "100254.395000", "100254.855000", "100255.315000", "100255.775000", "100256.235000", "100256.695000", "100257.155000", "100257.615000", "100258.075000", "100258.535000", "100258.995000", "100259.455000", "100259.915000", "100300.375000", "100300.835000", "100301.295000", "100301.755000", "100302.215000", "100302.675000", "100303.135000", "100303.595000", "100304.055000", "100304.515000", "100304.975000", "100305.435000", "100305.895000", "100306.355000", "100306.815000", "100307.275000", "100307.735000", "100308.195000", "100308.655000", "100309.115000", "100309.575000", "100310.035000", "100310.495000", "100310.955000", "100311.415000", "100311.875000", "100312.335000", "100312.795000", "100313.255000", "100313.715000", "100314.175000", "100314.635000", "100315.095000", "100315.555000", "100316.015000", "100316.475000", "100316.935000", "100317.395000", "100317.855000", "100318.315000", "100318.775000", "100319.235000", "100319.695000", "100320.155000", "100320.615000", "100321.075000", "100321.535000", "100321.995000", "100322.455000", "100322.915000", "100323.375000", "100323.835000", "100324.295000", "100324.755000", "100325.215000", "100325.675000", "100326.135000", "100326.595000", "100327.055000", "100327.515000", "100327.975000", "100328.435000", "100328.895000", "100329.355000", "100329.815000", "100330.275000", "100330.735000", "100331.195000", "100331.655000", "100332.115000", "100332.575000", "100333.035000", "100333.495000", "100333.955000", "100334.415000", "100334.875000", "100335.335000", "100335.795000", "100336.255000", "100336.715000", "100337.175000", "100337.635000", "100338.095000", "100338.555000", "100339.015000", "100339.475000", "100339.935000", "100340.395000", "100340.855000", "100341.315000", "100341.775000", "100342.235000", "100342.695000", "100343.155000", "100343.615000", "100344.075000", "100344.535000", "100344.995000", "100345.455000", "100345.915000", "100346.375000", "100346.835000", "100347.295000", "100347.755000", "100348.215000", "100348.675000", "100349.135000", "100349.595000", "100350.055000", "100350.515000", "100350.975000", "100351.435000", "100351.895000", "100352.355000", "100352.815000", "100353.275000", "100353.735000", "100354.195000", "100354.655000", "100355.115000", "100355.575000", "100356.035000", "100356.495000", "100356.955000", "100357.415000", "100357.875000", "100358.335000", "100358.795000", "100359.255000", "100359.715000", "100400.175000", "100400.635000", "100401.095000", "100401.555000", "100402.015000", "100402.475000", "100402.935000", "100403.395000", "100403.855000", "100404.315000", "100404.775000", "100405.235000", "100405.695000", "100406.155000", "100406.615000", "100407.075000", "100407.535000", "100407.995000", "100408.455000", "100408.915000", "100409.375000", "100409.835000", "100410.295000", "100410.755000", "100411.215000", "100411.675000", "100412.135000", "100412.595000", "100413.055000", "100413.515000", "100413.975000", "100414.435000", "100414.895000", "100415.355000", "100415.815000", "100416.275000", "100416.735000", "100417.195000", "100417.655000", "100418.115000", "100418.575000", "100419.035000", "100419.495000", "100419.955000", "100420.415000", "100420.875000", "100421.335000", "100421.795000", "100422.255000", "100422.715000", "100423.175000", "100423.635000", "100424.095000", "100424.555000", "100425.015000", "100425.475000", "100425.935000", "100426.395000", "100426.855000", "100427.315000", "100427.775000", "100428.235000", "100428.695000", "100429.155000", "100429.615000", "100430.075000", "100430.535000", "100430.995000", "100431.455000", "100431.915000", "100432.375000", "100432.835000", "100433.295000", "100433.755000", "100434.215000", "100434.675000", "100435.135000", "100435.595000", "100436.055000", "100436.515000", "100436.975000", "100437.435000", "100437.895000", "100438.355000", "100438.815000", "100439.275000", "100439.735000", "100440.195000", "100440.655000", "100441.115000", "100441.575000", "100442.035000", "100442.495000", "100442.955000", "100443.415000", "100443.875000", "100444.335000", "100444.795000", "100445.255000", "100445.715000", "100446.175000", "100446.635000", "100447.095000", "100447.555000", "100448.015000", "100448.475000", "100448.935000", "100449.395000", "100449.855000", "100450.315000", "100450.775000", "100451.235000", "100451.695000", "100452.155000", "100452.615000"],
