{
  "AcquisitionMatrixPE": 82,
  "AcquisitionNumber": 1,
  "AcquisitionTime": "10:38:31.195000",
  "BandwidthPerPixelPhaseEncode": 24.888,
  "BaseResolution": 82,
  "BodyPartExamined": "BRAIN",
  "ConsistencyInfo": "N4_VE11E_LATEST_20181129",
  "ConversionSoftware": "dcm2niix",
  "ConversionSoftwareVersion": "v1.0.20201102",
  "DerivedVendorReportedEchoSpacing": 0.00049,
  "DeviceSerialNumber": "66112",
  "DwellTime": 2e-06,
  "EchoTime": 0.0272,
  "EchoTrainLength": 82,
  "EffectiveEchoSpacing": 0.00049,
  "FlipAngle": 44,
  "ImageComments": "Unaliased MB8/PE3",
  "ImageOrientationPatientDICOM": [0.996612, 0.0553046, 0.0608773, -0.0551958, 0.99847, -0.00346884],
  "ImageType": [
    "ORIGINAL",
    "PRIMARY",
    "M",
    "MB",
    "ND",
    "NORM",
    "MOSAIC"
],
  "ImagingFrequency": 123.252,
  "InPlanePhaseEncodingDirectionDICOM": "COL",
  "InstitutionAddress": "Maynard 3,Hanover,NH,US,03755",
  "InstitutionName": "dartmouth_brain_imaging_center",
  "InstitutionalDepartmentName": "Department",
  "MRAcquisitionType": "2D",
  "MagneticFieldStrength": 3,
  "Manufacturer": "Siemens",
  "ManufacturersModelName": "Prisma",
  "Modality": "MR",
  "MultibandAccelerationFactor": 8,
  "PartialFourier": 1,
  "PatientPosition": "HFS",
  "PercentPhaseFOV": 100,
  "PercentSampling": 100,
  "PhaseEncodingDirection": "j-",
  "PhaseEncodingSteps": 82,
  "PhaseResolution": 1,
  "PixelBandwidth": 3050,
  "ProcedureStepDescription": "Wager_Wager^1076_spacetop",
  "ProtocolName": "func_run-04_task-alignvideo_acq-ap-mb8",
  "PulseSequenceDetails": "%CustomerSeq%\\cmrr_mbep2d_bold",
  "ReceiveCoilActiveElements": "HEA;HEP",
  "ReceiveCoilName": "Head_32",
  "ReconMatrixPE": 82,
  "RepetitionTime": 0.46,
  "SAR": 0.0870736,
  "ScanOptions": "FS",
  "ScanningSequence": "EP",
  "SequenceName": "epfid2d1_82",
  "SequenceVariant": "SK\\SS",
  "SeriesDescription": "func_run-04_task-alignvideo_acq-ap-mb8",
  "SeriesNumber": 38,
  "ShimSetting": [4116, -7719, -7233, 594, -100, -72, 28, 138],
  "SliceThickness": 2.7,
  "SliceTiming": [0, 0.2525, 0.0625, 0.315, 0.125, 0.3775, 0.1875, 0, 0.2525, 0.0625, 0.315, 0.125, 0.3775, 0.1875, 0, 0.2525, 0.0625, 0.315, 0.125, 0.3775, 0.1875, 0, 0.2525, 0.0625, 0.315, 0.125, 0.3775, 0.1875, 0, 0.2525, 0.0625, 0.315, 0.125, 0.3775, 0.1875, 0, 0.2525, 0.0625, 0.315, 0.125, 0.3775, 0.1875, 0, 0.2525, 0.0625, 0.315, 0.125, 0.3775, 0.1875, 0, 0.2525, 0.0625, 0.315, 0.125, 0.3775, 0.1875],
  "SoftwareVersions": "syngo MR E11",
  "SpacingBetweenSlices": 2.7,
  "StationName": "AWP66112",
  "TaskName": "alignvideo",
  "TotalReadoutTime": 0.03969,
  "TxRefAmp": 221.24,
  "WipMemBlock": "796ad629-1474-42a1-8afc-7bfd38e2d1db||Sequence: R016 ve11e/master r/434b28f1; Aug  7 2019 18:53:46 by eja",
  "dcmmeta_affine": [
    [-2.6738369464874268, -0.1480863094329834, 0.16463524103164673, 117.86753845214844],
    [-0.14837823808193207, 2.678820848464966, -0.00026165926828980446, -86.66822052001953],
    [0.16332946717739105, 0.009306637570261955, 2.6949758529663086, -72.89757537841797],
    [0.0, 0.0, 0.0, 1.0]
],
  "dcmmeta_reorient_transform": [
    [0.0, -1.0, 0.0, 81.0],
    [1.0, 0.0, 0.0, 0.0],
    [0.0, 0.0, 1.0, 0.0],
    [0.0, 0.0, 0.0, 1.0]
],
  "dcmmeta_shape": [82, 82, 56, 914],
  "dcmmeta_slice_dim": 2,
  "dcmmeta_version": 0.6,
  "global": {
    "const": {
      "AccessionNumber": "A003993",
      "AcquisitionMatrix": [82, 0, 0, 82],
      "AngioFlag": "N",
      "BitsAllocated": 16,
      "BitsStored": 16,
      "BodyPartExamined": "BRAIN",
      "Columns": 656,
      "EchoNumbers": 1,
      "EchoTime": 27.2,
      "EchoTrainLength": 82,
      "FlipAngle": 44.0,
      "HighBit": 15,
      "ImageOrientationPatient": [0.99661193471345, 0.05530461332058, 0.0608773466256, -0.0551958042965, 0.99846952399848, -0.0034688376022],
      "ImagePositionPatient": [-830.76298697953, -941.7223678769, -116.34829316116],
      "ImageType": [
        "ORIGINAL",
        "PRIMARY",
        "M",
        "MB",
        "ND",
        "NORM",
        "MOSAIC"
],
      "ImagedNucleus": "1H",
      "ImagingFrequency": 123.252211,
      "InPlanePhaseEncodingDirection": "COL",
      "MRAcquisitionType": "2D",
      "MagneticFieldStrength": 3.0,
      "Manufacturer": "SIEMENS",
      "ManufacturerModelName": "Prisma",
      "Modality": "MR",
      "NumberOfAverages": 1.0,
      "NumberOfPhaseEncodingSteps": 82,
      "PercentPhaseFieldOfView": 100.0,
      "PercentSampling": 100.0,
      "PerformedProcedureStepStartTime": "083607.063000",
      "PhotometricInterpretation": "MONOCHROME2",
      "PixelBandwidth": 3050.0,
      "PixelRepresentation": 0,
      "PixelSpacing": [2.6829268932343, 2.6829268932343],
      "ProtocolName": "func_run-04_task-alignvideo_acq-ap-mb8",
      "RepetitionTime": 460.0,
      "Rows": 656,
      "SAR": 0.08707358545918,
      "SamplesPerPixel": 1,
      "ScanOptions": "FS",
      "ScanningSequence": "EP",
      "SequenceName": "epfid2d1_82",
      "SequenceVariant": [
        "SK",
        "SS"
],
      "SeriesDescription": "func_run-04_task-alignvideo_acq-ap-mb8",
      "SeriesNumber": 38,
      "SeriesTime": "103849.658000",
      "SliceLocation": -65.566439597663,
      "SliceThickness": 2.7000000476837,
      "SmallestImagePixelValue": 0,
      "SoftwareVersions": "syngo MR E11",
      "SpacingBetweenSlices": 2.6999999233389,
      "SpecificCharacterSet": "ISO_IR 100",
      "StudyID": "1",
      "StudyTime": "083606.890000",
      "TransmitCoilName": "Body",
      "VariableFlipAngleFlag": "N",
      "WindowCenterWidthExplanation": "Algo1"
    },
    "slices": {}
  },
  "time": {
    "samples": {
      "AcquisitionNumber": [1, 2, 3, 4, 5, 6, 7, 8, 9, 10, 11, 12, 13, 14, 15, 16, 17, 18, 19, 20, 21, 22, 23, 24, 25, 26, 27, 28, 29, 30, 31, 32, 33, 34, 35, 36, 37, 38, 39, 40, 41, 42, 43, 44, 45, 46, 47, 48, 49, 50, 51, 52, 53, 54, 55, 56, 57, 58, 59, 60, 61, 62, 63, 64, 65, 66, 67, 68, 69, 70, 71, 72, 73, 74, 75, 76, 77, 78, 79, 80, 81, 82, 83, 84, 85, 86, 87, 88, 89, 90, 91, 92, 93, 94, 95, 96, 97, 98, 99, 100, 101, 102, 103, 104, 105, 106, 107, 108, 109, 110, 111, 112, 113, 114, 115, 116, 117, 118, 119, 120, 121, 122, 123, 124, 125, 126, 127, 128, 129, 130, 131, 132, 133, 134, 135, 136, 137, 138, 139, 140, 141, 142, 143, 144, 145, 146, 147, 148, 149, 150, 151, 152, 153, 154, 155, 156, 157, 158, 159, 160, 161, 162, 163, 164, 165, 166, 167, 168, 169, 170, 171, 172, 173, 174, 175, 176, 177, 178, 179, 180, 181, 182, 183, 184, 185, 186, 187, 188, 189, 190, 191, 192, 193, 194, 195, 196, 197, 198, 199, 200, 201, 202, 203, 204, 205, 206, 207, 208, 209, 210, 211, 212, 213, 214, 215, 216, 217, 218, 219, 220, 221, 222, 223, 224, 225, 226, 227, 228, 229, 230, 231, 232, 233, 234, 235, 236, 237, 238, 239, 240, 241, 242, 243, 244, 245, 246, 247, 248, 249, 250, 251, 252, 253, 254, 255, 256, 257, 258, 259, 260, 261, 262, 263, 264, 265, 266, 267, 268, 269, 270, 271, 272, 273, 274, 275, 276, 277, 278, 279, 280, 281, 282, 283, 284, 285, 286, 287, 288, 289, 290, 291, 292, 293, 294, 295, 296, 297, 298, 299, 300, 301, 302, 303, 304, 305, 306, 307, 308, 309, 310, 311, 312, 313, 314, 315, 316, 317, 318, 319, 320, 321, 322, 323, 324, 325, 326, 327, 328, 329, 330, 331, 332, 333, 334, 335, 336, 337, 338, 339, 340, 341, 342, 343, 344, 345, 346, 347, 348, 349, 350, 351, 352, 353, 354, 355, 356, 357, 358, 359, 360, 361, 362, 363, 364, 365, 366, 367, 368, 369, 370, 371, 372, 373, 374, 375, 376, 377, 378, 379, 380, 381, 382, 383, 384, 385, 386, 387, 388, 389, 390, 391, 392, 393, 394, 395, 396, 397, 398, 399, 400, 401, 402, 403, 404, 405, 406, 407, 408, 409, 410, 411, 412, 413, 414, 415, 416, 417, 418, 419, 420, 421, 422, 423, 424, 425, 426, 427, 428, 429, 430, 431, 432, 433, 434, 435, 436, 437, 438, 439, 440, 441, 442, 443, 444, 445, 446, 447, 448, 449, 450, 451, 452, 453, 454, 455, 456, 457, 458, 459, 460, 461, 462, 463, 464, 465, 466, 467, 468, 469, 470, 471, 472, 473, 474, 475, 476, 477, 478, 479, 480, 481, 482, 483, 484, 485, 486, 487, 488, 489, 490, 491, 492, 493, 494, 495, 496, 497, 498, 499, 500, 501, 502, 503, 504, 505, 506, 507, 508, 509, 510, 511, 512, 513, 514, 515, 516, 517, 518, 519, 520, 521, 522, 523, 524, 525, 526, 527, 528, 529, 530, 531, 532, 533, 534, 535, 536, 537, 538, 539, 540, 541, 542, 543, 544, 545, 546, 547, 548, 549, 550, 551, 552, 553, 554, 555, 556, 557, 558, 559, 560, 561, 562, 563, 564, 565, 566, 567, 568, 569, 570, 571, 572, 573, 574, 575, 576, 577, 578, 579, 580, 581, 582, 583, 584, 585, 586, 587, 588, 589, 590, 591, 592, 593, 594, 595, 596, 597, 598, 599, 600, 601, 602, 603, 604, 605, 606, 607, 608, 609, 610, 611, 612, 613, 614, 615, 616, 617, 618, 619, 620, 621, 622, 623, 624, 625, 626, 627, 628, 629, 630, 631, 632, 633, 634, 635, 636, 637, 638, 639, 640, 641, 642, 643, 644, 645, 646, 647, 648, 649, 650, 651, 652, 653, 654, 655, 656, 657, 658, 659, 660, 661, 662, 663, 664, 665, 666, 667, 668, 669, 670, 671, 672, 673, 674, 675, 676, 677, 678, 679, 680, 681, 682, 683, 684, 685, 686, 687, 688, 689, 690, 691, 692, 693, 694, 695, 696, 697, 698, 699, 700, 701, 702, 703, 704, 705, 706, 707, 708, 709, 710, 711, 712, 713, 714, 715, 716, 717, 718, 719, 720, 721, 722, 723, 724, 725, 726, 727, 728, 729, 730, 731, 732, 733, 734, 735, 736, 737, 738, 739, 740, 741, 742, 743, 744, 745, 746, 747, 748, 749, 750, 751, 752, 753, 754, 755, 756, 757, 758, 759, 760, 761, 762, 763, 764, 765, 766, 767, 768, 769, 770, 771, 772, 773, 774, 775, 776, 777, 778, 779, 780, 781, 782, 783, 784, 785, 786, 787, 788, 789, 790, 791, 792, 793, 794, 795, 796, 797, 798, 799, 800, 801, 802, 803, 804, 805, 806, 807, 808, 809, 810, 811, 812, 813, 814, 815, 816, 817, 818, 819, 820, 821, 822, 823, 824, 825, 826, 827, 828, 829, 830, 831, 832, 833, 834, 835, 836, 837, 838, 839, 840, 841, 842, 843, 844, 845, 846, 847, 848, 849, 850, 851, 852, 853, 854, 855, 856, 857, 858, 859, 860, 861, 862, 863, 864, 865, 866, 867, 868, 869, 870, 871, 872, 873, 874, 875, 876, 877, 878, 879, 880, 881, 882, 883, 884, 885, 886, 887, 888, 889, 890, 891, 892, 893, 894, 895, 896, 897, 898, 899, 900, 901, 902, 903, 904, 905, 906, 907, 908, 909, 910, 911, 912, 913, 914],
      "AcquisitionTime": ["103831.195000", "103831.655000", "103832.115000", "103832.575000", "103833.035000", "103833.495000", "103833.955000", "103834.415000", "103834.875000", "103835.335000", "103835.795000", "103836.255000", "103836.715000", "103837.175000", "103837.635000", "103838.095000", "103838.555000", "103839.015000", "103839.475000", "103839.935000", "103840.395000", "103840.855000", "103841.315000", "103841.775000", "103842.235000", "103842.695000", "103843.155000", "103843.615000", "103844.075000", "103844.535000", "103844.995000", "103845.455000", "103845.915000", "103846.375000", "103846.835000", "103847.295000", "103847.755000", "103848.215000", "103848.675000", "103849.135000", "103849.595000", "103850.055000", "103850.515000", "103850.975000", "103851.435000", "103851.895000", "103852.355000", "103852.815000", "103853.275000", "103853.735000", "103854.195000", "103854.655000", "103855.115000", "103855.575000", "103856.035000", "103856.495000", "103856.955000", "103857.415000", "103857.875000", "103858.335000", "103858.795000", "103859.255000", "103859.715000", "103900.175000", "103900.635000", "103901.095000", "103901.555000", "103902.015000", "103902.475000", "103902.935000", "103903.395000", "103903.855000", "103904.315000", "103904.775000", "103905.235000", "103905.695000", "103906.155000", "103906.615000", "103907.075000", "103907.535000", "103907.995000", "103908.455000", "103908.915000", "103909.375000", "103909.835000", "103910.295000", "103910.755000", "103911.215000", "103911.675000", "103912.135000", "103912.595000", "103913.055000", "103913.515000", "103913.975000", "103914.435000", "103914.895000", "103915.355000", "103915.815000", "103916.275000", "103916.735000", "103917.195000", "103917.655000", "103918.115000", "103918.575000", "103919.035000", "103919.495000", "103919.955000", "103920.415000", "103920.875000", "103921.335000", "103921.795000", "103922.255000", "103922.715000", "103923.175000", "103923.635000", "103924.095000", "103924.555000", "103925.015000", "103925.475000", "103925.935000", "103926.395000", "103926.855000", "103927.315000", "103927.775000", "103928.235000", "103928.695000", "103929.155000", "103929.615000", "103930.075000", "103930.535000", "103930.995000", "103931.455000", "103931.915000", "103932.375000", "103932.835000", "103933.295000", "103933.755000", "103934.215000", "103934.675000", "103935.135000", "103935.595000", "103936.055000", "103936.515000", "103936.975000", "103937.435000", "103937.895000", "103938.355000", "103938.815000", "103939.275000", "103939.735000", "103940.195000", "103940.655000", "103941.115000", "103941.575000", "103942.035000", "103942.495000", "103942.955000", "103943.415000", "103943.875000", "103944.335000", "103944.795000", "103945.255000", "103945.715000", "103946.175000", "103946.635000", "103947.095000", "103947.555000", "103948.015000", "103948.475000", "103948.935000", "103949.395000", "103949.855000", "103950.315000", "103950.775000", "103951.235000", "103951.695000", "103952.155000", "103952.615000", "103953.075000", "103953.535000", "103953.995000", "103954.455000", "103954.915000", "103955.375000", "103955.835000", "103956.295000", "103956.755000", "103957.215000", "103957.675000", "103958.135000", "103958.595000", "103959.055000", "103959.515000", "103959.975000", "104000.435000", "104000.895000", "104001.355000", "104001.815000", "104002.275000", "104002.735000", "104003.195000", "104003.655000", "104004.115000", "104004.575000", "104005.035000", "104005.495000", "104005.955000", "104006.415000", "104006.875000", "104007.335000", "104007.795000", "104008.255000", "104008.715000", "104009.175000", "104009.635000", "104010.095000", "104010.555000", "104011.015000", "104011.475000", "104011.935000", "104012.395000", "104012.855000", "104013.315000", "104013.775000", "104014.235000", "104014.695000", "104015.155000", "104015.615000", "104016.075000", "104016.535000", "104016.995000", "104017.455000", "104017.915000", "104018.375000", "104018.835000", "104019.295000", "104019.755000", "104020.215000", "104020.675000", "104021.135000", "104021.595000", "104022.055000", "104022.515000", "104022.975000", "104023.435000", "104023.895000", "104024.355000", "104024.815000", "104025.275000", "104025.735000", "104026.195000", "104026.655000", "104027.115000", "104027.575000", "104028.035000", "104028.495000", "104028.955000", "104029.415000", "104029.875000", "104030.335000", "104030.795000", "104031.255000", "104031.715000", "104032.175000", "104032.635000", "104033.095000", "104033.555000", "104034.015000", "104034.475000", "104034.935000", "104035.395000", "104035.855000", "104036.315000", "104036.775000", "104037.235000", "104037.695000", "104038.155000", "104038.615000", "104039.075000", "104039.535000", "104039.995000", "104040.455000", "104040.915000", "104041.375000", "104041.835000", "104042.295000", "104042.755000", "104043.215000", "104043.675000", "104044.135000", "104044.595000", "104045.055000", "104045.515000", "104045.975000", "104046.435000", "104046.895000", "104047.355000", "104047.815000", "104048.275000", "104048.735000", "104049.195000", "104049.655000", "104050.115000", "104050.575000", "104051.035000", "104051.495000", "104051.955000", "104052.415000", "104052.875000", "104053.335000", "104053.795000", "104054.255000", "104054.715000", "104055.175000", "104055.635000", "104056.095000", "104056.555000", "104057.015000", "104057.475000", "104057.935000", "104058.395000", "104058.855000", "104059.315000", "104059.775000", "104100.235000", "104100.695000", "104101.155000", "104101.615000", "104102.075000", "104102.535000", "104102.995000", "104103.455000", "104103.915000", "104104.375000", "104104.835000", "104105.295000", "104105.755000", "104106.215000", "104106.675000", "104107.135000", "104107.595000", "104108.055000", "104108.515000", "104108.975000", "104109.435000", "104109.895000", "104110.355000", "104110.815000", "104111.275000", "104111.735000", "104112.195000", "104112.655000", "104113.115000", "104113.575000", "104114.035000", "104114.495000", "104114.955000", "104115.415000", "104115.875000", "104116.335000", "104116.795000", "104117.255000", "104117.715000", "104118.175000", "104118.635000", "104119.095000", "104119.555000", "104120.015000", "104120.475000", "104120.935000", "104121.395000", "104121.855000", "104122.315000", "104122.775000", "104123.235000", "104123.695000", "104124.155000", "104124.615000", "104125.075000", "104125.535000", "104125.995000", "104126.455000", "104126.915000", "104127.375000", "104127.835000", "104128.295000", "104128.755000", "104129.215000", "104129.675000", "104130.135000", "104130.595000", "104131.055000", "104131.515000", "104131.975000", "104132.435000", "104132.895000", "104133.355000", "104133.815000", "104134.275000", "104134.735000", "104135.195000", "104135.655000", "104136.115000", "104136.575000", "104137.035000", "104137.495000", "104137.955000", "104138.415000", "104138.875000", "104139.335000", "104139.795000", "104140.255000", "104140.715000", "104141.175000", "104141.635000", "104142.095000", "104142.555000", "104143.015000", "104143.475000", "104143.935000", "104144.395000", "104144.855000", "104145.315000", "104145.775000", "104146.235000", "104146.695000", "104147.155000", "104147.615000", "104148.075000", "104148.535000", "104148.995000", "104149.455000", "104149.915000", "104150.375000", "104150.835000", "104151.295000", "104151.755000", "104152.215000", "104152.675000", "104153.135000", "104153.595000", "104154.055000", "104154.515000", "104154.975000", "104155.435000", "104155.895000", "104156.355000", "104156.815000", "104157.275000", "104157.735000", "104158.195000", "104158.655000", "104159.115000", "104159.575000", "104200.035000", "104200.495000", "104200.955000", "104201.415000", "104201.875000", "104202.335000", "104202.795000", "104203.255000", "104203.715000", "104204.175000", "104204.635000", "104205.095000", "104205.555000", "104206.015000", "104206.475000", "104206.935000", "104207.395000", "104207.855000", "104208.315000", "104208.775000", "104209.235000", "104209.695000", "104210.155000", "104210.615000", "104211.075000", "104211.535000", "104211.995000", "104212.455000", "104212.915000", "104213.375000", "104213.835000", "104214.295000", "104214.755000", "104215.215000", "104215.675000", "104216.135000", "104216.595000", "104217.055000", "104217.515000", "104217.975000", "104218.435000", "104218.895000", "104219.355000", "104219.815000", "104220.275000", "104220.735000", "104221.195000", "104221.655000", "104222.115000", "104222.575000", "104223.035000", "104223.495000", "104223.955000", "104224.415000", "104224.875000", "104225.335000", "104225.795000", "104226.255000", "104226.715000", "104227.175000", "104227.635000", "104228.095000", "104228.555000", "104229.015000", "104229.475000", "104229.935000", "104230.395000", "104230.855000", "104231.315000", "104231.775000", "104232.235000", "104232.695000", "104233.155000", "104233.615000", "104234.075000", "104234.535000", "104234.995000", "104235.455000", "104235.915000", "104236.375000", "104236.835000", "104237.295000", "104237.755000", "104238.215000", "104238.675000", "104239.135000", "104239.595000", "104240.055000", "104240.515000", "104240.975000", "104241.435000", "104241.895000", "104242.355000", "104242.815000", "104243.275000", "104243.735000", "104244.195000", "104244.655000", "104245.115000", "104245.575000", "104246.035000", "104246.495000", "104246.955000", "104247.415000", "104247.875000", "104248.335000", "104248.795000", "104249.255000", "104249.715000", "104250.175000", "104250.635000", "104251.095000", "104251.555000", "104252.015000", "104252.475000", "104252.935000", "104253.395000", "104253.855000", "104254.315000", "104254.775000", "104255.235000", "104255.695000", "104256.155000", "104256.615000", "104257.075000", "104257.535000", "104257.995000", "104258.455000", "104258.915000", "104259.375000", "104259.835000", "104300.295000", "104300.755000", "104301.215000", "104301.675000", "104302.135000", "104302.595000", "104303.055000", "104303.515000", "104303.975000", "104304.435000", "104304.895000", "104305.355000", "104305.815000", "104306.275000", "104306.735000", "104307.195000", "104307.655000", "104308.115000", "104308.575000", "104309.035000", "104309.495000", "104309.955000", "104310.415000", "104310.875000", "104311.335000", "104311.795000", "104312.255000", "104312.715000", "104313.175000", "104313.635000", "104314.095000", "104314.555000", "104315.015000", "104315.475000", "104315.935000", "104316.395000", "104316.855000", "104317.315000", "104317.775000", "104318.235000", "104318.695000", "104319.155000", "104319.615000", "104320.075000", "104320.535000", "104320.995000", "104321.455000", "104321.915000", "104322.375000", "104322.835000", "104323.295000", "104323.755000", "104324.215000", "104324.675000", "104325.135000", "104325.595000", "104326.055000", "104326.515000", "104326.975000", "104327.435000", "104327.895000", "104328.355000", "104328.815000", "104329.275000", "104329.735000", "104330.195000", "104330.655000", "104331.115000", "104331.575000", "104332.035000", "104332.495000", "104332.955000", "104333.415000", "104333.875000", "104334.335000", "104334.795000", "104335.255000", "104335.715000", "104336.175000", "104336.635000", "104337.095000", "104337.555000", "104338.015000", "104338.475000", "104338.935000", "104339.395000", "104339.855000", "104340.315000", "104340.775000", "104341.235000", "104341.695000", "104342.155000", "104342.615000", "104343.075000", "104343.535000", "104343.995000", "104344.455000", "104344.915000", "104345.375000", "104345.835000", "104346.295000", "104346.755000", "104347.215000", "104347.675000", "104348.135000", "104348.595000", "104349.055000", "104349.515000", "104349.975000", "104350.435000", "104350.895000", "104351.355000", "104351.815000", "104352.275000", "104352.735000", "104353.195000", "104353.655000", "104354.115000", "104354.575000", "104355.035000", "104355.495000", "104355.955000", "104356.415000", "104356.875000", "104357.335000", "104357.795000", "104358.255000", "104358.715000", "104359.175000", "104359.635000", "104400.095000", "104400.555000", "104401.015000", "104401.475000", "104401.935000", "104402.395000", "104402.855000", "104403.315000", "104403.775000", "104404.235000", "104404.695000", "104405.155000", "104405.615000", "104406.075000", "104406.535000", "104406.995000", "104407.455000", "104407.915000", "104408.375000", "104408.835000", "104409.295000", "104409.755000", "104410.215000", "104410.675000", "104411.135000", "104411.595000", "104412.055000", "104412.515000", "104412.975000", "104413.435000", "104413.895000", "104414.355000", "104414.815000", "104415.275000", "104415.735000", "104416.195000", "104416.655000", "104417.115000", "104417.575000", "104418.035000", "104418.495000", "104418.955000", "104419.415000", "104419.875000", "104420.335000", "104420.795000", "104421.255000", "104421.715000", "104422.175000", "104422.635000", "104423.095000", "104423.555000", "104424.015000", "104424.475000", "104424.935000", "104425.395000", "104425.855000", "104426.315000", "104426.775000", "104427.235000", "104427.695000", "104428.155000", "104428.615000", "104429.075000", "104429.535000", "104429.995000", "104430.455000", "104430.915000", "104431.375000", "104431.835000", "104432.295000", "104432.755000", "104433.215000", "104433.675000", "104434.135000", "104434.595000", "104435.055000", "104435.515000", "104435.975000", "104436.435000", "104436.895000", "104437.355000", "104437.815000", "104438.275000", "104438.735000", "104439.195000", "104439.655000", "104440.115000", "104440.575000", "104441.035000", "104441.495000", "104441.955000", "104442.415000", "104442.875000", "104443.335000", "104443.795000", "104444.255000", "104444.715000", "104445.175000", "104445.635000", "104446.095000", "104446.555000", "104447.015000", "104447.475000", "104447.935000", "104448.395000", "104448.855000", "104449.315000", "104449.775000", "104450.235000", "104450.695000", "104451.155000", "104451.615000", "104452.075000", "104452.535000", "104452.995000", "104453.455000", "104453.915000", "104454.375000", "104454.835000", "104455.295000", "104455.755000", "104456.215000", "104456.675000", "104457.135000", "104457.595000", "104458.055000", "104458.515000", "104458.975000", "104459.435000", "104459.895000", "104500.355000", "104500.815000", "104501.275000", "104501.735000", "104502.195000", "104502.655000", "104503.115000", "104503.575000", "104504.035000", "104504.495000", "104504.955000", "104505.415000", "104505.875000", "104506.335000", "104506.795000", "104507.255000", "104507.715000", "104508.175000", "104508.635000", "104509.095000", "104509.555000", "104510.015000", "104510.475000", "104510.935000", "104511.395000", "104511.855000", "104512.315000", "104512.775000", "104513.235000", "104513.695000", "104514.155000", "104514.615000", "104515.075000", "104515.535000", "104515.995000", "104516.455000", "104516.915000", "104517.375000", "104517.835000", "104518.295000", "104518.755000", "104519.215000", "104519.675000", "104520.135000", "104520.595000", "104521.055000", "104521.515000", "104521.975000", "104522.435000", "104522.895000", "104523.355000", "104523.815000", "104524.275000", "104524.735000", "104525.195000", "104525.655000", "104526.115000", "104526.575000", "104527.035000", "104527.495000", "104527.955000", "104528.415000", "104528.875000", "104529.335000", "104529.795000", "104530.255000", "104530.715000", "104531.175000"],
