{
  "AcquisitionMatrixPE": 82,
  "AcquisitionNumber": 1,
  "AcquisitionTime": "10:07:40.627500",
  "BandwidthPerPixelPhaseEncode": 24.888,
  "BaseResolution": 82,
  "BodyPartExamined": "BRAIN",
  "ConsistencyInfo": "N4_VE11E_LATEST_20181129",
  "ConversionSoftware": "dcm2niix",
  "ConversionSoftwareVersion": "v1.0.20201102",
  "DerivedVendorReportedEchoSpacing": 0.00049,
  "DeviceSerialNumber": "66112",
  "DwellTime": 2e-06,
  "EchoTime": 0.0272,
  "EchoTrainLength": 82,
  "EffectiveEchoSpacing": 0.00049,
  "FlipAngle": 44,
  "ImageComments": "Unaliased MB8/PE3",
  "ImageOrientationPatientDICOM": [0.996612, 0.0553046, 0.0608773, -0.0551958, 0.99847, -0.00346884],
  "ImageType": [
    "ORIGINAL",
    "PRIMARY",
    "M",
    "MB",
    "ND",
    "NORM",
    "MOSAIC"
],
  "ImagingFrequency": 123.252,
  "InPlanePhaseEncodingDirectionDICOM": "COL",
  "InstitutionAddress": "Maynard 3,Hanover,NH,US,03755",
  "InstitutionName": "dartmouth_brain_imaging_center",
  "InstitutionalDepartmentName": "Department",
  "MRAcquisitionType": "2D",
  "MagneticFieldStrength": 3,
  "Manufacturer": "Siemens",
  "ManufacturersModelName": "Prisma",
  "Modality": "MR",
  "MultibandAccelerationFactor": 8,
  "PartialFourier": 1,
  "PatientPosition": "HFS",
  "PercentPhaseFOV": 100,
  "PercentSampling": 100,
  "PhaseEncodingDirection": "j-",
  "PhaseEncodingSteps": 82,
  "PhaseResolution": 1,
  "PixelBandwidth": 3050,
  "ProcedureStepDescription": "Wager_Wager^1076_spacetop",
  "ProtocolName": "func_run-01_task-alignvideo_acq-ap-mb8",
  "PulseSequenceDetails": "%CustomerSeq%\\cmrr_mbep2d_bold",
  "ReceiveCoilActiveElements": "HEA;HEP",
  "ReceiveCoilName": "Head_32",
  "ReconMatrixPE": 82,
  "RepetitionTime": 0.46,
  "SAR": 0.0870275,
  "ScanOptions": "FS",
  "ScanningSequence": "EP",
  "SequenceName": "epfid2d1_82",
  "SequenceVariant": "SK\\SS",
  "SeriesDescription": "func_run-01_task-alignvideo_acq-ap-mb8",
  "SeriesNumber": 32,
  "ShimSetting": [4116, -7719, -7233, 594, -100, -72, 28, 138],
  "SliceThickness": 2.7,
  "SliceTiming": [0, 0.2525, 0.065, 0.315, 0.1275, 0.3775, 0.19, 0, 0.2525, 0.065, 0.315, 0.1275, 0.3775, 0.19, 0, 0.2525, 0.065, 0.315, 0.1275, 0.3775, 0.19, 0, 0.2525, 0.065, 0.315, 0.1275, 0.3775, 0.19, 0, 0.2525, 0.065, 0.315, 0.1275, 0.3775, 0.19, 0, 0.2525, 0.065, 0.315, 0.1275, 0.3775, 0.19, 0, 0.2525, 0.065, 0.315, 0.1275, 0.3775, 0.19, 0, 0.2525, 0.065, 0.315, 0.1275, 0.3775, 0.19],
  "SoftwareVersions": "syngo MR E11",
  "SpacingBetweenSlices": 2.7,
  "StationName": "AWP66112",
  "TaskName": "alignvideo",
  "TotalReadoutTime": 0.03969,
  "TxRefAmp": 221.24,
  "WipMemBlock": "7618d0b5-3de3-49e8-b158-5e7df2fb4d3a||Sequence: R016 ve11e/master r/434b28f1; Aug  7 2019 18:53:46 by eja",
  "dcmmeta_affine": [
    [-2.6738369464874268, -0.1480863094329834, 0.16463524103164673, 117.86753845214844],
    [-0.14837823808193207, 2.678820848464966, -0.00026165926828980446, -86.66822052001953],
    [0.16332946717739105, 0.009306637570261955, 2.6949758529663086, -72.89757537841797],
    [0.0, 0.0, 0.0, 1.0]
],
  "dcmmeta_reorient_transform": [
    [0.0, -1.0, 0.0, 81.0],
    [1.0, 0.0, 0.0, 0.0],
    [0.0, 0.0, 1.0, 0.0],
    [0.0, 0.0, 0.0, 1.0]
],
  "dcmmeta_shape": [82, 82, 56, 839],
  "dcmmeta_slice_dim": 2,
  "dcmmeta_version": 0.6,
  "global": {
    "const": {
      "AccessionNumber": "A003993",
      "AcquisitionMatrix": [82, 0, 0, 82],
      "AngioFlag": "N",
      "BitsAllocated": 16,
      "BitsStored": 16,
      "BodyPartExamined": "BRAIN",
      "Columns": 656,
      "EchoNumbers": 1,
      "EchoTime": 27.2,
      "EchoTrainLength": 82,
      "FlipAngle": 44.0,
      "HighBit": 15,
      "ImageOrientationPatient": [0.99661193471345, 0.05530461332058, 0.0608773466256, -0.0551958042965, 0.99846952399848, -0.0034688376022],
      "ImagePositionPatient": [-830.76298697953, -941.7223678769, -116.34829316116],
      "ImageType": [
        "ORIGINAL",
        "PRIMARY",
        "M",
        "MB",
        "ND",
        "NORM",
        "MOSAIC"
],
      "ImagedNucleus": "1H",
      "ImagingFrequency": 123.252209,
      "InPlanePhaseEncodingDirection": "COL",
      "MRAcquisitionType": "2D",
      "MagneticFieldStrength": 3.0,
      "Manufacturer": "SIEMENS",
      "ManufacturerModelName": "Prisma",
      "Modality": "MR",
      "NumberOfAverages": 1.0,
      "NumberOfPhaseEncodingSteps": 82,
      "PercentPhaseFieldOfView": 100.0,
      "PercentSampling": 100.0,
      "PerformedProcedureStepStartTime": "083607.063000",
      "PhotometricInterpretation": "MONOCHROME2",
      "PixelBandwidth": 3050.0,
      "PixelRepresentation": 0,
      "PixelSpacing": [2.6829268932343, 2.6829268932343],
      "ProtocolName": "func_run-01_task-alignvideo_acq-ap-mb8",
      "RepetitionTime": 460.0,
      "Rows": 656,
      "SAR": 0.08702750961028,
      "SamplesPerPixel": 1,
      "ScanOptions": "FS",
      "ScanningSequence": "EP",
      "SequenceName": "epfid2d1_82",
      "SequenceVariant": [
        "SK",
        "SS"
],
      "SeriesDescription": "func_run-01_task-alignvideo_acq-ap-mb8",
      "SeriesNumber": 32,
      "SeriesTime": "100809.671000",
      "SliceLocation": -65.566439597663,
      "SliceThickness": 2.7000000476837,
      "SmallestImagePixelValue": 0,
      "SoftwareVersions": "syngo MR E11",
      "SpacingBetweenSlices": 2.6999999233389,
      "SpecificCharacterSet": "ISO_IR 100",
      "StudyID": "1",
      "StudyTime": "083606.890000",
      "TransmitCoilName": "Body",
      "VariableFlipAngleFlag": "N",
      "WindowCenterWidthExplanation": "Algo1"
    },
    "slices": {}
  },
  "time": {
    "samples": {
      "AcquisitionNumber": [1, 2, 3, 4, 5, 6, 7, 8, 9, 10, 11, 12, 13, 14, 15, 16, 17, 18, 19, 20, 21, 22, 23, 24, 25, 26, 27, 28, 29, 30, 31, 32, 33, 34, 35, 36, 37, 38, 39, 40, 41, 42, 43, 44, 45, 46, 47, 48, 49, 50, 51, 52, 53, 54, 55, 56, 57, 58, 59, 60, 61, 62, 63, 64, 65, 66, 67, 68, 69, 70, 71, 72, 73, 74, 75, 76, 77, 78, 79, 80, 81, 82, 83, 84, 85, 86, 87, 88, 89, 90, 91, 92, 93, 94, 95, 96, 97, 98, 99, 100, 101, 102, 103, 104, 105, 106, 107, 108, 109, 110, 111, 112, 113, 114, 115, 116, 117, 118, 119, 120, 121, 122, 123, 124, 125, 126, 127, 128, 129, 130, 131, 132, 133, 134, 135, 136, 137, 138, 139, 140, 141, 142, 143, 144, 145, 146, 147, 148, 149, 150, 151, 152, 153, 154, 155, 156, 157, 158, 159, 160, 161, 162, 163, 164, 165, 166, 167, 168, 169, 170, 171, 172, 173, 174, 175, 176, 177, 178, 179, 180, 181, 182, 183, 184, 185, 186, 187, 188, 189, 190, 191, 192, 193, 194, 195, 196, 197, 198, 199, 200, 201, 202, 203, 204, 205, 206, 207, 208, 209, 210, 211, 212, 213, 214, 215, 216, 217, 218, 219, 220, 221, 222, 223, 224, 225, 226, 227, 228, 229, 230, 231, 232, 233, 234, 235, 236, 237, 238, 239, 240, 241, 242, 243, 244, 245, 246, 247, 248, 249, 250, 251, 252, 253, 254, 255, 256, 257, 258, 259, 260, 261, 262, 263, 264, 265, 266, 267, 268, 269, 270, 271, 272, 273, 274, 275, 276, 277, 278, 279, 280, 281, 282, 283, 284, 285, 286, 287, 288, 289, 290, 291, 292, 293, 294, 295, 296, 297, 298, 299, 300, 301, 302, 303, 304, 305, 306, 307, 308, 309, 310, 311, 312, 313, 314, 315, 316, 317, 318, 319, 320, 321, 322, 323, 324, 325, 326, 327, 328, 329, 330, 331, 332, 333, 334, 335, 336, 337, 338, 339, 340, 341, 342, 343, 344, 345, 346, 347, 348, 349, 350, 351, 352, 353, 354, 355, 356, 357, 358, 359, 360, 361, 362, 363, 364, 365, 366, 367, 368, 369, 370, 371, 372, 373, 374, 375, 376, 377, 378, 379, 380, 381, 382, 383, 384, 385, 386, 387, 388, 389, 390, 391, 392, 393, 394, 395, 396, 397, 398, 399, 400, 401, 402, 403, 404, 405, 406, 407, 408, 409, 410, 411, 412, 413, 414, 415, 416, 417, 418, 419, 420, 421, 422, 423, 424, 425, 426, 427, 428, 429, 430, 431, 432, 433, 434, 435, 436, 437, 438, 439, 440, 441, 442, 443, 444, 445, 446, 447, 448, 449, 450, 451, 452, 453, 454, 455, 456, 457, 458, 459, 460, 461, 462, 463, 464, 465, 466, 467, 468, 469, 470, 471, 472, 473, 474, 475, 476, 477, 478, 479, 480, 481, 482, 483, 484, 485, 486, 487, 488, 489, 490, 491, 492, 493, 494, 495, 496, 497, 498, 499, 500, 501, 502, 503, 504, 505, 506, 507, 508, 509, 510, 511, 512, 513, 514, 515, 516, 517, 518, 519, 520, 521, 522, 523, 524, 525, 526, 527, 528, 529, 530, 531, 532, 533, 534, 535, 536, 537, 538, 539, 540, 541, 542, 543, 544, 545, 546, 547, 548, 549, 550, 551, 552, 553, 554, 555, 556, 557, 558, 559, 560, 561, 562, 563, 564, 565, 566, 567, 568, 569, 570, 571, 572, 573, 574, 575, 576, 577, 578, 579, 580, 581, 582, 583, 584, 585, 586, 587, 588, 589, 590, 591, 592, 593, 594, 595, 596, 597, 598, 599, 600, 601, 602, 603, 604, 605, 606, 607, 608, 609, 610, 611, 612, 613, 614, 615, 616, 617, 618, 619, 620, 621, 622, 623, 624, 625, 626, 627, 628, 629, 630, 631, 632, 633, 634, 635, 636, 637, 638, 639, 640, 641, 642, 643, 644, 645, 646, 647, 648, 649, 650, 651, 652, 653, 654, 655, 656, 657, 658, 659, 660, 661, 662, 663, 664, 665, 666, 667, 668, 669, 670, 671, 672, 673, 674, 675, 676, 677, 678, 679, 680, 681, 682, 683, 684, 685, 686, 687, 688, 689, 690, 691, 692, 693, 694, 695, 696, 697, 698, 699, 700, 701, 702, 703, 704, 705, 706, 707, 708, 709, 710, 711, 712, 713, 714, 715, 716, 717, 718, 719, 720, 721, 722, 723, 724, 725, 726, 727, 728, 729, 730, 731, 732, 733, 734, 735, 736, 737, 738, 739, 740, 741, 742, 743, 744, 745, 746, 747, 748, 749, 750, 751, 752, 753, 754, 755, 756, 757, 758, 759, 760, 761, 762, 763, 764, 765, 766, 767, 768, 769, 770, 771, 772, 773, 774, 775, 776, 777, 778, 779, 780, 781, 782, 783, 784, 785, 786, 787, 788, 789, 790, 791, 792, 793, 794, 795, 796, 797, 798, 799, 800, 801, 802, 803, 804, 805, 806, 807, 808, 809, 810, 811, 812, 813, 814, 815, 816, 817, 818, 819, 820, 821, 822, 823, 824, 825, 826, 827, 828, 829, 830, 831, 832, 833, 834, 835, 836, 837, 838, 839],
      "AcquisitionTime": ["100740.627500", "100741.087500", "100741.547500", "100742.007500", "100742.467500", "100742.927500", "100743.387500", "100743.847500", "100744.307500", "100744.767500", "100745.227500", "100745.687500", "100746.147500", "100746.607500", "100747.067500", "100747.527500", "100747.987500", "100748.447500", "100748.907500", "100749.367500", "100749.827500", "100750.287500", "100750.747500", "100751.207500", "100751.667500", "100752.127500", "100752.587500", "100753.047500", "100753.507500", "100753.967500", "100754.427500", "100754.887500", "100755.347500", "100755.807500", "100756.267500", "100756.727500", "100757.187500", "100757.647500", "100758.107500", "100758.567500", "100759.027500", "100759.487500", "100759.947500", "100800.407500", "100800.867500", "100801.327500", "100801.787500", "100802.247500", "100802.707500", "100803.167500", "100803.627500", "100804.087500", "100804.547500", "100805.007500", "100805.467500", "100805.927500", "100806.387500", "100806.847500", "100807.307500", "100807.767500", "100808.227500", "100808.687500", "100809.147500", "100809.607500", "100810.067500", "100810.527500", "100810.987500", "100811.447500", "100811.907500", "100812.367500", "100812.827500", "100813.287500", "100813.747500", "100814.207500", "100814.667500", "100815.127500", "100815.587500", "100816.047500", "100816.507500", "100816.967500", "100817.427500", "100817.887500", "100818.347500", "100818.807500", "100819.267500", "100819.727500", "100820.187500", "100820.647500", "100821.107500", "100821.567500", "100822.027500", "100822.487500", "100822.947500", "100823.407500", "100823.867500", "100824.327500", "100824.787500", "100825.247500", "100825.707500", "100826.167500", "100826.627500", "100827.087500", "100827.547500", "100828.007500", "100828.467500", "100828.927500", "100829.387500", "100829.847500", "100830.307500", "100830.767500", "100831.227500", "100831.687500", "100832.147500", "100832.607500", "100833.067500", "100833.527500", "100833.987500", "100834.447500", "100834.907500", "100835.367500", "100835.827500", "100836.287500", "100836.747500", "100837.207500", "100837.667500", "100838.127500", "100838.587500", "100839.047500", "100839.507500", "100839.967500", "100840.427500", "100840.887500", "100841.347500", "100841.807500", "100842.267500", "100842.727500", "100843.187500", "100843.647500", "100844.107500", "100844.567500", "100845.027500", "100845.487500", "100845.947500", "100846.407500", "100846.867500", "100847.327500", "100847.787500", "100848.247500", "100848.707500", "100849.167500", "100849.627500", "100850.087500", "100850.547500", "100851.007500", "100851.467500", "100851.927500", "100852.387500", "100852.847500", "100853.307500", "100853.767500", "100854.227500", "100854.687500", "100855.147500", "100855.607500", "100856.067500", "100856.527500", "100856.987500", "100857.447500", "100857.907500", "100858.367500", "100858.827500", "100859.287500", "100859.747500", "100900.207500", "100900.667500", "100901.127500", "100901.587500", "100902.047500", "100902.507500", "100902.967500", "100903.427500", "100903.887500", "100904.347500", "100904.807500", "100905.267500", "100905.727500", "100906.187500", "100906.647500", "100907.107500", "100907.567500", "100908.027500", "100908.487500", "100908.947500", "100909.407500", "100909.867500", "100910.327500", "100910.787500", "100911.247500", "100911.707500", "100912.167500", "100912.627500", "100913.087500", "100913.547500", "100914.007500", "100914.467500", "100914.927500", "100915.387500", "100915.847500", "100916.307500", "100916.767500", "100917.227500", "100917.687500", "100918.147500", "100918.607500", "100919.067500", "100919.527500", "100919.987500", "100920.447500", "100920.907500", "100921.367500", "100921.827500", "100922.287500", "100922.747500", "100923.207500", "100923.667500", "100924.127500", "100924.587500", "100925.047500", "100925.507500", "100925.967500", "100926.427500", "100926.887500", "100927.347500", "100927.807500", "100928.267500", "100928.727500", "100929.187500", "100929.647500", "100930.107500", "100930.567500", "100931.027500", "100931.487500", "100931.947500", "100932.407500", "100932.867500", "100933.327500", "100933.787500", "100934.247500", "100934.707500", "100935.167500", "100935.627500", "100936.087500", "100936.547500", "100937.007500", "100937.467500", "100937.927500", "100938.387500", "100938.847500", "100939.307500", "100939.767500", "100940.227500", "100940.687500", "100941.147500", "100941.607500", "100942.067500", "100942.527500", "100942.987500", "100943.447500", "100943.907500", "100944.367500", "100944.827500", "100945.287500", "100945.747500", "100946.207500", "100946.667500", "100947.127500", "100947.587500", "100948.047500", "100948.507500", "100948.967500", "100949.427500", "100949.887500", "100950.347500", "100950.807500", "100951.267500", "100951.727500", "100952.187500", "100952.647500", "100953.107500", "100953.567500", "100954.027500", "100954.487500", "100954.947500", "100955.407500", "100955.867500", "100956.327500", "100956.787500", "100957.247500", "100957.707500", "100958.167500", "100958.627500", "100959.087500", "100959.547500", "101000.007500", "101000.467500", "101000.927500", "101001.387500", "101001.847500", "101002.307500", "101002.767500", "101003.227500", "101003.687500", "101004.147500", "101004.607500", "101005.067500", "101005.527500", "101005.987500", "101006.447500", "101006.907500", "101007.367500", "101007.827500", "101008.287500", "101008.747500", "101009.207500", "101009.667500", "101010.127500", "101010.587500", "101011.047500", "101011.507500", "101011.967500", "101012.427500", "101012.887500", "101013.347500", "101013.807500", "101014.267500", "101014.727500", "101015.187500", "101015.647500", "101016.107500", "101016.567500", "101017.027500", "101017.487500", "101017.947500", "101018.407500", "101018.867500", "101019.327500", "101019.787500", "101020.247500", "101020.707500", "101021.167500", "101021.627500", "101022.087500", "101022.547500", "101023.007500", "101023.467500", "101023.927500", "101024.387500", "101024.847500", "101025.307500", "101025.767500", "101026.227500", "101026.687500", "101027.147500", "101027.607500", "101028.067500", "101028.527500", "101028.987500", "101029.447500", "101029.907500", "101030.367500", "101030.827500", "101031.287500", "101031.747500", "101032.207500", "101032.667500", "101033.127500", "101033.587500", "101034.047500", "101034.507500", "101034.967500", "101035.427500", "101035.887500", "101036.347500", "101036.807500", "101037.267500", "101037.727500", "101038.187500", "101038.647500", "101039.107500", "101039.567500", "101040.027500", "101040.487500", "101040.947500", "101041.407500", "101041.867500", "101042.327500", "101042.787500", "101043.247500", "101043.707500", "101044.167500", "101044.627500", "101045.087500", "101045.547500", "101046.007500", "101046.467500", "101046.927500", "101047.387500", "101047.847500", "101048.307500", "101048.767500", "101049.227500", "101049.687500", "101050.147500", "101050.607500", "101051.067500", "101051.527500", "101051.987500", "101052.447500", "101052.907500", "101053.367500", "101053.827500", "101054.287500", "101054.747500", "101055.207500", "101055.667500", "101056.127500", "101056.587500", "101057.047500", "101057.507500", "101057.967500", "101058.427500", "101058.887500", "101059.347500", "101059.807500", "101100.267500", "101100.727500", "101101.187500", "101101.647500", "101102.107500", "101102.567500", "101103.027500", "101103.487500", "101103.947500", "101104.407500", "101104.867500", "101105.327500", "101105.787500", "101106.247500", "101106.707500", "101107.167500", "101107.627500", "101108.087500", "101108.547500", "101109.007500", "101109.467500", "101109.927500", "101110.387500", "101110.847500", "101111.307500", "101111.767500", "101112.227500", "101112.687500", "101113.147500", "101113.607500", "101114.067500", "101114.527500", "101114.987500", "101115.447500", "101115.907500", "101116.367500", "101116.827500", "101117.287500", "101117.747500", "101118.207500", "101118.667500", "101119.127500", "101119.587500", "101120.047500", "101120.507500", "101120.967500", "101121.427500", "101121.887500", "101122.347500", "101122.807500", "101123.267500", "101123.727500", "101124.187500", "101124.647500", "101125.107500", "101125.567500", "101126.027500", "101126.487500", "101126.947500", "101127.407500", "101127.867500", "101128.327500", "101128.787500", "101129.247500", "101129.707500", "101130.167500", "101130.627500", "101131.087500", "101131.547500", "101132.007500", "101132.467500", "101132.927500", "101133.387500", "101133.847500", "101134.307500", "101134.767500", "101135.227500", "101135.687500", "101136.147500", "101136.607500", "101137.067500", "101137.527500", "101137.987500", "101138.447500", "101138.907500", "101139.367500", "101139.827500", "101140.287500", "101140.747500", "101141.207500", "101141.667500", "101142.127500", "101142.587500", "101143.047500", "101143.507500", "101143.967500", "101144.427500", "101144.887500", "101145.347500", "101145.807500", "101146.267500", "101146.727500", "101147.187500", "101147.647500", "101148.107500", "101148.567500", "101149.027500", "101149.487500", "101149.947500", "101150.407500", "101150.867500", "101151.327500", "101151.787500", "101152.247500", "101152.707500", "101153.167500", "101153.627500", "101154.087500", "101154.547500", "101155.007500", "101155.467500", "101155.927500", "101156.387500", "101156.847500", "101157.307500", "101157.767500", "101158.227500", "101158.687500", "101159.147500", "101159.607500", "101200.067500", "101200.527500", "101200.987500", "101201.447500", "101201.907500", "101202.367500", "101202.827500", "101203.287500", "101203.747500", "101204.207500", "101204.667500", "101205.127500", "101205.587500", "101206.047500", "101206.507500", "101206.967500", "101207.427500", "101207.887500", "101208.347500", "101208.807500", "101209.267500", "101209.727500", "101210.187500", "101210.647500", "101211.107500", "101211.567500", "101212.027500", "101212.487500", "101212.947500", "101213.407500", "101213.867500", "101214.327500", "101214.787500", "101215.247500", "101215.707500", "101216.167500", "101216.627500", "101217.087500", "101217.547500", "101218.007500", "101218.467500", "101218.927500", "101219.387500", "101219.847500", "101220.307500", "101220.767500", "101221.227500", "101221.687500", "101222.147500", "101222.607500", "101223.067500", "101223.527500", "101223.987500", "101224.447500", "101224.907500", "101225.367500", "101225.827500", "101226.287500", "101226.747500", "101227.207500", "101227.667500", "101228.127500", "101228.587500", "101229.047500", "101229.507500", "101229.967500", "101230.427500", "101230.887500", "101231.347500", "101231.807500", "101232.267500", "101232.727500", "101233.187500", "101233.647500", "101234.107500", "101234.567500", "101235.027500", "101235.487500", "101235.947500", "101236.407500", "101236.867500", "101237.327500", "101237.787500", "101238.247500", "101238.707500", "101239.167500", "101239.627500", "101240.087500", "101240.547500", "101241.007500", "101241.467500", "101241.927500", "101242.387500", "101242.847500", "101243.307500", "101243.767500", "101244.227500", "101244.687500", "101245.147500", "101245.607500", "101246.067500", "101246.527500", "101246.987500", "101247.447500", "101247.907500", "101248.367500", "101248.827500", "101249.287500", "101249.747500", "101250.207500", "101250.667500", "101251.127500", "101251.587500", "101252.047500", "101252.507500", "101252.967500", "101253.427500", "101253.887500", "101254.347500", "101254.807500", "101255.267500", "101255.727500", "101256.187500", "101256.647500", "101257.107500", "101257.567500", "101258.027500", "101258.487500", "101258.947500", "101259.407500", "101259.867500", "101300.327500", "101300.787500", "101301.247500", "101301.707500", "101302.167500", "101302.627500", "101303.087500", "101303.547500", "101304.007500", "101304.467500", "101304.927500", "101305.387500", "101305.847500", "101306.307500", "101306.767500", "101307.227500", "101307.687500", "101308.147500", "101308.607500", "101309.067500", "101309.527500", "101309.987500", "101310.447500", "101310.907500", "101311.367500", "101311.827500", "101312.287500", "101312.747500", "101313.207500", "101313.667500", "101314.127500", "101314.587500", "101315.047500", "101315.507500", "101315.967500", "101316.427500", "101316.887500", "101317.347500", "101317.807500", "101318.267500", "101318.727500", "101319.187500", "101319.647500", "101320.107500", "101320.567500", "101321.027500", "101321.487500", "101321.947500", "101322.407500", "101322.867500", "101323.327500", "101323.787500", "101324.247500", "101324.707500", "101325.167500", "101325.627500", "101326.087500", "101326.547500", "101327.007500", "101327.467500", "101327.927500", "101328.387500", "101328.847500", "101329.307500", "101329.767500", "101330.227500", "101330.687500", "101331.147500", "101331.607500", "101332.067500", "101332.527500", "101332.987500", "101333.447500", "101333.907500", "101334.367500", "101334.827500", "101335.287500", "101335.747500", "101336.207500", "101336.667500", "101337.127500", "101337.587500", "101338.047500", "101338.507500", "101338.967500", "101339.427500", "101339.887500", "101340.347500", "101340.807500", "101341.267500", "101341.727500", "101342.187500", "101342.647500", "101343.107500", "101343.567500", "101344.027500", "101344.487500", "101344.947500", "101345.407500", "101345.867500", "101346.327500", "101346.787500", "101347.247500", "101347.707500", "101348.167500", "101348.627500", "101349.087500", "101349.547500", "101350.007500", "101350.467500", "101350.927500", "101351.387500", "101351.847500", "101352.307500", "101352.767500", "101353.227500", "101353.687500", "101354.147500", "101354.607500", "101355.067500", "101355.527500", "101355.987500", "101356.447500", "101356.907500", "101357.367500", "101357.827500", "101358.287500", "101358.747500", "101359.207500", "101359.667500", "101400.127500", "101400.587500", "101401.047500", "101401.507500", "101401.967500", "101402.427500", "101402.887500", "101403.347500", "101403.807500", "101404.267500", "101404.727500", "101405.187500", "101405.647500", "101406.107500"],
