{
  "AcquisitionMatrixPE": 82,
  "AcquisitionNumber": 1,
  "AcquisitionTime": "09:42:47.737500",
  "BandwidthPerPixelPhaseEncode": 24.888,
  "BaseResolution": 82,
  "BodyPartExamined": "BRAIN",
  "ConsistencyInfo": "N4_VE11E_LATEST_20181129",
  "ConversionSoftware": "dcm2niix",
  "ConversionSoftwareVersion": "v1.0.20201102",
  "DerivedVendorReportedEchoSpacing": 0.00049,
  "DeviceSerialNumber": "66112",
  "DwellTime": 2e-06,
  "EchoTime": 0.0272,
  "EchoTrainLength": 82,
  "EffectiveEchoSpacing": 0.00049,
  "FlipAngle": 44,
  "ImageComments": "Unaliased MB8/PE3",
  "ImageOrientationPatientDICOM": [0.998913, 0.0437386, 0.016128, -0.0444869, 0.997788, 0.0493986],
  "ImageType": [
    "ORIGINAL",
    "PRIMARY",
    "M",
    "MB",
    "ND",
    "NORM",
    "MOSAIC"
],
  "ImagingFrequency": 123.252,
  "InPlanePhaseEncodingDirectionDICOM": "COL",
  "InstitutionAddress": "Maynard 3,Hanover,NH,US,03755",
  "InstitutionName": "dartmouth_brain_imaging_center",
  "InstitutionalDepartmentName": "Department",
  "MRAcquisitionType": "2D",
  "MagneticFieldStrength": 3,
  "Manufacturer": "Siemens",
  "ManufacturersModelName": "Prisma",
  "Modality": "MR",
  "MultibandAccelerationFactor": 8,
  "PartialFourier": 1,
  "PatientPosition": "HFS",
  "PercentPhaseFOV": 100,
  "PercentSampling": 100,
  "PhaseEncodingDirection": "j-",
  "PhaseEncodingSteps": 82,
  "PhaseResolution": 1,
  "PixelBandwidth": 3050,
  "ProcedureStepDescription": "Wager_Wager^1076_spacetop",
  "ProtocolName": "func_run-01_task-faces_acq-ap-mb8",
  "PulseSequenceDetails": "%CustomerSeq%\\cmrr_mbep2d_bold",
  "ReceiveCoilActiveElements": "HEA;HEP",
  "ReceiveCoilName": "Head_32",
  "ReconMatrixPE": 82,
  "RepetitionTime": 0.46,
  "SAR": 0.0870736,
  "ScanOptions": "FS",
  "ScanningSequence": "EP",
  "SequenceName": "epfid2d1_82",
  "SequenceVariant": "SK\\SS",
  "SeriesDescription": "func_run-01_task-faces_acq-ap-mb8",
  "SeriesNumber": 20,
  "ShimSetting": [4117, -7717, -7235, 588, -97, -58, 27, 133],
  "SliceThickness": 2.7,
  "SliceTiming": [0, 0.2525, 0.0625, 0.315, 0.1275, 0.3775, 0.19, 0, 0.2525, 0.0625, 0.315, 0.1275, 0.3775, 0.19, 0, 0.2525, 0.0625, 0.315, 0.1275, 0.3775, 0.19, 0, 0.2525, 0.0625, 0.315, 0.1275, 0.3775, 0.19, 0, 0.2525, 0.0625, 0.315, 0.1275, 0.3775, 0.19, 0, 0.2525, 0.0625, 0.315, 0.1275, 0.3775, 0.19, 0, 0.2525, 0.0625, 0.315, 0.1275, 0.3775, 0.19, 0, 0.2525, 0.0625, 0.315, 0.1275, 0.3775, 0.19],
  "SoftwareVersions": "syngo MR E11",
  "SpacingBetweenSlices": 2.7,
  "StationName": "AWP66112",
  "TaskName": "faces",
  "TotalReadoutTime": 0.03969,
  "TxRefAmp": 221.24,
  "WipMemBlock": "8cd506fc-d731-498f-a439-ea4c7e3e5c88||Sequence: R016 ve11e/master r/434b28f1; Aug  7 2019 18:53:46 by eja",
  "dcmmeta_affine": [
    [-2.6800100803375244, -0.11935500055551529, 0.037615496665239334, 118.99472045898438],
    [-0.1173473373055458, 2.6769919395446777, 0.13516847789287567, -91.03534698486328],
    [0.04327015578746796, -0.13253289461135864, 2.696352005004883, -59.009254455566406],
    [0.0, 0.0, 0.0, 1.0]
],
  "dcmmeta_reorient_transform": [
    [0.0, -1.0, 0.0, 81.0],
    [1.0, 0.0, 0.0, 0.0],
    [0.0, 0.0, 1.0, 0.0],
    [0.0, 0.0, 0.0, 1.0]
],
  "dcmmeta_shape": [82, 82, 56, 914],
  "dcmmeta_slice_dim": 2,
  "dcmmeta_version": 0.6,
  "global": {
    "const": {
      "AccessionNumber": "A003993",
      "AcquisitionMatrix": [82, 0, 0, 82],
      "AngioFlag": "N",
      "BitsAllocated": 16,
      "BitsStored": 16,
      "BodyPartExamined": "BRAIN",
      "Columns": 656,
      "EchoNumbers": 1,
      "EchoTime": 27.2,
      "EchoTrainLength": 82,
      "FlipAngle": 44.0,
      "HighBit": 15,
      "ImageOrientationPatient": [0.99891282290818, 0.04373855184115, 0.01612796678015, -0.04448686225, 0.99778790097154, 0.04939862105318],
      "ImagePositionPatient": [-844.23496998381, -927.77639549632, -120.19989387687],
      "ImageType": [
        "ORIGINAL",
        "PRIMARY",
        "M",
        "MB",
        "ND",
        "NORM",
        "MOSAIC"
],
      "ImagedNucleus": "1H",
      "ImagingFrequency": 123.252199,
      "InPlanePhaseEncodingDirection": "COL",
      "MRAcquisitionType": "2D",
      "MagneticFieldStrength": 3.0,
      "Manufacturer": "SIEMENS",
      "ManufacturerModelName": "Prisma",
      "Modality": "MR",
      "NumberOfAverages": 1.0,
      "NumberOfPhaseEncodingSteps": 82,
      "PercentPhaseFieldOfView": 100.0,
      "PercentSampling": 100.0,
      "PerformedProcedureStepStartTime": "083607.063000",
      "PhotometricInterpretation": "MONOCHROME2",
      "PixelBandwidth": 3050.0,
      "PixelRepresentation": 0,
      "PixelSpacing": [2.6829268932343, 2.6829268932343],
      "ProtocolName": "func_run-01_task-faces_acq-ap-mb8",
      "RepetitionTime": 460.0,
      "Rows": 656,
      "SAR": 0.08707358545918,
      "SamplesPerPixel": 1,
      "ScanOptions": "FS",
      "ScanningSequence": "EP",
      "SequenceName": "epfid2d1_82",
      "SequenceVariant": [
        "SK",
        "SS"
],
      "SeriesDescription": "func_run-01_task-faces_acq-ap-mb8",
      "SeriesNumber": 20,
      "SeriesTime": "094309.678000",
      "SliceLocation": -61.829182809787,
      "SliceThickness": 2.7000000476837,
      "SmallestImagePixelValue": 0,
      "SoftwareVersions": "syngo MR E11",
      "SpacingBetweenSlices": 2.700000024592,
      "SpecificCharacterSet": "ISO_IR 100",
      "StudyID": "1",
      "StudyTime": "083606.890000",
      "TransmitCoilName": "Body",
      "VariableFlipAngleFlag": "N",
      "WindowCenterWidthExplanation": "Algo1"
    },
    "slices": {}
  },
  "time": {
    "samples": {
      "AcquisitionNumber": [1, 2, 3, 4, 5, 6, 7, 8, 9, 10, 11, 12, 13, 14, 15, 16, 17, 18, 19, 20, 21, 22, 23, 24, 25, 26, 27, 28, 29, 30, 31, 32, 33, 34, 35, 36, 37, 38, 39, 40, 41, 42, 43, 44, 45, 46, 47, 48, 49, 50, 51, 52, 53, 54, 55, 56, 57, 58, 59, 60, 61, 62, 63, 64, 65, 66, 67, 68, 69, 70, 71, 72, 73, 74, 75, 76, 77, 78, 79, 80, 81, 82, 83, 84, 85, 86, 87, 88, 89, 90, 91, 92, 93, 94, 95, 96, 97, 98, 99, 100, 101, 102, 103, 104, 105, 106, 107, 108, 109, 110, 111, 112, 113, 114, 115, 116, 117, 118, 119, 120, 121, 122, 123, 124, 125, 126, 127, 128, 129, 130, 131, 132, 133, 134, 135, 136, 137, 138, 139, 140, 141, 142, 143, 144, 145, 146, 147, 148, 149, 150, 151, 152, 153, 154, 155, 156, 157, 158, 159, 160, 161, 162, 163, 164, 165, 166, 167, 168, 169, 170, 171, 172, 173, 174, 175, 176, 177, 178, 179, 180, 181, 182, 183, 184, 185, 186, 187, 188, 189, 190, 191, 192, 193, 194, 195, 196, 197, 198, 199, 200, 201, 202, 203, 204, 205, 206, 207, 208, 209, 210, 211, 212, 213, 214, 215, 216, 217, 218, 219, 220, 221, 222, 223, 224, 225, 226, 227, 228, 229, 230, 231, 232, 233, 234, 235, 236, 237, 238, 239, 240, 241, 242, 243, 244, 245, 246, 247, 248, 249, 250, 251, 252, 253, 254, 255, 256, 257, 258, 259, 260, 261, 262, 263, 264, 265, 266, 267, 268, 269, 270, 271, 272, 273, 274, 275, 276, 277, 278, 279, 280, 281, 282, 283, 284, 285, 286, 287, 288, 289, 290, 291, 292, 293, 294, 295, 296, 297, 298, 299, 300, 301, 302, 303, 304, 305, 306, 307, 308, 309, 310, 311, 312, 313, 314, 315, 316, 317, 318, 319, 320, 321, 322, 323, 324, 325, 326, 327, 328, 329, 330, 331, 332, 333, 334, 335, 336, 337, 338, 339, 340, 341, 342, 343, 344, 345, 346, 347, 348, 349, 350, 351, 352, 353, 354, 355, 356, 357, 358, 359, 360, 361, 362, 363, 364, 365, 366, 367, 368, 369, 370, 371, 372, 373, 374, 375, 376, 377, 378, 379, 380, 381, 382, 383, 384, 385, 386, 387, 388, 389, 390, 391, 392, 393, 394, 395, 396, 397, 398, 399, 400, 401, 402, 403, 404, 405, 406, 407, 408, 409, 410, 411, 412, 413, 414, 415, 416, 417, 418, 419, 420, 421, 422, 423, 424, 425, 426, 427, 428, 429, 430, 431, 432, 433, 434, 435, 436, 437, 438, 439, 440, 441, 442, 443, 444, 445, 446, 447, 448, 449, 450, 451, 452, 453, 454, 455, 456, 457, 458, 459, 460, 461, 462, 463, 464, 465, 466, 467, 468, 469, 470, 471, 472, 473, 474, 475, 476, 477, 478, 479, 480, 481, 482, 483, 484, 485, 486, 487, 488, 489, 490, 491, 492, 493, 494, 495, 496, 497, 498, 499, 500, 501, 502, 503, 504, 505, 506, 507, 508, 509, 510, 511, 512, 513, 514, 515, 516, 517, 518, 519, 520, 521, 522, 523, 524, 525, 526, 527, 528, 529, 530, 531, 532, 533, 534, 535, 536, 537, 538, 539, 540, 541, 542, 543, 544, 545, 546, 547, 548, 549, 550, 551, 552, 553, 554, 555, 556, 557, 558, 559, 560, 561, 562, 563, 564, 565, 566, 567, 568, 569, 570, 571, 572, 573, 574, 575, 576, 577, 578, 579, 580, 581, 582, 583, 584, 585, 586, 587, 588, 589, 590, 591, 592, 593, 594, 595, 596, 597, 598, 599, 600, 601, 602, 603, 604, 605, 606, 607, 608, 609, 610, 611, 612, 613, 614, 615, 616, 617, 618, 619, 620, 621, 622, 623, 624, 625, 626, 627, 628, 629, 630, 631, 632, 633, 634, 635, 636, 637, 638, 639, 640, 641, 642, 643, 644, 645, 646, 647, 648, 649, 650, 651, 652, 653, 654, 655, 656, 657, 658, 659, 660, 661, 662, 663, 664, 665, 666, 667, 668, 669, 670, 671, 672, 673, 674, 675, 676, 677, 678, 679, 680, 681, 682, 683, 684, 685, 686, 687, 688, 689, 690, 691, 692, 693, 694, 695, 696, 697, 698, 699, 700, 701, 702, 703, 704, 705, 706, 707, 708, 709, 710, 711, 712, 713, 714, 715, 716, 717, 718, 719, 720, 721, 722, 723, 724, 725, 726, 727, 728, 729, 730, 731, 732, 733, 734, 735, 736, 737, 738, 739, 740, 741, 742, 743, 744, 745, 746, 747, 748, 749, 750, 751, 752, 753, 754, 755, 756, 757, 758, 759, 760, 761, 762, 763, 764, 765, 766, 767, 768, 769, 770, 771, 772, 773, 774, 775, 776, 777, 778, 779, 780, 781, 782, 783, 784, 785, 786, 787, 788, 789, 790, 791, 792, 793, 794, 795, 796, 797, 798, 799, 800, 801, 802, 803, 804, 805, 806, 807, 808, 809, 810, 811, 812, 813, 814, 815, 816, 817, 818, 819, 820, 821, 822, 823, 824, 825, 826, 827, 828, 829, 830, 831, 832, 833, 834, 835, 836, 837, 838, 839, 840, 841, 842, 843, 844, 845, 846, 847, 848, 849, 850, 851, 852, 853, 854, 855, 856, 857, 858, 859, 860, 861, 862, 863, 864, 865, 866, 867, 868, 869, 870, 871, 872, 873, 874, 875, 876, 877, 878, 879, 880, 881, 882, 883, 884, 885, 886, 887, 888, 889, 890, 891, 892, 893, 894, 895, 896, 897, 898, 899, 900, 901, 902, 903, 904, 905, 906, 907, 908, 909, 910, 911, 912, 913, 914],
      "AcquisitionTime": ["094247.737500", "094248.197500", "094248.657500", "094249.117500", "094249.577500", "094250.037500", "094250.497500", "094250.957500", "094251.417500", "094251.877500", "094252.337500", "094252.797500", "094253.257500", "094253.717500", "094254.177500", "094254.637500", "094255.097500", "094255.557500", "094256.017500", "094256.477500", "094256.937500", "094257.397500", "094257.857500", "094258.317500", "094258.777500", "094259.237500", "094259.697500", "094300.157500", "094300.617500", "094301.077500", "094301.537500", "094301.997500", "094302.457500", "094302.917500", "094303.377500", "094303.837500", "094304.297500", "094304.757500", "094305.217500", "094305.677500", "094306.137500", "094306.597500", "094307.057500", "094307.517500", "094307.977500", "094308.437500", "094308.897500", "094309.357500", "094309.817500", "094310.277500", "094310.737500", "094311.197500", "094311.657500", "094312.117500", "094312.577500", "094313.037500", "094313.497500", "094313.957500", "094314.417500", "094314.877500", "094315.337500", "094315.797500", "094316.257500", "094316.717500", "094317.177500", "094317.637500", "094318.097500", "094318.557500", "094319.017500", "094319.477500", "094319.937500", "094320.397500", "094320.857500", "094321.317500", "094321.777500", "094322.237500", "094322.697500", "094323.157500", "094323.617500", "094324.077500", "094324.537500", "094324.997500", "094325.457500", "094325.917500", "094326.377500", "094326.837500", "094327.297500", "094327.757500", "094328.217500", "094328.677500", "094329.137500", "094329.597500", "094330.057500", "094330.517500", "094330.977500", "094331.437500", "094331.897500", "094332.357500", "094332.817500", "094333.277500", "094333.737500", "094334.197500", "094334.657500", "094335.117500", "094335.577500", "094336.037500", "094336.497500", "094336.957500", "094337.417500", "094337.877500", "094338.337500", "094338.797500", "094339.257500", "094339.717500", "094340.177500", "094340.637500", "094341.097500", "094341.557500", "094342.017500", "094342.477500", "094342.937500", "094343.397500", "094343.857500", "094344.317500", "094344.777500", "094345.237500", "094345.697500", "094346.157500", "094346.617500", "094347.077500", "094347.537500", "094347.997500", "094348.457500", "094348.917500", "094349.377500", "094349.837500", "094350.297500", "094350.757500", "094351.217500", "094351.677500", "094352.137500", "094352.597500", "094353.057500", "094353.517500", "094353.977500", "094354.437500", "094354.897500", "094355.357500", "094355.817500", "094356.277500", "094356.737500", "094357.197500", "094357.657500", "094358.117500", "094358.577500", "094359.037500", "094359.497500", "094359.957500", "094400.417500", "094400.877500", "094401.337500", "094401.797500", "094402.257500", "094402.717500", "094403.177500", "094403.637500", "094404.097500", "094404.557500", "094405.017500", "094405.477500", "094405.937500", "094406.397500", "094406.857500", "094407.317500", "094407.777500", "094408.237500", "094408.697500", "094409.157500", "094409.617500", "094410.077500", "094410.537500", "094410.997500", "094411.457500", "094411.917500", "094412.377500", "094412.837500", "094413.297500", "094413.757500", "094414.217500", "094414.677500", "094415.137500", "094415.597500", "094416.057500", "094416.517500", "094416.977500", "094417.437500", "094417.897500", "094418.357500", "094418.817500", "094419.277500", "094419.737500", "094420.197500", "094420.657500", "094421.117500", "094421.577500", "094422.037500", "094422.497500", "094422.957500", "094423.417500", "094423.877500", "094424.337500", "094424.797500", "094425.257500", "094425.717500", "094426.177500", "094426.637500", "094427.097500", "094427.557500", "094428.017500", "094428.477500", "094428.937500", "094429.397500", "094429.857500", "094430.317500", "094430.777500", "094431.237500", "094431.697500", "094432.157500", "094432.617500", "094433.077500", "094433.537500", "094433.997500", "094434.457500", "094434.917500", "094435.377500", "094435.837500", "094436.297500", "094436.757500", "094437.217500", "094437.677500", "094438.137500", "094438.597500", "094439.057500", "094439.517500", "094439.977500", "094440.437500", "094440.897500", "094441.357500", "094441.817500", "094442.277500", "094442.737500", "094443.197500", "094443.657500", "094444.117500", "094444.577500", "094445.037500", "094445.497500", "094445.957500", "094446.417500", "094446.877500", "094447.337500", "094447.797500", "094448.257500", "094448.717500", "094449.177500", "094449.637500", "094450.097500", "094450.557500", "094451.017500", "094451.477500", "094451.937500", "094452.397500", "094452.857500", "094453.317500", "094453.777500", "094454.237500", "094454.697500", "094455.157500", "094455.617500", "094456.077500", "094456.537500", "094456.997500", "094457.457500", "094457.917500", "094458.377500", "094458.837500", "094459.297500", "094459.757500", "094500.217500", "094500.677500", "094501.137500", "094501.597500", "094502.057500", "094502.517500", "094502.977500", "094503.437500", "094503.897500", "094504.357500", "094504.817500", "094505.277500", "094505.737500", "094506.197500", "094506.657500", "094507.117500", "094507.577500", "094508.037500", "094508.497500", "094508.957500", "094509.417500", "094509.877500", "094510.337500", "094510.797500", "094511.257500", "094511.717500", "094512.177500", "094512.637500", "094513.097500", "094513.557500", "094514.017500", "094514.477500", "094514.937500", "094515.397500", "094515.857500", "094516.317500", "094516.777500", "094517.237500", "094517.697500", "094518.157500", "094518.617500", "094519.077500", "094519.537500", "094519.997500", "094520.457500", "094520.917500", "094521.377500", "094521.837500", "094522.297500", "094522.757500", "094523.217500", "094523.677500", "094524.137500", "094524.597500", "094525.057500", "094525.517500", "094525.977500", "094526.437500", "094526.897500", "094527.357500", "094527.817500", "094528.277500", "094528.737500", "094529.197500", "094529.657500", "094530.117500", "094530.577500", "094531.037500", "094531.497500", "094531.957500", "094532.417500", "094532.877500", "094533.337500", "094533.797500", "094534.257500", "094534.717500", "094535.177500", "094535.637500", "094536.097500", "094536.557500", "094537.017500", "094537.477500", "094537.937500", "094538.397500", "094538.857500", "094539.317500", "094539.777500", "094540.237500", "094540.697500", "094541.157500", "094541.617500", "094542.077500", "094542.537500", "094542.997500", "094543.457500", "094543.917500", "094544.377500", "094544.837500", "094545.297500", "094545.757500", "094546.217500", "094546.677500", "094547.137500", "094547.597500", "094548.057500", "094548.517500", "094548.977500", "094549.437500", "094549.897500", "094550.357500", "094550.817500", "094551.277500", "094551.737500", "094552.197500", "094552.657500", "094553.117500", "094553.577500", "094554.037500", "094554.497500", "094554.957500", "094555.417500", "094555.877500", "094556.337500", "094556.797500", "094557.257500", "094557.717500", "094558.177500", "094558.637500", "094559.097500", "094559.557500", "094600.017500", "094600.477500", "094600.937500", "094601.397500", "094601.857500", "094602.317500", "094602.777500", "094603.237500", "094603.697500", "094604.157500", "094604.617500", "094605.077500", "094605.537500", "094605.997500", "094606.457500", "094606.917500", "094607.377500", "094607.837500", "094608.297500", "094608.757500", "094609.217500", "094609.677500", "094610.137500", "094610.597500", "094611.057500", "094611.517500", "094611.977500", "094612.437500", "094612.897500", "094613.357500", "094613.817500", "094614.277500", "094614.737500", "094615.197500", "094615.657500", "094616.117500", "094616.577500", "094617.037500", "094617.497500", "094617.957500", "094618.417500", "094618.877500", "094619.337500", "094619.797500", "094620.257500", "094620.717500", "094621.177500", "094621.637500", "094622.097500", "094622.557500", "094623.017500", "094623.477500", "094623.937500", "094624.397500", "094624.857500", "094625.317500", "094625.777500", "094626.237500", "094626.697500", "094627.157500", "094627.617500", "094628.077500", "094628.537500", "094628.997500", "094629.457500", "094629.917500", "094630.377500", "094630.837500", "094631.297500", "094631.757500", "094632.217500", "094632.677500", "094633.137500", "094633.597500", "094634.057500", "094634.517500", "094634.977500", "094635.437500", "094635.897500", "094636.357500", "094636.817500", "094637.277500", "094637.737500", "094638.197500", "094638.657500", "094639.117500", "094639.577500", "094640.037500", "094640.497500", "094640.957500", "094641.417500", "094641.877500", "094642.337500", "094642.797500", "094643.257500", "094643.717500", "094644.177500", "094644.637500", "094645.097500", "094645.557500", "094646.017500", "094646.477500", "094646.937500", "094647.397500", "094647.857500", "094648.317500", "094648.777500", "094649.237500", "094649.697500", "094650.157500", "094650.617500", "094651.077500", "094651.537500", "094651.997500", "094652.457500", "094652.917500", "094653.377500", "094653.837500", "094654.297500", "094654.757500", "094655.217500", "094655.677500", "094656.137500", "094656.597500", "094657.057500", "094657.517500", "094657.977500", "094658.437500", "094658.897500", "094659.357500", "094659.817500", "094700.277500", "094700.737500", "094701.197500", "094701.657500", "094702.117500", "094702.577500", "094703.037500", "094703.497500", "094703.957500", "094704.417500", "094704.877500", "094705.337500", "094705.797500", "094706.257500", "094706.717500", "094707.177500", "094707.637500", "094708.097500", "094708.557500", "094709.017500", "094709.477500", "094709.937500", "094710.397500", "094710.857500", "094711.317500", "094711.777500", "094712.237500", "094712.697500", "094713.157500", "094713.617500", "094714.077500", "094714.537500", "094714.997500", "094715.457500", "094715.917500", "094716.377500", "094716.837500", "094717.297500", "094717.757500", "094718.217500", "094718.677500", "094719.137500", "094719.597500", "094720.057500", "094720.517500", "094720.977500", "094721.437500", "094721.897500", "094722.357500", "094722.817500", "094723.277500", "094723.737500", "094724.197500", "094724.657500", "094725.117500", "094725.577500", "094726.037500", "094726.497500", "094726.957500", "094727.417500", "094727.877500", "094728.337500", "094728.797500", "094729.257500", "094729.717500", "094730.177500", "094730.637500", "094731.097500", "094731.557500", "094732.017500", "094732.477500", "094732.937500", "094733.397500", "094733.857500", "094734.317500", "094734.777500", "094735.237500", "094735.697500", "094736.157500", "094736.617500", "094737.077500", "094737.537500", "094737.997500", "094738.457500", "094738.917500", "094739.377500", "094739.837500", "094740.297500", "094740.757500", "094741.217500", "094741.677500", "094742.137500", "094742.597500", "094743.057500", "094743.517500", "094743.977500", "094744.437500", "094744.897500", "094745.357500", "094745.817500", "094746.277500", "094746.737500", "094747.197500", "094747.657500", "094748.117500", "094748.577500", "094749.037500", "094749.497500", "094749.957500", "094750.417500", "094750.877500", "094751.337500", "094751.797500", "094752.257500", "094752.717500", "094753.177500", "094753.637500", "094754.097500", "094754.557500", "094755.017500", "094755.477500", "094755.937500", "094756.397500", "094756.857500", "094757.317500", "094757.777500", "094758.237500", "094758.697500", "094759.157500", "094759.617500", "094800.077500", "094800.537500", "094800.997500", "094801.457500", "094801.917500", "094802.377500", "094802.837500", "094803.297500", "094803.757500", "094804.217500", "094804.677500", "094805.137500", "094805.597500", "094806.057500", "094806.517500", "094806.977500", "094807.437500", "094807.897500", "094808.357500", "094808.817500", "094809.277500", "094809.737500", "094810.197500", "094810.657500", "094811.117500", "094811.577500", "094812.037500", "094812.497500", "094812.957500", "094813.417500", "094813.877500", "094814.337500", "094814.797500", "094815.257500", "094815.717500", "094816.177500", "094816.637500", "094817.097500", "094817.557500", "094818.017500", "094818.477500", "094818.937500", "094819.397500", "094819.857500", "094820.317500", "094820.777500", "094821.237500", "094821.697500", "094822.157500", "094822.617500", "094823.077500", "094823.537500", "094823.997500", "094824.457500", "094824.917500", "094825.377500", "094825.837500", "094826.297500", "094826.757500", "094827.217500", "094827.677500", "094828.137500", "094828.597500", "094829.057500", "094829.517500", "094829.977500", "094830.437500", "094830.897500", "094831.357500", "094831.817500", "094832.277500", "094832.737500", "094833.197500", "094833.657500", "094834.117500", "094834.577500", "094835.037500", "094835.497500", "094835.957500", "094836.417500", "094836.877500", "094837.337500", "094837.797500", "094838.257500", "094838.717500", "094839.177500", "094839.637500", "094840.097500", "094840.557500", "094841.017500", "094841.477500", "094841.937500", "094842.397500", "094842.857500", "094843.317500", "094843.777500", "094844.237500", "094844.697500", "094845.157500", "094845.617500", "094846.077500", "094846.537500", "094846.997500", "094847.457500", "094847.917500", "094848.377500", "094848.837500", "094849.297500", "094849.757500", "094850.217500", "094850.677500", "094851.137500", "094851.597500", "094852.057500", "094852.517500", "094852.977500", "094853.437500", "094853.897500", "094854.357500", "094854.817500", "094855.277500", "094855.737500", "094856.197500", "094856.657500", "094857.117500", "094857.577500", "094858.037500", "094858.497500", "094858.957500", "094859.417500", "094859.877500", "094900.337500", "094900.797500", "094901.257500", "094901.717500", "094902.177500", "094902.637500", "094903.097500", "094903.557500", "094904.017500", "094904.477500", "094904.937500", "094905.397500", "094905.857500", "094906.317500", "094906.777500", "094907.237500", "094907.697500", "094908.157500", "094908.617500", "094909.077500", "094909.537500", "094909.997500", "094910.457500", "094910.917500", "094911.377500", "094911.837500", "094912.297500", "094912.757500", "094913.217500", "094913.677500", "094914.137500", "094914.597500", "094915.057500", "094915.517500", "094915.977500", "094916.437500", "094916.897500", "094917.357500", "094917.817500", "094918.277500", "094918.737500", "094919.197500", "094919.657500", "094920.117500", "094920.577500", "094921.037500", "094921.497500", "094921.957500", "094922.417500", "094922.877500", "094923.337500", "094923.797500", "094924.257500", "094924.717500", "094925.177500", "094925.637500", "094926.097500", "094926.557500", "094927.017500", "094927.477500", "094927.937500", "094928.397500", "094928.857500", "094929.317500", "094929.777500", "094930.237500", "094930.697500", "094931.157500", "094931.617500", "094932.077500", "094932.537500", "094932.997500", "094933.457500", "094933.917500", "094934.377500", "094934.837500", "094935.297500", "094935.757500", "094936.217500", "094936.677500", "094937.137500", "094937.597500", "094938.057500", "094938.517500", "094938.977500", "094939.437500", "094939.897500", "094940.357500", "094940.817500", "094941.277500", "094941.737500", "094942.197500", "094942.657500", "094943.117500", "094943.577500", "094944.037500", "094944.497500", "094944.957500", "094945.417500", "094945.877500", "094946.337500", "094946.797500", "094947.257500", "094947.717500"],
