{
  "AcquisitionMatrixPE": 82,
  "AcquisitionNumber": 1,
  "AcquisitionTime": "16:45:17.312500",
  "BandwidthPerPixelPhaseEncode": 24.888,
  "BaseResolution": 82,
  "BodyPartExamined": "BRAIN",
  "ConsistencyInfo": "N4_VE11E_LATEST_20181129",
  "ConversionSoftware": "dcm2niix",
  "ConversionSoftwareVersion": "v1.0.20201102",
  "DerivedVendorReportedEchoSpacing": 0.00049,
  "DeviceSerialNumber": "66112",
  "DwellTime": 2e-06,
  "EchoTime": 0.0272,
  "EchoTrainLength": 82,
  "EffectiveEchoSpacing": 0.00049,
  "FlipAngle": 44,
  "ImageComments": "Unaliased MB8/PE3",
  "ImageOrientationPatientDICOM": [0.996609, 0.0805125, -0.0169784, -0.0731864, 0.96166, 0.2643],
  "ImageType": [
    "ORIGINAL",
    "PRIMARY",
    "M",
    "MB",
    "ND",
    "NORM",
    "MOSAIC"
],
  "ImagingFrequency": 123.259,
  "InPlanePhaseEncodingDirectionDICOM": "COL",
  "InstitutionAddress": "Maynard 3,Hanover,NH,US,03755",
  "InstitutionName": "Dartmouth College - PBS",
  "InstitutionalDepartmentName": "Department",
  "MRAcquisitionType": "2D",
  "MagneticFieldStrength": 3,
  "Manufacturer": "Siemens",
  "ManufacturersModelName": "Prisma",
  "Modality": "MR",
  "MultibandAccelerationFactor": 8,
  "PartialFourier": 1,
  "PatientPosition": "HFS",
  "PercentPhaseFOV": 100,
  "PercentSampling": 100,
  "PhaseEncodingDirection": "j-",
  "PhaseEncodingSteps": 82,
  "PhaseResolution": 1,
  "PixelBandwidth": 3050,
  "ProcedureStepDescription": "Wager_Wager^1076_spacetop",
  "ProtocolName": "func_run-04_task-social_acq-ap-mb8",
  "PulseSequenceDetails": "%CustomerSeq%\\cmrr_mbep2d_bold",
  "ReceiveCoilActiveElements": "HEA;HEP",
  "ReceiveCoilName": "Head_32",
  "ReconMatrixPE": 82,
  "RepetitionTime": 0.46,
  "SAR": 0.0973247,
  "ScanOptions": "FS",
  "ScanningSequence": "EP",
  "SequenceName": "epfid2d1_82",
  "SequenceVariant": "SK\\SS",
  "SeriesDescription": "func_run-04_task-social_acq-ap-mb8",
  "SeriesNumber": 26,
  "ShimSetting": [4228, -7828, -7241, 322, -94, -140, 119, 100],
  "SliceThickness": 2.7,
  "SliceTiming": [0, 0.25, 0.0625, 0.3125, 0.125, 0.375, 0.1875, 0, 0.25, 0.0625, 0.3125, 0.125, 0.375, 0.1875, 0, 0.25, 0.0625, 0.3125, 0.125, 0.375, 0.1875, 0, 0.25, 0.0625, 0.3125, 0.125, 0.375, 0.1875, 0, 0.25, 0.0625, 0.3125, 0.125, 0.375, 0.1875, 0, 0.25, 0.0625, 0.3125, 0.125, 0.375, 0.1875, 0, 0.25, 0.0625, 0.3125, 0.125, 0.375, 0.1875, 0, 0.25, 0.0625, 0.3125, 0.125, 0.375, 0.1875],
  "SoftwareVersions": "syngo MR E11",
  "SpacingBetweenSlices": 2.7,
  "StationName": "AWP66112",
  "TaskName": "social",
  "TotalReadoutTime": 0.03969,
  "TxRefAmp": 230.222,
  "WipMemBlock": "a533513e-5559-41e4-ad09-bef9b1ee39c4||Sequence: R016 ve11e/master r/434b28f1; Aug  7 2019 18:53:46 by eja",
  "dcmmeta_affine": [
    [-2.6738290786743164, -0.1963537186384201, -0.10153857618570328, 122.36677551269531],
    [-0.21600909531116486, 2.5800623893737793, 0.707835853099823, -112.43775939941406],
    [-0.04555172473192215, -0.7090982794761658, 2.603585720062256, -30.849742889404297],
    [0.0, 0.0, 0.0, 1.0]
],
  "dcmmeta_reorient_transform": [
    [0.0, -1.0, 0.0, 81.0],
    [1.0, 0.0, 0.0, 0.0],
    [0.0, 0.0, 1.0, 0.0],
    [0.0, 0.0, 0.0, 1.0]
],
  "dcmmeta_shape": [82, 82, 56, 872],
  "dcmmeta_slice_dim": 2,
  "dcmmeta_version": 0.6,
  "global": {
    "const": {
      "AccessionNumber": "A004324",
      "AcquisitionMatrix": [82, 0, 0, 82],
      "AngioFlag": "N",
      "BitsAllocated": 16,
      "BitsStored": 16,
      "BodyPartExamined": "BRAIN",
      "Columns": 656,
      "EchoNumbers": 1,
      "EchoTime": 27.2,
      "EchoTrainLength": 82,
      "FlipAngle": 44.0,
      "HighBit": 15,
      "ImageOrientationPatient": [0.99660898847696, 0.08051247753365, -0.016978370014, -0.0731863822103, 0.96165956541374, 0.26430027186372],
      "ImagePositionPatient": [-817.49754874165, -899.01978300163, -278.72457383023],
      "ImageType": [
        "ORIGINAL",
        "PRIMARY",
        "M",
        "MB",
        "ND",
        "NORM",
        "MOSAIC"
],
      "ImagedNucleus": "1H",
      "ImagingFrequency": 123.259118,
      "InPlanePhaseEncodingDirection": "COL",
      "MRAcquisitionType": "2D",
      "MagneticFieldStrength": 3.0,
      "Manufacturer": "SIEMENS",
      "ManufacturerModelName": "Prisma",
      "Modality": "MR",
      "NumberOfAverages": 1.0,
      "NumberOfPhaseEncodingSteps": 82,
      "PercentPhaseFieldOfView": 100.0,
      "PercentSampling": 100.0,
      "PerformedProcedureStepStartTime": "152250.319000",
      "PhotometricInterpretation": "MONOCHROME2",
      "PixelBandwidth": 3050.0,
      "PixelRepresentation": 0,
      "PixelSpacing": [2.6829268932343, 2.6829268932343],
      "ProtocolName": "func_run-04_task-social_acq-ap-mb8",
      "RepetitionTime": 460.0,
      "Rows": 656,
      "SAR": 0.09732472231693,
      "SamplesPerPixel": 1,
      "ScanOptions": "FS",
      "ScanningSequence": "EP",
      "SequenceName": "epfid2d1_82",
      "SequenceVariant": [
        "SK",
        "SS"
],
      "SeriesDescription": "func_run-04_task-social_acq-ap-mb8",
      "SeriesNumber": 26,
      "SeriesTime": "164538.166000",
      "SliceLocation": -63.826805121739,
      "SliceThickness": 2.7000000476837,
      "SmallestImagePixelValue": 0,
      "SoftwareVersions": "syngo MR E11",
      "SpacingBetweenSlices": 2.6999999573141,
      "SpecificCharacterSet": "ISO_IR 100",
      "StudyID": "1",
      "StudyTime": "152250.260000",
      "TransmitCoilName": "Body",
      "VariableFlipAngleFlag": "N",
      "WindowCenterWidthExplanation": "Algo1"
    },
    "slices": {}
  },
  "time": {
    "samples": {
      "AcquisitionNumber": [1, 2, 3, 4, 5, 6, 7, 8, 9, 10, 11, 12, 13, 14, 15, 16, 17, 18, 19, 20, 21, 22, 23, 24, 25, 26, 27, 28, 29, 30, 31, 32, 33, 34, 35, 36, 37, 38, 39, 40, 41, 42, 43, 44, 45, 46, 47, 48, 49, 50, 51, 52, 53, 54, 55, 56, 57, 58, 59, 60, 61, 62, 63, 64, 65, 66, 67, 68, 69, 70, 71, 72, 73, 74, 75, 76, 77, 78, 79, 80, 81, 82, 83, 84, 85, 86, 87, 88, 89, 90, 91, 92, 93, 94, 95, 96, 97, 98, 99, 100, 101, 102, 103, 104, 105, 106, 107, 108, 109, 110, 111, 112, 113, 114, 115, 116, 117, 118, 119, 120, 121, 122, 123, 124, 125, 126, 127, 128, 129, 130, 131, 132, 133, 134, 135, 136, 137, 138, 139, 140, 141, 142, 143, 144, 145, 146, 147, 148, 149, 150, 151, 152, 153, 154, 155, 156, 157, 158, 159, 160, 161, 162, 163, 164, 165, 166, 167, 168, 169, 170, 171, 172, 173, 174, 175, 176, 177, 178, 179, 180, 181, 182, 183, 184, 185, 186, 187, 188, 189, 190, 191, 192, 193, 194, 195, 196, 197, 198, 199, 200, 201, 202, 203, 204, 205, 206, 207, 208, 209, 210, 211, 212, 213, 214, 215, 216, 217, 218, 219, 220, 221, 222, 223, 224, 225, 226, 227, 228, 229, 230, 231, 232, 233, 234, 235, 236, 237, 238, 239, 240, 241, 242, 243, 244, 245, 246, 247, 248, 249, 250, 251, 252, 253, 254, 255, 256, 257, 258, 259, 260, 261, 262, 263, 264, 265, 266, 267, 268, 269, 270, 271, 272, 273, 274, 275, 276, 277, 278, 279, 280, 281, 282, 283, 284, 285, 286, 287, 288, 289, 290, 291, 292, 293, 294, 295, 296, 297, 298, 299, 300, 301, 302, 303, 304, 305, 306, 307, 308, 309, 310, 311, 312, 313, 314, 315, 316, 317, 318, 319, 320, 321, 322, 323, 324, 325, 326, 327, 328, 329, 330, 331, 332, 333, 334, 335, 336, 337, 338, 339, 340, 341, 342, 343, 344, 345, 346, 347, 348, 349, 350, 351, 352, 353, 354, 355, 356, 357, 358, 359, 360, 361, 362, 363, 364, 365, 366, 367, 368, 369, 370, 371, 372, 373, 374, 375, 376, 377, 378, 379, 380, 381, 382, 383, 384, 385, 386, 387, 388, 389, 390, 391, 392, 393, 394, 395, 396, 397, 398, 399, 400, 401, 402, 403, 404, 405, 406, 407, 408, 409, 410, 411, 412, 413, 414, 415, 416, 417, 418, 419, 420, 421, 422, 423, 424, 425, 426, 427, 428, 429, 430, 431, 432, 433, 434, 435, 436, 437, 438, 439, 440, 441, 442, 443, 444, 445, 446, 447, 448, 449, 450, 451, 452, 453, 454, 455, 456, 457, 458, 459, 460, 461, 462, 463, 464, 465, 466, 467, 468, 469, 470, 471, 472, 473, 474, 475, 476, 477, 478, 479, 480, 481, 482, 483, 484, 485, 486, 487, 488, 489, 490, 491, 492, 493, 494, 495, 496, 497, 498, 499, 500, 501, 502, 503, 504, 505, 506, 507, 508, 509, 510, 511, 512, 513, 514, 515, 516, 517, 518, 519, 520, 521, 522, 523, 524, 525, 526, 527, 528, 529, 530, 531, 532, 533, 534, 535, 536, 537, 538, 539, 540, 541, 542, 543, 544, 545, 546, 547, 548, 549, 550, 551, 552, 553, 554, 555, 556, 557, 558, 559, 560, 561, 562, 563, 564, 565, 566, 567, 568, 569, 570, 571, 572, 573, 574, 575, 576, 577, 578, 579, 580, 581, 582, 583, 584, 585, 586, 587, 588, 589, 590, 591, 592, 593, 594, 595, 596, 597, 598, 599, 600, 601, 602, 603, 604, 605, 606, 607, 608, 609, 610, 611, 612, 613, 614, 615, 616, 617, 618, 619, 620, 621, 622, 623, 624, 625, 626, 627, 628, 629, 630, 631, 632, 633, 634, 635, 636, 637, 638, 639, 640, 641, 642, 643, 644, 645, 646, 647, 648, 649, 650, 651, 652, 653, 654, 655, 656, 657, 658, 659, 660, 661, 662, 663, 664, 665, 666, 667, 668, 669, 670, 671, 672, 673, 674, 675, 676, 677, 678, 679, 680, 681, 682, 683, 684, 685, 686, 687, 688, 689, 690, 691, 692, 693, 694, 695, 696, 697, 698, 699, 700, 701, 702, 703, 704, 705, 706, 707, 708, 709, 710, 711, 712, 713, 714, 715, 716, 717, 718, 719, 720, 721, 722, 723, 724, 725, 726, 727, 728, 729, 730, 731, 732, 733, 734, 735, 736, 737, 738, 739, 740, 741, 742, 743, 744, 745, 746, 747, 748, 749, 750, 751, 752, 753, 754, 755, 756, 757, 758, 759, 760, 761, 762, 763, 764, 765, 766, 767, 768, 769, 770, 771, 772, 773, 774, 775, 776, 777, 778, 779, 780, 781, 782, 783, 784, 785, 786, 787, 788, 789, 790, 791, 792, 793, 794, 795, 796, 797, 798, 799, 800, 801, 802, 803, 804, 805, 806, 807, 808, 809, 810, 811, 812, 813, 814, 815, 816, 817, 818, 819, 820, 821, 822, 823, 824, 825, 826, 827, 828, 829, 830, 831, 832, 833, 834, 835, 836, 837, 838, 839, 840, 841, 842, 843, 844, 845, 846, 847, 848, 849, 850, 851, 852, 853, 854, 855, 856, 857, 858, 859, 860, 861, 862, 863, 864, 865, 866, 867, 868, 869, 870, 871, 872],
      "AcquisitionTime": ["164517.312500", "164517.772500", "164518.232500", "164518.692500", "164519.152500", "164519.612500", "164520.072500", "164520.532500", "164520.992500", "164521.452500", "164521.912500", "164522.372500", "164522.832500", "164523.292500", "164523.752500", "164524.212500", "164524.672500", "164525.132500", "164525.592500", "164526.052500", "164526.512500", "164526.972500", "164527.432500", "164527.892500", "164528.352500", "164528.812500", "164529.272500", "164529.732500", "164530.192500", "164530.652500", "164531.112500", "164531.572500", "164532.032500", "164532.492500", "164532.952500", "164533.412500", "164533.872500", "164534.332500", "164534.792500", "164535.252500", "164535.712500", "164536.172500", "164536.632500", "164537.092500", "164537.552500", "164538.012500", "164538.472500", "164538.932500", "164539.392500", "164539.852500", "164540.312500", "164540.772500", "164541.232500", "164541.692500", "164542.152500", "164542.612500", "164543.072500", "164543.532500", "164543.992500", "164544.452500", "164544.912500", "164545.372500", "164545.832500", "164546.292500", "164546.752500", "164547.212500", "164547.672500", "164548.132500", "164548.592500", "164549.052500", "164549.512500", "164549.972500", "164550.432500", "164550.892500", "164551.352500", "164551.812500", "164552.272500", "164552.732500", "164553.192500", "164553.652500", "164554.112500", "164554.572500", "164555.032500", "164555.492500", "164555.952500", "164556.412500", "164556.872500", "164557.332500", "164557.792500", "164558.252500", "164558.712500", "164559.172500", "164559.632500", "164600.092500", "164600.552500", "164601.012500", "164601.472500", "164601.932500", "164602.392500", "164602.852500", "164603.312500", "164603.772500", "164604.232500", "164604.692500", "164605.152500", "164605.612500", "164606.072500", "164606.532500", "164606.992500", "164607.452500", "164607.912500", "164608.372500", "164608.832500", "164609.292500", "164609.752500", "164610.212500", "164610.672500", "164611.132500", "164611.592500", "164612.052500", "164612.512500", "164612.972500", "164613.432500", "164613.892500", "164614.352500", "164614.812500", "164615.272500", "164615.732500", "164616.192500", "164616.652500", "164617.112500", "164617.572500", "164618.032500", "164618.492500", "164618.952500", "164619.412500", "164619.872500", "164620.332500", "164620.792500", "164621.252500", "164621.712500", "164622.172500", "164622.632500", "164623.092500", "164623.552500", "164624.012500", "164624.472500", "164624.932500", "164625.392500", "164625.852500", "164626.312500", "164626.772500", "164627.232500", "164627.692500", "164628.152500", "164628.612500", "164629.072500", "164629.532500", "164629.992500", "164630.452500", "164630.912500", "164631.372500", "164631.832500", "164632.292500", "164632.752500", "164633.212500", "164633.672500", "164634.132500", "164634.592500", "164635.052500", "164635.512500", "164635.972500", "164636.432500", "164636.892500", "164637.352500", "164637.812500", "164638.272500", "164638.732500", "164639.192500", "164639.652500", "164640.112500", "164640.572500", "164641.032500", "164641.492500", "164641.952500", "164642.412500", "164642.872500", "164643.332500", "164643.792500", "164644.252500", "164644.712500", "164645.172500", "164645.632500", "164646.092500", "164646.552500", "164647.012500", "164647.472500", "164647.932500", "164648.392500", "164648.852500", "164649.312500", "164649.772500", "164650.232500", "164650.692500", "164651.152500", "164651.612500", "164652.072500", "164652.532500", "164652.992500", "164653.452500", "164653.912500", "164654.372500", "164654.832500", "164655.292500", "164655.752500", "164656.212500", "164656.672500", "164657.132500", "164657.592500", "164658.052500", "164658.512500", "164658.972500", "164659.432500", "164659.892500", "164700.352500", "164700.812500", "164701.272500", "164701.732500", "164702.192500", "164702.652500", "164703.112500", "164703.572500", "164704.032500", "164704.492500", "164704.952500", "164705.412500", "164705.872500", "164706.332500", "164706.792500", "164707.252500", "164707.712500", "164708.172500", "164708.632500", "164709.092500", "164709.552500", "164710.012500", "164710.472500", "164710.932500", "164711.392500", "164711.852500", "164712.312500", "164712.772500", "164713.232500", "164713.692500", "164714.152500", "164714.612500", "164715.072500", "164715.532500", "164715.992500", "164716.452500", "164716.912500", "164717.372500", "164717.832500", "164718.292500", "164718.752500", "164719.212500", "164719.672500", "164720.132500", "164720.592500", "164721.052500", "164721.512500", "164721.972500", "164722.432500", "164722.892500", "164723.352500", "164723.812500", "164724.272500", "164724.732500", "164725.192500", "164725.652500", "164726.112500", "164726.572500", "164727.032500", "164727.492500", "164727.952500", "164728.412500", "164728.872500", "164729.332500", "164729.792500", "164730.252500", "164730.712500", "164731.172500", "164731.632500", "164732.092500", "164732.552500", "164733.012500", "164733.472500", "164733.932500", "164734.392500", "164734.852500", "164735.312500", "164735.772500", "164736.232500", "164736.692500", "164737.152500", "164737.612500", "164738.072500", "164738.532500", "164738.992500", "164739.452500", "164739.912500", "164740.372500", "164740.832500", "164741.292500", "164741.752500", "164742.212500", "164742.672500", "164743.132500", "164743.592500", "164744.052500", "164744.512500", "164744.972500", "164745.432500", "164745.892500", "164746.352500", "164746.812500", "164747.272500", "164747.732500", "164748.192500", "164748.652500", "164749.112500", "164749.572500", "164750.032500", "164750.492500", "164750.952500", "164751.412500", "164751.872500", "164752.332500", "164752.792500", "164753.252500", "164753.712500", "164754.172500", "164754.632500", "164755.092500", "164755.552500", "164756.012500", "164756.472500", "164756.932500", "164757.392500", "164757.852500", "164758.312500", "164758.772500", "164759.232500", "164759.692500", "164800.152500", "164800.612500", "164801.072500", "164801.532500", "164801.992500", "164802.452500", "164802.912500", "164803.372500", "164803.832500", "164804.292500", "164804.752500", "164805.212500", "164805.672500", "164806.132500", "164806.592500", "164807.052500", "164807.512500", "164807.972500", "164808.432500", "164808.892500", "164809.352500", "164809.812500", "164810.272500", "164810.732500", "164811.192500", "164811.652500", "164812.112500", "164812.572500", "164813.032500", "164813.492500", "164813.952500", "164814.412500", "164814.872500", "164815.332500", "164815.792500", "164816.252500", "164816.712500", "164817.172500", "164817.632500", "164818.092500", "164818.552500", "164819.012500", "164819.472500", "164819.932500", "164820.392500", "164820.852500", "164821.312500", "164821.772500", "164822.232500", "164822.692500", "164823.152500", "164823.612500", "164824.072500", "164824.532500", "164824.992500", "164825.452500", "164825.912500", "164826.372500", "164826.832500", "164827.292500", "164827.752500", "164828.212500", "164828.672500", "164829.132500", "164829.592500", "164830.052500", "164830.512500", "164830.972500", "164831.432500", "164831.892500", "164832.352500", "164832.812500", "164833.272500", "164833.732500", "164834.192500", "164834.652500", "164835.112500", "164835.572500", "164836.032500", "164836.492500", "164836.952500", "164837.412500", "164837.872500", "164838.332500", "164838.792500", "164839.252500", "164839.712500", "164840.172500", "164840.632500", "164841.092500", "164841.552500", "164842.012500", "164842.472500", "164842.932500", "164843.392500", "164843.852500", "164844.312500", "164844.772500", "164845.232500", "164845.692500", "164846.152500", "164846.612500", "164847.072500", "164847.532500", "164847.992500", "164848.452500", "164848.912500", "164849.372500", "164849.832500", "164850.292500", "164850.752500", "164851.212500", "164851.672500", "164852.132500", "164852.592500", "164853.052500", "164853.512500", "164853.972500", "164854.432500", "164854.892500", "164855.352500", "164855.812500", "164856.272500", "164856.732500", "164857.192500", "164857.652500", "164858.112500", "164858.572500", "164859.032500", "164859.492500", "164859.952500", "164900.412500", "164900.872500", "164901.332500", "164901.792500", "164902.252500", "164902.712500", "164903.172500", "164903.632500", "164904.092500", "164904.552500", "164905.012500", "164905.472500", "164905.932500", "164906.392500", "164906.852500", "164907.312500", "164907.772500", "164908.232500", "164908.692500", "164909.152500", "164909.612500", "164910.072500", "164910.532500", "164910.992500", "164911.452500", "164911.912500", "164912.372500", "164912.832500", "164913.292500", "164913.752500", "164914.212500", "164914.672500", "164915.132500", "164915.592500", "164916.052500", "164916.512500", "164916.972500", "164917.432500", "164917.892500", "164918.352500", "164918.812500", "164919.272500", "164919.732500", "164920.192500", "164920.652500", "164921.112500", "164921.572500", "164922.032500", "164922.492500", "164922.952500", "164923.412500", "164923.872500", "164924.332500", "164924.792500", "164925.252500", "164925.712500", "164926.172500", "164926.632500", "164927.092500", "164927.552500", "164928.012500", "164928.472500", "164928.932500", "164929.392500", "164929.852500", "164930.312500", "164930.772500", "164931.232500", "164931.692500", "164932.152500", "164932.612500", "164933.072500", "164933.532500", "164933.992500", "164934.452500", "164934.912500", "164935.372500", "164935.832500", "164936.292500", "164936.752500", "164937.212500", "164937.672500", "164938.132500", "164938.592500", "164939.052500", "164939.512500", "164939.972500", "164940.432500", "164940.892500", "164941.352500", "164941.812500", "164942.272500", "164942.732500", "164943.192500", "164943.652500", "164944.112500", "164944.572500", "164945.032500", "164945.492500", "164945.952500", "164946.412500", "164946.872500", "164947.332500", "164947.792500", "164948.252500", "164948.712500", "164949.172500", "164949.632500", "164950.092500", "164950.552500", "164951.012500", "164951.472500", "164951.932500", "164952.392500", "164952.852500", "164953.312500", "164953.772500", "164954.232500", "164954.692500", "164955.152500", "164955.612500", "164956.072500", "164956.532500", "164956.992500", "164957.452500", "164957.912500", "164958.372500", "164958.832500", "164959.292500", "164959.752500", "165000.212500", "165000.672500", "165001.132500", "165001.592500", "165002.052500", "165002.512500", "165002.972500", "165003.432500", "165003.892500", "165004.352500", "165004.812500", "165005.272500", "165005.732500", "165006.192500", "165006.652500", "165007.112500", "165007.572500", "165008.032500", "165008.492500", "165008.952500", "165009.412500", "165009.872500", "165010.332500", "165010.792500", "165011.252500", "165011.712500", "165012.172500", "165012.632500", "165013.092500", "165013.552500", "165014.012500", "165014.472500", "165014.932500", "165015.392500", "165015.852500", "165016.312500", "165016.772500", "165017.232500", "165017.692500", "165018.152500", "165018.612500", "165019.072500", "165019.532500", "165019.992500", "165020.452500", "165020.912500", "165021.372500", "165021.832500", "165022.292500", "165022.752500", "165023.212500", "165023.672500", "165024.132500", "165024.592500", "165025.052500", "165025.512500", "165025.972500", "165026.432500", "165026.892500", "165027.352500", "165027.812500", "165028.272500", "165028.732500", "165029.192500", "165029.652500", "165030.112500", "165030.572500", "165031.032500", "165031.492500", "165031.952500", "165032.412500", "165032.872500", "165033.332500", "165033.792500", "165034.252500", "165034.712500", "165035.172500", "165035.632500", "165036.092500", "165036.552500", "165037.012500", "165037.472500", "165037.932500", "165038.392500", "165038.852500", "165039.312500", "165039.772500", "165040.232500", "165040.692500", "165041.152500", "165041.612500", "165042.072500", "165042.532500", "165042.992500", "165043.452500", "165043.912500", "165044.372500", "165044.832500", "165045.292500", "165045.752500", "165046.212500", "165046.672500", "165047.132500", "165047.592500", "165048.052500", "165048.512500", "165048.972500", "165049.432500", "165049.892500", "165050.352500", "165050.812500", "165051.272500", "165051.732500", "165052.192500", "165052.652500", "165053.112500", "165053.572500", "165054.032500", "165054.492500", "165054.952500", "165055.412500", "165055.872500", "165056.332500", "165056.792500", "165057.252500", "165057.712500", "165058.172500", "165058.632500", "165059.092500", "165059.552500", "165100.012500", "165100.472500", "165100.932500", "165101.392500", "165101.852500", "165102.312500", "165102.772500", "165103.232500", "165103.692500", "165104.152500", "165104.612500", "165105.072500", "165105.532500", "165105.992500", "165106.452500", "165106.912500", "165107.372500", "165107.832500", "165108.292500", "165108.752500", "165109.212500", "165109.672500", "165110.132500", "165110.592500", "165111.052500", "165111.512500", "165111.972500", "165112.432500", "165112.892500", "165113.352500", "165113.812500", "165114.272500", "165114.732500", "165115.192500", "165115.652500", "165116.112500", "165116.572500", "165117.032500", "165117.492500", "165117.952500", "165118.412500", "165118.872500", "165119.332500", "165119.792500", "165120.252500", "165120.712500", "165121.172500", "165121.632500", "165122.092500", "165122.552500", "165123.012500", "165123.472500", "165123.932500", "165124.392500", "165124.852500", "165125.312500", "165125.772500", "165126.232500", "165126.692500", "165127.152500", "165127.612500", "165128.072500", "165128.532500", "165128.992500", "165129.452500", "165129.912500", "165130.372500", "165130.832500", "165131.292500", "165131.752500", "165132.212500", "165132.672500", "165133.132500", "165133.592500", "165134.052500", "165134.512500", "165134.972500", "165135.432500", "165135.892500", "165136.352500", "165136.812500", "165137.272500", "165137.732500", "165138.192500", "165138.652500", "165139.112500", "165139.572500", "165140.032500", "165140.492500", "165140.952500", "165141.412500", "165141.872500", "165142.332500", "165142.792500", "165143.252500", "165143.712500", "165144.172500", "165144.632500", "165145.092500", "165145.552500", "165146.012500", "165146.472500", "165146.932500", "165147.392500", "165147.852500", "165148.312500", "165148.772500", "165149.232500", "165149.692500", "165150.152500", "165150.612500", "165151.072500", "165151.532500", "165151.992500", "165152.452500", "165152.912500", "165153.372500", "165153.832500", "165154.292500", "165154.752500", "165155.212500", "165155.672500", "165156.132500", "165156.592500", "165157.052500", "165157.512500", "165157.972500"],
