{
  "AcquisitionMatrixPE": 82,
  "AcquisitionNumber": 1,
  "AcquisitionTime": "12:43:29.427500",
  "BandwidthPerPixelPhaseEncode": 24.888,
  "BaseResolution": 82,
  "BodyPartExamined": "BRAIN",
  "ConsistencyInfo": "N4_VE11C_LATEST_20160120",
  "ConversionSoftware": "dcm2niix",
  "ConversionSoftwareVersion": "v1.0.20201102",
  "DerivedVendorReportedEchoSpacing": 0.00049,
  "DeviceSerialNumber": "66112",
  "DwellTime": 2e-06,
  "EchoTime": 0.0272,
  "EchoTrainLength": 82,
  "EffectiveEchoSpacing": 0.00049,
  "FlipAngle": 44,
  "ImageComments": "Unaliased MB8/PE3",
  "ImageOrientationPatientDICOM": [0.999251, 0.00310013, 0.038562, 0.00261602, 0.989088, -0.147305],
  "ImageType": [
    "ORIGINAL",
    "PRIMARY",
    "FMRI",
    "NONE",
    "MB",
    "ND",
    "NORM",
    "MOSAIC"
],
  "ImagingFrequency": 123.253,
  "InPlanePhaseEncodingDirectionDICOM": "COL",
  "InstitutionAddress": "Maynard 3,Hanover,NH,US,03755",
  "InstitutionName": "Dartmouth College - PBS",
  "InstitutionalDepartmentName": "Department",
  "MRAcquisitionType": "2D",
  "MagneticFieldStrength": 3,
  "Manufacturer": "Siemens",
  "ManufacturersModelName": "Prisma",
  "Modality": "MR",
  "MultibandAccelerationFactor": 8,
  "PartialFourier": 1,
  "PatientPosition": "HFS",
  "PercentPhaseFOV": 100,
  "PercentSampling": 100,
  "PhaseEncodingDirection": "j-",
  "PhaseEncodingSteps": 82,
  "PhaseResolution": 1,
  "PixelBandwidth": 3050,
  "ProcedureStepDescription": "Wager_Wager^1076_spacetop",
  "ProtocolName": "func_run-01_task-social_acq-ap-mb8",
  "PulseSequenceDetails": "%CustomerSeq%\\cmrr_mbep2d_bold",
  "ReceiveCoilActiveElements": "HEA;HEP",
  "ReceiveCoilName": "Head_32",
  "ReconMatrixPE": 82,
  "RepetitionTime": 0.46,
  "SAR": 0.110333,
  "ScanOptions": "FS",
  "ScanningSequence": "EP",
  "SequenceName": "epfid2d1_82",
  "SequenceVariant": "SK\\SS",
  "SeriesDescription": "func_run-01_task-social_acq-ap-mb8",
  "SeriesNumber": 11,
  "ShimSetting": [4162, -7730, -7218, 566, 13, -104, -25, 46],
  "SliceThickness": 2.7,
  "SliceTiming": [0, 0.2525, 0.0625, 0.315, 0.125, 0.3775, 0.1875, 0, 0.2525, 0.0625, 0.315, 0.125, 0.3775, 0.1875, 0, 0.2525, 0.0625, 0.315, 0.125, 0.3775, 0.1875, 0, 0.2525, 0.0625, 0.315, 0.125, 0.3775, 0.1875, 0, 0.2525, 0.0625, 0.315, 0.125, 0.3775, 0.1875, 0, 0.2525, 0.0625, 0.315, 0.125, 0.3775, 0.1875, 0, 0.2525, 0.0625, 0.315, 0.125, 0.3775, 0.1875, 0, 0.2525, 0.0625, 0.315, 0.125, 0.3775, 0.1875],
  "SoftwareVersions": "syngo MR E11",
  "SpacingBetweenSlices": 2.7,
  "StationName": "AWP66112",
  "TaskName": "social",
  "TotalReadoutTime": 0.03969,
  "TxRefAmp": 275.313,
  "WipMemBlock": "45e6b548-9449-48f6-9b8a-a541f4c3b62c||Sequence: R016 ve11c/master r/e634e98; Dec 19 2017 11:00:25 by eja",
  "dcmmeta_affine": [
    [-2.6809184551239014, 0.007018589414656162, 0.1042143702507019, 111.36788177490234],
    [-0.00831743236631155, 2.6536500453948975, -0.39769694209098816, -84.07554626464844],
    [0.10345915704965591, 0.39520737528800964, 2.668515682220459, -70.73971557617188],
    [0.0, 0.0, 0.0, 1.0]
],
  "dcmmeta_reorient_transform": [
    [0.0, -1.0, 0.0, 81.0],
    [1.0, 0.0, 0.0, 0.0],
    [0.0, 0.0, 1.0, 0.0],
    [0.0, 0.0, 0.0, 1.0]
],
  "dcmmeta_shape": [82, 82, 56, 872],
  "dcmmeta_slice_dim": 2,
  "dcmmeta_version": 0.6,
  "global": {
    "const": {
      "AccessionNumber": "A003582",
      "AcquisitionMatrix": [82, 0, 0, 82],
      "AngioFlag": "N",
      "BitsAllocated": 16,
      "BitsStored": 12,
      "BodyPartExamined": "BRAIN",
      "Columns": 656,
      "EchoNumbers": 1,
      "EchoTime": 27.2,
      "EchoTrainLength": 82,
      "FlipAngle": 44.0,
      "HighBit": 11,
      "ImageOrientationPatient": [0.99925139854515, 0.00310013387452, 0.03856204968013, 0.00261601969084, 0.9890877228995, -0.1473045581456],
      "ImagePositionPatient": [-883.3743210001, -894.85477928185, 45.003815462315],
      "ImageType": [
        "ORIGINAL",
        "PRIMARY",
        "FMRI",
        "NONE",
        "MB",
        "ND",
        "NORM",
        "MOSAIC"
],
      "ImagedNucleus": "1H",
      "ImagingFrequency": 123.252508,
      "InPlanePhaseEncodingDirection": "COL",
      "MRAcquisitionType": "2D",
      "MagneticFieldStrength": 3.0,
      "Manufacturer": "SIEMENS",
      "ManufacturerModelName": "Prisma",
      "Modality": "MR",
      "NumberOfAverages": 1.0,
      "NumberOfPhaseEncodingSteps": 82,
      "PercentPhaseFieldOfView": 100.0,
      "PercentSampling": 100.0,
      "PerformedProcedureStepStartTime": "115437.085000",
      "PhotometricInterpretation": "MONOCHROME2",
      "PixelBandwidth": 3050.0,
      "PixelRepresentation": 0,
      "PixelSpacing": [2.6829268932343, 2.6829268932343],
      "ProtocolName": "func_run-01_task-social_acq-ap-mb8",
      "RepetitionTime": 460.0,
      "Rows": 656,
      "SAR": 0.11033264573825,
      "SamplesPerPixel": 1,
      "ScanOptions": "FS",
      "ScanningSequence": "EP",
      "SequenceName": "epfid2d1_82",
      "SequenceVariant": [
        "SK",
        "SS"
],
      "SeriesDescription": "func_run-01_task-social_acq-ap-mb8",
      "SeriesNumber": 11,
      "SeriesTime": "124332.781000",
      "SliceLocation": -53.232342257687,
      "SliceThickness": 2.7000000476837,
      "SmallestImagePixelValue": 0,
      "SoftwareVersions": "syngo MR E11",
      "SpacingBetweenSlices": 2.6999999921989,
      "SpecificCharacterSet": "ISO_IR 100",
      "StudyID": "1",
      "StudyTime": "115437.028000",
      "TransmitCoilName": "Body",
      "VariableFlipAngleFlag": "N",
      "WindowCenterWidthExplanation": "Algo1",
      "dBdt": 0.0},
    "slices": {}
  },
  "time": {
    "samples": {
      "AcquisitionNumber": [1, 2, 3, 4, 5, 6, 7, 8, 9, 10, 11, 12, 13, 14, 15, 16, 17, 18, 19, 20, 21, 22, 23, 24, 25, 26, 27, 28, 29, 30, 31, 32, 33, 34, 35, 36, 37, 38, 39, 40, 41, 42, 43, 44, 45, 46, 47, 48, 49, 50, 51, 52, 53, 54, 55, 56, 57, 58, 59, 60, 61, 62, 63, 64, 65, 66, 67, 68, 69, 70, 71, 72, 73, 74, 75, 76, 77, 78, 79, 80, 81, 82, 83, 84, 85, 86, 87, 88, 89, 90, 91, 92, 93, 94, 95, 96, 97, 98, 99, 100, 101, 102, 103, 104, 105, 106, 107, 108, 109, 110, 111, 112, 113, 114, 115, 116, 117, 118, 119, 120, 121, 122, 123, 124, 125, 126, 127, 128, 129, 130, 131, 132, 133, 134, 135, 136, 137, 138, 139, 140, 141, 142, 143, 144, 145, 146, 147, 148, 149, 150, 151, 152, 153, 154, 155, 156, 157, 158, 159, 160, 161, 162, 163, 164, 165, 166, 167, 168, 169, 170, 171, 172, 173, 174, 175, 176, 177, 178, 179, 180, 181, 182, 183, 184, 185, 186, 187, 188, 189, 190, 191, 192, 193, 194, 195, 196, 197, 198, 199, 200, 201, 202, 203, 204, 205, 206, 207, 208, 209, 210, 211, 212, 213, 214, 215, 216, 217, 218, 219, 220, 221, 222, 223, 224, 225, 226, 227, 228, 229, 230, 231, 232, 233, 234, 235, 236, 237, 238, 239, 240, 241, 242, 243, 244, 245, 246, 247, 248, 249, 250, 251, 252, 253, 254, 255, 256, 257, 258, 259, 260, 261, 262, 263, 264, 265, 266, 267, 268, 269, 270, 271, 272, 273, 274, 275, 276, 277, 278, 279, 280, 281, 282, 283, 284, 285, 286, 287, 288, 289, 290, 291, 292, 293, 294, 295, 296, 297, 298, 299, 300, 301, 302, 303, 304, 305, 306, 307, 308, 309, 310, 311, 312, 313, 314, 315, 316, 317, 318, 319, 320, 321, 322, 323, 324, 325, 326, 327, 328, 329, 330, 331, 332, 333, 334, 335, 336, 337, 338, 339, 340, 341, 342, 343, 344, 345, 346, 347, 348, 349, 350, 351, 352, 353, 354, 355, 356, 357, 358, 359, 360, 361, 362, 363, 364, 365, 366, 367, 368, 369, 370, 371, 372, 373, 374, 375, 376, 377, 378, 379, 380, 381, 382, 383, 384, 385, 386, 387, 388, 389, 390, 391, 392, 393, 394, 395, 396, 397, 398, 399, 400, 401, 402, 403, 404, 405, 406, 407, 408, 409, 410, 411, 412, 413, 414, 415, 416, 417, 418, 419, 420, 421, 422, 423, 424, 425, 426, 427, 428, 429, 430, 431, 432, 433, 434, 435, 436, 437, 438, 439, 440, 441, 442, 443, 444, 445, 446, 447, 448, 449, 450, 451, 452, 453, 454, 455, 456, 457, 458, 459, 460, 461, 462, 463, 464, 465, 466, 467, 468, 469, 470, 471, 472, 473, 474, 475, 476, 477, 478, 479, 480, 481, 482, 483, 484, 485, 486, 487, 488, 489, 490, 491, 492, 493, 494, 495, 496, 497, 498, 499, 500, 501, 502, 503, 504, 505, 506, 507, 508, 509, 510, 511, 512, 513, 514, 515, 516, 517, 518, 519, 520, 521, 522, 523, 524, 525, 526, 527, 528, 529, 530, 531, 532, 533, 534, 535, 536, 537, 538, 539, 540, 541, 542, 543, 544, 545, 546, 547, 548, 549, 550, 551, 552, 553, 554, 555, 556, 557, 558, 559, 560, 561, 562, 563, 564, 565, 566, 567, 568, 569, 570, 571, 572, 573, 574, 575, 576, 577, 578, 579, 580, 581, 582, 583, 584, 585, 586, 587, 588, 589, 590, 591, 592, 593, 594, 595, 596, 597, 598, 599, 600, 601, 602, 603, 604, 605, 606, 607, 608, 609, 610, 611, 612, 613, 614, 615, 616, 617, 618, 619, 620, 621, 622, 623, 624, 625, 626, 627, 628, 629, 630, 631, 632, 633, 634, 635, 636, 637, 638, 639, 640, 641, 642, 643, 644, 645, 646, 647, 648, 649, 650, 651, 652, 653, 654, 655, 656, 657, 658, 659, 660, 661, 662, 663, 664, 665, 666, 667, 668, 669, 670, 671, 672, 673, 674, 675, 676, 677, 678, 679, 680, 681, 682, 683, 684, 685, 686, 687, 688, 689, 690, 691, 692, 693, 694, 695, 696, 697, 698, 699, 700, 701, 702, 703, 704, 705, 706, 707, 708, 709, 710, 711, 712, 713, 714, 715, 716, 717, 718, 719, 720, 721, 722, 723, 724, 725, 726, 727, 728, 729, 730, 731, 732, 733, 734, 735, 736, 737, 738, 739, 740, 741, 742, 743, 744, 745, 746, 747, 748, 749, 750, 751, 752, 753, 754, 755, 756, 757, 758, 759, 760, 761, 762, 763, 764, 765, 766, 767, 768, 769, 770, 771, 772, 773, 774, 775, 776, 777, 778, 779, 780, 781, 782, 783, 784, 785, 786, 787, 788, 789, 790, 791, 792, 793, 794, 795, 796, 797, 798, 799, 800, 801, 802, 803, 804, 805, 806, 807, 808, 809, 810, 811, 812, 813, 814, 815, 816, 817, 818, 819, 820, 821, 822, 823, 824, 825, 826, 827, 828, 829, 830, 831, 832, 833, 834, 835, 836, 837, 838, 839, 840, 841, 842, 843, 844, 845, 846, 847, 848, 849, 850, 851, 852, 853, 854, 855, 856, 857, 858, 859, 860, 861, 862, 863, 864, 865, 866, 867, 868, 869, 870, 871, 872],
      "AcquisitionTime": ["124329.427500", "124329.887500", "124330.347500", "124330.807500", "124331.267500", "124331.727500", "124332.187500", "124332.647500", "124333.107500", "124333.567500", "124334.027500", "124334.487500", "124334.947500", "124335.407500", "124335.867500", "124336.327500", "124336.787500", "124337.247500", "124337.707500", "124338.167500", "124338.627500", "124339.087500", "124339.547500", "124340.007500", "124340.467500", "124340.927500", "124341.387500", "124341.847500", "124342.307500", "124342.767500", "124343.227500", "124343.687500", "124344.147500", "124344.607500", "124345.067500", "124345.527500", "124345.987500", "124346.447500", "124346.907500", "124347.367500", "124347.827500", "124348.287500", "124348.747500", "124349.207500", "124349.667500", "124350.127500", "124350.587500", "124351.047500", "124351.507500", "124351.967500", "124352.427500", "124352.887500", "124353.347500", "124353.807500", "124354.267500", "124354.727500", "124355.187500", "124355.647500", "124356.107500", "124356.567500", "124357.027500", "124357.487500", "124357.947500", "124358.407500", "124358.867500", "124359.327500", "124359.787500", "124400.247500", "124400.707500", "124401.167500", "124401.627500", "124402.087500", "124402.547500", "124403.007500", "124403.467500", "124403.927500", "124404.387500", "124404.847500", "124405.307500", "124405.767500", "124406.227500", "124406.687500", "124407.147500", "124407.607500", "124408.067500", "124408.527500", "124408.987500", "124409.447500", "124409.907500", "124410.367500", "124410.827500", "124411.287500", "124411.747500", "124412.207500", "124412.667500", "124413.127500", "124413.587500", "124414.047500", "124414.507500", "124414.967500", "124415.427500", "124415.887500", "124416.347500", "124416.807500", "124417.267500", "124417.727500", "124418.187500", "124418.647500", "124419.107500", "124419.567500", "124420.027500", "124420.487500", "124420.947500", "124421.407500", "124421.867500", "124422.327500", "124422.787500", "124423.247500", "124423.707500", "124424.167500", "124424.627500", "124425.087500", "124425.547500", "124426.007500", "124426.467500", "124426.927500", "124427.387500", "124427.847500", "124428.307500", "124428.767500", "124429.227500", "124429.687500", "124430.147500", "124430.607500", "124431.067500", "124431.527500", "124431.987500", "124432.447500", "124432.907500", "124433.367500", "124433.827500", "124434.287500", "124434.747500", "124435.207500", "124435.667500", "124436.127500", "124436.587500", "124437.047500", "124437.507500", "124437.967500", "124438.427500", "124438.887500", "124439.347500", "124439.807500", "124440.267500", "124440.727500", "124441.187500", "124441.647500", "124442.107500", "124442.567500", "124443.027500", "124443.487500", "124443.947500", "124444.407500", "124444.867500", "124445.327500", "124445.787500", "124446.247500", "124446.707500", "124447.167500", "124447.627500", "124448.087500", "124448.547500", "124449.007500", "124449.467500", "124449.927500", "124450.387500", "124450.847500", "124451.307500", "124451.767500", "124452.227500", "124452.687500", "124453.147500", "124453.607500", "124454.067500", "124454.527500", "124454.987500", "124455.447500", "124455.907500", "124456.367500", "124456.827500", "124457.287500", "124457.747500", "124458.207500", "124458.667500", "124459.127500", "124459.587500", "124500.047500", "124500.507500", "124500.967500", "124501.427500", "124501.887500", "124502.347500", "124502.807500", "124503.267500", "124503.727500", "124504.187500", "124504.647500", "124505.107500", "124505.567500", "124506.027500", "124506.487500", "124506.947500", "124507.407500", "124507.867500", "124508.327500", "124508.787500", "124509.247500", "124509.707500", "124510.167500", "124510.627500", "124511.087500", "124511.547500", "124512.007500", "124512.467500", "124512.927500", "124513.387500", "124513.847500", "124514.307500", "124514.767500", "124515.227500", "124515.687500", "124516.147500", "124516.607500", "124517.067500", "124517.527500", "124517.987500", "124518.447500", "124518.907500", "124519.367500", "124519.827500", "124520.287500", "124520.747500", "124521.207500", "124521.667500", "124522.127500", "124522.587500", "124523.047500", "124523.507500", "124523.967500", "124524.427500", "124524.887500", "124525.347500", "124525.807500", "124526.267500", "124526.727500", "124527.187500", "124527.647500", "124528.107500", "124528.567500", "124529.027500", "124529.487500", "124529.947500", "124530.407500", "124530.867500", "124531.327500", "124531.787500", "124532.247500", "124532.707500", "124533.167500", "124533.627500", "124534.087500", "124534.547500", "124535.007500", "124535.467500", "124535.927500", "124536.387500", "124536.847500", "124537.307500", "124537.767500", "124538.227500", "124538.687500", "124539.147500", "124539.607500", "124540.067500", "124540.527500", "124540.987500", "124541.447500", "124541.907500", "124542.367500", "124542.827500", "124543.287500", "124543.747500", "124544.207500", "124544.667500", "124545.127500", "124545.587500", "124546.047500", "124546.507500", "124546.967500", "124547.427500", "124547.887500", "124548.347500", "124548.807500", "124549.267500", "124549.727500", "124550.187500", "124550.647500", "124551.107500", "124551.567500", "124552.027500", "124552.487500", "124552.947500", "124553.407500", "124553.867500", "124554.327500", "124554.787500", "124555.247500", "124555.707500", "124556.167500", "124556.627500", "124557.087500", "124557.547500", "124558.007500", "124558.467500", "124558.927500", "124559.387500", "124559.847500", "124600.307500", "124600.767500", "124601.227500", "124601.687500", "124602.147500", "124602.607500", "124603.067500", "124603.527500", "124603.987500", "124604.447500", "124604.907500", "124605.367500", "124605.827500", "124606.287500", "124606.747500", "124607.207500", "124607.667500", "124608.127500", "124608.587500", "124609.047500", "124609.507500", "124609.967500", "124610.427500", "124610.887500", "124611.347500", "124611.807500", "124612.267500", "124612.727500", "124613.187500", "124613.647500", "124614.107500", "124614.567500", "124615.027500", "124615.487500", "124615.947500", "124616.407500", "124616.867500", "124617.327500", "124617.787500", "124618.247500", "124618.707500", "124619.167500", "124619.627500", "124620.087500", "124620.547500", "124621.007500", "124621.467500", "124621.927500", "124622.387500", "124622.847500", "124623.307500", "124623.767500", "124624.227500", "124624.687500", "124625.147500", "124625.607500", "124626.067500", "124626.527500", "124626.987500", "124627.447500", "124627.907500", "124628.367500", "124628.827500", "124629.287500", "124629.747500", "124630.207500", "124630.667500", "124631.127500", "124631.587500", "124632.047500", "124632.507500", "124632.967500", "124633.427500", "124633.887500", "124634.347500", "124634.807500", "124635.267500", "124635.727500", "124636.187500", "124636.647500", "124637.107500", "124637.567500", "124638.027500", "124638.487500", "124638.947500", "124639.407500", "124639.867500", "124640.327500", "124640.787500", "124641.247500", "124641.707500", "124642.167500", "124642.627500", "124643.087500", "124643.547500", "124644.007500", "124644.467500", "124644.927500", "124645.387500", "124645.847500", "124646.307500", "124646.767500", "124647.227500", "124647.687500", "124648.147500", "124648.607500", "124649.067500", "124649.527500", "124649.987500", "124650.447500", "124650.907500", "124651.367500", "124651.827500", "124652.287500", "124652.747500", "124653.207500", "124653.667500", "124654.127500", "124654.587500", "124655.047500", "124655.507500", "124655.967500", "124656.427500", "124656.887500", "124657.347500", "124657.807500", "124658.267500", "124658.727500", "124659.187500", "124659.647500", "124700.107500", "124700.567500", "124701.027500", "124701.487500", "124701.947500", "124702.407500", "124702.867500", "124703.327500", "124703.787500", "124704.247500", "124704.707500", "124705.167500", "124705.627500", "124706.087500", "124706.547500", "124707.007500", "124707.467500", "124707.927500", "124708.387500", "124708.847500", "124709.307500", "124709.767500", "124710.227500", "124710.687500", "124711.147500", "124711.607500", "124712.067500", "124712.527500", "124712.987500", "124713.447500", "124713.907500", "124714.367500", "124714.827500", "124715.287500", "124715.747500", "124716.207500", "124716.667500", "124717.127500", "124717.587500", "124718.047500", "124718.507500", "124718.967500", "124719.427500", "124719.887500", "124720.347500", "124720.807500", "124721.267500", "124721.727500", "124722.187500", "124722.647500", "124723.107500", "124723.567500", "124724.027500", "124724.487500", "124724.947500", "124725.407500", "124725.867500", "124726.327500", "124726.787500", "124727.247500", "124727.707500", "124728.167500", "124728.627500", "124729.087500", "124729.547500", "124730.007500", "124730.467500", "124730.927500", "124731.387500", "124731.847500", "124732.307500", "124732.767500", "124733.227500", "124733.687500", "124734.147500", "124734.607500", "124735.067500", "124735.527500", "124735.987500", "124736.447500", "124736.907500", "124737.367500", "124737.827500", "124738.287500", "124738.747500", "124739.207500", "124739.667500", "124740.127500", "124740.587500", "124741.047500", "124741.507500", "124741.967500", "124742.427500", "124742.887500", "124743.347500", "124743.807500", "124744.267500", "124744.727500", "124745.187500", "124745.647500", "124746.107500", "124746.567500", "124747.027500", "124747.487500", "124747.947500", "124748.407500", "124748.867500", "124749.327500", "124749.787500", "124750.247500", "124750.707500", "124751.167500", "124751.627500", "124752.087500", "124752.547500", "124753.007500", "124753.467500", "124753.927500", "124754.387500", "124754.847500", "124755.307500", "124755.767500", "124756.227500", "124756.687500", "124757.147500", "124757.607500", "124758.067500", "124758.527500", "124758.987500", "124759.447500", "124759.907500", "124800.367500", "124800.827500", "124801.287500", "124801.747500", "124802.207500", "124802.667500", "124803.127500", "124803.587500", "124804.047500", "124804.507500", "124804.967500", "124805.427500", "124805.887500", "124806.347500", "124806.807500", "124807.267500", "124807.727500", "124808.187500", "124808.647500", "124809.107500", "124809.567500", "124810.027500", "124810.487500", "124810.947500", "124811.407500", "124811.867500", "124812.327500", "124812.787500", "124813.247500", "124813.707500", "124814.167500", "124814.627500", "124815.087500", "124815.547500", "124816.007500", "124816.467500", "124816.927500", "124817.387500", "124817.847500", "124818.307500", "124818.767500", "124819.227500", "124819.687500", "124820.147500", "124820.607500", "124821.067500", "124821.527500", "124821.987500", "124822.447500", "124822.907500", "124823.367500", "124823.827500", "124824.287500", "124824.747500", "124825.207500", "124825.667500", "124826.127500", "124826.587500", "124827.047500", "124827.507500", "124827.967500", "124828.427500", "124828.887500", "124829.347500", "124829.807500", "124830.267500", "124830.727500", "124831.187500", "124831.647500", "124832.107500", "124832.567500", "124833.027500", "124833.487500", "124833.947500", "124834.407500", "124834.867500", "124835.327500", "124835.787500", "124836.247500", "124836.707500", "124837.167500", "124837.627500", "124838.087500", "124838.547500", "124839.007500", "124839.467500", "124839.927500", "124840.387500", "124840.847500", "124841.307500", "124841.767500", "124842.227500", "124842.687500", "124843.147500", "124843.607500", "124844.067500", "124844.527500", "124844.987500", "124845.447500", "124845.907500", "124846.367500", "124846.827500", "124847.287500", "124847.747500", "124848.207500", "124848.667500", "124849.127500", "124849.587500", "124850.047500", "124850.507500", "124850.967500", "124851.427500", "124851.887500", "124852.347500", "124852.807500", "124853.267500", "124853.727500", "124854.187500", "124854.647500", "124855.107500", "124855.567500", "124856.027500", "124856.487500", "124856.947500", "124857.407500", "124857.867500", "124858.327500", "124858.787500", "124859.247500", "124859.707500", "124900.167500", "124900.627500", "124901.087500", "124901.547500", "124902.007500", "124902.467500", "124902.927500", "124903.387500", "124903.847500", "124904.307500", "124904.767500", "124905.227500", "124905.687500", "124906.147500", "124906.607500", "124907.067500", "124907.527500", "124907.987500", "124908.447500", "124908.907500", "124909.367500", "124909.827500", "124910.287500", "124910.747500", "124911.207500", "124911.667500", "124912.127500", "124912.587500", "124913.047500", "124913.507500", "124913.967500", "124914.427500", "124914.887500", "124915.347500", "124915.807500", "124916.267500", "124916.727500", "124917.187500", "124917.647500", "124918.107500", "124918.567500", "124919.027500", "124919.487500", "124919.947500", "124920.407500", "124920.867500", "124921.327500", "124921.787500", "124922.247500", "124922.707500", "124923.167500", "124923.627500", "124924.087500", "124924.547500", "124925.007500", "124925.467500", "124925.927500", "124926.387500", "124926.847500", "124927.307500", "124927.767500", "124928.227500", "124928.687500", "124929.147500", "124929.607500", "124930.067500", "124930.527500", "124930.987500", "124931.447500", "124931.907500", "124932.367500", "124932.827500", "124933.287500", "124933.747500", "124934.207500", "124934.667500", "124935.127500", "124935.587500", "124936.047500", "124936.507500", "124936.967500", "124937.427500", "124937.887500", "124938.347500", "124938.807500", "124939.267500", "124939.727500", "124940.187500", "124940.647500", "124941.107500", "124941.567500", "124942.027500", "124942.487500", "124942.947500", "124943.407500", "124943.867500", "124944.327500", "124944.787500", "124945.247500", "124945.707500", "124946.167500", "124946.627500", "124947.087500", "124947.547500", "124948.007500", "124948.467500", "124948.927500", "124949.387500", "124949.847500", "124950.307500", "124950.767500", "124951.227500", "124951.687500", "124952.147500", "124952.607500", "124953.067500", "124953.527500", "124953.987500", "124954.447500", "124954.907500", "124955.367500", "124955.827500", "124956.287500", "124956.747500", "124957.207500", "124957.667500", "124958.127500", "124958.587500", "124959.047500", "124959.507500", "124959.967500", "125000.427500", "125000.887500", "125001.347500", "125001.807500", "125002.267500", "125002.727500", "125003.187500", "125003.647500", "125004.107500", "125004.567500", "125005.027500", "125005.487500", "125005.947500", "125006.407500", "125006.867500", "125007.327500", "125007.787500", "125008.247500", "125008.707500", "125009.167500", "125009.627500", "125010.087500"],
