{
  "AcquisitionMatrixPE": 82,
  "AcquisitionNumber": 1,
  "AcquisitionTime": "13:44:4.117500",
  "BandwidthPerPixelPhaseEncode": 24.888,
  "BaseResolution": 82,
  "BodyPartExamined": "BRAIN",
  "ConsistencyInfo": "N4_VE11C_LATEST_20160120",
  "ConversionSoftware": "dcm2niix",
  "ConversionSoftwareVersion": "v1.0.20201102",
  "DerivedVendorReportedEchoSpacing": 0.00049,
  "DeviceSerialNumber": "66112",
  "DwellTime": 2e-06,
  "EchoTime": 0.0272,
  "EchoTrainLength": 82,
  "EffectiveEchoSpacing": 0.00049,
  "FlipAngle": 44,
  "ImageComments": "Unaliased MB8/PE3",
  "ImageOrientationPatientDICOM": [0.99974, 0.0222421, 0.00509037, -0.0218144, 0.997125, -0.0725724],
  "ImageType": [
    "ORIGINAL",
    "PRIMARY",
    "FMRI",
    "NONE",
    "MB",
    "ND",
    "NORM",
    "MOSAIC"
],
  "ImagingFrequency": 123.253,
  "InPlanePhaseEncodingDirectionDICOM": "COL",
  "InstitutionAddress": "Maynard 3,Hanover,NH,US,03755",
  "InstitutionName": "Dartmouth College - PBS",
  "InstitutionalDepartmentName": "Department",
  "MRAcquisitionType": "2D",
  "MagneticFieldStrength": 3,
  "Manufacturer": "Siemens",
  "ManufacturersModelName": "Prisma",
  "Modality": "MR",
  "MultibandAccelerationFactor": 8,
  "PartialFourier": 1,
  "PatientPosition": "HFS",
  "PercentPhaseFOV": 100,
  "PercentSampling": 100,
  "PhaseEncodingDirection": "j-",
  "PhaseEncodingSteps": 82,
  "PhaseResolution": 1,
  "PixelBandwidth": 3050,
  "ProcedureStepDescription": "Wager_Wager^1076_spacetop",
  "ProtocolName": "func_run-01_task-alignvideo_acq-ap-mb8",
  "PulseSequenceDetails": "%CustomerSeq%\\cmrr_mbep2d_bold",
  "ReceiveCoilActiveElements": "HEA;HEP",
  "ReceiveCoilName": "Head_32",
  "ReconMatrixPE": 82,
  "RepetitionTime": 0.46,
  "SAR": 0.0969607,
  "ScanOptions": "FS",
  "ScanningSequence": "EP",
  "SequenceName": "epfid2d1_82",
  "SequenceVariant": "SK\\SS",
  "SeriesDescription": "func_run-01_task-alignvideo_acq-ap-mb8",
  "SeriesNumber": 61,
  "ShimSetting": [4152, -7726, -7287, 573, 35, -185, -22, 59],
  "SliceThickness": 2.7,
  "SliceTiming": [0, 0.25, 0.0625, 0.3125, 0.125, 0.3775, 0.1875, 0, 0.25, 0.0625, 0.3125, 0.125, 0.3775, 0.1875, 0, 0.25, 0.0625, 0.3125, 0.125, 0.3775, 0.1875, 0, 0.25, 0.0625, 0.3125, 0.125, 0.3775, 0.1875, 0, 0.25, 0.0625, 0.3125, 0.125, 0.3775, 0.1875, 0, 0.25, 0.0625, 0.3125, 0.125, 0.3775, 0.1875, 0, 0.25, 0.0625, 0.3125, 0.125, 0.3775, 0.1875, 0, 0.25, 0.0625, 0.3125, 0.125, 0.3775, 0.1875],
  "SoftwareVersions": "syngo MR E11",
  "SpacingBetweenSlices": 2.7,
  "StationName": "AWP66112",
  "TaskName": "alignvideo",
  "TotalReadoutTime": 0.03969,
  "TxRefAmp": 264.151,
  "WipMemBlock": "e9ff091b-0e4c-4472-9d0a-42521b5962c3||Sequence: R016 ve11c/master r/e634e98; Dec 19 2017 11:00:25 by eja",
  "dcmmeta_affine": [
    [-2.6822283267974854, -0.05852654203772545, 0.018062736839056015, 115.67452239990234],
    [-0.05967402458190918, 2.6752123832702637, -0.1955946683883667, -80.52481079101562],
    [0.01365710236132145, 0.19470646977424622, 2.692845344543457, -88.7565689086914],
    [0.0, 0.0, 0.0, 1.0]
],
  "dcmmeta_reorient_transform": [
    [0.0, -1.0, 0.0, 81.0],
    [1.0, 0.0, 0.0, 0.0],
    [0.0, 0.0, 1.0, 0.0],
    [0.0, 0.0, 0.0, 1.0]
],
  "dcmmeta_shape": [82, 82, 56, 1073],
  "dcmmeta_slice_dim": 2,
  "dcmmeta_version": 0.6,
  "global": {
    "const": {
      "AccessionNumber": "A003582",
      "AcquisitionMatrix": [82, 0, 0, 82],
      "AngioFlag": "N",
      "BitsAllocated": 16,
      "BitsStored": 12,
      "BodyPartExamined": "BRAIN",
      "Columns": 656,
      "EchoNumbers": 1,
      "EchoTime": 27.2,
      "EchoTrainLength": 82,
      "FlipAngle": 44.0,
      "HighBit": 11,
      "ImageOrientationPatient": [0.99973965386433, 0.02224213527212, 0.00509037422703, -0.0218144378061, 0.99712455392852, -0.0725724069882],
      "ImagePositionPatient": [-863.93630457441, -921.07975431622, -21.024180726037],
      "ImageType": [
        "ORIGINAL",
        "PRIMARY",
        "FMRI",
        "NONE",
        "MB",
        "ND",
        "NORM",
        "MOSAIC"
],
      "ImagedNucleus": "1H",
      "ImagingFrequency": 123.25258,
      "InPlanePhaseEncodingDirection": "COL",
      "MRAcquisitionType": "2D",
      "MagneticFieldStrength": 3.0,
      "Manufacturer": "SIEMENS",
      "ManufacturerModelName": "Prisma",
      "Modality": "MR",
      "NumberOfAverages": 1.0,
      "NumberOfPhaseEncodingSteps": 82,
      "PercentPhaseFieldOfView": 100.0,
      "PercentSampling": 100.0,
      "PerformedProcedureStepStartTime": "115437.085000",
      "PhotometricInterpretation": "MONOCHROME2",
      "PixelBandwidth": 3050.0,
      "PixelRepresentation": 0,
      "PixelSpacing": [2.6829268932343, 2.6829268932343],
      "ProtocolName": "func_run-01_task-alignvideo_acq-ap-mb8",
      "RepetitionTime": 460.0,
      "Rows": 656,
      "SAR": 0.09696073212869,
      "SamplesPerPixel": 1,
      "ScanOptions": "FS",
      "ScanningSequence": "EP",
      "SequenceName": "epfid2d1_82",
      "SequenceVariant": [
        "SK",
        "SS"
],
      "SeriesDescription": "func_run-01_task-alignvideo_acq-ap-mb8",
      "SeriesNumber": 61,
      "SeriesTime": "134408.184000",
      "SliceLocation": -81.914112258921,
      "SliceThickness": 2.7000000476837,
      "SmallestImagePixelValue": 0,
      "SoftwareVersions": "syngo MR E11",
      "SpacingBetweenSlices": 2.7000000096732,
      "SpecificCharacterSet": "ISO_IR 100",
      "StudyID": "1",
      "StudyTime": "115437.028000",
      "TransmitCoilName": "Body",
      "VariableFlipAngleFlag": "N",
      "WindowCenterWidthExplanation": "Algo1",
      "dBdt": 0.0},
    "slices": {}
  },
  "time": {
    "samples": {
      "AcquisitionNumber": [1, 2, 3, 4, 5, 6, 7, 8, 9, 10, 11, 12, 13, 14, 15, 16, 17, 18, 19, 20, 21, 22, 23, 24, 25, 26, 27, 28, 29, 30, 31, 32, 33, 34, 35, 36, 37, 38, 39, 40, 41, 42, 43, 44, 45, 46, 47, 48, 49, 50, 51, 52, 53, 54, 55, 56, 57, 58, 59, 60, 61, 62, 63, 64, 65, 66, 67, 68, 69, 70, 71, 72, 73, 74, 75, 76, 77, 78, 79, 80, 81, 82, 83, 84, 85, 86, 87, 88, 89, 90, 91, 92, 93, 94, 95, 96, 97, 98, 99, 100, 101, 102, 103, 104, 105, 106, 107, 108, 109, 110, 111, 112, 113, 114, 115, 116, 117, 118, 119, 120, 121, 122, 123, 124, 125, 126, 127, 128, 129, 130, 131, 132, 133, 134, 135, 136, 137, 138, 139, 140, 141, 142, 143, 144, 145, 146, 147, 148, 149, 150, 151, 152, 153, 154, 155, 156, 157, 158, 159, 160, 161, 162, 163, 164, 165, 166, 167, 168, 169, 170, 171, 172, 173, 174, 175, 176, 177, 178, 179, 180, 181, 182, 183, 184, 185, 186, 187, 188, 189, 190, 191, 192, 193, 194, 195, 196, 197, 198, 199, 200, 201, 202, 203, 204, 205, 206, 207, 208, 209, 210, 211, 212, 213, 214, 215, 216, 217, 218, 219, 220, 221, 222, 223, 224, 225, 226, 227, 228, 229, 230, 231, 232, 233, 234, 235, 236, 237, 238, 239, 240, 241, 242, 243, 244, 245, 246, 247, 248, 249, 250, 251, 252, 253, 254, 255, 256, 257, 258, 259, 260, 261, 262, 263, 264, 265, 266, 267, 268, 269, 270, 271, 272, 273, 274, 275, 276, 277, 278, 279, 280, 281, 282, 283, 284, 285, 286, 287, 288, 289, 290, 291, 292, 293, 294, 295, 296, 297, 298, 299, 300, 301, 302, 303, 304, 305, 306, 307, 308, 309, 310, 311, 312, 313, 314, 315, 316, 317, 318, 319, 320, 321, 322, 323, 324, 325, 326, 327, 328, 329, 330, 331, 332, 333, 334, 335, 336, 337, 338, 339, 340, 341, 342, 343, 344, 345, 346, 347, 348, 349, 350, 351, 352, 353, 354, 355, 356, 357, 358, 359, 360, 361, 362, 363, 364, 365, 366, 367, 368, 369, 370, 371, 372, 373, 374, 375, 376, 377, 378, 379, 380, 381, 382, 383, 384, 385, 386, 387, 388, 389, 390, 391, 392, 393, 394, 395, 396, 397, 398, 399, 400, 401, 402, 403, 404, 405, 406, 407, 408, 409, 410, 411, 412, 413, 414, 415, 416, 417, 418, 419, 420, 421, 422, 423, 424, 425, 426, 427, 428, 429, 430, 431, 432, 433, 434, 435, 436, 437, 438, 439, 440, 441, 442, 443, 444, 445, 446, 447, 448, 449, 450, 451, 452, 453, 454, 455, 456, 457, 458, 459, 460, 461, 462, 463, 464, 465, 466, 467, 468, 469, 470, 471, 472, 473, 474, 475, 476, 477, 478, 479, 480, 481, 482, 483, 484, 485, 486, 487, 488, 489, 490, 491, 492, 493, 494, 495, 496, 497, 498, 499, 500, 501, 502, 503, 504, 505, 506, 507, 508, 509, 510, 511, 512, 513, 514, 515, 516, 517, 518, 519, 520, 521, 522, 523, 524, 525, 526, 527, 528, 529, 530, 531, 532, 533, 534, 535, 536, 537, 538, 539, 540, 541, 542, 543, 544, 545, 546, 547, 548, 549, 550, 551, 552, 553, 554, 555, 556, 557, 558, 559, 560, 561, 562, 563, 564, 565, 566, 567, 568, 569, 570, 571, 572, 573, 574, 575, 576, 577, 578, 579, 580, 581, 582, 583, 584, 585, 586, 587, 588, 589, 590, 591, 592, 593, 594, 595, 596, 597, 598, 599, 600, 601, 602, 603, 604, 605, 606, 607, 608, 609, 610, 611, 612, 613, 614, 615, 616, 617, 618, 619, 620, 621, 622, 623, 624, 625, 626, 627, 628, 629, 630, 631, 632, 633, 634, 635, 636, 637, 638, 639, 640, 641, 642, 643, 644, 645, 646, 647, 648, 649, 650, 651, 652, 653, 654, 655, 656, 657, 658, 659, 660, 661, 662, 663, 664, 665, 666, 667, 668, 669, 670, 671, 672, 673, 674, 675, 676, 677, 678, 679, 680, 681, 682, 683, 684, 685, 686, 687, 688, 689, 690, 691, 692, 693, 694, 695, 696, 697, 698, 699, 700, 701, 702, 703, 704, 705, 706, 707, 708, 709, 710, 711, 712, 713, 714, 715, 716, 717, 718, 719, 720, 721, 722, 723, 724, 725, 726, 727, 728, 729, 730, 731, 732, 733, 734, 735, 736, 737, 738, 739, 740, 741, 742, 743, 744, 745, 746, 747, 748, 749, 750, 751, 752, 753, 754, 755, 756, 757, 758, 759, 760, 761, 762, 763, 764, 765, 766, 767, 768, 769, 770, 771, 772, 773, 774, 775, 776, 777, 778, 779, 780, 781, 782, 783, 784, 785, 786, 787, 788, 789, 790, 791, 792, 793, 794, 795, 796, 797, 798, 799, 800, 801, 802, 803, 804, 805, 806, 807, 808, 809, 810, 811, 812, 813, 814, 815, 816, 817, 818, 819, 820, 821, 822, 823, 824, 825, 826, 827, 828, 829, 830, 831, 832, 833, 834, 835, 836, 837, 838, 839, 840, 841, 842, 843, 844, 845, 846, 847, 848, 849, 850, 851, 852, 853, 854, 855, 856, 857, 858, 859, 860, 861, 862, 863, 864, 865, 866, 867, 868, 869, 870, 871, 872, 873, 874, 875, 876, 877, 878, 879, 880, 881, 882, 883, 884, 885, 886, 887, 888, 889, 890, 891, 892, 893, 894, 895, 896, 897, 898, 899, 900, 901, 902, 903, 904, 905, 906, 907, 908, 909, 910, 911, 912, 913, 914, 915, 916, 917, 918, 919, 920, 921, 922, 923, 924, 925, 926, 927, 928, 929, 930, 931, 932, 933, 934, 935, 936, 937, 938, 939, 940, 941, 942, 943, 944, 945, 946, 947, 948, 949, 950, 951, 952, 953, 954, 955, 956, 957, 958, 959, 960, 961, 962, 963, 964, 965, 966, 967, 968, 969, 970, 971, 972, 973, 974, 975, 976, 977, 978, 979, 980, 981, 982, 983, 984, 985, 986, 987, 988, 989, 990, 991, 992, 993, 994, 995, 996, 997, 998, 999, 1000, 1001, 1002, 1003, 1004, 1005, 1006, 1007, 1008, 1009, 1010, 1011, 1012, 1013, 1014, 1015, 1016, 1017, 1018, 1019, 1020, 1021, 1022, 1023, 1024, 1025, 1026, 1027, 1028, 1029, 1030, 1031, 1032, 1033, 1034, 1035, 1036, 1037, 1038, 1039, 1040, 1041, 1042, 1043, 1044, 1045, 1046, 1047, 1048, 1049, 1050, 1051, 1052, 1053, 1054, 1055, 1056, 1057, 1058, 1059, 1060, 1061, 1062, 1063, 1064, 1065, 1066, 1067, 1068, 1069, 1070, 1071, 1072, 1073],
      "AcquisitionTime": ["134404.117500", "134404.577500", "134405.037500", "134405.497500", "134405.957500", "134406.417500", "134406.877500", "134407.337500", "134407.797500", "134408.257500", "134408.717500", "134409.177500", "134409.637500", "134410.097500", "134410.557500", "134411.017500", "134411.477500", "134411.937500", "134412.397500", "134412.857500", "134413.317500", "134413.777500", "134414.237500", "134414.697500", "134415.157500", "134415.617500", "134416.077500", "134416.537500", "134416.997500", "134417.457500", "134417.917500", "134418.377500", "134418.837500", "134419.297500", "134419.757500", "134420.217500", "134420.677500", "134421.137500", "134421.597500", "134422.057500", "134422.517500", "134422.977500", "134423.437500", "134423.897500", "134424.357500", "134424.817500", "134425.277500", "134425.737500", "134426.197500", "134426.657500", "134427.117500", "134427.577500", "134428.037500", "134428.497500", "134428.957500", "134429.417500", "134429.877500", "134430.337500", "134430.797500", "134431.257500", "134431.717500", "134432.177500", "134432.637500", "134433.097500", "134433.557500", "134434.017500", "134434.477500", "134434.937500", "134435.397500", "134435.857500", "134436.317500", "134436.777500", "134437.237500", "134437.697500", "134438.157500", "134438.617500", "134439.077500", "134439.537500", "134439.997500", "134440.457500", "134440.917500", "134441.377500", "134441.837500", "134442.297500", "134442.757500", "134443.217500", "134443.677500", "134444.137500", "134444.597500", "134445.057500", "134445.517500", "134445.977500", "134446.437500", "134446.897500", "134447.357500", "134447.817500", "134448.277500", "134448.737500", "134449.197500", "134449.657500", "134450.117500", "134450.577500", "134451.037500", "134451.497500", "134451.957500", "134452.417500", "134452.877500", "134453.337500", "134453.797500", "134454.257500", "134454.717500", "134455.177500", "134455.637500", "134456.097500", "134456.557500", "134457.017500", "134457.477500", "134457.937500", "134458.397500", "134458.857500", "134459.317500", "134459.777500", "134500.237500", "134500.697500", "134501.157500", "134501.617500", "134502.077500", "134502.537500", "134502.997500", "134503.457500", "134503.917500", "134504.377500", "134504.837500", "134505.297500", "134505.757500", "134506.217500", "134506.677500", "134507.137500", "134507.597500", "134508.057500", "134508.517500", "134508.977500", "134509.437500", "134509.897500", "134510.357500", "134510.817500", "134511.277500", "134511.737500", "134512.197500", "134512.657500", "134513.117500", "134513.577500", "134514.037500", "134514.497500", "134514.957500", "134515.417500", "134515.877500", "134516.337500", "134516.797500", "134517.257500", "134517.717500", "134518.177500", "134518.637500", "134519.097500", "134519.557500", "134520.017500", "134520.477500", "134520.937500", "134521.397500", "134521.857500", "134522.317500", "134522.777500", "134523.237500", "134523.697500", "134524.157500", "134524.617500", "134525.077500", "134525.537500", "134525.997500", "134526.457500", "134526.917500", "134527.377500", "134527.837500", "134528.297500", "134528.757500", "134529.217500", "134529.677500", "134530.137500", "134530.597500", "134531.057500", "134531.517500", "134531.977500", "134532.437500", "134532.897500", "134533.357500", "134533.817500", "134534.277500", "134534.737500", "134535.197500", "134535.657500", "134536.117500", "134536.577500", "134537.037500", "134537.497500", "134537.957500", "134538.417500", "134538.877500", "134539.337500", "134539.797500", "134540.257500", "134540.717500", "134541.177500", "134541.637500", "134542.097500", "134542.557500", "134543.017500", "134543.477500", "134543.937500", "134544.397500", "134544.857500", "134545.317500", "134545.777500", "134546.237500", "134546.697500", "134547.157500", "134547.617500", "134548.077500", "134548.537500", "134548.997500", "134549.457500", "134549.917500", "134550.377500", "134550.837500", "134551.297500", "134551.757500", "134552.217500", "134552.677500", "134553.137500", "134553.597500", "134554.057500", "134554.517500", "134554.977500", "134555.437500", "134555.897500", "134556.357500", "134556.817500", "134557.277500", "134557.737500", "134558.197500", "134558.657500", "134559.117500", "134559.577500", "134600.037500", "134600.497500", "134600.957500", "134601.417500", "134601.877500", "134602.337500", "134602.797500", "134603.257500", "134603.717500", "134604.177500", "134604.637500", "134605.097500", "134605.557500", "134606.017500", "134606.477500", "134606.937500", "134607.397500", "134607.857500", "134608.317500", "134608.777500", "134609.237500", "134609.697500", "134610.157500", "134610.617500", "134611.077500", "134611.537500", "134611.997500", "134612.457500", "134612.917500", "134613.377500", "134613.837500", "134614.297500", "134614.757500", "134615.217500", "134615.677500", "134616.137500", "134616.597500", "134617.057500", "134617.517500", "134617.977500", "134618.437500", "134618.897500", "134619.357500", "134619.817500", "134620.277500", "134620.737500", "134621.197500", "134621.657500", "134622.117500", "134622.577500", "134623.037500", "134623.497500", "134623.957500", "134624.417500", "134624.877500", "134625.337500", "134625.797500", "134626.257500", "134626.717500", "134627.177500", "134627.637500", "134628.097500", "134628.557500", "134629.017500", "134629.477500", "134629.937500", "134630.397500", "134630.857500", "134631.317500", "134631.777500", "134632.237500", "134632.697500", "134633.157500", "134633.617500", "134634.077500", "134634.537500", "134634.997500", "134635.457500", "134635.917500", "134636.377500", "134636.837500", "134637.297500", "134637.757500", "134638.217500", "134638.677500", "134639.137500", "134639.597500", "134640.057500", "134640.517500", "134640.977500", "134641.437500", "134641.897500", "134642.357500", "134642.817500", "134643.277500", "134643.737500", "134644.197500", "134644.657500", "134645.117500", "134645.577500", "134646.037500", "134646.497500", "134646.957500", "134647.417500", "134647.877500", "134648.337500", "134648.797500", "134649.257500", "134649.717500", "134650.177500", "134650.637500", "134651.097500", "134651.557500", "134652.017500", "134652.477500", "134652.937500", "134653.397500", "134653.857500", "134654.317500", "134654.777500", "134655.237500", "134655.697500", "134656.157500", "134656.617500", "134657.077500", "134657.537500", "134657.997500", "134658.457500", "134658.917500", "134659.377500", "134659.837500", "134700.297500", "134700.757500", "134701.217500", "134701.677500", "134702.137500", "134702.597500", "134703.057500", "134703.517500", "134703.977500", "134704.437500", "134704.897500", "134705.357500", "134705.817500", "134706.277500", "134706.737500", "134707.197500", "134707.657500", "134708.117500", "134708.577500", "134709.037500", "134709.497500", "134709.957500", "134710.417500", "134710.877500", "134711.337500", "134711.797500", "134712.257500", "134712.717500", "134713.177500", "134713.637500", "134714.097500", "134714.557500", "134715.017500", "134715.477500", "134715.937500", "134716.397500", "134716.857500", "134717.317500", "134717.777500", "134718.237500", "134718.697500", "134719.157500", "134719.617500", "134720.077500", "134720.537500", "134720.997500", "134721.457500", "134721.917500", "134722.377500", "134722.837500", "134723.297500", "134723.757500", "134724.217500", "134724.677500", "134725.137500", "134725.597500", "134726.057500", "134726.517500", "134726.977500", "134727.437500", "134727.897500", "134728.357500", "134728.817500", "134729.277500", "134729.737500", "134730.197500", "134730.657500", "134731.117500", "134731.577500", "134732.037500", "134732.497500", "134732.957500", "134733.417500", "134733.877500", "134734.337500", "134734.797500", "134735.257500", "134735.717500", "134736.177500", "134736.637500", "134737.097500", "134737.557500", "134738.017500", "134738.477500", "134738.937500", "134739.397500", "134739.857500", "134740.317500", "134740.777500", "134741.237500", "134741.697500", "134742.157500", "134742.617500", "134743.077500", "134743.537500", "134743.997500", "134744.457500", "134744.917500", "134745.377500", "134745.837500", "134746.297500", "134746.757500", "134747.217500", "134747.677500", "134748.137500", "134748.597500", "134749.057500", "134749.517500", "134749.977500", "134750.437500", "134750.897500", "134751.357500", "134751.817500", "134752.277500", "134752.737500", "134753.197500", "134753.657500", "134754.117500", "134754.577500", "134755.037500", "134755.497500", "134755.957500", "134756.417500", "134756.877500", "134757.337500", "134757.797500", "134758.257500", "134758.717500", "134759.177500", "134759.637500", "134800.097500", "134800.557500", "134801.017500", "134801.477500", "134801.937500", "134802.397500", "134802.857500", "134803.317500", "134803.777500", "134804.237500", "134804.697500", "134805.157500", "134805.617500", "134806.077500", "134806.537500", "134806.997500", "134807.457500", "134807.917500", "134808.377500", "134808.837500", "134809.297500", "134809.757500", "134810.217500", "134810.677500", "134811.137500", "134811.597500", "134812.057500", "134812.517500", "134812.977500", "134813.437500", "134813.897500", "134814.357500", "134814.817500", "134815.277500", "134815.737500", "134816.197500", "134816.657500", "134817.117500", "134817.577500", "134818.037500", "134818.497500", "134818.957500", "134819.417500", "134819.877500", "134820.337500", "134820.797500", "134821.257500", "134821.717500", "134822.177500", "134822.637500", "134823.097500", "134823.557500", "134824.017500", "134824.477500", "134824.937500", "134825.397500", "134825.857500", "134826.317500", "134826.777500", "134827.237500", "134827.697500", "134828.157500", "134828.617500", "134829.077500", "134829.537500", "134829.997500", "134830.457500", "134830.917500", "134831.377500", "134831.837500", "134832.297500", "134832.757500", "134833.217500", "134833.677500", "134834.137500", "134834.597500", "134835.057500", "134835.517500", "134835.977500", "134836.437500", "134836.897500", "134837.357500", "134837.817500", "134838.277500", "134838.737500", "134839.197500", "134839.657500", "134840.117500", "134840.577500", "134841.037500", "134841.497500", "134841.957500", "134842.417500", "134842.877500", "134843.337500", "134843.797500", "134844.257500", "134844.717500", "134845.177500", "134845.637500", "134846.097500", "134846.557500", "134847.017500", "134847.477500", "134847.937500", "134848.397500", "134848.857500", "134849.317500", "134849.777500", "134850.237500", "134850.697500", "134851.157500", "134851.617500", "134852.077500", "134852.537500", "134852.997500", "134853.457500", "134853.917500", "134854.377500", "134854.837500", "134855.297500", "134855.757500", "134856.217500", "134856.677500", "134857.137500", "134857.597500", "134858.057500", "134858.517500", "134858.977500", "134859.437500", "134859.897500", "134900.357500", "134900.817500", "134901.277500", "134901.737500", "134902.197500", "134902.657500", "134903.117500", "134903.577500", "134904.037500", "134904.497500", "134904.957500", "134905.417500", "134905.877500", "134906.337500", "134906.797500", "134907.257500", "134907.717500", "134908.177500", "134908.637500", "134909.097500", "134909.557500", "134910.017500", "134910.477500", "134910.937500", "134911.397500", "134911.857500", "134912.317500", "134912.777500", "134913.237500", "134913.697500", "134914.157500", "134914.617500", "134915.077500", "134915.537500", "134915.997500", "134916.457500", "134916.917500", "134917.377500", "134917.837500", "134918.297500", "134918.757500", "134919.217500", "134919.677500", "134920.137500", "134920.597500", "134921.057500", "134921.517500", "134921.977500", "134922.437500", "134922.897500", "134923.357500", "134923.817500", "134924.277500", "134924.737500", "134925.197500", "134925.657500", "134926.117500", "134926.577500", "134927.037500", "134927.497500", "134927.957500", "134928.417500", "134928.877500", "134929.337500", "134929.797500", "134930.257500", "134930.717500", "134931.177500", "134931.637500", "134932.097500", "134932.557500", "134933.017500", "134933.477500", "134933.937500", "134934.397500", "134934.857500", "134935.317500", "134935.777500", "134936.237500", "134936.697500", "134937.157500", "134937.617500", "134938.077500", "134938.537500", "134938.997500", "134939.457500", "134939.917500", "134940.377500", "134940.837500", "134941.297500", "134941.757500", "134942.217500", "134942.677500", "134943.137500", "134943.597500", "134944.057500", "134944.517500", "134944.977500", "134945.437500", "134945.897500", "134946.357500", "134946.817500", "134947.277500", "134947.737500", "134948.197500", "134948.657500", "134949.117500", "134949.577500", "134950.037500", "134950.497500", "134950.957500", "134951.417500", "134951.877500", "134952.337500", "134952.797500", "134953.257500", "134953.717500", "134954.177500", "134954.637500", "134955.097500", "134955.557500", "134956.017500", "134956.477500", "134956.937500", "134957.397500", "134957.857500", "134958.317500", "134958.777500", "134959.237500", "134959.697500", "135000.157500", "135000.617500", "135001.077500", "135001.537500", "135001.997500", "135002.457500", "135002.917500", "135003.377500", "135003.837500", "135004.297500", "135004.757500", "135005.217500", "135005.677500", "135006.137500", "135006.597500", "135007.057500", "135007.517500", "135007.977500", "135008.437500", "135008.897500", "135009.357500", "135009.817500", "135010.277500", "135010.737500", "135011.197500", "135011.657500", "135012.117500", "135012.577500", "135013.037500", "135013.497500", "135013.957500", "135014.417500", "135014.877500", "135015.337500", "135015.797500", "135016.257500", "135016.717500", "135017.177500", "135017.637500", "135018.097500", "135018.557500", "135019.017500", "135019.477500", "135019.937500", "135020.397500", "135020.857500", "135021.317500", "135021.777500", "135022.237500", "135022.697500", "135023.157500", "135023.617500", "135024.077500", "135024.537500", "135024.997500", "135025.457500", "135025.917500", "135026.377500", "135026.837500", "135027.297500", "135027.757500", "135028.217500", "135028.677500", "135029.137500", "135029.597500", "135030.057500", "135030.517500", "135030.977500", "135031.437500", "135031.897500", "135032.357500", "135032.817500", "135033.277500", "135033.737500", "135034.197500", "135034.657500", "135035.117500", "135035.577500", "135036.037500", "135036.497500", "135036.957500", "135037.417500", "135037.877500", "135038.337500", "135038.797500", "135039.257500", "135039.717500", "135040.177500", "135040.637500", "135041.097500", "135041.557500", "135042.017500", "135042.477500", "135042.937500", "135043.397500", "135043.857500", "135044.317500", "135044.777500", "135045.237500", "135045.697500", "135046.157500", "135046.617500", "135047.077500", "135047.537500", "135047.997500", "135048.457500", "135048.917500", "135049.377500", "135049.837500", "135050.297500", "135050.757500", "135051.217500", "135051.677500", "135052.137500", "135052.597500", "135053.057500", "135053.517500", "135053.977500", "135054.437500", "135054.897500", "135055.357500", "135055.817500", "135056.277500", "135056.737500", "135057.197500", "135057.657500", "135058.117500", "135058.577500", "135059.037500", "135059.497500", "135059.957500", "135100.417500", "135100.877500", "135101.337500", "135101.797500", "135102.257500", "135102.717500", "135103.177500", "135103.637500", "135104.097500", "135104.557500", "135105.017500", "135105.477500", "135105.937500", "135106.397500", "135106.857500", "135107.317500", "135107.777500", "135108.237500", "135108.697500", "135109.157500", "135109.617500", "135110.077500", "135110.537500", "135110.997500", "135111.457500", "135111.917500", "135112.377500", "135112.837500", "135113.297500", "135113.757500", "135114.217500", "135114.677500", "135115.137500", "135115.597500", "135116.057500", "135116.517500", "135116.977500", "135117.437500", "135117.897500", "135118.357500", "135118.817500", "135119.277500", "135119.737500", "135120.197500", "135120.657500", "135121.117500", "135121.577500", "135122.037500", "135122.497500", "135122.957500", "135123.417500", "135123.877500", "135124.337500", "135124.797500", "135125.257500", "135125.717500", "135126.177500", "135126.637500", "135127.097500", "135127.557500", "135128.017500", "135128.477500", "135128.937500", "135129.397500", "135129.857500", "135130.317500", "135130.777500", "135131.237500", "135131.697500", "135132.157500", "135132.617500", "135133.077500", "135133.537500", "135133.997500", "135134.457500", "135134.917500", "135135.377500", "135135.837500", "135136.297500", "135136.757500", "135137.217500", "135137.677500", "135138.137500", "135138.597500", "135139.057500", "135139.517500", "135139.977500", "135140.437500", "135140.897500", "135141.357500", "135141.817500", "135142.277500", "135142.737500", "135143.197500", "135143.657500", "135144.117500", "135144.577500", "135145.037500", "135145.497500", "135145.957500", "135146.417500", "135146.877500", "135147.337500", "135147.797500", "135148.257500", "135148.717500", "135149.177500", "135149.637500", "135150.097500", "135150.557500", "135151.017500", "135151.477500", "135151.937500", "135152.397500", "135152.857500", "135153.317500", "135153.777500", "135154.237500", "135154.697500", "135155.157500", "135155.617500", "135156.077500", "135156.537500", "135156.997500", "135157.457500", "135157.917500", "135158.377500", "135158.837500", "135159.297500", "135159.757500", "135200.217500", "135200.677500", "135201.137500", "135201.597500", "135202.057500", "135202.517500", "135202.977500", "135203.437500", "135203.897500", "135204.357500", "135204.817500", "135205.277500", "135205.737500", "135206.197500", "135206.657500", "135207.117500", "135207.577500", "135208.037500", "135208.497500", "135208.957500", "135209.417500", "135209.877500", "135210.337500", "135210.797500", "135211.257500", "135211.717500", "135212.177500", "135212.637500", "135213.097500", "135213.557500", "135214.017500", "135214.477500", "135214.937500", "135215.397500", "135215.857500", "135216.317500", "135216.777500", "135217.237500"],
