{
  "AcquisitionMatrixPE": 82,
  "AcquisitionNumber": 1,
  "AcquisitionTime": "13:11:35.132500",
  "BandwidthPerPixelPhaseEncode": 24.888,
  "BaseResolution": 82,
  "BodyPartExamined": "BRAIN",
  "ConsistencyInfo": "N4_VE11C_LATEST_20160120",
  "ConversionSoftware": "dcm2niix",
  "ConversionSoftwareVersion": "v1.0.20201102",
  "DerivedVendorReportedEchoSpacing": 0.00049,
  "DeviceSerialNumber": "66112",
  "DwellTime": 2e-06,
  "EchoTime": 0.0272,
  "EchoTrainLength": 82,
  "EffectiveEchoSpacing": 0.00049,
  "FlipAngle": 44,
  "ImageComments": "Unaliased MB8/PE3",
  "ImageOrientationPatientDICOM": [0.999251, 0.00310013, 0.038562, 0.00261602, 0.989088, -0.147305],
  "ImageType": [
    "ORIGINAL",
    "PRIMARY",
    "FMRI",
    "NONE",
    "MB",
    "ND",
    "NORM",
    "MOSAIC"
],
  "ImagingFrequency": 123.253,
  "InPlanePhaseEncodingDirectionDICOM": "COL",
  "InstitutionAddress": "Maynard 3,Hanover,NH,US,03755",
  "InstitutionName": "Dartmouth College - PBS",
  "InstitutionalDepartmentName": "Department",
  "MRAcquisitionType": "2D",
  "MagneticFieldStrength": 3,
  "Manufacturer": "Siemens",
  "ManufacturersModelName": "Prisma",
  "Modality": "MR",
  "MultibandAccelerationFactor": 8,
  "PartialFourier": 1,
  "PatientPosition": "HFS",
  "PercentPhaseFOV": 100,
  "PercentSampling": 100,
  "PhaseEncodingDirection": "j-",
  "PhaseEncodingSteps": 82,
  "PhaseResolution": 1,
  "PixelBandwidth": 3050,
  "ProcedureStepDescription": "Wager_Wager^1076_spacetop",
  "ProtocolName": "func_run-05_task-social_acq-ap-mb8",
  "PulseSequenceDetails": "%CustomerSeq%\\cmrr_mbep2d_bold",
  "ReceiveCoilActiveElements": "HEA;HEP",
  "ReceiveCoilName": "Head_32",
  "ReconMatrixPE": 82,
  "RepetitionTime": 0.46,
  "SAR": 0.110333,
  "ScanOptions": "FS",
  "ScanningSequence": "EP",
  "SequenceName": "epfid2d1_82",
  "SequenceVariant": "SK\\SS",
  "SeriesDescription": "func_run-05_task-social_acq-ap-mb8",
  "SeriesNumber": 39,
  "ShimSetting": [4162, -7730, -7218, 566, 13, -104, -25, 46],
  "SliceThickness": 2.7,
  "SliceTiming": [0, 0.25, 0.0625, 0.315, 0.125, 0.3775, 0.1875, 0, 0.25, 0.0625, 0.315, 0.125, 0.3775, 0.1875, 0, 0.25, 0.0625, 0.315, 0.125, 0.3775, 0.1875, 0, 0.25, 0.0625, 0.315, 0.125, 0.3775, 0.1875, 0, 0.25, 0.0625, 0.315, 0.125, 0.3775, 0.1875, 0, 0.25, 0.0625, 0.315, 0.125, 0.3775, 0.1875, 0, 0.25, 0.0625, 0.315, 0.125, 0.3775, 0.1875, 0, 0.25, 0.0625, 0.315, 0.125, 0.3775, 0.1875],
  "SoftwareVersions": "syngo MR E11",
  "SpacingBetweenSlices": 2.7,
  "StationName": "AWP66112",
  "TaskName": "social",
  "TotalReadoutTime": 0.03969,
  "TxRefAmp": 275.313,
  "WipMemBlock": "650d82a4-1796-4184-ae04-95a2aa83b636||Sequence: R016 ve11c/master r/e634e98; Dec 19 2017 11:00:25 by eja",
  "dcmmeta_affine": [
    [-2.6809184551239014, 0.007018589414656162, 0.1042143702507019, 111.36788177490234],
    [-0.00831743236631155, 2.6536500453948975, -0.39769694209098816, -84.07554626464844],
    [0.10345915704965591, 0.39520737528800964, 2.668515682220459, -70.73971557617188],
    [0.0, 0.0, 0.0, 1.0]
],
  "dcmmeta_reorient_transform": [
    [0.0, -1.0, 0.0, 81.0],
    [1.0, 0.0, 0.0, 0.0],
    [0.0, 0.0, 1.0, 0.0],
    [0.0, 0.0, 0.0, 1.0]
],
  "dcmmeta_shape": [82, 82, 56, 872],
  "dcmmeta_slice_dim": 2,
  "dcmmeta_version": 0.6,
  "global": {
    "const": {
      "AccessionNumber": "A003582",
      "AcquisitionMatrix": [82, 0, 0, 82],
      "AngioFlag": "N",
      "BitsAllocated": 16,
      "BitsStored": 12,
      "BodyPartExamined": "BRAIN",
      "Columns": 656,
      "EchoNumbers": 1,
      "EchoTime": 27.2,
      "EchoTrainLength": 82,
      "FlipAngle": 44.0,
      "HighBit": 11,
      "ImageOrientationPatient": [0.99925139854515, 0.00310013387452, 0.03856204968013, 0.00261601969084, 0.9890877228995, -0.1473045581456],
      "ImagePositionPatient": [-883.3743210001, -894.85477928185, 45.003815462315],
      "ImageType": [
        "ORIGINAL",
        "PRIMARY",
        "FMRI",
        "NONE",
        "MB",
        "ND",
        "NORM",
        "MOSAIC"
],
      "ImagedNucleus": "1H",
      "ImagingFrequency": 123.252537,
      "InPlanePhaseEncodingDirection": "COL",
      "MRAcquisitionType": "2D",
      "MagneticFieldStrength": 3.0,
      "Manufacturer": "SIEMENS",
      "ManufacturerModelName": "Prisma",
      "Modality": "MR",
      "NumberOfAverages": 1.0,
      "NumberOfPhaseEncodingSteps": 82,
      "PercentPhaseFieldOfView": 100.0,
      "PercentSampling": 100.0,
      "PerformedProcedureStepStartTime": "115437.085000",
      "PhotometricInterpretation": "MONOCHROME2",
      "PixelBandwidth": 3050.0,
      "PixelRepresentation": 0,
      "PixelSpacing": [2.6829268932343, 2.6829268932343],
      "ProtocolName": "func_run-05_task-social_acq-ap-mb8",
      "RepetitionTime": 460.0,
      "Rows": 656,
      "SAR": 0.11033264573825,
      "SamplesPerPixel": 1,
      "ScanOptions": "FS",
      "ScanningSequence": "EP",
      "SequenceName": "epfid2d1_82",
      "SequenceVariant": [
        "SK",
        "SS"
],
      "SeriesDescription": "func_run-05_task-social_acq-ap-mb8",
      "SeriesNumber": 39,
      "SeriesTime": "131139.411000",
      "SliceLocation": -53.232342257687,
      "SliceThickness": 2.7000000476837,
      "SmallestImagePixelValue": 0,
      "SoftwareVersions": "syngo MR E11",
      "SpacingBetweenSlices": 2.6999999921989,
      "SpecificCharacterSet": "ISO_IR 100",
      "StudyID": "1",
      "StudyTime": "115437.028000",
      "TransmitCoilName": "Body",
      "VariableFlipAngleFlag": "N",
      "WindowCenterWidthExplanation": "Algo1",
      "dBdt": 0.0},
    "slices": {}
  },
  "time": {
    "samples": {
      "AcquisitionNumber": [1, 2, 3, 4, 5, 6, 7, 8, 9, 10, 11, 12, 13, 14, 15, 16, 17, 18, 19, 20, 21, 22, 23, 24, 25, 26, 27, 28, 29, 30, 31, 32, 33, 34, 35, 36, 37, 38, 39, 40, 41, 42, 43, 44, 45, 46, 47, 48, 49, 50, 51, 52, 53, 54, 55, 56, 57, 58, 59, 60, 61, 62, 63, 64, 65, 66, 67, 68, 69, 70, 71, 72, 73, 74, 75, 76, 77, 78, 79, 80, 81, 82, 83, 84, 85, 86, 87, 88, 89, 90, 91, 92, 93, 94, 95, 96, 97, 98, 99, 100, 101, 102, 103, 104, 105, 106, 107, 108, 109, 110, 111, 112, 113, 114, 115, 116, 117, 118, 119, 120, 121, 122, 123, 124, 125, 126, 127, 128, 129, 130, 131, 132, 133, 134, 135, 136, 137, 138, 139, 140, 141, 142, 143, 144, 145, 146, 147, 148, 149, 150, 151, 152, 153, 154, 155, 156, 157, 158, 159, 160, 161, 162, 163, 164, 165, 166, 167, 168, 169, 170, 171, 172, 173, 174, 175, 176, 177, 178, 179, 180, 181, 182, 183, 184, 185, 186, 187, 188, 189, 190, 191, 192, 193, 194, 195, 196, 197, 198, 199, 200, 201, 202, 203, 204, 205, 206, 207, 208, 209, 210, 211, 212, 213, 214, 215, 216, 217, 218, 219, 220, 221, 222, 223, 224, 225, 226, 227, 228, 229, 230, 231, 232, 233, 234, 235, 236, 237, 238, 239, 240, 241, 242, 243, 244, 245, 246, 247, 248, 249, 250, 251, 252, 253, 254, 255, 256, 257, 258, 259, 260, 261, 262, 263, 264, 265, 266, 267, 268, 269, 270, 271, 272, 273, 274, 275, 276, 277, 278, 279, 280, 281, 282, 283, 284, 285, 286, 287, 288, 289, 290, 291, 292, 293, 294, 295, 296, 297, 298, 299, 300, 301, 302, 303, 304, 305, 306, 307, 308, 309, 310, 311, 312, 313, 314, 315, 316, 317, 318, 319, 320, 321, 322, 323, 324, 325, 326, 327, 328, 329, 330, 331, 332, 333, 334, 335, 336, 337, 338, 339, 340, 341, 342, 343, 344, 345, 346, 347, 348, 349, 350, 351, 352, 353, 354, 355, 356, 357, 358, 359, 360, 361, 362, 363, 364, 365, 366, 367, 368, 369, 370, 371, 372, 373, 374, 375, 376, 377, 378, 379, 380, 381, 382, 383, 384, 385, 386, 387, 388, 389, 390, 391, 392, 393, 394, 395, 396, 397, 398, 399, 400, 401, 402, 403, 404, 405, 406, 407, 408, 409, 410, 411, 412, 413, 414, 415, 416, 417, 418, 419, 420, 421, 422, 423, 424, 425, 426, 427, 428, 429, 430, 431, 432, 433, 434, 435, 436, 437, 438, 439, 440, 441, 442, 443, 444, 445, 446, 447, 448, 449, 450, 451, 452, 453, 454, 455, 456, 457, 458, 459, 460, 461, 462, 463, 464, 465, 466, 467, 468, 469, 470, 471, 472, 473, 474, 475, 476, 477, 478, 479, 480, 481, 482, 483, 484, 485, 486, 487, 488, 489, 490, 491, 492, 493, 494, 495, 496, 497, 498, 499, 500, 501, 502, 503, 504, 505, 506, 507, 508, 509, 510, 511, 512, 513, 514, 515, 516, 517, 518, 519, 520, 521, 522, 523, 524, 525, 526, 527, 528, 529, 530, 531, 532, 533, 534, 535, 536, 537, 538, 539, 540, 541, 542, 543, 544, 545, 546, 547, 548, 549, 550, 551, 552, 553, 554, 555, 556, 557, 558, 559, 560, 561, 562, 563, 564, 565, 566, 567, 568, 569, 570, 571, 572, 573, 574, 575, 576, 577, 578, 579, 580, 581, 582, 583, 584, 585, 586, 587, 588, 589, 590, 591, 592, 593, 594, 595, 596, 597, 598, 599, 600, 601, 602, 603, 604, 605, 606, 607, 608, 609, 610, 611, 612, 613, 614, 615, 616, 617, 618, 619, 620, 621, 622, 623, 624, 625, 626, 627, 628, 629, 630, 631, 632, 633, 634, 635, 636, 637, 638, 639, 640, 641, 642, 643, 644, 645, 646, 647, 648, 649, 650, 651, 652, 653, 654, 655, 656, 657, 658, 659, 660, 661, 662, 663, 664, 665, 666, 667, 668, 669, 670, 671, 672, 673, 674, 675, 676, 677, 678, 679, 680, 681, 682, 683, 684, 685, 686, 687, 688, 689, 690, 691, 692, 693, 694, 695, 696, 697, 698, 699, 700, 701, 702, 703, 704, 705, 706, 707, 708, 709, 710, 711, 712, 713, 714, 715, 716, 717, 718, 719, 720, 721, 722, 723, 724, 725, 726, 727, 728, 729, 730, 731, 732, 733, 734, 735, 736, 737, 738, 739, 740, 741, 742, 743, 744, 745, 746, 747, 748, 749, 750, 751, 752, 753, 754, 755, 756, 757, 758, 759, 760, 761, 762, 763, 764, 765, 766, 767, 768, 769, 770, 771, 772, 773, 774, 775, 776, 777, 778, 779, 780, 781, 782, 783, 784, 785, 786, 787, 788, 789, 790, 791, 792, 793, 794, 795, 796, 797, 798, 799, 800, 801, 802, 803, 804, 805, 806, 807, 808, 809, 810, 811, 812, 813, 814, 815, 816, 817, 818, 819, 820, 821, 822, 823, 824, 825, 826, 827, 828, 829, 830, 831, 832, 833, 834, 835, 836, 837, 838, 839, 840, 841, 842, 843, 844, 845, 846, 847, 848, 849, 850, 851, 852, 853, 854, 855, 856, 857, 858, 859, 860, 861, 862, 863, 864, 865, 866, 867, 868, 869, 870, 871, 872],
      "AcquisitionTime": ["131135.132500", "131135.592500", "131136.052500", "131136.512500", "131136.972500", "131137.432500", "131137.892500", "131138.352500", "131138.812500", "131139.272500", "131139.732500", "131140.192500", "131140.652500", "131141.112500", "131141.572500", "131142.032500", "131142.492500", "131142.952500", "131143.412500", "131143.872500", "131144.332500", "131144.792500", "131145.252500", "131145.712500", "131146.172500", "131146.632500", "131147.092500", "131147.552500", "131148.012500", "131148.472500", "131148.932500", "131149.392500", "131149.852500", "131150.312500", "131150.772500", "131151.232500", "131151.692500", "131152.152500", "131152.612500", "131153.072500", "131153.532500", "131153.992500", "131154.452500", "131154.912500", "131155.372500", "131155.832500", "131156.292500", "131156.752500", "131157.212500", "131157.672500", "131158.132500", "131158.592500", "131159.052500", "131159.512500", "131159.972500", "131200.432500", "131200.892500", "131201.352500", "131201.812500", "131202.272500", "131202.732500", "131203.192500", "131203.652500", "131204.112500", "131204.572500", "131205.032500", "131205.492500", "131205.952500", "131206.412500", "131206.872500", "131207.332500", "131207.792500", "131208.252500", "131208.712500", "131209.172500", "131209.632500", "131210.092500", "131210.552500", "131211.012500", "131211.472500", "131211.932500", "131212.392500", "131212.852500", "131213.312500", "131213.772500", "131214.232500", "131214.692500", "131215.152500", "131215.612500", "131216.072500", "131216.532500", "131216.992500", "131217.452500", "131217.912500", "131218.372500", "131218.832500", "131219.292500", "131219.752500", "131220.212500", "131220.672500", "131221.132500", "131221.592500", "131222.052500", "131222.512500", "131222.972500", "131223.432500", "131223.892500", "131224.352500", "131224.812500", "131225.272500", "131225.732500", "131226.192500", "131226.652500", "131227.112500", "131227.572500", "131228.032500", "131228.492500", "131228.952500", "131229.412500", "131229.872500", "131230.332500", "131230.792500", "131231.252500", "131231.712500", "131232.172500", "131232.632500", "131233.092500", "131233.552500", "131234.012500", "131234.472500", "131234.932500", "131235.392500", "131235.852500", "131236.312500", "131236.772500", "131237.232500", "131237.692500", "131238.152500", "131238.612500", "131239.072500", "131239.532500", "131239.992500", "131240.452500", "131240.912500", "131241.372500", "131241.832500", "131242.292500", "131242.752500", "131243.212500", "131243.672500", "131244.132500", "131244.592500", "131245.052500", "131245.512500", "131245.972500", "131246.432500", "131246.892500", "131247.352500", "131247.812500", "131248.272500", "131248.732500", "131249.192500", "131249.652500", "131250.112500", "131250.572500", "131251.032500", "131251.492500", "131251.952500", "131252.412500", "131252.872500", "131253.332500", "131253.792500", "131254.252500", "131254.712500", "131255.172500", "131255.632500", "131256.092500", "131256.552500", "131257.012500", "131257.472500", "131257.932500", "131258.392500", "131258.852500", "131259.312500", "131259.772500", "131300.232500", "131300.692500", "131301.152500", "131301.612500", "131302.072500", "131302.532500", "131302.992500", "131303.452500", "131303.912500", "131304.372500", "131304.832500", "131305.292500", "131305.752500", "131306.212500", "131306.672500", "131307.132500", "131307.592500", "131308.052500", "131308.512500", "131308.972500", "131309.432500", "131309.892500", "131310.352500", "131310.812500", "131311.272500", "131311.732500", "131312.192500", "131312.652500", "131313.112500", "131313.572500", "131314.032500", "131314.492500", "131314.952500", "131315.412500", "131315.872500", "131316.332500", "131316.792500", "131317.252500", "131317.712500", "131318.172500", "131318.632500", "131319.092500", "131319.552500", "131320.012500", "131320.472500", "131320.932500", "131321.392500", "131321.852500", "131322.312500", "131322.772500", "131323.232500", "131323.692500", "131324.152500", "131324.612500", "131325.072500", "131325.532500", "131325.992500", "131326.452500", "131326.912500", "131327.372500", "131327.832500", "131328.292500", "131328.752500", "131329.212500", "131329.672500", "131330.132500", "131330.592500", "131331.052500", "131331.512500", "131331.972500", "131332.432500", "131332.892500", "131333.352500", "131333.812500", "131334.272500", "131334.732500", "131335.192500", "131335.652500", "131336.112500", "131336.572500", "131337.032500", "131337.492500", "131337.952500", "131338.412500", "131338.872500", "131339.332500", "131339.792500", "131340.252500", "131340.712500", "131341.172500", "131341.632500", "131342.092500", "131342.552500", "131343.012500", "131343.472500", "131343.932500", "131344.392500", "131344.852500", "131345.312500", "131345.772500", "131346.232500", "131346.692500", "131347.152500", "131347.612500", "131348.072500", "131348.532500", "131348.992500", "131349.452500", "131349.912500", "131350.372500", "131350.832500", "131351.292500", "131351.752500", "131352.212500", "131352.672500", "131353.132500", "131353.592500", "131354.052500", "131354.512500", "131354.972500", "131355.432500", "131355.892500", "131356.352500", "131356.812500", "131357.272500", "131357.732500", "131358.192500", "131358.652500", "131359.112500", "131359.572500", "131400.032500", "131400.492500", "131400.952500", "131401.412500", "131401.872500", "131402.332500", "131402.792500", "131403.252500", "131403.712500", "131404.172500", "131404.632500", "131405.092500", "131405.552500", "131406.012500", "131406.472500", "131406.932500", "131407.392500", "131407.852500", "131408.312500", "131408.772500", "131409.232500", "131409.692500", "131410.152500", "131410.612500", "131411.072500", "131411.532500", "131411.992500", "131412.452500", "131412.912500", "131413.372500", "131413.832500", "131414.292500", "131414.752500", "131415.212500", "131415.672500", "131416.132500", "131416.592500", "131417.052500", "131417.512500", "131417.972500", "131418.432500", "131418.892500", "131419.352500", "131419.812500", "131420.272500", "131420.732500", "131421.192500", "131421.652500", "131422.112500", "131422.572500", "131423.032500", "131423.492500", "131423.952500", "131424.412500", "131424.872500", "131425.332500", "131425.792500", "131426.252500", "131426.712500", "131427.172500", "131427.632500", "131428.092500", "131428.552500", "131429.012500", "131429.472500", "131429.932500", "131430.392500", "131430.852500", "131431.312500", "131431.772500", "131432.232500", "131432.692500", "131433.152500", "131433.612500", "131434.072500", "131434.532500", "131434.992500", "131435.452500", "131435.912500", "131436.372500", "131436.832500", "131437.292500", "131437.752500", "131438.212500", "131438.672500", "131439.132500", "131439.592500", "131440.052500", "131440.512500", "131440.972500", "131441.432500", "131441.892500", "131442.352500", "131442.812500", "131443.272500", "131443.732500", "131444.192500", "131444.652500", "131445.112500", "131445.572500", "131446.032500", "131446.492500", "131446.952500", "131447.412500", "131447.872500", "131448.332500", "131448.792500", "131449.252500", "131449.712500", "131450.172500", "131450.632500", "131451.092500", "131451.552500", "131452.012500", "131452.472500", "131452.932500", "131453.392500", "131453.852500", "131454.312500", "131454.772500", "131455.232500", "131455.692500", "131456.152500", "131456.612500", "131457.072500", "131457.532500", "131457.992500", "131458.452500", "131458.912500", "131459.372500", "131459.832500", "131500.292500", "131500.752500", "131501.212500", "131501.672500", "131502.132500", "131502.592500", "131503.052500", "131503.512500", "131503.972500", "131504.432500", "131504.892500", "131505.352500", "131505.812500", "131506.272500", "131506.732500", "131507.192500", "131507.652500", "131508.112500", "131508.572500", "131509.032500", "131509.492500", "131509.952500", "131510.412500", "131510.872500", "131511.332500", "131511.792500", "131512.252500", "131512.712500", "131513.172500", "131513.632500", "131514.092500", "131514.552500", "131515.012500", "131515.472500", "131515.932500", "131516.392500", "131516.852500", "131517.312500", "131517.772500", "131518.232500", "131518.692500", "131519.152500", "131519.612500", "131520.072500", "131520.532500", "131520.992500", "131521.452500", "131521.912500", "131522.372500", "131522.832500", "131523.292500", "131523.752500", "131524.212500", "131524.672500", "131525.132500", "131525.592500", "131526.052500", "131526.512500", "131526.972500", "131527.432500", "131527.892500", "131528.352500", "131528.812500", "131529.272500", "131529.732500", "131530.192500", "131530.652500", "131531.112500", "131531.572500", "131532.032500", "131532.492500", "131532.952500", "131533.412500", "131533.872500", "131534.332500", "131534.792500", "131535.252500", "131535.712500", "131536.172500", "131536.632500", "131537.092500", "131537.552500", "131538.012500", "131538.472500", "131538.932500", "131539.392500", "131539.852500", "131540.312500", "131540.772500", "131541.232500", "131541.692500", "131542.152500", "131542.612500", "131543.072500", "131543.532500", "131543.992500", "131544.452500", "131544.912500", "131545.372500", "131545.832500", "131546.292500", "131546.752500", "131547.212500", "131547.672500", "131548.132500", "131548.592500", "131549.052500", "131549.512500", "131549.972500", "131550.432500", "131550.892500", "131551.352500", "131551.812500", "131552.272500", "131552.732500", "131553.192500", "131553.652500", "131554.112500", "131554.572500", "131555.032500", "131555.492500", "131555.952500", "131556.412500", "131556.872500", "131557.332500", "131557.792500", "131558.252500", "131558.712500", "131559.172500", "131559.632500", "131600.092500", "131600.552500", "131601.012500", "131601.472500", "131601.932500", "131602.392500", "131602.852500", "131603.312500", "131603.772500", "131604.232500", "131604.692500", "131605.152500", "131605.612500", "131606.072500", "131606.532500", "131606.992500", "131607.452500", "131607.912500", "131608.372500", "131608.832500", "131609.292500", "131609.752500", "131610.212500", "131610.672500", "131611.132500", "131611.592500", "131612.052500", "131612.512500", "131612.972500", "131613.432500", "131613.892500", "131614.352500", "131614.812500", "131615.272500", "131615.732500", "131616.192500", "131616.652500", "131617.112500", "131617.572500", "131618.032500", "131618.492500", "131618.952500", "131619.412500", "131619.872500", "131620.332500", "131620.792500", "131621.252500", "131621.712500", "131622.172500", "131622.632500", "131623.092500", "131623.552500", "131624.012500", "131624.472500", "131624.932500", "131625.392500", "131625.852500", "131626.312500", "131626.772500", "131627.232500", "131627.692500", "131628.152500", "131628.612500", "131629.072500", "131629.532500", "131629.992500", "131630.452500", "131630.912500", "131631.372500", "131631.832500", "131632.292500", "131632.752500", "131633.212500", "131633.672500", "131634.132500", "131634.592500", "131635.052500", "131635.512500", "131635.972500", "131636.432500", "131636.892500", "131637.352500", "131637.812500", "131638.272500", "131638.732500", "131639.192500", "131639.652500", "131640.112500", "131640.572500", "131641.032500", "131641.492500", "131641.952500", "131642.412500", "131642.872500", "131643.332500", "131643.792500", "131644.252500", "131644.712500", "131645.172500", "131645.632500", "131646.092500", "131646.552500", "131647.012500", "131647.472500", "131647.932500", "131648.392500", "131648.852500", "131649.312500", "131649.772500", "131650.232500", "131650.692500", "131651.152500", "131651.612500", "131652.072500", "131652.532500", "131652.992500", "131653.452500", "131653.912500", "131654.372500", "131654.832500", "131655.292500", "131655.752500", "131656.212500", "131656.672500", "131657.132500", "131657.592500", "131658.052500", "131658.512500", "131658.972500", "131659.432500", "131659.892500", "131700.352500", "131700.812500", "131701.272500", "131701.732500", "131702.192500", "131702.652500", "131703.112500", "131703.572500", "131704.032500", "131704.492500", "131704.952500", "131705.412500", "131705.872500", "131706.332500", "131706.792500", "131707.252500", "131707.712500", "131708.172500", "131708.632500", "131709.092500", "131709.552500", "131710.012500", "131710.472500", "131710.932500", "131711.392500", "131711.852500", "131712.312500", "131712.772500", "131713.232500", "131713.692500", "131714.152500", "131714.612500", "131715.072500", "131715.532500", "131715.992500", "131716.452500", "131716.912500", "131717.372500", "131717.832500", "131718.292500", "131718.752500", "131719.212500", "131719.672500", "131720.132500", "131720.592500", "131721.052500", "131721.512500", "131721.972500", "131722.432500", "131722.892500", "131723.352500", "131723.812500", "131724.272500", "131724.732500", "131725.192500", "131725.652500", "131726.112500", "131726.572500", "131727.032500", "131727.492500", "131727.952500", "131728.412500", "131728.872500", "131729.332500", "131729.792500", "131730.252500", "131730.712500", "131731.172500", "131731.632500", "131732.092500", "131732.552500", "131733.012500", "131733.472500", "131733.932500", "131734.392500", "131734.852500", "131735.312500", "131735.772500", "131736.232500", "131736.692500", "131737.152500", "131737.612500", "131738.072500", "131738.532500", "131738.992500", "131739.452500", "131739.912500", "131740.372500", "131740.832500", "131741.292500", "131741.752500", "131742.212500", "131742.672500", "131743.132500", "131743.592500", "131744.052500", "131744.512500", "131744.972500", "131745.432500", "131745.892500", "131746.352500", "131746.812500", "131747.272500", "131747.732500", "131748.192500", "131748.652500", "131749.112500", "131749.572500", "131750.032500", "131750.492500", "131750.952500", "131751.412500", "131751.872500", "131752.332500", "131752.792500", "131753.252500", "131753.712500", "131754.172500", "131754.632500", "131755.092500", "131755.552500", "131756.012500", "131756.472500", "131756.932500", "131757.392500", "131757.852500", "131758.312500", "131758.772500", "131759.232500", "131759.692500", "131800.152500", "131800.612500", "131801.072500", "131801.532500", "131801.992500", "131802.452500", "131802.912500", "131803.372500", "131803.832500", "131804.292500", "131804.752500", "131805.212500", "131805.672500", "131806.132500", "131806.592500", "131807.052500", "131807.512500", "131807.972500", "131808.432500", "131808.892500", "131809.352500", "131809.812500", "131810.272500", "131810.732500", "131811.192500", "131811.652500", "131812.112500", "131812.572500", "131813.032500", "131813.492500", "131813.952500", "131814.412500", "131814.872500", "131815.332500", "131815.792500"],
