{
  "AcquisitionMatrixPE": 82,
  "AcquisitionNumber": 1,
  "AcquisitionTime": "12:50:33.852500",
  "BandwidthPerPixelPhaseEncode": 24.888,
  "BaseResolution": 82,
  "BodyPartExamined": "BRAIN",
  "ConsistencyInfo": "N4_VE11C_LATEST_20160120",
  "ConversionSoftware": "dcm2niix",
  "ConversionSoftwareVersion": "v1.0.20201102",
  "DerivedVendorReportedEchoSpacing": 0.00049,
  "DeviceSerialNumber": "66112",
  "DwellTime": 2e-06,
  "EchoTime": 0.0272,
  "EchoTrainLength": 82,
  "EffectiveEchoSpacing": 0.00049,
  "FlipAngle": 44,
  "ImageComments": "Unaliased MB8/PE3",
  "ImageOrientationPatientDICOM": [0.999251, 0.00310013, 0.038562, 0.00261602, 0.989088, -0.147305],
  "ImageType": [
    "ORIGINAL",
    "PRIMARY",
    "FMRI",
    "NONE",
    "MB",
    "ND",
    "NORM",
    "MOSAIC"
],
  "ImagingFrequency": 123.253,
  "InPlanePhaseEncodingDirectionDICOM": "COL",
  "InstitutionAddress": "Maynard 3,Hanover,NH,US,03755",
  "InstitutionName": "Dartmouth College - PBS",
  "InstitutionalDepartmentName": "Department",
  "MRAcquisitionType": "2D",
  "MagneticFieldStrength": 3,
  "Manufacturer": "Siemens",
  "ManufacturersModelName": "Prisma",
  "Modality": "MR",
  "MultibandAccelerationFactor": 8,
  "PartialFourier": 1,
  "PatientPosition": "HFS",
  "PercentPhaseFOV": 100,
  "PercentSampling": 100,
  "PhaseEncodingDirection": "j-",
  "PhaseEncodingSteps": 82,
  "PhaseResolution": 1,
  "PixelBandwidth": 3050,
  "ProcedureStepDescription": "Wager_Wager^1076_spacetop",
  "ProtocolName": "func_run-02_task-social_acq-ap-mb8",
  "PulseSequenceDetails": "%CustomerSeq%\\cmrr_mbep2d_bold",
  "ReceiveCoilActiveElements": "HEA;HEP",
  "ReceiveCoilName": "Head_32",
  "ReconMatrixPE": 82,
  "RepetitionTime": 0.46,
  "SAR": 0.110333,
  "ScanOptions": "FS",
  "ScanningSequence": "EP",
  "SequenceName": "epfid2d1_82",
  "SequenceVariant": "SK\\SS",
  "SeriesDescription": "func_run-02_task-social_acq-ap-mb8",
  "SeriesNumber": 18,
  "ShimSetting": [4162, -7730, -7218, 566, 13, -104, -25, 46],
  "SliceThickness": 2.7,
  "SliceTiming": [0, 0.2525, 0.0625, 0.315, 0.1275, 0.3775, 0.19, 0, 0.2525, 0.0625, 0.315, 0.1275, 0.3775, 0.19, 0, 0.2525, 0.0625, 0.315, 0.1275, 0.3775, 0.19, 0, 0.2525, 0.0625, 0.315, 0.1275, 0.3775, 0.19, 0, 0.2525, 0.0625, 0.315, 0.1275, 0.3775, 0.19, 0, 0.2525, 0.0625, 0.315, 0.1275, 0.3775, 0.19, 0, 0.2525, 0.0625, 0.315, 0.1275, 0.3775, 0.19, 0, 0.2525, 0.0625, 0.315, 0.1275, 0.3775, 0.19],
  "SoftwareVersions": "syngo MR E11",
  "SpacingBetweenSlices": 2.7,
  "StationName": "AWP66112",
  "TaskName": "social",
  "TotalReadoutTime": 0.03969,
  "TxRefAmp": 275.313,
  "WipMemBlock": "e65510aa-2da0-4427-b0f9-bfb8935998c1||Sequence: R016 ve11c/master r/e634e98; Dec 19 2017 11:00:25 by eja",
  "dcmmeta_affine": [
    [-2.6809184551239014, 0.007018589414656162, 0.1042143702507019, 111.36788177490234],
    [-0.00831743236631155, 2.6536500453948975, -0.39769694209098816, -84.07554626464844],
    [0.10345915704965591, 0.39520737528800964, 2.668515682220459, -70.73971557617188],
    [0.0, 0.0, 0.0, 1.0]
],
  "dcmmeta_reorient_transform": [
    [0.0, -1.0, 0.0, 81.0],
    [1.0, 0.0, 0.0, 0.0],
    [0.0, 0.0, 1.0, 0.0],
    [0.0, 0.0, 0.0, 1.0]
],
  "dcmmeta_shape": [82, 82, 56, 872],
  "dcmmeta_slice_dim": 2,
  "dcmmeta_version": 0.6,
  "global": {
    "const": {
      "AccessionNumber": "A003582",
      "AcquisitionMatrix": [82, 0, 0, 82],
      "AngioFlag": "N",
      "BitsAllocated": 16,
      "BitsStored": 12,
      "BodyPartExamined": "BRAIN",
      "Columns": 656,
      "EchoNumbers": 1,
      "EchoTime": 27.2,
      "EchoTrainLength": 82,
      "FlipAngle": 44.0,
      "HighBit": 11,
      "ImageOrientationPatient": [0.99925139854515, 0.00310013387452, 0.03856204968013, 0.00261601969084, 0.9890877228995, -0.1473045581456],
      "ImagePositionPatient": [-883.3743210001, -894.85477928185, 45.003815462315],
      "ImageType": [
        "ORIGINAL",
        "PRIMARY",
        "FMRI",
        "NONE",
        "MB",
        "ND",
        "NORM",
        "MOSAIC"
],
      "ImagedNucleus": "1H",
      "ImagingFrequency": 123.252514,
      "InPlanePhaseEncodingDirection": "COL",
      "MRAcquisitionType": "2D",
      "MagneticFieldStrength": 3.0,
      "Manufacturer": "SIEMENS",
      "ManufacturerModelName": "Prisma",
      "Modality": "MR",
      "NumberOfAverages": 1.0,
      "NumberOfPhaseEncodingSteps": 82,
      "PercentPhaseFieldOfView": 100.0,
      "PercentSampling": 100.0,
      "PerformedProcedureStepStartTime": "115437.085000",
      "PhotometricInterpretation": "MONOCHROME2",
      "PixelBandwidth": 3050.0,
      "PixelRepresentation": 0,
      "PixelSpacing": [2.6829268932343, 2.6829268932343],
      "ProtocolName": "func_run-02_task-social_acq-ap-mb8",
      "RepetitionTime": 460.0,
      "Rows": 656,
      "SAR": 0.11033264573825,
      "SamplesPerPixel": 1,
      "ScanOptions": "FS",
      "ScanningSequence": "EP",
      "SequenceName": "epfid2d1_82",
      "SequenceVariant": [
        "SK",
        "SS"
],
      "SeriesDescription": "func_run-02_task-social_acq-ap-mb8",
      "SeriesNumber": 18,
      "SeriesTime": "125036.978000",
      "SliceLocation": -53.232342257687,
      "SliceThickness": 2.7000000476837,
      "SmallestImagePixelValue": 0,
      "SoftwareVersions": "syngo MR E11",
      "SpacingBetweenSlices": 2.6999999921989,
      "SpecificCharacterSet": "ISO_IR 100",
      "StudyID": "1",
      "StudyTime": "115437.028000",
      "TransmitCoilName": "Body",
      "VariableFlipAngleFlag": "N",
      "WindowCenterWidthExplanation": "Algo1",
      "dBdt": 0.0},
    "slices": {}
  },
  "time": {
    "samples": {
      "AcquisitionNumber": [1, 2, 3, 4, 5, 6, 7, 8, 9, 10, 11, 12, 13, 14, 15, 16, 17, 18, 19, 20, 21, 22, 23, 24, 25, 26, 27, 28, 29, 30, 31, 32, 33, 34, 35, 36, 37, 38, 39, 40, 41, 42, 43, 44, 45, 46, 47, 48, 49, 50, 51, 52, 53, 54, 55, 56, 57, 58, 59, 60, 61, 62, 63, 64, 65, 66, 67, 68, 69, 70, 71, 72, 73, 74, 75, 76, 77, 78, 79, 80, 81, 82, 83, 84, 85, 86, 87, 88, 89, 90, 91, 92, 93, 94, 95, 96, 97, 98, 99, 100, 101, 102, 103, 104, 105, 106, 107, 108, 109, 110, 111, 112, 113, 114, 115, 116, 117, 118, 119, 120, 121, 122, 123, 124, 125, 126, 127, 128, 129, 130, 131, 132, 133, 134, 135, 136, 137, 138, 139, 140, 141, 142, 143, 144, 145, 146, 147, 148, 149, 150, 151, 152, 153, 154, 155, 156, 157, 158, 159, 160, 161, 162, 163, 164, 165, 166, 167, 168, 169, 170, 171, 172, 173, 174, 175, 176, 177, 178, 179, 180, 181, 182, 183, 184, 185, 186, 187, 188, 189, 190, 191, 192, 193, 194, 195, 196, 197, 198, 199, 200, 201, 202, 203, 204, 205, 206, 207, 208, 209, 210, 211, 212, 213, 214, 215, 216, 217, 218, 219, 220, 221, 222, 223, 224, 225, 226, 227, 228, 229, 230, 231, 232, 233, 234, 235, 236, 237, 238, 239, 240, 241, 242, 243, 244, 245, 246, 247, 248, 249, 250, 251, 252, 253, 254, 255, 256, 257, 258, 259, 260, 261, 262, 263, 264, 265, 266, 267, 268, 269, 270, 271, 272, 273, 274, 275, 276, 277, 278, 279, 280, 281, 282, 283, 284, 285, 286, 287, 288, 289, 290, 291, 292, 293, 294, 295, 296, 297, 298, 299, 300, 301, 302, 303, 304, 305, 306, 307, 308, 309, 310, 311, 312, 313, 314, 315, 316, 317, 318, 319, 320, 321, 322, 323, 324, 325, 326, 327, 328, 329, 330, 331, 332, 333, 334, 335, 336, 337, 338, 339, 340, 341, 342, 343, 344, 345, 346, 347, 348, 349, 350, 351, 352, 353, 354, 355, 356, 357, 358, 359, 360, 361, 362, 363, 364, 365, 366, 367, 368, 369, 370, 371, 372, 373, 374, 375, 376, 377, 378, 379, 380, 381, 382, 383, 384, 385, 386, 387, 388, 389, 390, 391, 392, 393, 394, 395, 396, 397, 398, 399, 400, 401, 402, 403, 404, 405, 406, 407, 408, 409, 410, 411, 412, 413, 414, 415, 416, 417, 418, 419, 420, 421, 422, 423, 424, 425, 426, 427, 428, 429, 430, 431, 432, 433, 434, 435, 436, 437, 438, 439, 440, 441, 442, 443, 444, 445, 446, 447, 448, 449, 450, 451, 452, 453, 454, 455, 456, 457, 458, 459, 460, 461, 462, 463, 464, 465, 466, 467, 468, 469, 470, 471, 472, 473, 474, 475, 476, 477, 478, 479, 480, 481, 482, 483, 484, 485, 486, 487, 488, 489, 490, 491, 492, 493, 494, 495, 496, 497, 498, 499, 500, 501, 502, 503, 504, 505, 506, 507, 508, 509, 510, 511, 512, 513, 514, 515, 516, 517, 518, 519, 520, 521, 522, 523, 524, 525, 526, 527, 528, 529, 530, 531, 532, 533, 534, 535, 536, 537, 538, 539, 540, 541, 542, 543, 544, 545, 546, 547, 548, 549, 550, 551, 552, 553, 554, 555, 556, 557, 558, 559, 560, 561, 562, 563, 564, 565, 566, 567, 568, 569, 570, 571, 572, 573, 574, 575, 576, 577, 578, 579, 580, 581, 582, 583, 584, 585, 586, 587, 588, 589, 590, 591, 592, 593, 594, 595, 596, 597, 598, 599, 600, 601, 602, 603, 604, 605, 606, 607, 608, 609, 610, 611, 612, 613, 614, 615, 616, 617, 618, 619, 620, 621, 622, 623, 624, 625, 626, 627, 628, 629, 630, 631, 632, 633, 634, 635, 636, 637, 638, 639, 640, 641, 642, 643, 644, 645, 646, 647, 648, 649, 650, 651, 652, 653, 654, 655, 656, 657, 658, 659, 660, 661, 662, 663, 664, 665, 666, 667, 668, 669, 670, 671, 672, 673, 674, 675, 676, 677, 678, 679, 680, 681, 682, 683, 684, 685, 686, 687, 688, 689, 690, 691, 692, 693, 694, 695, 696, 697, 698, 699, 700, 701, 702, 703, 704, 705, 706, 707, 708, 709, 710, 711, 712, 713, 714, 715, 716, 717, 718, 719, 720, 721, 722, 723, 724, 725, 726, 727, 728, 729, 730, 731, 732, 733, 734, 735, 736, 737, 738, 739, 740, 741, 742, 743, 744, 745, 746, 747, 748, 749, 750, 751, 752, 753, 754, 755, 756, 757, 758, 759, 760, 761, 762, 763, 764, 765, 766, 767, 768, 769, 770, 771, 772, 773, 774, 775, 776, 777, 778, 779, 780, 781, 782, 783, 784, 785, 786, 787, 788, 789, 790, 791, 792, 793, 794, 795, 796, 797, 798, 799, 800, 801, 802, 803, 804, 805, 806, 807, 808, 809, 810, 811, 812, 813, 814, 815, 816, 817, 818, 819, 820, 821, 822, 823, 824, 825, 826, 827, 828, 829, 830, 831, 832, 833, 834, 835, 836, 837, 838, 839, 840, 841, 842, 843, 844, 845, 846, 847, 848, 849, 850, 851, 852, 853, 854, 855, 856, 857, 858, 859, 860, 861, 862, 863, 864, 865, 866, 867, 868, 869, 870, 871, 872],
      "AcquisitionTime": ["125033.852500", "125034.312500", "125034.772500", "125035.232500", "125035.692500", "125036.152500", "125036.612500", "125037.072500", "125037.532500", "125037.992500", "125038.452500", "125038.912500", "125039.372500", "125039.832500", "125040.292500", "125040.752500", "125041.212500", "125041.672500", "125042.132500", "125042.592500", "125043.052500", "125043.512500", "125043.972500", "125044.432500", "125044.892500", "125045.352500", "125045.812500", "125046.272500", "125046.732500", "125047.192500", "125047.652500", "125048.112500", "125048.572500", "125049.032500", "125049.492500", "125049.952500", "125050.412500", "125050.872500", "125051.332500", "125051.792500", "125052.252500", "125052.712500", "125053.172500", "125053.632500", "125054.092500", "125054.552500", "125055.012500", "125055.472500", "125055.932500", "125056.392500", "125056.852500", "125057.312500", "125057.772500", "125058.232500", "125058.692500", "125059.152500", "125059.612500", "125100.072500", "125100.532500", "125100.992500", "125101.452500", "125101.912500", "125102.372500", "125102.832500", "125103.292500", "125103.752500", "125104.212500", "125104.672500", "125105.132500", "125105.592500", "125106.052500", "125106.512500", "125106.972500", "125107.432500", "125107.892500", "125108.352500", "125108.812500", "125109.272500", "125109.732500", "125110.192500", "125110.652500", "125111.112500", "125111.572500", "125112.032500", "125112.492500", "125112.952500", "125113.412500", "125113.872500", "125114.332500", "125114.792500", "125115.252500", "125115.712500", "125116.172500", "125116.632500", "125117.092500", "125117.552500", "125118.012500", "125118.472500", "125118.932500", "125119.392500", "125119.852500", "125120.312500", "125120.772500", "125121.232500", "125121.692500", "125122.152500", "125122.612500", "125123.072500", "125123.532500", "125123.992500", "125124.452500", "125124.912500", "125125.372500", "125125.832500", "125126.292500", "125126.752500", "125127.212500", "125127.672500", "125128.132500", "125128.592500", "125129.052500", "125129.512500", "125129.972500", "125130.432500", "125130.892500", "125131.352500", "125131.812500", "125132.272500", "125132.732500", "125133.192500", "125133.652500", "125134.112500", "125134.572500", "125135.032500", "125135.492500", "125135.952500", "125136.412500", "125136.872500", "125137.332500", "125137.792500", "125138.252500", "125138.712500", "125139.172500", "125139.632500", "125140.092500", "125140.552500", "125141.012500", "125141.472500", "125141.932500", "125142.392500", "125142.852500", "125143.312500", "125143.772500", "125144.232500", "125144.692500", "125145.152500", "125145.612500", "125146.072500", "125146.532500", "125146.992500", "125147.452500", "125147.912500", "125148.372500", "125148.832500", "125149.292500", "125149.752500", "125150.212500", "125150.672500", "125151.132500", "125151.592500", "125152.052500", "125152.512500", "125152.972500", "125153.432500", "125153.892500", "125154.352500", "125154.812500", "125155.272500", "125155.732500", "125156.192500", "125156.652500", "125157.112500", "125157.572500", "125158.032500", "125158.492500", "125158.952500", "125159.412500", "125159.872500", "125200.332500", "125200.792500", "125201.252500", "125201.712500", "125202.172500", "125202.632500", "125203.092500", "125203.552500", "125204.012500", "125204.472500", "125204.932500", "125205.392500", "125205.852500", "125206.312500", "125206.772500", "125207.232500", "125207.692500", "125208.152500", "125208.612500", "125209.072500", "125209.532500", "125209.992500", "125210.452500", "125210.912500", "125211.372500", "125211.832500", "125212.292500", "125212.752500", "125213.212500", "125213.672500", "125214.132500", "125214.592500", "125215.052500", "125215.512500", "125215.972500", "125216.432500", "125216.892500", "125217.352500", "125217.812500", "125218.272500", "125218.732500", "125219.192500", "125219.652500", "125220.112500", "125220.572500", "125221.032500", "125221.492500", "125221.952500", "125222.412500", "125222.872500", "125223.332500", "125223.792500", "125224.252500", "125224.712500", "125225.172500", "125225.632500", "125226.092500", "125226.552500", "125227.012500", "125227.472500", "125227.932500", "125228.392500", "125228.852500", "125229.312500", "125229.772500", "125230.232500", "125230.692500", "125231.152500", "125231.612500", "125232.072500", "125232.532500", "125232.992500", "125233.452500", "125233.912500", "125234.372500", "125234.832500", "125235.292500", "125235.752500", "125236.212500", "125236.672500", "125237.132500", "125237.592500", "125238.052500", "125238.512500", "125238.972500", "125239.432500", "125239.892500", "125240.352500", "125240.812500", "125241.272500", "125241.732500", "125242.192500", "125242.652500", "125243.112500", "125243.572500", "125244.032500", "125244.492500", "125244.952500", "125245.412500", "125245.872500", "125246.332500", "125246.792500", "125247.252500", "125247.712500", "125248.172500", "125248.632500", "125249.092500", "125249.552500", "125250.012500", "125250.472500", "125250.932500", "125251.392500", "125251.852500", "125252.312500", "125252.772500", "125253.232500", "125253.692500", "125254.152500", "125254.612500", "125255.072500", "125255.532500", "125255.992500", "125256.452500", "125256.912500", "125257.372500", "125257.832500", "125258.292500", "125258.752500", "125259.212500", "125259.672500", "125300.132500", "125300.592500", "125301.052500", "125301.512500", "125301.972500", "125302.432500", "125302.892500", "125303.352500", "125303.812500", "125304.272500", "125304.732500", "125305.192500", "125305.652500", "125306.112500", "125306.572500", "125307.032500", "125307.492500", "125307.952500", "125308.412500", "125308.872500", "125309.332500", "125309.792500", "125310.252500", "125310.712500", "125311.172500", "125311.632500", "125312.092500", "125312.552500", "125313.012500", "125313.472500", "125313.932500", "125314.392500", "125314.852500", "125315.312500", "125315.772500", "125316.232500", "125316.692500", "125317.152500", "125317.612500", "125318.072500", "125318.532500", "125318.992500", "125319.452500", "125319.912500", "125320.372500", "125320.832500", "125321.292500", "125321.752500", "125322.212500", "125322.672500", "125323.132500", "125323.592500", "125324.052500", "125324.512500", "125324.972500", "125325.432500", "125325.892500", "125326.352500", "125326.812500", "125327.272500", "125327.732500", "125328.192500", "125328.652500", "125329.112500", "125329.572500", "125330.032500", "125330.492500", "125330.952500", "125331.412500", "125331.872500", "125332.332500", "125332.792500", "125333.252500", "125333.712500", "125334.172500", "125334.632500", "125335.092500", "125335.552500", "125336.012500", "125336.472500", "125336.932500", "125337.392500", "125337.852500", "125338.312500", "125338.772500", "125339.232500", "125339.692500", "125340.152500", "125340.612500", "125341.072500", "125341.532500", "125341.992500", "125342.452500", "125342.912500", "125343.372500", "125343.832500", "125344.292500", "125344.752500", "125345.212500", "125345.672500", "125346.132500", "125346.592500", "125347.052500", "125347.512500", "125347.972500", "125348.432500", "125348.892500", "125349.352500", "125349.812500", "125350.272500", "125350.732500", "125351.192500", "125351.652500", "125352.112500", "125352.572500", "125353.032500", "125353.492500", "125353.952500", "125354.412500", "125354.872500", "125355.332500", "125355.792500", "125356.252500", "125356.712500", "125357.172500", "125357.632500", "125358.092500", "125358.552500", "125359.012500", "125359.472500", "125359.932500", "125400.392500", "125400.852500", "125401.312500", "125401.772500", "125402.232500", "125402.692500", "125403.152500", "125403.612500", "125404.072500", "125404.532500", "125404.992500", "125405.452500", "125405.912500", "125406.372500", "125406.832500", "125407.292500", "125407.752500", "125408.212500", "125408.672500", "125409.132500", "125409.592500", "125410.052500", "125410.512500", "125410.972500", "125411.432500", "125411.892500", "125412.352500", "125412.812500", "125413.272500", "125413.732500", "125414.192500", "125414.652500", "125415.112500", "125415.572500", "125416.032500", "125416.492500", "125416.952500", "125417.412500", "125417.872500", "125418.332500", "125418.792500", "125419.252500", "125419.712500", "125420.172500", "125420.632500", "125421.092500", "125421.552500", "125422.012500", "125422.472500", "125422.932500", "125423.392500", "125423.852500", "125424.312500", "125424.772500", "125425.232500", "125425.692500", "125426.152500", "125426.612500", "125427.072500", "125427.532500", "125427.992500", "125428.452500", "125428.912500", "125429.372500", "125429.832500", "125430.292500", "125430.752500", "125431.212500", "125431.672500", "125432.132500", "125432.592500", "125433.052500", "125433.512500", "125433.972500", "125434.432500", "125434.892500", "125435.352500", "125435.812500", "125436.272500", "125436.732500", "125437.192500", "125437.652500", "125438.112500", "125438.572500", "125439.032500", "125439.492500", "125439.952500", "125440.412500", "125440.872500", "125441.332500", "125441.792500", "125442.252500", "125442.712500", "125443.172500", "125443.632500", "125444.092500", "125444.552500", "125445.012500", "125445.472500", "125445.932500", "125446.392500", "125446.852500", "125447.312500", "125447.772500", "125448.232500", "125448.692500", "125449.152500", "125449.612500", "125450.072500", "125450.532500", "125450.992500", "125451.452500", "125451.912500", "125452.372500", "125452.832500", "125453.292500", "125453.752500", "125454.212500", "125454.672500", "125455.132500", "125455.592500", "125456.052500", "125456.512500", "125456.972500", "125457.432500", "125457.892500", "125458.352500", "125458.812500", "125459.272500", "125459.732500", "125500.192500", "125500.652500", "125501.112500", "125501.572500", "125502.032500", "125502.492500", "125502.952500", "125503.412500", "125503.872500", "125504.332500", "125504.792500", "125505.252500", "125505.712500", "125506.172500", "125506.632500", "125507.092500", "125507.552500", "125508.012500", "125508.472500", "125508.932500", "125509.392500", "125509.852500", "125510.312500", "125510.772500", "125511.232500", "125511.692500", "125512.152500", "125512.612500", "125513.072500", "125513.532500", "125513.992500", "125514.452500", "125514.912500", "125515.372500", "125515.832500", "125516.292500", "125516.752500", "125517.212500", "125517.672500", "125518.132500", "125518.592500", "125519.052500", "125519.512500", "125519.972500", "125520.432500", "125520.892500", "125521.352500", "125521.812500", "125522.272500", "125522.732500", "125523.192500", "125523.652500", "125524.112500", "125524.572500", "125525.032500", "125525.492500", "125525.952500", "125526.412500", "125526.872500", "125527.332500", "125527.792500", "125528.252500", "125528.712500", "125529.172500", "125529.632500", "125530.092500", "125530.552500", "125531.012500", "125531.472500", "125531.932500", "125532.392500", "125532.852500", "125533.312500", "125533.772500", "125534.232500", "125534.692500", "125535.152500", "125535.612500", "125536.072500", "125536.532500", "125536.992500", "125537.452500", "125537.912500", "125538.372500", "125538.832500", "125539.292500", "125539.752500", "125540.212500", "125540.672500", "125541.132500", "125541.592500", "125542.052500", "125542.512500", "125542.972500", "125543.432500", "125543.892500", "125544.352500", "125544.812500", "125545.272500", "125545.732500", "125546.192500", "125546.652500", "125547.112500", "125547.572500", "125548.032500", "125548.492500", "125548.952500", "125549.412500", "125549.872500", "125550.332500", "125550.792500", "125551.252500", "125551.712500", "125552.172500", "125552.632500", "125553.092500", "125553.552500", "125554.012500", "125554.472500", "125554.932500", "125555.392500", "125555.852500", "125556.312500", "125556.772500", "125557.232500", "125557.692500", "125558.152500", "125558.612500", "125559.072500", "125559.532500", "125559.992500", "125600.452500", "125600.912500", "125601.372500", "125601.832500", "125602.292500", "125602.752500", "125603.212500", "125603.672500", "125604.132500", "125604.592500", "125605.052500", "125605.512500", "125605.972500", "125606.432500", "125606.892500", "125607.352500", "125607.812500", "125608.272500", "125608.732500", "125609.192500", "125609.652500", "125610.112500", "125610.572500", "125611.032500", "125611.492500", "125611.952500", "125612.412500", "125612.872500", "125613.332500", "125613.792500", "125614.252500", "125614.712500", "125615.172500", "125615.632500", "125616.092500", "125616.552500", "125617.012500", "125617.472500", "125617.932500", "125618.392500", "125618.852500", "125619.312500", "125619.772500", "125620.232500", "125620.692500", "125621.152500", "125621.612500", "125622.072500", "125622.532500", "125622.992500", "125623.452500", "125623.912500", "125624.372500", "125624.832500", "125625.292500", "125625.752500", "125626.212500", "125626.672500", "125627.132500", "125627.592500", "125628.052500", "125628.512500", "125628.972500", "125629.432500", "125629.892500", "125630.352500", "125630.812500", "125631.272500", "125631.732500", "125632.192500", "125632.652500", "125633.112500", "125633.572500", "125634.032500", "125634.492500", "125634.952500", "125635.412500", "125635.872500", "125636.332500", "125636.792500", "125637.252500", "125637.712500", "125638.172500", "125638.632500", "125639.092500", "125639.552500", "125640.012500", "125640.472500", "125640.932500", "125641.392500", "125641.852500", "125642.312500", "125642.772500", "125643.232500", "125643.692500", "125644.152500", "125644.612500", "125645.072500", "125645.532500", "125645.992500", "125646.452500", "125646.912500", "125647.372500", "125647.832500", "125648.292500", "125648.752500", "125649.212500", "125649.672500", "125650.132500", "125650.592500", "125651.052500", "125651.512500", "125651.972500", "125652.432500", "125652.892500", "125653.352500", "125653.812500", "125654.272500", "125654.732500", "125655.192500", "125655.652500", "125656.112500", "125656.572500", "125657.032500", "125657.492500", "125657.952500", "125658.412500", "125658.872500", "125659.332500", "125659.792500", "125700.252500", "125700.712500", "125701.172500", "125701.632500", "125702.092500", "125702.552500", "125703.012500", "125703.472500", "125703.932500", "125704.392500", "125704.852500", "125705.312500", "125705.772500", "125706.232500", "125706.692500", "125707.152500", "125707.612500", "125708.072500", "125708.532500", "125708.992500", "125709.452500", "125709.912500", "125710.372500", "125710.832500", "125711.292500", "125711.752500", "125712.212500", "125712.672500", "125713.132500", "125713.592500", "125714.052500", "125714.512500"],
