{
  "AcquisitionMatrixPE": 82,
  "AcquisitionNumber": 1,
  "AcquisitionTime": "09:26:2.662500",
  "BandwidthPerPixelPhaseEncode": 24.888,
  "BaseResolution": 82,
  "BodyPartExamined": "BRAIN",
  "ConsistencyInfo": "N4_VE11E_LATEST_20181129",
  "ConversionSoftware": "dcm2niix",
  "ConversionSoftwareVersion": "v1.0.20201102",
  "DerivedVendorReportedEchoSpacing": 0.00049,
  "DeviceSerialNumber": "66112",
  "DwellTime": 2e-06,
  "EchoTime": 0.0272,
  "EchoTrainLength": 82,
  "EffectiveEchoSpacing": 0.00049,
  "FlipAngle": 44,
  "ImageComments": "Unaliased MB8/PE3",
  "ImageOrientationPatientDICOM": [0.997458, 0.0640278, -0.0312827, -0.0634538, 0.997804, 0.0190092],
  "ImageType": [
    "ORIGINAL",
    "PRIMARY",
    "M",
    "MB",
    "ND",
    "NORM",
    "MOSAIC"
],
  "ImagingFrequency": 123.252,
  "InPlanePhaseEncodingDirectionDICOM": "COL",
  "InstitutionAddress": "Maynard 3,Hanover,NH,US,03755",
  "InstitutionName": "Dartmouth College - PBS",
  "InstitutionalDepartmentName": "Department",
  "MRAcquisitionType": "2D",
  "MagneticFieldStrength": 3,
  "Manufacturer": "Siemens",
  "ManufacturersModelName": "Prisma",
  "Modality": "MR",
  "MultibandAccelerationFactor": 8,
  "PartialFourier": 1,
  "PatientPosition": "HFS",
  "PercentPhaseFOV": 100,
  "PercentSampling": 100,
  "PhaseEncodingDirection": "j-",
  "PhaseEncodingSteps": 82,
  "PhaseResolution": 1,
  "PixelBandwidth": 3050,
  "ProcedureStepDescription": "Wager_Wager^1076_spacetop",
  "ProtocolName": "func_run-02_task-social_acq-ap-mb8",
  "PulseSequenceDetails": "%CustomerSeq%\\cmrr_mbep2d_bold",
  "ReceiveCoilActiveElements": "HEA;HEP",
  "ReceiveCoilName": "Head_32",
  "ReconMatrixPE": 82,
  "RepetitionTime": 0.46,
  "SAR": 0.0923881,
  "ScanOptions": "FS",
  "ScanningSequence": "EP",
  "SequenceName": "epfid2d1_82",
  "SequenceVariant": "SK\\SS",
  "SeriesDescription": "func_run-02_task-social_acq-ap-mb8",
  "SeriesNumber": 16,
  "ShimSetting": [4146, -7730, -7303, 507, -14, -111, 8, 59],
  "SliceThickness": 2.7,
  "SliceTiming": [0, 0.2525, 0.0625, 0.315, 0.125, 0.3775, 0.1875, 0, 0.2525, 0.0625, 0.315, 0.125, 0.3775, 0.1875, 0, 0.2525, 0.0625, 0.315, 0.125, 0.3775, 0.1875, 0, 0.2525, 0.0625, 0.315, 0.125, 0.3775, 0.1875, 0, 0.2525, 0.0625, 0.315, 0.125, 0.3775, 0.1875, 0, 0.2525, 0.0625, 0.315, 0.125, 0.3775, 0.1875, 0, 0.2525, 0.0625, 0.315, 0.125, 0.3775, 0.1875, 0, 0.2525, 0.0625, 0.315, 0.125, 0.3775, 0.1875],
  "SoftwareVersions": "syngo MR E11",
  "SpacingBetweenSlices": 2.7,
  "StationName": "AWP66112",
  "TaskName": "social",
  "TotalReadoutTime": 0.03969,
  "TxRefAmp": 257.392,
  "WipMemBlock": "8280ca60-1704-4e33-81e0-2f04d2695c3c||Sequence: R016 ve11e/master r/434b28f1; Aug  7 2019 18:53:46 by eja",
  "dcmmeta_affine": [
    [-2.6761059761047363, -0.17024198174476624, -0.0875638872385025, 118.6890640258789],
    [-0.17178186774253845, 2.677034378051758, 0.045834723860025406, -86.10443878173828],
    [-0.08392909914255142, -0.05100017413496971, 2.698190450668335, -59.25601577758789],
    [0.0, 0.0, 0.0, 1.0]
],
  "dcmmeta_reorient_transform": [
    [0.0, -1.0, 0.0, 81.0],
    [1.0, 0.0, 0.0, 0.0],
    [0.0, 0.0, 1.0, 0.0],
    [0.0, 0.0, 0.0, 1.0]
],
  "dcmmeta_shape": [82, 82, 56, 872],
  "dcmmeta_slice_dim": 2,
  "dcmmeta_version": 0.6,
  "global": {
    "const": {
      "AccessionNumber": "A003930",
      "AcquisitionMatrix": [82, 0, 0, 82],
      "AngioFlag": "N",
      "BitsAllocated": 16,
      "BitsStored": 16,
      "BodyPartExamined": "BRAIN",
      "Columns": 656,
      "EchoNumbers": 1,
      "EchoTime": 27.2,
      "EchoTrainLength": 82,
      "FlipAngle": 44.0,
      "HighBit": 15,
      "ImageOrientationPatient": [0.99745768707285, 0.06402778732787, -0.0312826621179, -0.0634538268871, 0.99780372011072, 0.01900915533619],
      "ImagePositionPatient": [-824.08245128869, -948.34563439841, -53.936427727205],
      "ImageType": [
        "ORIGINAL",
        "PRIMARY",
        "M",
        "MB",
        "ND",
        "NORM",
        "MOSAIC"
],
      "ImagedNucleus": "1H",
      "ImagingFrequency": 123.252183,
      "InPlanePhaseEncodingDirection": "COL",
      "MRAcquisitionType": "2D",
      "MagneticFieldStrength": 3.0,
      "Manufacturer": "SIEMENS",
      "ManufacturerModelName": "Prisma",
      "Modality": "MR",
      "NumberOfAverages": 1.0,
      "NumberOfPhaseEncodingSteps": 82,
      "PercentPhaseFieldOfView": 100.0,
      "PercentSampling": 100.0,
      "PerformedProcedureStepStartTime": "084529.773000",
      "PhotometricInterpretation": "MONOCHROME2",
      "PixelBandwidth": 3050.0,
      "PixelRepresentation": 0,
      "PixelSpacing": [2.6829268932343, 2.6829268932343],
      "ProtocolName": "func_run-02_task-social_acq-ap-mb8",
      "RepetitionTime": 460.0,
      "Rows": 656,
      "SAR": 0.09238811516265,
      "SamplesPerPixel": 1,
      "ScanOptions": "FS",
      "ScanningSequence": "EP",
      "SequenceName": "epfid2d1_82",
      "SequenceVariant": [
        "SK",
        "SS"
],
      "SeriesDescription": "func_run-02_task-social_acq-ap-mb8",
      "SeriesNumber": 16,
      "SeriesTime": "092616.895000",
      "SliceLocation": -64.527207696844,
      "SliceThickness": 2.7000000476837,
      "SmallestImagePixelValue": 0,
      "SoftwareVersions": "syngo MR E11",
      "SpacingBetweenSlices": 2.6999999892118,
      "SpecificCharacterSet": "ISO_IR 100",
      "StudyID": "1",
      "StudyTime": "084529.622000",
      "TransmitCoilName": "Body",
      "VariableFlipAngleFlag": "N",
      "WindowCenterWidthExplanation": "Algo1"
    },
    "slices": {}
  },
  "time": {
    "samples": {
      "AcquisitionNumber": [1, 2, 3, 4, 5, 6, 7, 8, 9, 10, 11, 12, 13, 14, 15, 16, 17, 18, 19, 20, 21, 22, 23, 24, 25, 26, 27, 28, 29, 30, 31, 32, 33, 34, 35, 36, 37, 38, 39, 40, 41, 42, 43, 44, 45, 46, 47, 48, 49, 50, 51, 52, 53, 54, 55, 56, 57, 58, 59, 60, 61, 62, 63, 64, 65, 66, 67, 68, 69, 70, 71, 72, 73, 74, 75, 76, 77, 78, 79, 80, 81, 82, 83, 84, 85, 86, 87, 88, 89, 90, 91, 92, 93, 94, 95, 96, 97, 98, 99, 100, 101, 102, 103, 104, 105, 106, 107, 108, 109, 110, 111, 112, 113, 114, 115, 116, 117, 118, 119, 120, 121, 122, 123, 124, 125, 126, 127, 128, 129, 130, 131, 132, 133, 134, 135, 136, 137, 138, 139, 140, 141, 142, 143, 144, 145, 146, 147, 148, 149, 150, 151, 152, 153, 154, 155, 156, 157, 158, 159, 160, 161, 162, 163, 164, 165, 166, 167, 168, 169, 170, 171, 172, 173, 174, 175, 176, 177, 178, 179, 180, 181, 182, 183, 184, 185, 186, 187, 188, 189, 190, 191, 192, 193, 194, 195, 196, 197, 198, 199, 200, 201, 202, 203, 204, 205, 206, 207, 208, 209, 210, 211, 212, 213, 214, 215, 216, 217, 218, 219, 220, 221, 222, 223, 224, 225, 226, 227, 228, 229, 230, 231, 232, 233, 234, 235, 236, 237, 238, 239, 240, 241, 242, 243, 244, 245, 246, 247, 248, 249, 250, 251, 252, 253, 254, 255, 256, 257, 258, 259, 260, 261, 262, 263, 264, 265, 266, 267, 268, 269, 270, 271, 272, 273, 274, 275, 276, 277, 278, 279, 280, 281, 282, 283, 284, 285, 286, 287, 288, 289, 290, 291, 292, 293, 294, 295, 296, 297, 298, 299, 300, 301, 302, 303, 304, 305, 306, 307, 308, 309, 310, 311, 312, 313, 314, 315, 316, 317, 318, 319, 320, 321, 322, 323, 324, 325, 326, 327, 328, 329, 330, 331, 332, 333, 334, 335, 336, 337, 338, 339, 340, 341, 342, 343, 344, 345, 346, 347, 348, 349, 350, 351, 352, 353, 354, 355, 356, 357, 358, 359, 360, 361, 362, 363, 364, 365, 366, 367, 368, 369, 370, 371, 372, 373, 374, 375, 376, 377, 378, 379, 380, 381, 382, 383, 384, 385, 386, 387, 388, 389, 390, 391, 392, 393, 394, 395, 396, 397, 398, 399, 400, 401, 402, 403, 404, 405, 406, 407, 408, 409, 410, 411, 412, 413, 414, 415, 416, 417, 418, 419, 420, 421, 422, 423, 424, 425, 426, 427, 428, 429, 430, 431, 432, 433, 434, 435, 436, 437, 438, 439, 440, 441, 442, 443, 444, 445, 446, 447, 448, 449, 450, 451, 452, 453, 454, 455, 456, 457, 458, 459, 460, 461, 462, 463, 464, 465, 466, 467, 468, 469, 470, 471, 472, 473, 474, 475, 476, 477, 478, 479, 480, 481, 482, 483, 484, 485, 486, 487, 488, 489, 490, 491, 492, 493, 494, 495, 496, 497, 498, 499, 500, 501, 502, 503, 504, 505, 506, 507, 508, 509, 510, 511, 512, 513, 514, 515, 516, 517, 518, 519, 520, 521, 522, 523, 524, 525, 526, 527, 528, 529, 530, 531, 532, 533, 534, 535, 536, 537, 538, 539, 540, 541, 542, 543, 544, 545, 546, 547, 548, 549, 550, 551, 552, 553, 554, 555, 556, 557, 558, 559, 560, 561, 562, 563, 564, 565, 566, 567, 568, 569, 570, 571, 572, 573, 574, 575, 576, 577, 578, 579, 580, 581, 582, 583, 584, 585, 586, 587, 588, 589, 590, 591, 592, 593, 594, 595, 596, 597, 598, 599, 600, 601, 602, 603, 604, 605, 606, 607, 608, 609, 610, 611, 612, 613, 614, 615, 616, 617, 618, 619, 620, 621, 622, 623, 624, 625, 626, 627, 628, 629, 630, 631, 632, 633, 634, 635, 636, 637, 638, 639, 640, 641, 642, 643, 644, 645, 646, 647, 648, 649, 650, 651, 652, 653, 654, 655, 656, 657, 658, 659, 660, 661, 662, 663, 664, 665, 666, 667, 668, 669, 670, 671, 672, 673, 674, 675, 676, 677, 678, 679, 680, 681, 682, 683, 684, 685, 686, 687, 688, 689, 690, 691, 692, 693, 694, 695, 696, 697, 698, 699, 700, 701, 702, 703, 704, 705, 706, 707, 708, 709, 710, 711, 712, 713, 714, 715, 716, 717, 718, 719, 720, 721, 722, 723, 724, 725, 726, 727, 728, 729, 730, 731, 732, 733, 734, 735, 736, 737, 738, 739, 740, 741, 742, 743, 744, 745, 746, 747, 748, 749, 750, 751, 752, 753, 754, 755, 756, 757, 758, 759, 760, 761, 762, 763, 764, 765, 766, 767, 768, 769, 770, 771, 772, 773, 774, 775, 776, 777, 778, 779, 780, 781, 782, 783, 784, 785, 786, 787, 788, 789, 790, 791, 792, 793, 794, 795, 796, 797, 798, 799, 800, 801, 802, 803, 804, 805, 806, 807, 808, 809, 810, 811, 812, 813, 814, 815, 816, 817, 818, 819, 820, 821, 822, 823, 824, 825, 826, 827, 828, 829, 830, 831, 832, 833, 834, 835, 836, 837, 838, 839, 840, 841, 842, 843, 844, 845, 846, 847, 848, 849, 850, 851, 852, 853, 854, 855, 856, 857, 858, 859, 860, 861, 862, 863, 864, 865, 866, 867, 868, 869, 870, 871, 872],
      "AcquisitionTime": ["092602.662500", "092603.122500", "092603.582500", "092604.042500", "092604.502500", "092604.962500", "092605.422500", "092605.882500", "092606.342500", "092606.802500", "092607.262500", "092607.722500", "092608.182500", "092608.642500", "092609.102500", "092609.562500", "092610.022500", "092610.482500", "092610.942500", "092611.402500", "092611.862500", "092612.322500", "092612.782500", "092613.242500", "092613.702500", "092614.162500", "092614.622500", "092615.082500", "092615.542500", "092616.002500", "092616.462500", "092616.922500", "092617.382500", "092617.842500", "092618.302500", "092618.762500", "092619.222500", "092619.682500", "092620.142500", "092620.602500", "092621.062500", "092621.522500", "092621.982500", "092622.442500", "092622.902500", "092623.362500", "092623.822500", "092624.282500", "092624.742500", "092625.202500", "092625.662500", "092626.122500", "092626.582500", "092627.042500", "092627.502500", "092627.962500", "092628.422500", "092628.882500", "092629.342500", "092629.802500", "092630.262500", "092630.722500", "092631.182500", "092631.642500", "092632.102500", "092632.562500", "092633.022500", "092633.482500", "092633.942500", "092634.402500", "092634.862500", "092635.322500", "092635.782500", "092636.242500", "092636.702500", "092637.162500", "092637.622500", "092638.082500", "092638.542500", "092639.002500", "092639.462500", "092639.922500", "092640.382500", "092640.842500", "092641.302500", "092641.762500", "092642.222500", "092642.682500", "092643.142500", "092643.602500", "092644.062500", "092644.522500", "092644.982500", "092645.442500", "092645.902500", "092646.362500", "092646.822500", "092647.282500", "092647.742500", "092648.202500", "092648.662500", "092649.122500", "092649.582500", "092650.042500", "092650.502500", "092650.962500", "092651.422500", "092651.882500", "092652.342500", "092652.802500", "092653.262500", "092653.722500", "092654.182500", "092654.642500", "092655.102500", "092655.562500", "092656.022500", "092656.482500", "092656.942500", "092657.402500", "092657.862500", "092658.322500", "092658.782500", "092659.242500", "092659.702500", "092700.162500", "092700.622500", "092701.082500", "092701.542500", "092702.002500", "092702.462500", "092702.922500", "092703.382500", "092703.842500", "092704.302500", "092704.762500", "092705.222500", "092705.682500", "092706.142500", "092706.602500", "092707.062500", "092707.522500", "092707.982500", "092708.442500", "092708.902500", "092709.362500", "092709.822500", "092710.282500", "092710.742500", "092711.202500", "092711.662500", "092712.122500", "092712.582500", "092713.042500", "092713.502500", "092713.962500", "092714.422500", "092714.882500", "092715.342500", "092715.802500", "092716.262500", "092716.722500", "092717.182500", "092717.642500", "092718.102500", "092718.562500", "092719.022500", "092719.482500", "092719.942500", "092720.402500", "092720.862500", "092721.322500", "092721.782500", "092722.242500", "092722.702500", "092723.162500", "092723.622500", "092724.082500", "092724.542500", "092725.002500", "092725.462500", "092725.922500", "092726.382500", "092726.842500", "092727.302500", "092727.762500", "092728.222500", "092728.682500", "092729.142500", "092729.602500", "092730.062500", "092730.522500", "092730.982500", "092731.442500", "092731.902500", "092732.362500", "092732.822500", "092733.282500", "092733.742500", "092734.202500", "092734.662500", "092735.122500", "092735.582500", "092736.042500", "092736.502500", "092736.962500", "092737.422500", "092737.882500", "092738.342500", "092738.802500", "092739.262500", "092739.722500", "092740.182500", "092740.642500", "092741.102500", "092741.562500", "092742.022500", "092742.482500", "092742.942500", "092743.402500", "092743.862500", "092744.322500", "092744.782500", "092745.242500", "092745.702500", "092746.162500", "092746.622500", "092747.082500", "092747.542500", "092748.002500", "092748.462500", "092748.922500", "092749.382500", "092749.842500", "092750.302500", "092750.762500", "092751.222500", "092751.682500", "092752.142500", "092752.602500", "092753.062500", "092753.522500", "092753.982500", "092754.442500", "092754.902500", "092755.362500", "092755.822500", "092756.282500", "092756.742500", "092757.202500", "092757.662500", "092758.122500", "092758.582500", "092759.042500", "092759.502500", "092759.962500", "092800.422500", "092800.882500", "092801.342500", "092801.802500", "092802.262500", "092802.722500", "092803.182500", "092803.642500", "092804.102500", "092804.562500", "092805.022500", "092805.482500", "092805.942500", "092806.402500", "092806.862500", "092807.322500", "092807.782500", "092808.242500", "092808.702500", "092809.162500", "092809.622500", "092810.082500", "092810.542500", "092811.002500", "092811.462500", "092811.922500", "092812.382500", "092812.842500", "092813.302500", "092813.762500", "092814.222500", "092814.682500", "092815.142500", "092815.602500", "092816.062500", "092816.522500", "092816.982500", "092817.442500", "092817.902500", "092818.362500", "092818.822500", "092819.282500", "092819.742500", "092820.202500", "092820.662500", "092821.122500", "092821.582500", "092822.042500", "092822.502500", "092822.962500", "092823.422500", "092823.882500", "092824.342500", "092824.802500", "092825.262500", "092825.722500", "092826.182500", "092826.642500", "092827.102500", "092827.562500", "092828.022500", "092828.482500", "092828.942500", "092829.402500", "092829.862500", "092830.322500", "092830.782500", "092831.242500", "092831.702500", "092832.162500", "092832.622500", "092833.082500", "092833.542500", "092834.002500", "092834.462500", "092834.922500", "092835.382500", "092835.842500", "092836.302500", "092836.762500", "092837.222500", "092837.682500", "092838.142500", "092838.602500", "092839.062500", "092839.522500", "092839.982500", "092840.442500", "092840.902500", "092841.362500", "092841.822500", "092842.282500", "092842.742500", "092843.202500", "092843.662500", "092844.122500", "092844.582500", "092845.042500", "092845.502500", "092845.962500", "092846.422500", "092846.882500", "092847.342500", "092847.802500", "092848.262500", "092848.722500", "092849.182500", "092849.642500", "092850.102500", "092850.562500", "092851.022500", "092851.482500", "092851.942500", "092852.402500", "092852.862500", "092853.322500", "092853.782500", "092854.242500", "092854.702500", "092855.162500", "092855.622500", "092856.082500", "092856.542500", "092857.002500", "092857.462500", "092857.922500", "092858.382500", "092858.842500", "092859.302500", "092859.762500", "092900.222500", "092900.682500", "092901.142500", "092901.602500", "092902.062500", "092902.522500", "092902.982500", "092903.442500", "092903.902500", "092904.362500", "092904.822500", "092905.282500", "092905.742500", "092906.202500", "092906.662500", "092907.122500", "092907.582500", "092908.042500", "092908.502500", "092908.962500", "092909.422500", "092909.882500", "092910.342500", "092910.802500", "092911.262500", "092911.722500", "092912.182500", "092912.642500", "092913.102500", "092913.562500", "092914.022500", "092914.482500", "092914.942500", "092915.402500", "092915.862500", "092916.322500", "092916.782500", "092917.242500", "092917.702500", "092918.162500", "092918.622500", "092919.082500", "092919.542500", "092920.002500", "092920.462500", "092920.922500", "092921.382500", "092921.842500", "092922.302500", "092922.762500", "092923.222500", "092923.682500", "092924.142500", "092924.602500", "092925.062500", "092925.522500", "092925.982500", "092926.442500", "092926.902500", "092927.362500", "092927.822500", "092928.282500", "092928.742500", "092929.202500", "092929.662500", "092930.122500", "092930.582500", "092931.042500", "092931.502500", "092931.962500", "092932.422500", "092932.882500", "092933.342500", "092933.802500", "092934.262500", "092934.722500", "092935.182500", "092935.642500", "092936.102500", "092936.562500", "092937.022500", "092937.482500", "092937.942500", "092938.402500", "092938.862500", "092939.322500", "092939.782500", "092940.242500", "092940.702500", "092941.162500", "092941.622500", "092942.082500", "092942.542500", "092943.002500", "092943.462500", "092943.922500", "092944.382500", "092944.842500", "092945.302500", "092945.762500", "092946.222500", "092946.682500", "092947.142500", "092947.602500", "092948.062500", "092948.522500", "092948.982500", "092949.442500", "092949.902500", "092950.362500", "092950.822500", "092951.282500", "092951.742500", "092952.202500", "092952.662500", "092953.122500", "092953.582500", "092954.042500", "092954.502500", "092954.962500", "092955.422500", "092955.882500", "092956.342500", "092956.802500", "092957.262500", "092957.722500", "092958.182500", "092958.642500", "092959.102500", "092959.562500", "093000.022500", "093000.482500", "093000.942500", "093001.402500", "093001.862500", "093002.322500", "093002.782500", "093003.242500", "093003.702500", "093004.162500", "093004.622500", "093005.082500", "093005.542500", "093006.002500", "093006.462500", "093006.922500", "093007.382500", "093007.842500", "093008.302500", "093008.762500", "093009.222500", "093009.682500", "093010.142500", "093010.602500", "093011.062500", "093011.522500", "093011.982500", "093012.442500", "093012.902500", "093013.362500", "093013.822500", "093014.282500", "093014.742500", "093015.202500", "093015.662500", "093016.122500", "093016.582500", "093017.042500", "093017.502500", "093017.962500", "093018.422500", "093018.882500", "093019.342500", "093019.802500", "093020.262500", "093020.722500", "093021.182500", "093021.642500", "093022.102500", "093022.562500", "093023.022500", "093023.482500", "093023.942500", "093024.402500", "093024.862500", "093025.322500", "093025.782500", "093026.242500", "093026.702500", "093027.162500", "093027.622500", "093028.082500", "093028.542500", "093029.002500", "093029.462500", "093029.922500", "093030.382500", "093030.842500", "093031.302500", "093031.762500", "093032.222500", "093032.682500", "093033.142500", "093033.602500", "093034.062500", "093034.522500", "093034.982500", "093035.442500", "093035.902500", "093036.362500", "093036.822500", "093037.282500", "093037.742500", "093038.202500", "093038.662500", "093039.122500", "093039.582500", "093040.042500", "093040.502500", "093040.962500", "093041.422500", "093041.882500", "093042.342500", "093042.802500", "093043.262500", "093043.722500", "093044.182500", "093044.642500", "093045.102500", "093045.562500", "093046.022500", "093046.482500", "093046.942500", "093047.402500", "093047.862500", "093048.322500", "093048.782500", "093049.242500", "093049.702500", "093050.162500", "093050.622500", "093051.082500", "093051.542500", "093052.002500", "093052.462500", "093052.922500", "093053.382500", "093053.842500", "093054.302500", "093054.762500", "093055.222500", "093055.682500", "093056.142500", "093056.602500", "093057.062500", "093057.522500", "093057.982500", "093058.442500", "093058.902500", "093059.362500", "093059.822500", "093100.282500", "093100.742500", "093101.202500", "093101.662500", "093102.122500", "093102.582500", "093103.042500", "093103.502500", "093103.962500", "093104.422500", "093104.882500", "093105.342500", "093105.802500", "093106.262500", "093106.722500", "093107.182500", "093107.642500", "093108.102500", "093108.562500", "093109.022500", "093109.482500", "093109.942500", "093110.402500", "093110.862500", "093111.322500", "093111.782500", "093112.242500", "093112.702500", "093113.162500", "093113.622500", "093114.082500", "093114.542500", "093115.002500", "093115.462500", "093115.922500", "093116.382500", "093116.842500", "093117.302500", "093117.762500", "093118.222500", "093118.682500", "093119.142500", "093119.602500", "093120.062500", "093120.522500", "093120.982500", "093121.442500", "093121.902500", "093122.362500", "093122.822500", "093123.282500", "093123.742500", "093124.202500", "093124.662500", "093125.122500", "093125.582500", "093126.042500", "093126.502500", "093126.962500", "093127.422500", "093127.882500", "093128.342500", "093128.802500", "093129.262500", "093129.722500", "093130.182500", "093130.642500", "093131.102500", "093131.562500", "093132.022500", "093132.482500", "093132.942500", "093133.402500", "093133.862500", "093134.322500", "093134.782500", "093135.242500", "093135.702500", "093136.162500", "093136.622500", "093137.082500", "093137.542500", "093138.002500", "093138.462500", "093138.922500", "093139.382500", "093139.842500", "093140.302500", "093140.762500", "093141.222500", "093141.682500", "093142.142500", "093142.602500", "093143.062500", "093143.522500", "093143.982500", "093144.442500", "093144.902500", "093145.362500", "093145.822500", "093146.282500", "093146.742500", "093147.202500", "093147.662500", "093148.122500", "093148.582500", "093149.042500", "093149.502500", "093149.962500", "093150.422500", "093150.882500", "093151.342500", "093151.802500", "093152.262500", "093152.722500", "093153.182500", "093153.642500", "093154.102500", "093154.562500", "093155.022500", "093155.482500", "093155.942500", "093156.402500", "093156.862500", "093157.322500", "093157.782500", "093158.242500", "093158.702500", "093159.162500", "093159.622500", "093200.082500", "093200.542500", "093201.002500", "093201.462500", "093201.922500", "093202.382500", "093202.842500", "093203.302500", "093203.762500", "093204.222500", "093204.682500", "093205.142500", "093205.602500", "093206.062500", "093206.522500", "093206.982500", "093207.442500", "093207.902500", "093208.362500", "093208.822500", "093209.282500", "093209.742500", "093210.202500", "093210.662500", "093211.122500", "093211.582500", "093212.042500", "093212.502500", "093212.962500", "093213.422500", "093213.882500", "093214.342500", "093214.802500", "093215.262500", "093215.722500", "093216.182500", "093216.642500", "093217.102500", "093217.562500", "093218.022500", "093218.482500", "093218.942500", "093219.402500", "093219.862500", "093220.322500", "093220.782500", "093221.242500", "093221.702500", "093222.162500", "093222.622500", "093223.082500", "093223.542500", "093224.002500", "093224.462500", "093224.922500", "093225.382500", "093225.842500", "093226.302500", "093226.762500", "093227.222500", "093227.682500", "093228.142500", "093228.602500", "093229.062500", "093229.522500", "093229.982500", "093230.442500", "093230.902500", "093231.362500", "093231.822500", "093232.282500", "093232.742500", "093233.202500", "093233.662500", "093234.122500", "093234.582500", "093235.042500", "093235.502500", "093235.962500", "093236.422500", "093236.882500", "093237.342500", "093237.802500", "093238.262500", "093238.722500", "093239.182500", "093239.642500", "093240.102500", "093240.562500", "093241.022500", "093241.482500", "093241.942500", "093242.402500", "093242.862500", "093243.322500"],
