{
  "AcquisitionMatrixPE": 82,
  "AcquisitionNumber": 1,
  "AcquisitionTime": "21:33:39.427500",
  "BandwidthPerPixelPhaseEncode": 24.888,
  "BaseResolution": 82,
  "BodyPartExamined": "BRAIN",
  "ConsistencyInfo": "N4_VE11E_LATEST_20181129",
  "ConversionSoftware": "dcm2niix",
  "ConversionSoftwareVersion": "v1.0.20201102",
  "DerivedVendorReportedEchoSpacing": 0.00049,
  "DeviceSerialNumber": "66112",
  "DwellTime": 2e-06,
  "EchoTime": 0.0272,
  "EchoTrainLength": 82,
  "EffectiveEchoSpacing": 0.00049,
  "FlipAngle": 44,
  "ImageComments": "Unaliased MB8/PE3",
  "ImageOrientationPatientDICOM": [0.999816, 0.00832887, 0.0172786, -0.00488608, 0.98168, -0.190473],
  "ImageType": [
    "ORIGINAL",
    "PRIMARY",
    "M",
    "MB",
    "ND",
    "NORM",
    "MOSAIC"
],
  "ImagingFrequency": 123.259,
  "InPlanePhaseEncodingDirectionDICOM": "COL",
  "InstitutionAddress": "Maynard 3,Hanover,NH,US,03755",
  "InstitutionName": "Dartmouth College - PBS",
  "InstitutionalDepartmentName": "Department",
  "MRAcquisitionType": "2D",
  "MagneticFieldStrength": 3,
  "Manufacturer": "Siemens",
  "ManufacturersModelName": "Prisma",
  "Modality": "MR",
  "MultibandAccelerationFactor": 8,
  "PartialFourier": 1,
  "PatientPosition": "HFS",
  "PercentPhaseFOV": 100,
  "PercentSampling": 100,
  "PhaseEncodingDirection": "j-",
  "PhaseEncodingSteps": 82,
  "PhaseResolution": 1,
  "PixelBandwidth": 3050,
  "ProcedureStepDescription": "Wager_Wager^1076_spacetop",
  "ProtocolName": "func_run-04_task-social_acq-ap-mb8",
  "PulseSequenceDetails": "%CustomerSeq%\\cmrr_mbep2d_bold",
  "ReceiveCoilActiveElements": "HEA;HEP",
  "ReceiveCoilName": "Head_32",
  "ReconMatrixPE": 82,
  "RepetitionTime": 0.46,
  "SAR": 0.0823094,
  "ScanOptions": "FS",
  "ScanningSequence": "EP",
  "SequenceName": "epfid2d1_82",
  "SequenceVariant": "SK\\SS",
  "SeriesDescription": "func_run-04_task-social_acq-ap-mb8",
  "SeriesNumber": 18,
  "ShimSetting": [4212, -7714, -7279, 223, -125, -265, -102, 103],
  "SliceThickness": 2.7,
  "SliceTiming": [0, 0.25, 0.0625, 0.315, 0.125, 0.3775, 0.1875, 0, 0.25, 0.0625, 0.315, 0.125, 0.3775, 0.1875, 0, 0.25, 0.0625, 0.315, 0.125, 0.3775, 0.1875, 0, 0.25, 0.0625, 0.315, 0.125, 0.3775, 0.1875, 0, 0.25, 0.0625, 0.315, 0.125, 0.3775, 0.1875, 0, 0.25, 0.0625, 0.315, 0.125, 0.3775, 0.1875, 0, 0.25, 0.0625, 0.315, 0.125, 0.3775, 0.1875, 0, 0.25, 0.0625, 0.315, 0.125, 0.3775, 0.1875],
  "SoftwareVersions": "syngo MR E11",
  "SpacingBetweenSlices": 2.7,
  "StationName": "AWP66112",
  "TaskName": "social",
  "TotalReadoutTime": 0.03969,
  "TxRefAmp": 240.42,
  "WipMemBlock": "aaca0892-d288-46ed-a73f-4eccc89fec88||Sequence: R016 ve11e/master r/434b28f1; Aug  7 2019 18:53:46 by eja",
  "dcmmeta_affine": [
    [-2.6824333667755127, -0.013108983635902405, 0.050080910325050354, 115.06657409667969],
    [-0.022345736622810364, 2.6337764263153076, -0.5139544010162354, -94.5119400024414],
    [0.04635722190141678, 0.5110250115394592, 2.6501588821411133, -116.87019348144531],
    [0.0, 0.0, 0.0, 1.0]
],
  "dcmmeta_reorient_transform": [
    [0.0, -1.0, 0.0, 81.0],
    [1.0, 0.0, 0.0, 0.0],
    [0.0, 0.0, 1.0, 0.0],
    [0.0, 0.0, 0.0, 1.0]
],
  "dcmmeta_shape": [82, 82, 56, 872],
  "dcmmeta_slice_dim": 2,
  "dcmmeta_version": 0.6,
  "global": {
    "const": {
      "AccessionNumber": "A004543",
      "AcquisitionMatrix": [82, 0, 0, 82],
      "AngioFlag": "N",
      "BitsAllocated": 16,
      "BitsStored": 16,
      "BodyPartExamined": "BRAIN",
      "Columns": 656,
      "EchoNumbers": 1,
      "EchoTime": 27.2,
      "EchoTrainLength": 82,
      "FlipAngle": 44.0,
      "HighBit": 15,
      "ImageOrientationPatient": [0.99981602305705, 0.00832886541776, 0.01727860061569, -0.0048860756894, 0.98168028295906, -0.1904729595344],
      "ImagePositionPatient": [-880.1008235364, -881.13101159703, 57.882490287851],
      "ImageType": [
        "ORIGINAL",
        "PRIMARY",
        "M",
        "MB",
        "ND",
        "NORM",
        "MOSAIC"
],
      "ImagedNucleus": "1H",
      "ImagingFrequency": 123.259104,
      "InPlanePhaseEncodingDirection": "COL",
      "MRAcquisitionType": "2D",
      "MagneticFieldStrength": 3.0,
      "Manufacturer": "SIEMENS",
      "ManufacturerModelName": "Prisma",
      "Modality": "MR",
      "NumberOfAverages": 1.0,
      "NumberOfPhaseEncodingSteps": 82,
      "PercentPhaseFieldOfView": 100.0,
      "PercentSampling": 100.0,
      "PerformedProcedureStepStartTime": "201207.315000",
      "PhotometricInterpretation": "MONOCHROME2",
      "PixelBandwidth": 3050.0,
      "PixelRepresentation": 0,
      "PixelSpacing": [2.6829268932343, 2.6829268932343],
      "ProtocolName": "func_run-04_task-social_acq-ap-mb8",
      "RepetitionTime": 460.0,
      "Rows": 656,
      "SAR": 0.08230940800553,
      "SamplesPerPixel": 1,
      "ScanOptions": "FS",
      "ScanningSequence": "EP",
      "SequenceName": "epfid2d1_82",
      "SequenceVariant": [
        "SK",
        "SS"
],
      "SeriesDescription": "func_run-04_task-social_acq-ap-mb8",
      "SeriesNumber": 18,
      "SeriesTime": "213351.824000",
      "SliceLocation": -94.587827144775,
      "SliceThickness": 2.7000000476837,
      "SmallestImagePixelValue": 0,
      "SoftwareVersions": "syngo MR E11",
      "SpacingBetweenSlices": 2.6999999642149,
      "SpecificCharacterSet": "ISO_IR 100",
      "StudyID": "2",
      "StudyTime": "201207.245000",
      "TransmitCoilName": "Body",
      "VariableFlipAngleFlag": "N",
      "WindowCenterWidthExplanation": "Algo1"
    },
    "slices": {}
  },
  "time": {
    "samples": {
      "AcquisitionNumber": [1, 2, 3, 4, 5, 6, 7, 8, 9, 10, 11, 12, 13, 14, 15, 16, 17, 18, 19, 20, 21, 22, 23, 24, 25, 26, 27, 28, 29, 30, 31, 32, 33, 34, 35, 36, 37, 38, 39, 40, 41, 42, 43, 44, 45, 46, 47, 48, 49, 50, 51, 52, 53, 54, 55, 56, 57, 58, 59, 60, 61, 62, 63, 64, 65, 66, 67, 68, 69, 70, 71, 72, 73, 74, 75, 76, 77, 78, 79, 80, 81, 82, 83, 84, 85, 86, 87, 88, 89, 90, 91, 92, 93, 94, 95, 96, 97, 98, 99, 100, 101, 102, 103, 104, 105, 106, 107, 108, 109, 110, 111, 112, 113, 114, 115, 116, 117, 118, 119, 120, 121, 122, 123, 124, 125, 126, 127, 128, 129, 130, 131, 132, 133, 134, 135, 136, 137, 138, 139, 140, 141, 142, 143, 144, 145, 146, 147, 148, 149, 150, 151, 152, 153, 154, 155, 156, 157, 158, 159, 160, 161, 162, 163, 164, 165, 166, 167, 168, 169, 170, 171, 172, 173, 174, 175, 176, 177, 178, 179, 180, 181, 182, 183, 184, 185, 186, 187, 188, 189, 190, 191, 192, 193, 194, 195, 196, 197, 198, 199, 200, 201, 202, 203, 204, 205, 206, 207, 208, 209, 210, 211, 212, 213, 214, 215, 216, 217, 218, 219, 220, 221, 222, 223, 224, 225, 226, 227, 228, 229, 230, 231, 232, 233, 234, 235, 236, 237, 238, 239, 240, 241, 242, 243, 244, 245, 246, 247, 248, 249, 250, 251, 252, 253, 254, 255, 256, 257, 258, 259, 260, 261, 262, 263, 264, 265, 266, 267, 268, 269, 270, 271, 272, 273, 274, 275, 276, 277, 278, 279, 280, 281, 282, 283, 284, 285, 286, 287, 288, 289, 290, 291, 292, 293, 294, 295, 296, 297, 298, 299, 300, 301, 302, 303, 304, 305, 306, 307, 308, 309, 310, 311, 312, 313, 314, 315, 316, 317, 318, 319, 320, 321, 322, 323, 324, 325, 326, 327, 328, 329, 330, 331, 332, 333, 334, 335, 336, 337, 338, 339, 340, 341, 342, 343, 344, 345, 346, 347, 348, 349, 350, 351, 352, 353, 354, 355, 356, 357, 358, 359, 360, 361, 362, 363, 364, 365, 366, 367, 368, 369, 370, 371, 372, 373, 374, 375, 376, 377, 378, 379, 380, 381, 382, 383, 384, 385, 386, 387, 388, 389, 390, 391, 392, 393, 394, 395, 396, 397, 398, 399, 400, 401, 402, 403, 404, 405, 406, 407, 408, 409, 410, 411, 412, 413, 414, 415, 416, 417, 418, 419, 420, 421, 422, 423, 424, 425, 426, 427, 428, 429, 430, 431, 432, 433, 434, 435, 436, 437, 438, 439, 440, 441, 442, 443, 444, 445, 446, 447, 448, 449, 450, 451, 452, 453, 454, 455, 456, 457, 458, 459, 460, 461, 462, 463, 464, 465, 466, 467, 468, 469, 470, 471, 472, 473, 474, 475, 476, 477, 478, 479, 480, 481, 482, 483, 484, 485, 486, 487, 488, 489, 490, 491, 492, 493, 494, 495, 496, 497, 498, 499, 500, 501, 502, 503, 504, 505, 506, 507, 508, 509, 510, 511, 512, 513, 514, 515, 516, 517, 518, 519, 520, 521, 522, 523, 524, 525, 526, 527, 528, 529, 530, 531, 532, 533, 534, 535, 536, 537, 538, 539, 540, 541, 542, 543, 544, 545, 546, 547, 548, 549, 550, 551, 552, 553, 554, 555, 556, 557, 558, 559, 560, 561, 562, 563, 564, 565, 566, 567, 568, 569, 570, 571, 572, 573, 574, 575, 576, 577, 578, 579, 580, 581, 582, 583, 584, 585, 586, 587, 588, 589, 590, 591, 592, 593, 594, 595, 596, 597, 598, 599, 600, 601, 602, 603, 604, 605, 606, 607, 608, 609, 610, 611, 612, 613, 614, 615, 616, 617, 618, 619, 620, 621, 622, 623, 624, 625, 626, 627, 628, 629, 630, 631, 632, 633, 634, 635, 636, 637, 638, 639, 640, 641, 642, 643, 644, 645, 646, 647, 648, 649, 650, 651, 652, 653, 654, 655, 656, 657, 658, 659, 660, 661, 662, 663, 664, 665, 666, 667, 668, 669, 670, 671, 672, 673, 674, 675, 676, 677, 678, 679, 680, 681, 682, 683, 684, 685, 686, 687, 688, 689, 690, 691, 692, 693, 694, 695, 696, 697, 698, 699, 700, 701, 702, 703, 704, 705, 706, 707, 708, 709, 710, 711, 712, 713, 714, 715, 716, 717, 718, 719, 720, 721, 722, 723, 724, 725, 726, 727, 728, 729, 730, 731, 732, 733, 734, 735, 736, 737, 738, 739, 740, 741, 742, 743, 744, 745, 746, 747, 748, 749, 750, 751, 752, 753, 754, 755, 756, 757, 758, 759, 760, 761, 762, 763, 764, 765, 766, 767, 768, 769, 770, 771, 772, 773, 774, 775, 776, 777, 778, 779, 780, 781, 782, 783, 784, 785, 786, 787, 788, 789, 790, 791, 792, 793, 794, 795, 796, 797, 798, 799, 800, 801, 802, 803, 804, 805, 806, 807, 808, 809, 810, 811, 812, 813, 814, 815, 816, 817, 818, 819, 820, 821, 822, 823, 824, 825, 826, 827, 828, 829, 830, 831, 832, 833, 834, 835, 836, 837, 838, 839, 840, 841, 842, 843, 844, 845, 846, 847, 848, 849, 850, 851, 852, 853, 854, 855, 856, 857, 858, 859, 860, 861, 862, 863, 864, 865, 866, 867, 868, 869, 870, 871, 872],
      "AcquisitionTime": ["213339.427500", "213339.887500", "213340.347500", "213340.807500", "213341.267500", "213341.727500", "213342.187500", "213342.647500", "213343.107500", "213343.567500", "213344.027500", "213344.487500", "213344.947500", "213345.407500", "213345.867500", "213346.327500", "213346.787500", "213347.247500", "213347.707500", "213348.167500", "213348.627500", "213349.087500", "213349.547500", "213350.007500", "213350.467500", "213350.927500", "213351.387500", "213351.847500", "213352.307500", "213352.767500", "213353.227500", "213353.687500", "213354.147500", "213354.607500", "213355.067500", "213355.527500", "213355.987500", "213356.447500", "213356.907500", "213357.367500", "213357.827500", "213358.287500", "213358.747500", "213359.207500", "213359.667500", "213400.127500", "213400.587500", "213401.047500", "213401.507500", "213401.967500", "213402.427500", "213402.887500", "213403.347500", "213403.807500", "213404.267500", "213404.727500", "213405.187500", "213405.647500", "213406.107500", "213406.567500", "213407.027500", "213407.487500", "213407.947500", "213408.407500", "213408.867500", "213409.327500", "213409.787500", "213410.247500", "213410.707500", "213411.167500", "213411.627500", "213412.087500", "213412.547500", "213413.007500", "213413.467500", "213413.927500", "213414.387500", "213414.847500", "213415.307500", "213415.767500", "213416.227500", "213416.687500", "213417.147500", "213417.607500", "213418.067500", "213418.527500", "213418.987500", "213419.447500", "213419.907500", "213420.367500", "213420.827500", "213421.287500", "213421.747500", "213422.207500", "213422.667500", "213423.127500", "213423.587500", "213424.047500", "213424.507500", "213424.967500", "213425.427500", "213425.887500", "213426.347500", "213426.807500", "213427.267500", "213427.727500", "213428.187500", "213428.647500", "213429.107500", "213429.567500", "213430.027500", "213430.487500", "213430.947500", "213431.407500", "213431.867500", "213432.327500", "213432.787500", "213433.247500", "213433.707500", "213434.167500", "213434.627500", "213435.087500", "213435.547500", "213436.007500", "213436.467500", "213436.927500", "213437.387500", "213437.847500", "213438.307500", "213438.767500", "213439.227500", "213439.687500", "213440.147500", "213440.607500", "213441.067500", "213441.527500", "213441.987500", "213442.447500", "213442.907500", "213443.367500", "213443.827500", "213444.287500", "213444.747500", "213445.207500", "213445.667500", "213446.127500", "213446.587500", "213447.047500", "213447.507500", "213447.967500", "213448.427500", "213448.887500", "213449.347500", "213449.807500", "213450.267500", "213450.727500", "213451.187500", "213451.647500", "213452.107500", "213452.567500", "213453.027500", "213453.487500", "213453.947500", "213454.407500", "213454.867500", "213455.327500", "213455.787500", "213456.247500", "213456.707500", "213457.167500", "213457.627500", "213458.087500", "213458.547500", "213459.007500", "213459.467500", "213459.927500", "213500.387500", "213500.847500", "213501.307500", "213501.767500", "213502.227500", "213502.687500", "213503.147500", "213503.607500", "213504.067500", "213504.527500", "213504.987500", "213505.447500", "213505.907500", "213506.367500", "213506.827500", "213507.287500", "213507.747500", "213508.207500", "213508.667500", "213509.127500", "213509.587500", "213510.047500", "213510.507500", "213510.967500", "213511.427500", "213511.887500", "213512.347500", "213512.807500", "213513.267500", "213513.727500", "213514.187500", "213514.647500", "213515.107500", "213515.567500", "213516.027500", "213516.487500", "213516.947500", "213517.407500", "213517.867500", "213518.327500", "213518.787500", "213519.247500", "213519.707500", "213520.167500", "213520.627500", "213521.087500", "213521.547500", "213522.007500", "213522.467500", "213522.927500", "213523.387500", "213523.847500", "213524.307500", "213524.767500", "213525.227500", "213525.687500", "213526.147500", "213526.607500", "213527.067500", "213527.527500", "213527.987500", "213528.447500", "213528.907500", "213529.367500", "213529.827500", "213530.287500", "213530.747500", "213531.207500", "213531.667500", "213532.127500", "213532.587500", "213533.047500", "213533.507500", "213533.967500", "213534.427500", "213534.887500", "213535.347500", "213535.807500", "213536.267500", "213536.727500", "213537.187500", "213537.647500", "213538.107500", "213538.567500", "213539.027500", "213539.487500", "213539.947500", "213540.407500", "213540.867500", "213541.327500", "213541.787500", "213542.247500", "213542.707500", "213543.167500", "213543.627500", "213544.087500", "213544.547500", "213545.007500", "213545.467500", "213545.927500", "213546.387500", "213546.847500", "213547.307500", "213547.767500", "213548.227500", "213548.687500", "213549.147500", "213549.607500", "213550.067500", "213550.527500", "213550.987500", "213551.447500", "213551.907500", "213552.367500", "213552.827500", "213553.287500", "213553.747500", "213554.207500", "213554.667500", "213555.127500", "213555.587500", "213556.047500", "213556.507500", "213556.967500", "213557.427500", "213557.887500", "213558.347500", "213558.807500", "213559.267500", "213559.727500", "213600.187500", "213600.647500", "213601.107500", "213601.567500", "213602.027500", "213602.487500", "213602.947500", "213603.407500", "213603.867500", "213604.327500", "213604.787500", "213605.247500", "213605.707500", "213606.167500", "213606.627500", "213607.087500", "213607.547500", "213608.007500", "213608.467500", "213608.927500", "213609.387500", "213609.847500", "213610.307500", "213610.767500", "213611.227500", "213611.687500", "213612.147500", "213612.607500", "213613.067500", "213613.527500", "213613.987500", "213614.447500", "213614.907500", "213615.367500", "213615.827500", "213616.287500", "213616.747500", "213617.207500", "213617.667500", "213618.127500", "213618.587500", "213619.047500", "213619.507500", "213619.967500", "213620.427500", "213620.887500", "213621.347500", "213621.807500", "213622.267500", "213622.727500", "213623.187500", "213623.647500", "213624.107500", "213624.567500", "213625.027500", "213625.487500", "213625.947500", "213626.407500", "213626.867500", "213627.327500", "213627.787500", "213628.247500", "213628.707500", "213629.167500", "213629.627500", "213630.087500", "213630.547500", "213631.007500", "213631.467500", "213631.927500", "213632.387500", "213632.847500", "213633.307500", "213633.767500", "213634.227500", "213634.687500", "213635.147500", "213635.607500", "213636.067500", "213636.527500", "213636.987500", "213637.447500", "213637.907500", "213638.367500", "213638.827500", "213639.287500", "213639.747500", "213640.207500", "213640.667500", "213641.127500", "213641.587500", "213642.047500", "213642.507500", "213642.967500", "213643.427500", "213643.887500", "213644.347500", "213644.807500", "213645.267500", "213645.727500", "213646.187500", "213646.647500", "213647.107500", "213647.567500", "213648.027500", "213648.487500", "213648.947500", "213649.407500", "213649.867500", "213650.327500", "213650.787500", "213651.247500", "213651.707500", "213652.167500", "213652.627500", "213653.087500", "213653.547500", "213654.007500", "213654.467500", "213654.927500", "213655.387500", "213655.847500", "213656.307500", "213656.767500", "213657.227500", "213657.687500", "213658.147500", "213658.607500", "213659.067500", "213659.527500", "213659.987500", "213700.447500", "213700.907500", "213701.367500", "213701.827500", "213702.287500", "213702.747500", "213703.207500", "213703.667500", "213704.127500", "213704.587500", "213705.047500", "213705.507500", "213705.967500", "213706.427500", "213706.887500", "213707.347500", "213707.807500", "213708.267500", "213708.727500", "213709.187500", "213709.647500", "213710.107500", "213710.567500", "213711.027500", "213711.487500", "213711.947500", "213712.407500", "213712.867500", "213713.327500", "213713.787500", "213714.247500", "213714.707500", "213715.167500", "213715.627500", "213716.087500", "213716.547500", "213717.007500", "213717.467500", "213717.927500", "213718.387500", "213718.847500", "213719.307500", "213719.767500", "213720.227500", "213720.687500", "213721.147500", "213721.607500", "213722.067500", "213722.527500", "213722.987500", "213723.447500", "213723.907500", "213724.367500", "213724.827500", "213725.287500", "213725.747500", "213726.207500", "213726.667500", "213727.127500", "213727.587500", "213728.047500", "213728.507500", "213728.967500", "213729.427500", "213729.887500", "213730.347500", "213730.807500", "213731.267500", "213731.727500", "213732.187500", "213732.647500", "213733.107500", "213733.567500", "213734.027500", "213734.487500", "213734.947500", "213735.407500", "213735.867500", "213736.327500", "213736.787500", "213737.247500", "213737.707500", "213738.167500", "213738.627500", "213739.087500", "213739.547500", "213740.007500", "213740.467500", "213740.927500", "213741.387500", "213741.847500", "213742.307500", "213742.767500", "213743.227500", "213743.687500", "213744.147500", "213744.607500", "213745.067500", "213745.527500", "213745.987500", "213746.447500", "213746.907500", "213747.367500", "213747.827500", "213748.287500", "213748.747500", "213749.207500", "213749.667500", "213750.127500", "213750.587500", "213751.047500", "213751.507500", "213751.967500", "213752.427500", "213752.887500", "213753.347500", "213753.807500", "213754.267500", "213754.727500", "213755.187500", "213755.647500", "213756.107500", "213756.567500", "213757.027500", "213757.487500", "213757.947500", "213758.407500", "213758.867500", "213759.327500", "213759.787500", "213800.247500", "213800.707500", "213801.167500", "213801.627500", "213802.087500", "213802.547500", "213803.007500", "213803.467500", "213803.927500", "213804.387500", "213804.847500", "213805.307500", "213805.767500", "213806.227500", "213806.687500", "213807.147500", "213807.607500", "213808.067500", "213808.527500", "213808.987500", "213809.447500", "213809.907500", "213810.367500", "213810.827500", "213811.287500", "213811.747500", "213812.207500", "213812.667500", "213813.127500", "213813.587500", "213814.047500", "213814.507500", "213814.967500", "213815.427500", "213815.887500", "213816.347500", "213816.807500", "213817.267500", "213817.727500", "213818.187500", "213818.647500", "213819.107500", "213819.567500", "213820.027500", "213820.487500", "213820.947500", "213821.407500", "213821.867500", "213822.327500", "213822.787500", "213823.247500", "213823.707500", "213824.167500", "213824.627500", "213825.087500", "213825.547500", "213826.007500", "213826.467500", "213826.927500", "213827.387500", "213827.847500", "213828.307500", "213828.767500", "213829.227500", "213829.687500", "213830.147500", "213830.607500", "213831.067500", "213831.527500", "213831.987500", "213832.447500", "213832.907500", "213833.367500", "213833.827500", "213834.287500", "213834.747500", "213835.207500", "213835.667500", "213836.127500", "213836.587500", "213837.047500", "213837.507500", "213837.967500", "213838.427500", "213838.887500", "213839.347500", "213839.807500", "213840.267500", "213840.727500", "213841.187500", "213841.647500", "213842.107500", "213842.567500", "213843.027500", "213843.487500", "213843.947500", "213844.407500", "213844.867500", "213845.327500", "213845.787500", "213846.247500", "213846.707500", "213847.167500", "213847.627500", "213848.087500", "213848.547500", "213849.007500", "213849.467500", "213849.927500", "213850.387500", "213850.847500", "213851.307500", "213851.767500", "213852.227500", "213852.687500", "213853.147500", "213853.607500", "213854.067500", "213854.527500", "213854.987500", "213855.447500", "213855.907500", "213856.367500", "213856.827500", "213857.287500", "213857.747500", "213858.207500", "213858.667500", "213859.127500", "213859.587500", "213900.047500", "213900.507500", "213900.967500", "213901.427500", "213901.887500", "213902.347500", "213902.807500", "213903.267500", "213903.727500", "213904.187500", "213904.647500", "213905.107500", "213905.567500", "213906.027500", "213906.487500", "213906.947500", "213907.407500", "213907.867500", "213908.327500", "213908.787500", "213909.247500", "213909.707500", "213910.167500", "213910.627500", "213911.087500", "213911.547500", "213912.007500", "213912.467500", "213912.927500", "213913.387500", "213913.847500", "213914.307500", "213914.767500", "213915.227500", "213915.687500", "213916.147500", "213916.607500", "213917.067500", "213917.527500", "213917.987500", "213918.447500", "213918.907500", "213919.367500", "213919.827500", "213920.287500", "213920.747500", "213921.207500", "213921.667500", "213922.127500", "213922.587500", "213923.047500", "213923.507500", "213923.967500", "213924.427500", "213924.887500", "213925.347500", "213925.807500", "213926.267500", "213926.727500", "213927.187500", "213927.647500", "213928.107500", "213928.567500", "213929.027500", "213929.487500", "213929.947500", "213930.407500", "213930.867500", "213931.327500", "213931.787500", "213932.247500", "213932.707500", "213933.167500", "213933.627500", "213934.087500", "213934.547500", "213935.007500", "213935.467500", "213935.927500", "213936.387500", "213936.847500", "213937.307500", "213937.767500", "213938.227500", "213938.687500", "213939.147500", "213939.607500", "213940.067500", "213940.527500", "213940.987500", "213941.447500", "213941.907500", "213942.367500", "213942.827500", "213943.287500", "213943.747500", "213944.207500", "213944.667500", "213945.127500", "213945.587500", "213946.047500", "213946.507500", "213946.967500", "213947.427500", "213947.887500", "213948.347500", "213948.807500", "213949.267500", "213949.727500", "213950.187500", "213950.647500", "213951.107500", "213951.567500", "213952.027500", "213952.487500", "213952.947500", "213953.407500", "213953.867500", "213954.327500", "213954.787500", "213955.247500", "213955.707500", "213956.167500", "213956.627500", "213957.087500", "213957.547500", "213958.007500", "213958.467500", "213958.927500", "213959.387500", "213959.847500", "214000.307500", "214000.767500", "214001.227500", "214001.687500", "214002.147500", "214002.607500", "214003.067500", "214003.527500", "214003.987500", "214004.447500", "214004.907500", "214005.367500", "214005.827500", "214006.287500", "214006.747500", "214007.207500", "214007.667500", "214008.127500", "214008.587500", "214009.047500", "214009.507500", "214009.967500", "214010.427500", "214010.887500", "214011.347500", "214011.807500", "214012.267500", "214012.727500", "214013.187500", "214013.647500", "214014.107500", "214014.567500", "214015.027500", "214015.487500", "214015.947500", "214016.407500", "214016.867500", "214017.327500", "214017.787500", "214018.247500", "214018.707500", "214019.167500", "214019.627500", "214020.087500"],
