{
  "AcquisitionMatrixPE": 82,
  "AcquisitionNumber": 1,
  "AcquisitionTime": "21:26:35.985000",
  "BandwidthPerPixelPhaseEncode": 24.888,
  "BaseResolution": 82,
  "BodyPartExamined": "BRAIN",
  "ConsistencyInfo": "N4_VE11E_LATEST_20181129",
  "ConversionSoftware": "dcm2niix",
  "ConversionSoftwareVersion": "v1.0.20201102",
  "DerivedVendorReportedEchoSpacing": 0.00049,
  "DeviceSerialNumber": "66112",
  "DwellTime": 2e-06,
  "EchoTime": 0.0272,
  "EchoTrainLength": 82,
  "EffectiveEchoSpacing": 0.00049,
  "FlipAngle": 44,
  "ImageComments": "Unaliased MB8/PE3",
  "ImageOrientationPatientDICOM": [0.999816, 0.00832887, 0.0172786, -0.00488608, 0.98168, -0.190473],
  "ImageType": [
    "ORIGINAL",
    "PRIMARY",
    "M",
    "MB",
    "ND",
    "NORM",
    "MOSAIC"
],
  "ImagingFrequency": 123.259,
  "InPlanePhaseEncodingDirectionDICOM": "COL",
  "InstitutionAddress": "Maynard 3,Hanover,NH,US,03755",
  "InstitutionName": "Dartmouth College - PBS",
  "InstitutionalDepartmentName": "Department",
  "MRAcquisitionType": "2D",
  "MagneticFieldStrength": 3,
  "Manufacturer": "Siemens",
  "ManufacturersModelName": "Prisma",
  "Modality": "MR",
  "MultibandAccelerationFactor": 8,
  "PartialFourier": 1,
  "PatientPosition": "HFS",
  "PercentPhaseFOV": 100,
  "PercentSampling": 100,
  "PhaseEncodingDirection": "j-",
  "PhaseEncodingSteps": 82,
  "PhaseResolution": 1,
  "PixelBandwidth": 3050,
  "ProcedureStepDescription": "Wager_Wager^1076_spacetop",
  "ProtocolName": "func_run-03_task-social_acq-ap-mb8",
  "PulseSequenceDetails": "%CustomerSeq%\\cmrr_mbep2d_bold",
  "ReceiveCoilActiveElements": "HEA;HEP",
  "ReceiveCoilName": "Head_32",
  "ReconMatrixPE": 82,
  "RepetitionTime": 0.46,
  "SAR": 0.0823094,
  "ScanOptions": "FS",
  "ScanningSequence": "EP",
  "SequenceName": "epfid2d1_82",
  "SequenceVariant": "SK\\SS",
  "SeriesDescription": "func_run-03_task-social_acq-ap-mb8",
  "SeriesNumber": 16,
  "ShimSetting": [4212, -7714, -7279, 223, -125, -265, -102, 103],
  "SliceThickness": 2.7,
  "SliceTiming": [0, 0.2525, 0.0625, 0.315, 0.1275, 0.3775, 0.19, 0, 0.2525, 0.0625, 0.315, 0.1275, 0.3775, 0.19, 0, 0.2525, 0.0625, 0.315, 0.1275, 0.3775, 0.19, 0, 0.2525, 0.0625, 0.315, 0.1275, 0.3775, 0.19, 0, 0.2525, 0.0625, 0.315, 0.1275, 0.3775, 0.19, 0, 0.2525, 0.0625, 0.315, 0.1275, 0.3775, 0.19, 0, 0.2525, 0.0625, 0.315, 0.1275, 0.3775, 0.19, 0, 0.2525, 0.0625, 0.315, 0.1275, 0.3775, 0.19],
  "SoftwareVersions": "syngo MR E11",
  "SpacingBetweenSlices": 2.7,
  "StationName": "AWP66112",
  "TaskName": "social",
  "TotalReadoutTime": 0.03969,
  "TxRefAmp": 240.42,
  "WipMemBlock": "4dc92a97-eac5-436e-bcd8-c6a7a3f29ad7||Sequence: R016 ve11e/master r/434b28f1; Aug  7 2019 18:53:46 by eja",
  "dcmmeta_affine": [
    [-2.6824333667755127, -0.013108983635902405, 0.050080910325050354, 115.06657409667969],
    [-0.022345736622810364, 2.6337764263153076, -0.5139544010162354, -94.5119400024414],
    [0.04635722190141678, 0.5110250115394592, 2.6501588821411133, -116.87019348144531],
    [0.0, 0.0, 0.0, 1.0]
],
  "dcmmeta_reorient_transform": [
    [0.0, -1.0, 0.0, 81.0],
    [1.0, 0.0, 0.0, 0.0],
    [0.0, 0.0, 1.0, 0.0],
    [0.0, 0.0, 0.0, 1.0]
],
  "dcmmeta_shape": [82, 82, 56, 872],
  "dcmmeta_slice_dim": 2,
  "dcmmeta_version": 0.6,
  "global": {
    "const": {
      "AccessionNumber": "A004543",
      "AcquisitionMatrix": [82, 0, 0, 82],
      "AngioFlag": "N",
      "BitsAllocated": 16,
      "BitsStored": 16,
      "BodyPartExamined": "BRAIN",
      "Columns": 656,
      "EchoNumbers": 1,
      "EchoTime": 27.2,
      "EchoTrainLength": 82,
      "FlipAngle": 44.0,
      "HighBit": 15,
      "ImageOrientationPatient": [0.99981602305705, 0.00832886541776, 0.01727860061569, -0.0048860756894, 0.98168028295906, -0.1904729595344],
      "ImagePositionPatient": [-880.1008235364, -881.13101159703, 57.882490287851],
      "ImageType": [
        "ORIGINAL",
        "PRIMARY",
        "M",
        "MB",
        "ND",
        "NORM",
        "MOSAIC"
],
      "ImagedNucleus": "1H",
      "ImagingFrequency": 123.259103,
      "InPlanePhaseEncodingDirection": "COL",
      "MRAcquisitionType": "2D",
      "MagneticFieldStrength": 3.0,
      "Manufacturer": "SIEMENS",
      "ManufacturerModelName": "Prisma",
      "Modality": "MR",
      "NumberOfAverages": 1.0,
      "NumberOfPhaseEncodingSteps": 82,
      "PercentPhaseFieldOfView": 100.0,
      "PercentSampling": 100.0,
      "PerformedProcedureStepStartTime": "201207.315000",
      "PhotometricInterpretation": "MONOCHROME2",
      "PixelBandwidth": 3050.0,
      "PixelRepresentation": 0,
      "PixelSpacing": [2.6829268932343, 2.6829268932343],
      "ProtocolName": "func_run-03_task-social_acq-ap-mb8",
      "RepetitionTime": 460.0,
      "Rows": 656,
      "SAR": 0.08230940800553,
      "SamplesPerPixel": 1,
      "ScanOptions": "FS",
      "ScanningSequence": "EP",
      "SequenceName": "epfid2d1_82",
      "SequenceVariant": [
        "SK",
        "SS"
],
      "SeriesDescription": "func_run-03_task-social_acq-ap-mb8",
      "SeriesNumber": 16,
      "SeriesTime": "212651.746000",
      "SliceLocation": -94.587827144775,
      "SliceThickness": 2.7000000476837,
      "SmallestImagePixelValue": 0,
      "SoftwareVersions": "syngo MR E11",
      "SpacingBetweenSlices": 2.6999999642149,
      "SpecificCharacterSet": "ISO_IR 100",
      "StudyID": "2",
      "StudyTime": "201207.245000",
      "TransmitCoilName": "Body",
      "VariableFlipAngleFlag": "N",
      "WindowCenterWidthExplanation": "Algo1"
    },
    "slices": {}
  },
  "time": {
    "samples": {
      "AcquisitionNumber": [1, 2, 3, 4, 5, 6, 7, 8, 9, 10, 11, 12, 13, 14, 15, 16, 17, 18, 19, 20, 21, 22, 23, 24, 25, 26, 27, 28, 29, 30, 31, 32, 33, 34, 35, 36, 37, 38, 39, 40, 41, 42, 43, 44, 45, 46, 47, 48, 49, 50, 51, 52, 53, 54, 55, 56, 57, 58, 59, 60, 61, 62, 63, 64, 65, 66, 67, 68, 69, 70, 71, 72, 73, 74, 75, 76, 77, 78, 79, 80, 81, 82, 83, 84, 85, 86, 87, 88, 89, 90, 91, 92, 93, 94, 95, 96, 97, 98, 99, 100, 101, 102, 103, 104, 105, 106, 107, 108, 109, 110, 111, 112, 113, 114, 115, 116, 117, 118, 119, 120, 121, 122, 123, 124, 125, 126, 127, 128, 129, 130, 131, 132, 133, 134, 135, 136, 137, 138, 139, 140, 141, 142, 143, 144, 145, 146, 147, 148, 149, 150, 151, 152, 153, 154, 155, 156, 157, 158, 159, 160, 161, 162, 163, 164, 165, 166, 167, 168, 169, 170, 171, 172, 173, 174, 175, 176, 177, 178, 179, 180, 181, 182, 183, 184, 185, 186, 187, 188, 189, 190, 191, 192, 193, 194, 195, 196, 197, 198, 199, 200, 201, 202, 203, 204, 205, 206, 207, 208, 209, 210, 211, 212, 213, 214, 215, 216, 217, 218, 219, 220, 221, 222, 223, 224, 225, 226, 227, 228, 229, 230, 231, 232, 233, 234, 235, 236, 237, 238, 239, 240, 241, 242, 243, 244, 245, 246, 247, 248, 249, 250, 251, 252, 253, 254, 255, 256, 257, 258, 259, 260, 261, 262, 263, 264, 265, 266, 267, 268, 269, 270, 271, 272, 273, 274, 275, 276, 277, 278, 279, 280, 281, 282, 283, 284, 285, 286, 287, 288, 289, 290, 291, 292, 293, 294, 295, 296, 297, 298, 299, 300, 301, 302, 303, 304, 305, 306, 307, 308, 309, 310, 311, 312, 313, 314, 315, 316, 317, 318, 319, 320, 321, 322, 323, 324, 325, 326, 327, 328, 329, 330, 331, 332, 333, 334, 335, 336, 337, 338, 339, 340, 341, 342, 343, 344, 345, 346, 347, 348, 349, 350, 351, 352, 353, 354, 355, 356, 357, 358, 359, 360, 361, 362, 363, 364, 365, 366, 367, 368, 369, 370, 371, 372, 373, 374, 375, 376, 377, 378, 379, 380, 381, 382, 383, 384, 385, 386, 387, 388, 389, 390, 391, 392, 393, 394, 395, 396, 397, 398, 399, 400, 401, 402, 403, 404, 405, 406, 407, 408, 409, 410, 411, 412, 413, 414, 415, 416, 417, 418, 419, 420, 421, 422, 423, 424, 425, 426, 427, 428, 429, 430, 431, 432, 433, 434, 435, 436, 437, 438, 439, 440, 441, 442, 443, 444, 445, 446, 447, 448, 449, 450, 451, 452, 453, 454, 455, 456, 457, 458, 459, 460, 461, 462, 463, 464, 465, 466, 467, 468, 469, 470, 471, 472, 473, 474, 475, 476, 477, 478, 479, 480, 481, 482, 483, 484, 485, 486, 487, 488, 489, 490, 491, 492, 493, 494, 495, 496, 497, 498, 499, 500, 501, 502, 503, 504, 505, 506, 507, 508, 509, 510, 511, 512, 513, 514, 515, 516, 517, 518, 519, 520, 521, 522, 523, 524, 525, 526, 527, 528, 529, 530, 531, 532, 533, 534, 535, 536, 537, 538, 539, 540, 541, 542, 543, 544, 545, 546, 547, 548, 549, 550, 551, 552, 553, 554, 555, 556, 557, 558, 559, 560, 561, 562, 563, 564, 565, 566, 567, 568, 569, 570, 571, 572, 573, 574, 575, 576, 577, 578, 579, 580, 581, 582, 583, 584, 585, 586, 587, 588, 589, 590, 591, 592, 593, 594, 595, 596, 597, 598, 599, 600, 601, 602, 603, 604, 605, 606, 607, 608, 609, 610, 611, 612, 613, 614, 615, 616, 617, 618, 619, 620, 621, 622, 623, 624, 625, 626, 627, 628, 629, 630, 631, 632, 633, 634, 635, 636, 637, 638, 639, 640, 641, 642, 643, 644, 645, 646, 647, 648, 649, 650, 651, 652, 653, 654, 655, 656, 657, 658, 659, 660, 661, 662, 663, 664, 665, 666, 667, 668, 669, 670, 671, 672, 673, 674, 675, 676, 677, 678, 679, 680, 681, 682, 683, 684, 685, 686, 687, 688, 689, 690, 691, 692, 693, 694, 695, 696, 697, 698, 699, 700, 701, 702, 703, 704, 705, 706, 707, 708, 709, 710, 711, 712, 713, 714, 715, 716, 717, 718, 719, 720, 721, 722, 723, 724, 725, 726, 727, 728, 729, 730, 731, 732, 733, 734, 735, 736, 737, 738, 739, 740, 741, 742, 743, 744, 745, 746, 747, 748, 749, 750, 751, 752, 753, 754, 755, 756, 757, 758, 759, 760, 761, 762, 763, 764, 765, 766, 767, 768, 769, 770, 771, 772, 773, 774, 775, 776, 777, 778, 779, 780, 781, 782, 783, 784, 785, 786, 787, 788, 789, 790, 791, 792, 793, 794, 795, 796, 797, 798, 799, 800, 801, 802, 803, 804, 805, 806, 807, 808, 809, 810, 811, 812, 813, 814, 815, 816, 817, 818, 819, 820, 821, 822, 823, 824, 825, 826, 827, 828, 829, 830, 831, 832, 833, 834, 835, 836, 837, 838, 839, 840, 841, 842, 843, 844, 845, 846, 847, 848, 849, 850, 851, 852, 853, 854, 855, 856, 857, 858, 859, 860, 861, 862, 863, 864, 865, 866, 867, 868, 869, 870, 871, 872],
      "AcquisitionTime": ["212635.985000", "212636.445000", "212636.905000", "212637.365000", "212637.825000", "212638.285000", "212638.745000", "212639.205000", "212639.665000", "212640.125000", "212640.585000", "212641.045000", "212641.505000", "212641.965000", "212642.425000", "212642.885000", "212643.345000", "212643.805000", "212644.265000", "212644.725000", "212645.185000", "212645.645000", "212646.105000", "212646.565000", "212647.025000", "212647.485000", "212647.945000", "212648.405000", "212648.865000", "212649.325000", "212649.785000", "212650.245000", "212650.705000", "212651.165000", "212651.625000", "212652.085000", "212652.545000", "212653.005000", "212653.465000", "212653.925000", "212654.385000", "212654.845000", "212655.305000", "212655.765000", "212656.225000", "212656.685000", "212657.145000", "212657.605000", "212658.065000", "212658.525000", "212658.985000", "212659.445000", "212659.905000", "212700.365000", "212700.825000", "212701.285000", "212701.745000", "212702.205000", "212702.665000", "212703.125000", "212703.585000", "212704.045000", "212704.505000", "212704.965000", "212705.425000", "212705.885000", "212706.345000", "212706.805000", "212707.265000", "212707.725000", "212708.185000", "212708.645000", "212709.105000", "212709.565000", "212710.025000", "212710.485000", "212710.945000", "212711.405000", "212711.865000", "212712.325000", "212712.785000", "212713.245000", "212713.705000", "212714.165000", "212714.625000", "212715.085000", "212715.545000", "212716.005000", "212716.465000", "212716.925000", "212717.385000", "212717.845000", "212718.305000", "212718.765000", "212719.225000", "212719.685000", "212720.145000", "212720.605000", "212721.065000", "212721.525000", "212721.985000", "212722.445000", "212722.905000", "212723.365000", "212723.825000", "212724.285000", "212724.745000", "212725.205000", "212725.665000", "212726.125000", "212726.585000", "212727.045000", "212727.505000", "212727.965000", "212728.425000", "212728.885000", "212729.345000", "212729.805000", "212730.265000", "212730.725000", "212731.185000", "212731.645000", "212732.105000", "212732.565000", "212733.025000", "212733.485000", "212733.945000", "212734.405000", "212734.865000", "212735.325000", "212735.785000", "212736.245000", "212736.705000", "212737.165000", "212737.625000", "212738.085000", "212738.545000", "212739.005000", "212739.465000", "212739.925000", "212740.385000", "212740.845000", "212741.305000", "212741.765000", "212742.225000", "212742.685000", "212743.145000", "212743.605000", "212744.065000", "212744.525000", "212744.985000", "212745.445000", "212745.905000", "212746.365000", "212746.825000", "212747.285000", "212747.745000", "212748.205000", "212748.665000", "212749.125000", "212749.585000", "212750.045000", "212750.505000", "212750.965000", "212751.425000", "212751.885000", "212752.345000", "212752.805000", "212753.265000", "212753.725000", "212754.185000", "212754.645000", "212755.105000", "212755.565000", "212756.025000", "212756.485000", "212756.945000", "212757.405000", "212757.865000", "212758.325000", "212758.785000", "212759.245000", "212759.705000", "212800.165000", "212800.625000", "212801.085000", "212801.545000", "212802.005000", "212802.465000", "212802.925000", "212803.385000", "212803.845000", "212804.305000", "212804.765000", "212805.225000", "212805.685000", "212806.145000", "212806.605000", "212807.065000", "212807.525000", "212807.985000", "212808.445000", "212808.905000", "212809.365000", "212809.825000", "212810.285000", "212810.745000", "212811.205000", "212811.665000", "212812.125000", "212812.585000", "212813.045000", "212813.505000", "212813.965000", "212814.425000", "212814.885000", "212815.345000", "212815.805000", "212816.265000", "212816.725000", "212817.185000", "212817.645000", "212818.105000", "212818.565000", "212819.025000", "212819.485000", "212819.945000", "212820.405000", "212820.865000", "212821.325000", "212821.785000", "212822.245000", "212822.705000", "212823.165000", "212823.625000", "212824.085000", "212824.545000", "212825.005000", "212825.465000", "212825.925000", "212826.385000", "212826.845000", "212827.305000", "212827.765000", "212828.225000", "212828.685000", "212829.145000", "212829.605000", "212830.065000", "212830.525000", "212830.985000", "212831.445000", "212831.905000", "212832.365000", "212832.825000", "212833.285000", "212833.745000", "212834.205000", "212834.665000", "212835.125000", "212835.585000", "212836.045000", "212836.505000", "212836.965000", "212837.425000", "212837.885000", "212838.345000", "212838.805000", "212839.265000", "212839.725000", "212840.185000", "212840.645000", "212841.105000", "212841.565000", "212842.025000", "212842.485000", "212842.945000", "212843.405000", "212843.865000", "212844.325000", "212844.785000", "212845.245000", "212845.705000", "212846.165000", "212846.625000", "212847.085000", "212847.545000", "212848.005000", "212848.465000", "212848.925000", "212849.385000", "212849.845000", "212850.305000", "212850.765000", "212851.225000", "212851.685000", "212852.145000", "212852.605000", "212853.065000", "212853.525000", "212853.985000", "212854.445000", "212854.905000", "212855.365000", "212855.825000", "212856.285000", "212856.745000", "212857.205000", "212857.665000", "212858.125000", "212858.585000", "212859.045000", "212859.505000", "212859.965000", "212900.425000", "212900.885000", "212901.345000", "212901.805000", "212902.265000", "212902.725000", "212903.185000", "212903.645000", "212904.105000", "212904.565000", "212905.025000", "212905.485000", "212905.945000", "212906.405000", "212906.865000", "212907.325000", "212907.785000", "212908.245000", "212908.705000", "212909.165000", "212909.625000", "212910.085000", "212910.545000", "212911.005000", "212911.465000", "212911.925000", "212912.385000", "212912.845000", "212913.305000", "212913.765000", "212914.225000", "212914.685000", "212915.145000", "212915.605000", "212916.065000", "212916.525000", "212916.985000", "212917.445000", "212917.905000", "212918.365000", "212918.825000", "212919.285000", "212919.745000", "212920.205000", "212920.665000", "212921.125000", "212921.585000", "212922.045000", "212922.505000", "212922.965000", "212923.425000", "212923.885000", "212924.345000", "212924.805000", "212925.265000", "212925.725000", "212926.185000", "212926.645000", "212927.105000", "212927.565000", "212928.025000", "212928.485000", "212928.945000", "212929.405000", "212929.865000", "212930.325000", "212930.785000", "212931.245000", "212931.705000", "212932.165000", "212932.625000", "212933.085000", "212933.545000", "212934.005000", "212934.465000", "212934.925000", "212935.385000", "212935.845000", "212936.305000", "212936.765000", "212937.225000", "212937.685000", "212938.145000", "212938.605000", "212939.065000", "212939.525000", "212939.985000", "212940.445000", "212940.905000", "212941.365000", "212941.825000", "212942.285000", "212942.745000", "212943.205000", "212943.665000", "212944.125000", "212944.585000", "212945.045000", "212945.505000", "212945.965000", "212946.425000", "212946.885000", "212947.345000", "212947.805000", "212948.265000", "212948.725000", "212949.185000", "212949.645000", "212950.105000", "212950.565000", "212951.025000", "212951.485000", "212951.945000", "212952.405000", "212952.865000", "212953.325000", "212953.785000", "212954.245000", "212954.705000", "212955.165000", "212955.625000", "212956.085000", "212956.545000", "212957.005000", "212957.465000", "212957.925000", "212958.385000", "212958.845000", "212959.305000", "212959.765000", "213000.225000", "213000.685000", "213001.145000", "213001.605000", "213002.065000", "213002.525000", "213002.985000", "213003.445000", "213003.905000", "213004.365000", "213004.825000", "213005.285000", "213005.745000", "213006.205000", "213006.665000", "213007.125000", "213007.585000", "213008.045000", "213008.505000", "213008.965000", "213009.425000", "213009.885000", "213010.345000", "213010.805000", "213011.265000", "213011.725000", "213012.185000", "213012.645000", "213013.105000", "213013.565000", "213014.025000", "213014.485000", "213014.945000", "213015.405000", "213015.865000", "213016.325000", "213016.785000", "213017.245000", "213017.705000", "213018.165000", "213018.625000", "213019.085000", "213019.545000", "213020.005000", "213020.465000", "213020.925000", "213021.385000", "213021.845000", "213022.305000", "213022.765000", "213023.225000", "213023.685000", "213024.145000", "213024.605000", "213025.065000", "213025.525000", "213025.985000", "213026.445000", "213026.905000", "213027.365000", "213027.825000", "213028.285000", "213028.745000", "213029.205000", "213029.665000", "213030.125000", "213030.585000", "213031.045000", "213031.505000", "213031.965000", "213032.425000", "213032.885000", "213033.345000", "213033.805000", "213034.265000", "213034.725000", "213035.185000", "213035.645000", "213036.105000", "213036.565000", "213037.025000", "213037.485000", "213037.945000", "213038.405000", "213038.865000", "213039.325000", "213039.785000", "213040.245000", "213040.705000", "213041.165000", "213041.625000", "213042.085000", "213042.545000", "213043.005000", "213043.465000", "213043.925000", "213044.385000", "213044.845000", "213045.305000", "213045.765000", "213046.225000", "213046.685000", "213047.145000", "213047.605000", "213048.065000", "213048.525000", "213048.985000", "213049.445000", "213049.905000", "213050.365000", "213050.825000", "213051.285000", "213051.745000", "213052.205000", "213052.665000", "213053.125000", "213053.585000", "213054.045000", "213054.505000", "213054.965000", "213055.425000", "213055.885000", "213056.345000", "213056.805000", "213057.265000", "213057.725000", "213058.185000", "213058.645000", "213059.105000", "213059.565000", "213100.025000", "213100.485000", "213100.945000", "213101.405000", "213101.865000", "213102.325000", "213102.785000", "213103.245000", "213103.705000", "213104.165000", "213104.625000", "213105.085000", "213105.545000", "213106.005000", "213106.465000", "213106.925000", "213107.385000", "213107.845000", "213108.305000", "213108.765000", "213109.225000", "213109.685000", "213110.145000", "213110.605000", "213111.065000", "213111.525000", "213111.985000", "213112.445000", "213112.905000", "213113.365000", "213113.825000", "213114.285000", "213114.745000", "213115.205000", "213115.665000", "213116.125000", "213116.585000", "213117.045000", "213117.505000", "213117.965000", "213118.425000", "213118.885000", "213119.345000", "213119.805000", "213120.265000", "213120.725000", "213121.185000", "213121.645000", "213122.105000", "213122.565000", "213123.025000", "213123.485000", "213123.945000", "213124.405000", "213124.865000", "213125.325000", "213125.785000", "213126.245000", "213126.705000", "213127.165000", "213127.625000", "213128.085000", "213128.545000", "213129.005000", "213129.465000", "213129.925000", "213130.385000", "213130.845000", "213131.305000", "213131.765000", "213132.225000", "213132.685000", "213133.145000", "213133.605000", "213134.065000", "213134.525000", "213134.985000", "213135.445000", "213135.905000", "213136.365000", "213136.825000", "213137.285000", "213137.745000", "213138.205000", "213138.665000", "213139.125000", "213139.585000", "213140.045000", "213140.505000", "213140.965000", "213141.425000", "213141.885000", "213142.345000", "213142.805000", "213143.265000", "213143.725000", "213144.185000", "213144.645000", "213145.105000", "213145.565000", "213146.025000", "213146.485000", "213146.945000", "213147.405000", "213147.865000", "213148.325000", "213148.785000", "213149.245000", "213149.705000", "213150.165000", "213150.625000", "213151.085000", "213151.545000", "213152.005000", "213152.465000", "213152.925000", "213153.385000", "213153.845000", "213154.305000", "213154.765000", "213155.225000", "213155.685000", "213156.145000", "213156.605000", "213157.065000", "213157.525000", "213157.985000", "213158.445000", "213158.905000", "213159.365000", "213159.825000", "213200.285000", "213200.745000", "213201.205000", "213201.665000", "213202.125000", "213202.585000", "213203.045000", "213203.505000", "213203.965000", "213204.425000", "213204.885000", "213205.345000", "213205.805000", "213206.265000", "213206.725000", "213207.185000", "213207.645000", "213208.105000", "213208.565000", "213209.025000", "213209.485000", "213209.945000", "213210.405000", "213210.865000", "213211.325000", "213211.785000", "213212.245000", "213212.705000", "213213.165000", "213213.625000", "213214.085000", "213214.545000", "213215.005000", "213215.465000", "213215.925000", "213216.385000", "213216.845000", "213217.305000", "213217.765000", "213218.225000", "213218.685000", "213219.145000", "213219.605000", "213220.065000", "213220.525000", "213220.985000", "213221.445000", "213221.905000", "213222.365000", "213222.825000", "213223.285000", "213223.745000", "213224.205000", "213224.665000", "213225.125000", "213225.585000", "213226.045000", "213226.505000", "213226.965000", "213227.425000", "213227.885000", "213228.345000", "213228.805000", "213229.265000", "213229.725000", "213230.185000", "213230.645000", "213231.105000", "213231.565000", "213232.025000", "213232.485000", "213232.945000", "213233.405000", "213233.865000", "213234.325000", "213234.785000", "213235.245000", "213235.705000", "213236.165000", "213236.625000", "213237.085000", "213237.545000", "213238.005000", "213238.465000", "213238.925000", "213239.385000", "213239.845000", "213240.305000", "213240.765000", "213241.225000", "213241.685000", "213242.145000", "213242.605000", "213243.065000", "213243.525000", "213243.985000", "213244.445000", "213244.905000", "213245.365000", "213245.825000", "213246.285000", "213246.745000", "213247.205000", "213247.665000", "213248.125000", "213248.585000", "213249.045000", "213249.505000", "213249.965000", "213250.425000", "213250.885000", "213251.345000", "213251.805000", "213252.265000", "213252.725000", "213253.185000", "213253.645000", "213254.105000", "213254.565000", "213255.025000", "213255.485000", "213255.945000", "213256.405000", "213256.865000", "213257.325000", "213257.785000", "213258.245000", "213258.705000", "213259.165000", "213259.625000", "213300.085000", "213300.545000", "213301.005000", "213301.465000", "213301.925000", "213302.385000", "213302.845000", "213303.305000", "213303.765000", "213304.225000", "213304.685000", "213305.145000", "213305.605000", "213306.065000", "213306.525000", "213306.985000", "213307.445000", "213307.905000", "213308.365000", "213308.825000", "213309.285000", "213309.745000", "213310.205000", "213310.665000", "213311.125000", "213311.585000", "213312.045000", "213312.505000", "213312.965000", "213313.425000", "213313.885000", "213314.345000", "213314.805000", "213315.265000", "213315.725000", "213316.185000", "213316.645000"],
