{
  "AcquisitionMatrixPE": 82,
  "AcquisitionNumber": 1,
  "AcquisitionTime": "21:49:16.040000",
  "BandwidthPerPixelPhaseEncode": 24.888,
  "BaseResolution": 82,
  "BodyPartExamined": "BRAIN",
  "ConsistencyInfo": "N4_VE11E_LATEST_20181129",
  "ConversionSoftware": "dcm2niix",
  "ConversionSoftwareVersion": "v1.0.20201102",
  "DerivedVendorReportedEchoSpacing": 0.00049,
  "DeviceSerialNumber": "66112",
  "DwellTime": 2e-06,
  "EchoTime": 0.0272,
  "EchoTrainLength": 82,
  "EffectiveEchoSpacing": 0.00049,
  "FlipAngle": 44,
  "ImageComments": "Unaliased MB8/PE3",
  "ImageOrientationPatientDICOM": [0.999816, 0.00832887, 0.0172786, -0.00488608, 0.98168, -0.190473],
  "ImageType": [
    "ORIGINAL",
    "PRIMARY",
    "M",
    "MB",
    "ND",
    "NORM",
    "MOSAIC"
],
  "ImagingFrequency": 123.259,
  "InPlanePhaseEncodingDirectionDICOM": "COL",
  "InstitutionAddress": "Maynard 3,Hanover,NH,US,03755",
  "InstitutionName": "Dartmouth College - PBS",
  "InstitutionalDepartmentName": "Department",
  "MRAcquisitionType": "2D",
  "MagneticFieldStrength": 3,
  "Manufacturer": "Siemens",
  "ManufacturersModelName": "Prisma",
  "Modality": "MR",
  "MultibandAccelerationFactor": 8,
  "PartialFourier": 1,
  "PatientPosition": "HFS",
  "PercentPhaseFOV": 100,
  "PercentSampling": 100,
  "PhaseEncodingDirection": "j-",
  "PhaseEncodingSteps": 82,
  "PhaseResolution": 1,
  "PixelBandwidth": 3050,
  "ProcedureStepDescription": "Wager_Wager^1076_spacetop",
  "ProtocolName": "func_run-06_task-social_acq-ap-mb8",
  "PulseSequenceDetails": "%CustomerSeq%\\cmrr_mbep2d_bold",
  "ReceiveCoilActiveElements": "HEA;HEP",
  "ReceiveCoilName": "Head_32",
  "ReconMatrixPE": 82,
  "RepetitionTime": 0.46,
  "SAR": 0.0823094,
  "ScanOptions": "FS",
  "ScanningSequence": "EP",
  "SequenceName": "epfid2d1_82",
  "SequenceVariant": "SK\\SS",
  "SeriesDescription": "func_run-06_task-social_acq-ap-mb8",
  "SeriesNumber": 22,
  "ShimSetting": [4212, -7714, -7279, 223, -125, -265, -102, 103],
  "SliceThickness": 2.7,
  "SliceTiming": [0, 0.25, 0.0625, 0.3125, 0.125, 0.3775, 0.1875, 0, 0.25, 0.0625, 0.3125, 0.125, 0.3775, 0.1875, 0, 0.25, 0.0625, 0.3125, 0.125, 0.3775, 0.1875, 0, 0.25, 0.0625, 0.3125, 0.125, 0.3775, 0.1875, 0, 0.25, 0.0625, 0.3125, 0.125, 0.3775, 0.1875, 0, 0.25, 0.0625, 0.3125, 0.125, 0.3775, 0.1875, 0, 0.25, 0.0625, 0.3125, 0.125, 0.3775, 0.1875, 0, 0.25, 0.0625, 0.3125, 0.125, 0.3775, 0.1875],
  "SoftwareVersions": "syngo MR E11",
  "SpacingBetweenSlices": 2.7,
  "StationName": "AWP66112",
  "TaskName": "social",
  "TotalReadoutTime": 0.03969,
  "TxRefAmp": 240.42,
  "WipMemBlock": "584087aa-06ce-4bf9-9cf2-adf6f7cb6bff||Sequence: R016 ve11e/master r/434b28f1; Aug  7 2019 18:53:46 by eja",
  "dcmmeta_affine": [
    [-2.6824333667755127, -0.013108983635902405, 0.050080910325050354, 115.06657409667969],
    [-0.022345736622810364, 2.6337764263153076, -0.5139544010162354, -94.5119400024414],
    [0.04635722190141678, 0.5110250115394592, 2.6501588821411133, -116.87019348144531],
    [0.0, 0.0, 0.0, 1.0]
],
  "dcmmeta_reorient_transform": [
    [0.0, -1.0, 0.0, 81.0],
    [1.0, 0.0, 0.0, 0.0],
    [0.0, 0.0, 1.0, 0.0],
    [0.0, 0.0, 0.0, 1.0]
],
  "dcmmeta_shape": [82, 82, 56, 872],
  "dcmmeta_slice_dim": 2,
  "dcmmeta_version": 0.6,
  "global": {
    "const": {
      "AccessionNumber": "A004543",
      "AcquisitionMatrix": [82, 0, 0, 82],
      "AngioFlag": "N",
      "BitsAllocated": 16,
      "BitsStored": 16,
      "BodyPartExamined": "BRAIN",
      "Columns": 656,
      "EchoNumbers": 1,
      "EchoTime": 27.2,
      "EchoTrainLength": 82,
      "FlipAngle": 44.0,
      "HighBit": 15,
      "ImageOrientationPatient": [0.99981602305705, 0.00832886541776, 0.01727860061569, -0.0048860756894, 0.98168028295906, -0.1904729595344],
      "ImagePositionPatient": [-880.1008235364, -881.13101159703, 57.882490287851],
      "ImageType": [
        "ORIGINAL",
        "PRIMARY",
        "M",
        "MB",
        "ND",
        "NORM",
        "MOSAIC"
],
      "ImagedNucleus": "1H",
      "ImagingFrequency": 123.25911,
      "InPlanePhaseEncodingDirection": "COL",
      "MRAcquisitionType": "2D",
      "MagneticFieldStrength": 3.0,
      "Manufacturer": "SIEMENS",
      "ManufacturerModelName": "Prisma",
      "Modality": "MR",
      "NumberOfAverages": 1.0,
      "NumberOfPhaseEncodingSteps": 82,
      "PercentPhaseFieldOfView": 100.0,
      "PercentSampling": 100.0,
      "PerformedProcedureStepStartTime": "201207.315000",
      "PhotometricInterpretation": "MONOCHROME2",
      "PixelBandwidth": 3050.0,
      "PixelRepresentation": 0,
      "PixelSpacing": [2.6829268932343, 2.6829268932343],
      "ProtocolName": "func_run-06_task-social_acq-ap-mb8",
      "RepetitionTime": 460.0,
      "Rows": 656,
      "SAR": 0.08230940800553,
      "SamplesPerPixel": 1,
      "ScanOptions": "FS",
      "ScanningSequence": "EP",
      "SequenceName": "epfid2d1_82",
      "SequenceVariant": [
        "SK",
        "SS"
],
      "SeriesDescription": "func_run-06_task-social_acq-ap-mb8",
      "SeriesNumber": 22,
      "SeriesTime": "214931.750000",
      "SliceLocation": -94.587827144775,
      "SliceThickness": 2.7000000476837,
      "SmallestImagePixelValue": 0,
      "SoftwareVersions": "syngo MR E11",
      "SpacingBetweenSlices": 2.6999999642149,
      "SpecificCharacterSet": "ISO_IR 100",
      "StudyID": "2",
      "StudyTime": "201207.245000",
      "TransmitCoilName": "Body",
      "VariableFlipAngleFlag": "N",
      "WindowCenterWidthExplanation": "Algo1"
    },
    "slices": {}
  },
  "time": {
    "samples": {
      "AcquisitionNumber": [1, 2, 3, 4, 5, 6, 7, 8, 9, 10, 11, 12, 13, 14, 15, 16, 17, 18, 19, 20, 21, 22, 23, 24, 25, 26, 27, 28, 29, 30, 31, 32, 33, 34, 35, 36, 37, 38, 39, 40, 41, 42, 43, 44, 45, 46, 47, 48, 49, 50, 51, 52, 53, 54, 55, 56, 57, 58, 59, 60, 61, 62, 63, 64, 65, 66, 67, 68, 69, 70, 71, 72, 73, 74, 75, 76, 77, 78, 79, 80, 81, 82, 83, 84, 85, 86, 87, 88, 89, 90, 91, 92, 93, 94, 95, 96, 97, 98, 99, 100, 101, 102, 103, 104, 105, 106, 107, 108, 109, 110, 111, 112, 113, 114, 115, 116, 117, 118, 119, 120, 121, 122, 123, 124, 125, 126, 127, 128, 129, 130, 131, 132, 133, 134, 135, 136, 137, 138, 139, 140, 141, 142, 143, 144, 145, 146, 147, 148, 149, 150, 151, 152, 153, 154, 155, 156, 157, 158, 159, 160, 161, 162, 163, 164, 165, 166, 167, 168, 169, 170, 171, 172, 173, 174, 175, 176, 177, 178, 179, 180, 181, 182, 183, 184, 185, 186, 187, 188, 189, 190, 191, 192, 193, 194, 195, 196, 197, 198, 199, 200, 201, 202, 203, 204, 205, 206, 207, 208, 209, 210, 211, 212, 213, 214, 215, 216, 217, 218, 219, 220, 221, 222, 223, 224, 225, 226, 227, 228, 229, 230, 231, 232, 233, 234, 235, 236, 237, 238, 239, 240, 241, 242, 243, 244, 245, 246, 247, 248, 249, 250, 251, 252, 253, 254, 255, 256, 257, 258, 259, 260, 261, 262, 263, 264, 265, 266, 267, 268, 269, 270, 271, 272, 273, 274, 275, 276, 277, 278, 279, 280, 281, 282, 283, 284, 285, 286, 287, 288, 289, 290, 291, 292, 293, 294, 295, 296, 297, 298, 299, 300, 301, 302, 303, 304, 305, 306, 307, 308, 309, 310, 311, 312, 313, 314, 315, 316, 317, 318, 319, 320, 321, 322, 323, 324, 325, 326, 327, 328, 329, 330, 331, 332, 333, 334, 335, 336, 337, 338, 339, 340, 341, 342, 343, 344, 345, 346, 347, 348, 349, 350, 351, 352, 353, 354, 355, 356, 357, 358, 359, 360, 361, 362, 363, 364, 365, 366, 367, 368, 369, 370, 371, 372, 373, 374, 375, 376, 377, 378, 379, 380, 381, 382, 383, 384, 385, 386, 387, 388, 389, 390, 391, 392, 393, 394, 395, 396, 397, 398, 399, 400, 401, 402, 403, 404, 405, 406, 407, 408, 409, 410, 411, 412, 413, 414, 415, 416, 417, 418, 419, 420, 421, 422, 423, 424, 425, 426, 427, 428, 429, 430, 431, 432, 433, 434, 435, 436, 437, 438, 439, 440, 441, 442, 443, 444, 445, 446, 447, 448, 449, 450, 451, 452, 453, 454, 455, 456, 457, 458, 459, 460, 461, 462, 463, 464, 465, 466, 467, 468, 469, 470, 471, 472, 473, 474, 475, 476, 477, 478, 479, 480, 481, 482, 483, 484, 485, 486, 487, 488, 489, 490, 491, 492, 493, 494, 495, 496, 497, 498, 499, 500, 501, 502, 503, 504, 505, 506, 507, 508, 509, 510, 511, 512, 513, 514, 515, 516, 517, 518, 519, 520, 521, 522, 523, 524, 525, 526, 527, 528, 529, 530, 531, 532, 533, 534, 535, 536, 537, 538, 539, 540, 541, 542, 543, 544, 545, 546, 547, 548, 549, 550, 551, 552, 553, 554, 555, 556, 557, 558, 559, 560, 561, 562, 563, 564, 565, 566, 567, 568, 569, 570, 571, 572, 573, 574, 575, 576, 577, 578, 579, 580, 581, 582, 583, 584, 585, 586, 587, 588, 589, 590, 591, 592, 593, 594, 595, 596, 597, 598, 599, 600, 601, 602, 603, 604, 605, 606, 607, 608, 609, 610, 611, 612, 613, 614, 615, 616, 617, 618, 619, 620, 621, 622, 623, 624, 625, 626, 627, 628, 629, 630, 631, 632, 633, 634, 635, 636, 637, 638, 639, 640, 641, 642, 643, 644, 645, 646, 647, 648, 649, 650, 651, 652, 653, 654, 655, 656, 657, 658, 659, 660, 661, 662, 663, 664, 665, 666, 667, 668, 669, 670, 671, 672, 673, 674, 675, 676, 677, 678, 679, 680, 681, 682, 683, 684, 685, 686, 687, 688, 689, 690, 691, 692, 693, 694, 695, 696, 697, 698, 699, 700, 701, 702, 703, 704, 705, 706, 707, 708, 709, 710, 711, 712, 713, 714, 715, 716, 717, 718, 719, 720, 721, 722, 723, 724, 725, 726, 727, 728, 729, 730, 731, 732, 733, 734, 735, 736, 737, 738, 739, 740, 741, 742, 743, 744, 745, 746, 747, 748, 749, 750, 751, 752, 753, 754, 755, 756, 757, 758, 759, 760, 761, 762, 763, 764, 765, 766, 767, 768, 769, 770, 771, 772, 773, 774, 775, 776, 777, 778, 779, 780, 781, 782, 783, 784, 785, 786, 787, 788, 789, 790, 791, 792, 793, 794, 795, 796, 797, 798, 799, 800, 801, 802, 803, 804, 805, 806, 807, 808, 809, 810, 811, 812, 813, 814, 815, 816, 817, 818, 819, 820, 821, 822, 823, 824, 825, 826, 827, 828, 829, 830, 831, 832, 833, 834, 835, 836, 837, 838, 839, 840, 841, 842, 843, 844, 845, 846, 847, 848, 849, 850, 851, 852, 853, 854, 855, 856, 857, 858, 859, 860, 861, 862, 863, 864, 865, 866, 867, 868, 869, 870, 871, 872],
      "AcquisitionTime": ["214916.040000", "214916.500000", "214916.960000", "214917.420000", "214917.880000", "214918.340000", "214918.800000", "214919.260000", "214919.720000", "214920.180000", "214920.640000", "214921.100000", "214921.560000", "214922.020000", "214922.480000", "214922.940000", "214923.400000", "214923.860000", "214924.320000", "214924.780000", "214925.240000", "214925.700000", "214926.160000", "214926.620000", "214927.080000", "214927.540000", "214928.000000", "214928.460000", "214928.920000", "214929.380000", "214929.840000", "214930.300000", "214930.760000", "214931.220000", "214931.680000", "214932.140000", "214932.600000", "214933.060000", "214933.520000", "214933.980000", "214934.440000", "214934.900000", "214935.360000", "214935.820000", "214936.280000", "214936.740000", "214937.200000", "214937.660000", "214938.120000", "214938.580000", "214939.040000", "214939.500000", "214939.960000", "214940.420000", "214940.880000", "214941.340000", "214941.800000", "214942.260000", "214942.720000", "214943.180000", "214943.640000", "214944.100000", "214944.560000", "214945.020000", "214945.480000", "214945.940000", "214946.400000", "214946.860000", "214947.320000", "214947.780000", "214948.240000", "214948.700000", "214949.160000", "214949.620000", "214950.080000", "214950.540000", "214951.000000", "214951.460000", "214951.920000", "214952.380000", "214952.840000", "214953.300000", "214953.760000", "214954.220000", "214954.680000", "214955.140000", "214955.600000", "214956.060000", "214956.520000", "214956.980000", "214957.440000", "214957.900000", "214958.360000", "214958.820000", "214959.280000", "214959.740000", "215000.200000", "215000.660000", "215001.120000", "215001.580000", "215002.040000", "215002.500000", "215002.960000", "215003.420000", "215003.880000", "215004.340000", "215004.800000", "215005.260000", "215005.720000", "215006.180000", "215006.640000", "215007.100000", "215007.560000", "215008.020000", "215008.480000", "215008.940000", "215009.400000", "215009.860000", "215010.320000", "215010.780000", "215011.240000", "215011.700000", "215012.160000", "215012.620000", "215013.080000", "215013.540000", "215014.000000", "215014.460000", "215014.920000", "215015.380000", "215015.840000", "215016.300000", "215016.760000", "215017.220000", "215017.680000", "215018.140000", "215018.600000", "215019.060000", "215019.520000", "215019.980000", "215020.440000", "215020.900000", "215021.360000", "215021.820000", "215022.280000", "215022.740000", "215023.200000", "215023.660000", "215024.120000", "215024.580000", "215025.040000", "215025.500000", "215025.960000", "215026.420000", "215026.880000", "215027.340000", "215027.800000", "215028.260000", "215028.720000", "215029.180000", "215029.640000", "215030.100000", "215030.560000", "215031.020000", "215031.480000", "215031.940000", "215032.400000", "215032.860000", "215033.320000", "215033.780000", "215034.240000", "215034.700000", "215035.160000", "215035.620000", "215036.080000", "215036.540000", "215037.000000", "215037.460000", "215037.920000", "215038.380000", "215038.840000", "215039.300000", "215039.760000", "215040.220000", "215040.680000", "215041.140000", "215041.600000", "215042.060000", "215042.520000", "215042.980000", "215043.440000", "215043.900000", "215044.360000", "215044.820000", "215045.280000", "215045.740000", "215046.200000", "215046.660000", "215047.120000", "215047.580000", "215048.040000", "215048.500000", "215048.960000", "215049.420000", "215049.880000", "215050.340000", "215050.800000", "215051.260000", "215051.720000", "215052.180000", "215052.640000", "215053.100000", "215053.560000", "215054.020000", "215054.480000", "215054.940000", "215055.400000", "215055.860000", "215056.320000", "215056.780000", "215057.240000", "215057.700000", "215058.160000", "215058.620000", "215059.080000", "215059.540000", "215100.000000", "215100.460000", "215100.920000", "215101.380000", "215101.840000", "215102.300000", "215102.760000", "215103.220000", "215103.680000", "215104.140000", "215104.600000", "215105.060000", "215105.520000", "215105.980000", "215106.440000", "215106.900000", "215107.360000", "215107.820000", "215108.280000", "215108.740000", "215109.200000", "215109.660000", "215110.120000", "215110.580000", "215111.040000", "215111.500000", "215111.960000", "215112.420000", "215112.880000", "215113.340000", "215113.800000", "215114.260000", "215114.720000", "215115.180000", "215115.640000", "215116.100000", "215116.560000", "215117.020000", "215117.480000", "215117.940000", "215118.400000", "215118.860000", "215119.320000", "215119.780000", "215120.240000", "215120.700000", "215121.160000", "215121.620000", "215122.080000", "215122.540000", "215123.000000", "215123.460000", "215123.920000", "215124.380000", "215124.840000", "215125.300000", "215125.760000", "215126.220000", "215126.680000", "215127.140000", "215127.600000", "215128.060000", "215128.520000", "215128.980000", "215129.440000", "215129.900000", "215130.360000", "215130.820000", "215131.280000", "215131.740000", "215132.200000", "215132.660000", "215133.120000", "215133.580000", "215134.040000", "215134.500000", "215134.960000", "215135.420000", "215135.880000", "215136.340000", "215136.800000", "215137.260000", "215137.720000", "215138.180000", "215138.640000", "215139.100000", "215139.560000", "215140.020000", "215140.480000", "215140.940000", "215141.400000", "215141.860000", "215142.320000", "215142.780000", "215143.240000", "215143.700000", "215144.160000", "215144.620000", "215145.080000", "215145.540000", "215146.000000", "215146.460000", "215146.920000", "215147.380000", "215147.840000", "215148.300000", "215148.760000", "215149.220000", "215149.680000", "215150.140000", "215150.600000", "215151.060000", "215151.520000", "215151.980000", "215152.440000", "215152.900000", "215153.360000", "215153.820000", "215154.280000", "215154.740000", "215155.200000", "215155.660000", "215156.120000", "215156.580000", "215157.040000", "215157.500000", "215157.960000", "215158.420000", "215158.880000", "215159.340000", "215159.800000", "215200.260000", "215200.720000", "215201.180000", "215201.640000", "215202.100000", "215202.560000", "215203.020000", "215203.480000", "215203.940000", "215204.400000", "215204.860000", "215205.320000", "215205.780000", "215206.240000", "215206.700000", "215207.160000", "215207.620000", "215208.080000", "215208.540000", "215209.000000", "215209.460000", "215209.920000", "215210.380000", "215210.840000", "215211.300000", "215211.760000", "215212.220000", "215212.680000", "215213.140000", "215213.600000", "215214.060000", "215214.520000", "215214.980000", "215215.440000", "215215.900000", "215216.360000", "215216.820000", "215217.280000", "215217.740000", "215218.200000", "215218.660000", "215219.120000", "215219.580000", "215220.040000", "215220.500000", "215220.960000", "215221.420000", "215221.880000", "215222.340000", "215222.800000", "215223.260000", "215223.720000", "215224.180000", "215224.640000", "215225.100000", "215225.560000", "215226.020000", "215226.480000", "215226.940000", "215227.400000", "215227.860000", "215228.320000", "215228.780000", "215229.240000", "215229.700000", "215230.160000", "215230.620000", "215231.080000", "215231.540000", "215232.000000", "215232.460000", "215232.920000", "215233.380000", "215233.840000", "215234.300000", "215234.760000", "215235.220000", "215235.680000", "215236.140000", "215236.600000", "215237.060000", "215237.520000", "215237.980000", "215238.440000", "215238.900000", "215239.360000", "215239.820000", "215240.280000", "215240.740000", "215241.200000", "215241.660000", "215242.120000", "215242.580000", "215243.040000", "215243.500000", "215243.960000", "215244.420000", "215244.880000", "215245.340000", "215245.800000", "215246.260000", "215246.720000", "215247.180000", "215247.640000", "215248.100000", "215248.560000", "215249.020000", "215249.480000", "215249.940000", "215250.400000", "215250.860000", "215251.320000", "215251.780000", "215252.240000", "215252.700000", "215253.160000", "215253.620000", "215254.080000", "215254.540000", "215255.000000", "215255.460000", "215255.920000", "215256.380000", "215256.840000", "215257.300000", "215257.760000", "215258.220000", "215258.680000", "215259.140000", "215259.600000", "215300.060000", "215300.520000", "215300.980000", "215301.440000", "215301.900000", "215302.360000", "215302.820000", "215303.280000", "215303.740000", "215304.200000", "215304.660000", "215305.120000", "215305.580000", "215306.040000", "215306.500000", "215306.960000", "215307.420000", "215307.880000", "215308.340000", "215308.800000", "215309.260000", "215309.720000", "215310.180000", "215310.640000", "215311.100000", "215311.560000", "215312.020000", "215312.480000", "215312.940000", "215313.400000", "215313.860000", "215314.320000", "215314.780000", "215315.240000", "215315.700000", "215316.160000", "215316.620000", "215317.080000", "215317.540000", "215318.000000", "215318.460000", "215318.920000", "215319.380000", "215319.840000", "215320.300000", "215320.760000", "215321.220000", "215321.680000", "215322.140000", "215322.600000", "215323.060000", "215323.520000", "215323.980000", "215324.440000", "215324.900000", "215325.360000", "215325.820000", "215326.280000", "215326.740000", "215327.200000", "215327.660000", "215328.120000", "215328.580000", "215329.040000", "215329.500000", "215329.960000", "215330.420000", "215330.880000", "215331.340000", "215331.800000", "215332.260000", "215332.720000", "215333.180000", "215333.640000", "215334.100000", "215334.560000", "215335.020000", "215335.480000", "215335.940000", "215336.400000", "215336.860000", "215337.320000", "215337.780000", "215338.240000", "215338.700000", "215339.160000", "215339.620000", "215340.080000", "215340.540000", "215341.000000", "215341.460000", "215341.920000", "215342.380000", "215342.840000", "215343.300000", "215343.760000", "215344.220000", "215344.680000", "215345.140000", "215345.600000", "215346.060000", "215346.520000", "215346.980000", "215347.440000", "215347.900000", "215348.360000", "215348.820000", "215349.280000", "215349.740000", "215350.200000", "215350.660000", "215351.120000", "215351.580000", "215352.040000", "215352.500000", "215352.960000", "215353.420000", "215353.880000", "215354.340000", "215354.800000", "215355.260000", "215355.720000", "215356.180000", "215356.640000", "215357.100000", "215357.560000", "215358.020000", "215358.480000", "215358.940000", "215359.400000", "215359.860000", "215400.320000", "215400.780000", "215401.240000", "215401.700000", "215402.160000", "215402.620000", "215403.080000", "215403.540000", "215404.000000", "215404.460000", "215404.920000", "215405.380000", "215405.840000", "215406.300000", "215406.760000", "215407.220000", "215407.680000", "215408.140000", "215408.600000", "215409.060000", "215409.520000", "215409.980000", "215410.440000", "215410.900000", "215411.360000", "215411.820000", "215412.280000", "215412.740000", "215413.200000", "215413.660000", "215414.120000", "215414.580000", "215415.040000", "215415.500000", "215415.960000", "215416.420000", "215416.880000", "215417.340000", "215417.800000", "215418.260000", "215418.720000", "215419.180000", "215419.640000", "215420.100000", "215420.560000", "215421.020000", "215421.480000", "215421.940000", "215422.400000", "215422.860000", "215423.320000", "215423.780000", "215424.240000", "215424.700000", "215425.160000", "215425.620000", "215426.080000", "215426.540000", "215427.000000", "215427.460000", "215427.920000", "215428.380000", "215428.840000", "215429.300000", "215429.760000", "215430.220000", "215430.680000", "215431.140000", "215431.600000", "215432.060000", "215432.520000", "215432.980000", "215433.440000", "215433.900000", "215434.360000", "215434.820000", "215435.280000", "215435.740000", "215436.200000", "215436.660000", "215437.120000", "215437.580000", "215438.040000", "215438.500000", "215438.960000", "215439.420000", "215439.880000", "215440.340000", "215440.800000", "215441.260000", "215441.720000", "215442.180000", "215442.640000", "215443.100000", "215443.560000", "215444.020000", "215444.480000", "215444.940000", "215445.400000", "215445.860000", "215446.320000", "215446.780000", "215447.240000", "215447.700000", "215448.160000", "215448.620000", "215449.080000", "215449.540000", "215450.000000", "215450.460000", "215450.920000", "215451.380000", "215451.840000", "215452.300000", "215452.760000", "215453.220000", "215453.680000", "215454.140000", "215454.600000", "215455.060000", "215455.520000", "215455.980000", "215456.440000", "215456.900000", "215457.360000", "215457.820000", "215458.280000", "215458.740000", "215459.200000", "215459.660000", "215500.120000", "215500.580000", "215501.040000", "215501.500000", "215501.960000", "215502.420000", "215502.880000", "215503.340000", "215503.800000", "215504.260000", "215504.720000", "215505.180000", "215505.640000", "215506.100000", "215506.560000", "215507.020000", "215507.480000", "215507.940000", "215508.400000", "215508.860000", "215509.320000", "215509.780000", "215510.240000", "215510.700000", "215511.160000", "215511.620000", "215512.080000", "215512.540000", "215513.000000", "215513.460000", "215513.920000", "215514.380000", "215514.840000", "215515.300000", "215515.760000", "215516.220000", "215516.680000", "215517.140000", "215517.600000", "215518.060000", "215518.520000", "215518.980000", "215519.440000", "215519.900000", "215520.360000", "215520.820000", "215521.280000", "215521.740000", "215522.200000", "215522.660000", "215523.120000", "215523.580000", "215524.040000", "215524.500000", "215524.960000", "215525.420000", "215525.880000", "215526.340000", "215526.800000", "215527.260000", "215527.720000", "215528.180000", "215528.640000", "215529.100000", "215529.560000", "215530.020000", "215530.480000", "215530.940000", "215531.400000", "215531.860000", "215532.320000", "215532.780000", "215533.240000", "215533.700000", "215534.160000", "215534.620000", "215535.080000", "215535.540000", "215536.000000", "215536.460000", "215536.920000", "215537.380000", "215537.840000", "215538.300000", "215538.760000", "215539.220000", "215539.680000", "215540.140000", "215540.600000", "215541.060000", "215541.520000", "215541.980000", "215542.440000", "215542.900000", "215543.360000", "215543.820000", "215544.280000", "215544.740000", "215545.200000", "215545.660000", "215546.120000", "215546.580000", "215547.040000", "215547.500000", "215547.960000", "215548.420000", "215548.880000", "215549.340000", "215549.800000", "215550.260000", "215550.720000", "215551.180000", "215551.640000", "215552.100000", "215552.560000", "215553.020000", "215553.480000", "215553.940000", "215554.400000", "215554.860000", "215555.320000", "215555.780000", "215556.240000", "215556.700000"],
