{
  "AcquisitionMatrixPE": 82,
  "AcquisitionNumber": 1,
  "AcquisitionTime": "22:09:4.022500",
  "BandwidthPerPixelPhaseEncode": 24.888,
  "BaseResolution": 82,
  "BodyPartExamined": "BRAIN",
  "ConsistencyInfo": "N4_VE11E_LATEST_20181129",
  "ConversionSoftware": "dcm2niix",
  "ConversionSoftwareVersion": "v1.0.20201102",
  "DerivedVendorReportedEchoSpacing": 0.00049,
  "DeviceSerialNumber": "66112",
  "DwellTime": 2e-06,
  "EchoTime": 0.0272,
  "EchoTrainLength": 82,
  "EffectiveEchoSpacing": 0.00049,
  "FlipAngle": 44,
  "ImageComments": "Unaliased MB8/PE3",
  "ImageOrientationPatientDICOM": [0.999511, -0.0212685, 0.0229374, 0.0253003, 0.98088, -0.192964],
  "ImageType": [
    "ORIGINAL",
    "PRIMARY",
    "M",
    "MB",
    "ND",
    "NORM",
    "MOSAIC"
],
  "ImagingFrequency": 123.259,
  "InPlanePhaseEncodingDirectionDICOM": "COL",
  "InstitutionAddress": "Maynard 3,Hanover,NH,US,03755",
  "InstitutionName": "Dartmouth College - PBS",
  "InstitutionalDepartmentName": "Department",
  "MRAcquisitionType": "2D",
  "MagneticFieldStrength": 3,
  "Manufacturer": "Siemens",
  "ManufacturersModelName": "Prisma",
  "Modality": "MR",
  "MultibandAccelerationFactor": 8,
  "PartialFourier": 1,
  "PatientPosition": "HFS",
  "PercentPhaseFOV": 100,
  "PercentSampling": 100,
  "PhaseEncodingDirection": "j-",
  "PhaseEncodingSteps": 82,
  "PhaseResolution": 1,
  "PixelBandwidth": 3050,
  "ProcedureStepDescription": "Wager_Wager^1076_spacetop",
  "ProtocolName": "func_run-02_task-alignvideo_acq-ap-mb8",
  "PulseSequenceDetails": "%CustomerSeq%\\cmrr_mbep2d_bold",
  "ReceiveCoilActiveElements": "HEA;HEP",
  "ReceiveCoilName": "Head_32",
  "ReconMatrixPE": 82,
  "RepetitionTime": 0.46,
  "SAR": 0.0823392,
  "ScanOptions": "FS",
  "ScanningSequence": "EP",
  "SequenceName": "epfid2d1_82",
  "SequenceVariant": "SK\\SS",
  "SeriesDescription": "func_run-02_task-alignvideo_acq-ap-mb8",
  "SeriesNumber": 32,
  "ShimSetting": [4212, -7714, -7279, 226, -124, -259, -103, 103],
  "SliceThickness": 2.7,
  "SliceTiming": [0, 0.2525, 0.0625, 0.315, 0.125, 0.3775, 0.1875, 0, 0.2525, 0.0625, 0.315, 0.125, 0.3775, 0.1875, 0, 0.2525, 0.0625, 0.315, 0.125, 0.3775, 0.1875, 0, 0.2525, 0.0625, 0.315, 0.125, 0.3775, 0.1875, 0, 0.2525, 0.0625, 0.315, 0.125, 0.3775, 0.1875, 0, 0.2525, 0.0625, 0.315, 0.125, 0.3775, 0.1875, 0, 0.2525, 0.0625, 0.315, 0.125, 0.3775, 0.1875, 0, 0.2525, 0.0625, 0.315, 0.125, 0.3775, 0.1875],
  "SoftwareVersions": "syngo MR E11",
  "SpacingBetweenSlices": 2.7,
  "StationName": "AWP66112",
  "TaskName": "alignvideo",
  "TotalReadoutTime": 0.03969,
  "TxRefAmp": 240.42,
  "WipMemBlock": "7668e6e9-2a8d-47f1-8109-e25d8d7c36d5||Sequence: R016 ve11e/master r/434b28f1; Aug  7 2019 18:53:46 by eja",
  "dcmmeta_affine": [
    [-2.6816139221191406, 0.06787876039743423, 0.04966602474451065, 111.61776733398438],
    [0.057061705738306046, 2.6316285133361816, -0.5223137140274048, -98.37260437011719],
    [0.061539456248283386, 0.5177072882652283, 2.648531913757324, -116.91534423828125],
    [0.0, 0.0, 0.0, 1.0]
],
  "dcmmeta_reorient_transform": [
    [0.0, -1.0, 0.0, 81.0],
    [1.0, 0.0, 0.0, 0.0],
    [0.0, 0.0, 1.0, 0.0],
    [0.0, 0.0, 0.0, 1.0]
],
  "dcmmeta_shape": [82, 82, 56, 926],
  "dcmmeta_slice_dim": 2,
  "dcmmeta_version": 0.6,
  "global": {
    "const": {
      "AccessionNumber": "A004543",
      "AcquisitionMatrix": [82, 0, 0, 82],
      "AngioFlag": "N",
      "BitsAllocated": 16,
      "BitsStored": 16,
      "BodyPartExamined": "BRAIN",
      "Columns": 656,
      "EchoNumbers": 1,
      "EchoTime": 27.2,
      "EchoTrainLength": 82,
      "FlipAngle": 44.0,
      "HighBit": 15,
      "ImageOrientationPatient": [0.99951064378757, -0.021268453845, 0.02293743286421, 0.02530026505943, 0.98087967524173, -0.1929636216638],
      "ImagePositionPatient": [-906.22036292493, -853.68995634865, 55.939112638146],
      "ImageType": [
        "ORIGINAL",
        "PRIMARY",
        "M",
        "MB",
        "ND",
        "NORM",
        "MOSAIC"
],
      "ImagedNucleus": "1H",
      "ImagingFrequency": 123.259113,
      "InPlanePhaseEncodingDirection": "COL",
      "MRAcquisitionType": "2D",
      "MagneticFieldStrength": 3.0,
      "Manufacturer": "SIEMENS",
      "ManufacturerModelName": "Prisma",
      "Modality": "MR",
      "NumberOfAverages": 1.0,
      "NumberOfPhaseEncodingSteps": 82,
      "PercentPhaseFieldOfView": 100.0,
      "PercentSampling": 100.0,
      "PerformedProcedureStepStartTime": "201207.315000",
      "PhotometricInterpretation": "MONOCHROME2",
      "PixelBandwidth": 3050.0,
      "PixelRepresentation": 0,
      "PixelSpacing": [2.6829268932343, 2.6829268932343],
      "ProtocolName": "func_run-02_task-alignvideo_acq-ap-mb8",
      "RepetitionTime": 460.0,
      "Rows": 656,
      "SAR": 0.08233922270133,
      "SamplesPerPixel": 1,
      "ScanOptions": "FS",
      "ScanningSequence": "EP",
      "SequenceName": "epfid2d1_82",
      "SequenceVariant": [
        "SK",
        "SS"
],
      "SeriesDescription": "func_run-02_task-alignvideo_acq-ap-mb8",
      "SeriesNumber": 32,
      "SeriesTime": "220931.658000",
      "SliceLocation": -93.603357091719,
      "SliceThickness": 2.7000000476837,
      "SmallestImagePixelValue": 0,
      "SoftwareVersions": "syngo MR E11",
      "SpacingBetweenSlices": 2.6999999771918,
      "SpecificCharacterSet": "ISO_IR 100",
      "StudyID": "2",
      "StudyTime": "201207.245000",
      "TransmitCoilName": "Body",
      "VariableFlipAngleFlag": "N",
      "WindowCenterWidthExplanation": "Algo1"
    },
    "slices": {}
  },
  "time": {
    "samples": {
      "AcquisitionNumber": [1, 2, 3, 4, 5, 6, 7, 8, 9, 10, 11, 12, 13, 14, 15, 16, 17, 18, 19, 20, 21, 22, 23, 24, 25, 26, 27, 28, 29, 30, 31, 32, 33, 34, 35, 36, 37, 38, 39, 40, 41, 42, 43, 44, 45, 46, 47, 48, 49, 50, 51, 52, 53, 54, 55, 56, 57, 58, 59, 60, 61, 62, 63, 64, 65, 66, 67, 68, 69, 70, 71, 72, 73, 74, 75, 76, 77, 78, 79, 80, 81, 82, 83, 84, 85, 86, 87, 88, 89, 90, 91, 92, 93, 94, 95, 96, 97, 98, 99, 100, 101, 102, 103, 104, 105, 106, 107, 108, 109, 110, 111, 112, 113, 114, 115, 116, 117, 118, 119, 120, 121, 122, 123, 124, 125, 126, 127, 128, 129, 130, 131, 132, 133, 134, 135, 136, 137, 138, 139, 140, 141, 142, 143, 144, 145, 146, 147, 148, 149, 150, 151, 152, 153, 154, 155, 156, 157, 158, 159, 160, 161, 162, 163, 164, 165, 166, 167, 168, 169, 170, 171, 172, 173, 174, 175, 176, 177, 178, 179, 180, 181, 182, 183, 184, 185, 186, 187, 188, 189, 190, 191, 192, 193, 194, 195, 196, 197, 198, 199, 200, 201, 202, 203, 204, 205, 206, 207, 208, 209, 210, 211, 212, 213, 214, 215, 216, 217, 218, 219, 220, 221, 222, 223, 224, 225, 226, 227, 228, 229, 230, 231, 232, 233, 234, 235, 236, 237, 238, 239, 240, 241, 242, 243, 244, 245, 246, 247, 248, 249, 250, 251, 252, 253, 254, 255, 256, 257, 258, 259, 260, 261, 262, 263, 264, 265, 266, 267, 268, 269, 270, 271, 272, 273, 274, 275, 276, 277, 278, 279, 280, 281, 282, 283, 284, 285, 286, 287, 288, 289, 290, 291, 292, 293, 294, 295, 296, 297, 298, 299, 300, 301, 302, 303, 304, 305, 306, 307, 308, 309, 310, 311, 312, 313, 314, 315, 316, 317, 318, 319, 320, 321, 322, 323, 324, 325, 326, 327, 328, 329, 330, 331, 332, 333, 334, 335, 336, 337, 338, 339, 340, 341, 342, 343, 344, 345, 346, 347, 348, 349, 350, 351, 352, 353, 354, 355, 356, 357, 358, 359, 360, 361, 362, 363, 364, 365, 366, 367, 368, 369, 370, 371, 372, 373, 374, 375, 376, 377, 378, 379, 380, 381, 382, 383, 384, 385, 386, 387, 388, 389, 390, 391, 392, 393, 394, 395, 396, 397, 398, 399, 400, 401, 402, 403, 404, 405, 406, 407, 408, 409, 410, 411, 412, 413, 414, 415, 416, 417, 418, 419, 420, 421, 422, 423, 424, 425, 426, 427, 428, 429, 430, 431, 432, 433, 434, 435, 436, 437, 438, 439, 440, 441, 442, 443, 444, 445, 446, 447, 448, 449, 450, 451, 452, 453, 454, 455, 456, 457, 458, 459, 460, 461, 462, 463, 464, 465, 466, 467, 468, 469, 470, 471, 472, 473, 474, 475, 476, 477, 478, 479, 480, 481, 482, 483, 484, 485, 486, 487, 488, 489, 490, 491, 492, 493, 494, 495, 496, 497, 498, 499, 500, 501, 502, 503, 504, 505, 506, 507, 508, 509, 510, 511, 512, 513, 514, 515, 516, 517, 518, 519, 520, 521, 522, 523, 524, 525, 526, 527, 528, 529, 530, 531, 532, 533, 534, 535, 536, 537, 538, 539, 540, 541, 542, 543, 544, 545, 546, 547, 548, 549, 550, 551, 552, 553, 554, 555, 556, 557, 558, 559, 560, 561, 562, 563, 564, 565, 566, 567, 568, 569, 570, 571, 572, 573, 574, 575, 576, 577, 578, 579, 580, 581, 582, 583, 584, 585, 586, 587, 588, 589, 590, 591, 592, 593, 594, 595, 596, 597, 598, 599, 600, 601, 602, 603, 604, 605, 606, 607, 608, 609, 610, 611, 612, 613, 614, 615, 616, 617, 618, 619, 620, 621, 622, 623, 624, 625, 626, 627, 628, 629, 630, 631, 632, 633, 634, 635, 636, 637, 638, 639, 640, 641, 642, 643, 644, 645, 646, 647, 648, 649, 650, 651, 652, 653, 654, 655, 656, 657, 658, 659, 660, 661, 662, 663, 664, 665, 666, 667, 668, 669, 670, 671, 672, 673, 674, 675, 676, 677, 678, 679, 680, 681, 682, 683, 684, 685, 686, 687, 688, 689, 690, 691, 692, 693, 694, 695, 696, 697, 698, 699, 700, 701, 702, 703, 704, 705, 706, 707, 708, 709, 710, 711, 712, 713, 714, 715, 716, 717, 718, 719, 720, 721, 722, 723, 724, 725, 726, 727, 728, 729, 730, 731, 732, 733, 734, 735, 736, 737, 738, 739, 740, 741, 742, 743, 744, 745, 746, 747, 748, 749, 750, 751, 752, 753, 754, 755, 756, 757, 758, 759, 760, 761, 762, 763, 764, 765, 766, 767, 768, 769, 770, 771, 772, 773, 774, 775, 776, 777, 778, 779, 780, 781, 782, 783, 784, 785, 786, 787, 788, 789, 790, 791, 792, 793, 794, 795, 796, 797, 798, 799, 800, 801, 802, 803, 804, 805, 806, 807, 808, 809, 810, 811, 812, 813, 814, 815, 816, 817, 818, 819, 820, 821, 822, 823, 824, 825, 826, 827, 828, 829, 830, 831, 832, 833, 834, 835, 836, 837, 838, 839, 840, 841, 842, 843, 844, 845, 846, 847, 848, 849, 850, 851, 852, 853, 854, 855, 856, 857, 858, 859, 860, 861, 862, 863, 864, 865, 866, 867, 868, 869, 870, 871, 872, 873, 874, 875, 876, 877, 878, 879, 880, 881, 882, 883, 884, 885, 886, 887, 888, 889, 890, 891, 892, 893, 894, 895, 896, 897, 898, 899, 900, 901, 902, 903, 904, 905, 906, 907, 908, 909, 910, 911, 912, 913, 914, 915, 916, 917, 918, 919, 920, 921, 922, 923, 924, 925, 926],
      "AcquisitionTime": ["220904.022500", "220904.482500", "220904.942500", "220905.402500", "220905.862500", "220906.322500", "220906.782500", "220907.242500", "220907.702500", "220908.162500", "220908.622500", "220909.082500", "220909.542500", "220910.002500", "220910.462500", "220910.922500", "220911.382500", "220911.842500", "220912.302500", "220912.762500", "220913.222500", "220913.682500", "220914.142500", "220914.602500", "220915.062500", "220915.522500", "220915.982500", "220916.442500", "220916.902500", "220917.362500", "220917.822500", "220918.282500", "220918.742500", "220919.202500", "220919.662500", "220920.122500", "220920.582500", "220921.042500", "220921.502500", "220921.962500", "220922.422500", "220922.882500", "220923.342500", "220923.802500", "220924.262500", "220924.722500", "220925.182500", "220925.642500", "220926.102500", "220926.562500", "220927.022500", "220927.482500", "220927.942500", "220928.402500", "220928.862500", "220929.322500", "220929.782500", "220930.242500", "220930.702500", "220931.162500", "220931.622500", "220932.082500", "220932.542500", "220933.002500", "220933.462500", "220933.922500", "220934.382500", "220934.842500", "220935.302500", "220935.762500", "220936.222500", "220936.682500", "220937.142500", "220937.602500", "220938.062500", "220938.522500", "220938.982500", "220939.442500", "220939.902500", "220940.362500", "220940.822500", "220941.282500", "220941.742500", "220942.202500", "220942.662500", "220943.122500", "220943.582500", "220944.042500", "220944.502500", "220944.962500", "220945.422500", "220945.882500", "220946.342500", "220946.802500", "220947.262500", "220947.722500", "220948.182500", "220948.642500", "220949.102500", "220949.562500", "220950.022500", "220950.482500", "220950.942500", "220951.402500", "220951.862500", "220952.322500", "220952.782500", "220953.242500", "220953.702500", "220954.162500", "220954.622500", "220955.082500", "220955.542500", "220956.002500", "220956.462500", "220956.922500", "220957.382500", "220957.842500", "220958.302500", "220958.762500", "220959.222500", "220959.682500", "221000.142500", "221000.602500", "221001.062500", "221001.522500", "221001.982500", "221002.442500", "221002.902500", "221003.362500", "221003.822500", "221004.282500", "221004.742500", "221005.202500", "221005.662500", "221006.122500", "221006.582500", "221007.042500", "221007.502500", "221007.962500", "221008.422500", "221008.882500", "221009.342500", "221009.802500", "221010.262500", "221010.722500", "221011.182500", "221011.642500", "221012.102500", "221012.562500", "221013.022500", "221013.482500", "221013.942500", "221014.402500", "221014.862500", "221015.322500", "221015.782500", "221016.242500", "221016.702500", "221017.162500", "221017.622500", "221018.082500", "221018.542500", "221019.002500", "221019.462500", "221019.922500", "221020.382500", "221020.842500", "221021.302500", "221021.762500", "221022.222500", "221022.682500", "221023.142500", "221023.602500", "221024.062500", "221024.522500", "221024.982500", "221025.442500", "221025.902500", "221026.362500", "221026.822500", "221027.282500", "221027.742500", "221028.202500", "221028.662500", "221029.122500", "221029.582500", "221030.042500", "221030.502500", "221030.962500", "221031.422500", "221031.882500", "221032.342500", "221032.802500", "221033.262500", "221033.722500", "221034.182500", "221034.642500", "221035.102500", "221035.562500", "221036.022500", "221036.482500", "221036.942500", "221037.402500", "221037.862500", "221038.322500", "221038.782500", "221039.242500", "221039.702500", "221040.162500", "221040.622500", "221041.082500", "221041.542500", "221042.002500", "221042.462500", "221042.922500", "221043.382500", "221043.842500", "221044.302500", "221044.762500", "221045.222500", "221045.682500", "221046.142500", "221046.602500", "221047.062500", "221047.522500", "221047.982500", "221048.442500", "221048.902500", "221049.362500", "221049.822500", "221050.282500", "221050.742500", "221051.202500", "221051.662500", "221052.122500", "221052.582500", "221053.042500", "221053.502500", "221053.962500", "221054.422500", "221054.882500", "221055.342500", "221055.802500", "221056.262500", "221056.722500", "221057.182500", "221057.642500", "221058.102500", "221058.562500", "221059.022500", "221059.482500", "221059.942500", "221100.402500", "221100.862500", "221101.322500", "221101.782500", "221102.242500", "221102.702500", "221103.162500", "221103.622500", "221104.082500", "221104.542500", "221105.002500", "221105.462500", "221105.922500", "221106.382500", "221106.842500", "221107.302500", "221107.762500", "221108.222500", "221108.682500", "221109.142500", "221109.602500", "221110.062500", "221110.522500", "221110.982500", "221111.442500", "221111.902500", "221112.362500", "221112.822500", "221113.282500", "221113.742500", "221114.202500", "221114.662500", "221115.122500", "221115.582500", "221116.042500", "221116.502500", "221116.962500", "221117.422500", "221117.882500", "221118.342500", "221118.802500", "221119.262500", "221119.722500", "221120.182500", "221120.642500", "221121.102500", "221121.562500", "221122.022500", "221122.482500", "221122.942500", "221123.402500", "221123.862500", "221124.322500", "221124.782500", "221125.242500", "221125.702500", "221126.162500", "221126.622500", "221127.082500", "221127.542500", "221128.002500", "221128.462500", "221128.922500", "221129.382500", "221129.842500", "221130.302500", "221130.762500", "221131.222500", "221131.682500", "221132.142500", "221132.602500", "221133.062500", "221133.522500", "221133.982500", "221134.442500", "221134.902500", "221135.362500", "221135.822500", "221136.282500", "221136.742500", "221137.202500", "221137.662500", "221138.122500", "221138.582500", "221139.042500", "221139.502500", "221139.962500", "221140.422500", "221140.882500", "221141.342500", "221141.802500", "221142.262500", "221142.722500", "221143.182500", "221143.642500", "221144.102500", "221144.562500", "221145.022500", "221145.482500", "221145.942500", "221146.402500", "221146.862500", "221147.322500", "221147.782500", "221148.242500", "221148.702500", "221149.162500", "221149.622500", "221150.082500", "221150.542500", "221151.002500", "221151.462500", "221151.922500", "221152.382500", "221152.842500", "221153.302500", "221153.762500", "221154.222500", "221154.682500", "221155.142500", "221155.602500", "221156.062500", "221156.522500", "221156.982500", "221157.442500", "221157.902500", "221158.362500", "221158.822500", "221159.282500", "221159.742500", "221200.202500", "221200.662500", "221201.122500", "221201.582500", "221202.042500", "221202.502500", "221202.962500", "221203.422500", "221203.882500", "221204.342500", "221204.802500", "221205.262500", "221205.722500", "221206.182500", "221206.642500", "221207.102500", "221207.562500", "221208.022500", "221208.482500", "221208.942500", "221209.402500", "221209.862500", "221210.322500", "221210.782500", "221211.242500", "221211.702500", "221212.162500", "221212.622500", "221213.082500", "221213.542500", "221214.002500", "221214.462500", "221214.922500", "221215.382500", "221215.842500", "221216.302500", "221216.762500", "221217.222500", "221217.682500", "221218.142500", "221218.602500", "221219.062500", "221219.522500", "221219.982500", "221220.442500", "221220.902500", "221221.362500", "221221.822500", "221222.282500", "221222.742500", "221223.202500", "221223.662500", "221224.122500", "221224.582500", "221225.042500", "221225.502500", "221225.962500", "221226.422500", "221226.882500", "221227.342500", "221227.802500", "221228.262500", "221228.722500", "221229.182500", "221229.642500", "221230.102500", "221230.562500", "221231.022500", "221231.482500", "221231.942500", "221232.402500", "221232.862500", "221233.322500", "221233.782500", "221234.242500", "221234.702500", "221235.162500", "221235.622500", "221236.082500", "221236.542500", "221237.002500", "221237.462500", "221237.922500", "221238.382500", "221238.842500", "221239.302500", "221239.762500", "221240.222500", "221240.682500", "221241.142500", "221241.602500", "221242.062500", "221242.522500", "221242.982500", "221243.442500", "221243.902500", "221244.362500", "221244.822500", "221245.282500", "221245.742500", "221246.202500", "221246.662500", "221247.122500", "221247.582500", "221248.042500", "221248.502500", "221248.962500", "221249.422500", "221249.882500", "221250.342500", "221250.802500", "221251.262500", "221251.722500", "221252.182500", "221252.642500", "221253.102500", "221253.562500", "221254.022500", "221254.482500", "221254.942500", "221255.402500", "221255.862500", "221256.322500", "221256.782500", "221257.242500", "221257.702500", "221258.162500", "221258.622500", "221259.082500", "221259.542500", "221300.002500", "221300.462500", "221300.922500", "221301.382500", "221301.842500", "221302.302500", "221302.762500", "221303.222500", "221303.682500", "221304.142500", "221304.602500", "221305.062500", "221305.522500", "221305.982500", "221306.442500", "221306.902500", "221307.362500", "221307.822500", "221308.282500", "221308.742500", "221309.202500", "221309.662500", "221310.122500", "221310.582500", "221311.042500", "221311.502500", "221311.962500", "221312.422500", "221312.882500", "221313.342500", "221313.802500", "221314.262500", "221314.722500", "221315.182500", "221315.642500", "221316.102500", "221316.562500", "221317.022500", "221317.482500", "221317.942500", "221318.402500", "221318.862500", "221319.322500", "221319.782500", "221320.242500", "221320.702500", "221321.162500", "221321.622500", "221322.082500", "221322.542500", "221323.002500", "221323.462500", "221323.922500", "221324.382500", "221324.842500", "221325.302500", "221325.762500", "221326.222500", "221326.682500", "221327.142500", "221327.602500", "221328.062500", "221328.522500", "221328.982500", "221329.442500", "221329.902500", "221330.362500", "221330.822500", "221331.282500", "221331.742500", "221332.202500", "221332.662500", "221333.122500", "221333.582500", "221334.042500", "221334.502500", "221334.962500", "221335.422500", "221335.882500", "221336.342500", "221336.802500", "221337.262500", "221337.722500", "221338.182500", "221338.642500", "221339.102500", "221339.562500", "221340.022500", "221340.482500", "221340.942500", "221341.402500", "221341.862500", "221342.322500", "221342.782500", "221343.242500", "221343.702500", "221344.162500", "221344.622500", "221345.082500", "221345.542500", "221346.002500", "221346.462500", "221346.922500", "221347.382500", "221347.842500", "221348.302500", "221348.762500", "221349.222500", "221349.682500", "221350.142500", "221350.602500", "221351.062500", "221351.522500", "221351.982500", "221352.442500", "221352.902500", "221353.362500", "221353.822500", "221354.282500", "221354.742500", "221355.202500", "221355.662500", "221356.122500", "221356.582500", "221357.042500", "221357.502500", "221357.962500", "221358.422500", "221358.882500", "221359.342500", "221359.802500", "221400.262500", "221400.722500", "221401.182500", "221401.642500", "221402.102500", "221402.562500", "221403.022500", "221403.482500", "221403.942500", "221404.402500", "221404.862500", "221405.322500", "221405.782500", "221406.242500", "221406.702500", "221407.162500", "221407.622500", "221408.082500", "221408.542500", "221409.002500", "221409.462500", "221409.922500", "221410.382500", "221410.842500", "221411.302500", "221411.762500", "221412.222500", "221412.682500", "221413.142500", "221413.602500", "221414.062500", "221414.522500", "221414.982500", "221415.442500", "221415.902500", "221416.362500", "221416.822500", "221417.282500", "221417.742500", "221418.202500", "221418.662500", "221419.122500", "221419.582500", "221420.042500", "221420.502500", "221420.962500", "221421.422500", "221421.882500", "221422.342500", "221422.802500", "221423.262500", "221423.722500", "221424.182500", "221424.642500", "221425.102500", "221425.562500", "221426.022500", "221426.482500", "221426.942500", "221427.402500", "221427.862500", "221428.322500", "221428.782500", "221429.242500", "221429.702500", "221430.162500", "221430.622500", "221431.082500", "221431.542500", "221432.002500", "221432.462500", "221432.922500", "221433.382500", "221433.842500", "221434.302500", "221434.762500", "221435.222500", "221435.682500", "221436.142500", "221436.602500", "221437.062500", "221437.522500", "221437.982500", "221438.442500", "221438.902500", "221439.362500", "221439.822500", "221440.282500", "221440.742500", "221441.202500", "221441.662500", "221442.122500", "221442.582500", "221443.042500", "221443.502500", "221443.962500", "221444.422500", "221444.882500", "221445.342500", "221445.802500", "221446.262500", "221446.722500", "221447.182500", "221447.642500", "221448.102500", "221448.562500", "221449.022500", "221449.482500", "221449.942500", "221450.402500", "221450.862500", "221451.322500", "221451.782500", "221452.242500", "221452.702500", "221453.162500", "221453.622500", "221454.082500", "221454.542500", "221455.002500", "221455.462500", "221455.922500", "221456.382500", "221456.842500", "221457.302500", "221457.762500", "221458.222500", "221458.682500", "221459.142500", "221459.602500", "221500.062500", "221500.522500", "221500.982500", "221501.442500", "221501.902500", "221502.362500", "221502.822500", "221503.282500", "221503.742500", "221504.202500", "221504.662500", "221505.122500", "221505.582500", "221506.042500", "221506.502500", "221506.962500", "221507.422500", "221507.882500", "221508.342500", "221508.802500", "221509.262500", "221509.722500", "221510.182500", "221510.642500", "221511.102500", "221511.562500", "221512.022500", "221512.482500", "221512.942500", "221513.402500", "221513.862500", "221514.322500", "221514.782500", "221515.242500", "221515.702500", "221516.162500", "221516.622500", "221517.082500", "221517.542500", "221518.002500", "221518.462500", "221518.922500", "221519.382500", "221519.842500", "221520.302500", "221520.762500", "221521.222500", "221521.682500", "221522.142500", "221522.602500", "221523.062500", "221523.522500", "221523.982500", "221524.442500", "221524.902500", "221525.362500", "221525.822500", "221526.282500", "221526.742500", "221527.202500", "221527.662500", "221528.122500", "221528.582500", "221529.042500", "221529.502500", "221529.962500", "221530.422500", "221530.882500", "221531.342500", "221531.802500", "221532.262500", "221532.722500", "221533.182500", "221533.642500", "221534.102500", "221534.562500", "221535.022500", "221535.482500", "221535.942500", "221536.402500", "221536.862500", "221537.322500", "221537.782500", "221538.242500", "221538.702500", "221539.162500", "221539.622500", "221540.082500", "221540.542500", "221541.002500", "221541.462500", "221541.922500", "221542.382500", "221542.842500", "221543.302500", "221543.762500", "221544.222500", "221544.682500", "221545.142500", "221545.602500", "221546.062500", "221546.522500", "221546.982500", "221547.442500", "221547.902500", "221548.362500", "221548.822500", "221549.282500", "221549.742500", "221550.202500", "221550.662500", "221551.122500", "221551.582500", "221552.042500", "221552.502500", "221552.962500", "221553.422500", "221553.882500", "221554.342500", "221554.802500", "221555.262500", "221555.722500", "221556.182500", "221556.642500", "221557.102500", "221557.562500", "221558.022500", "221558.482500", "221558.942500", "221559.402500", "221559.862500", "221600.322500", "221600.782500", "221601.242500", "221601.702500", "221602.162500", "221602.622500", "221603.082500", "221603.542500", "221604.002500", "221604.462500", "221604.922500", "221605.382500", "221605.842500", "221606.302500", "221606.762500", "221607.222500", "221607.682500", "221608.142500", "221608.602500", "221609.062500", "221609.522500"],
