{
  "AcquisitionMatrixPE": 82,
  "AcquisitionNumber": 1,
  "AcquisitionTime": "15:27:24.127500",
  "BandwidthPerPixelPhaseEncode": 24.888,
  "BaseResolution": 82,
  "BodyPartExamined": "BRAIN",
  "ConsistencyInfo": "N4_VE11C_LATEST_20160120",
  "ConversionSoftware": "dcm2niix",
  "ConversionSoftwareVersion": "v1.0.20201102",
  "DerivedVendorReportedEchoSpacing": 0.00049,
  "DeviceSerialNumber": "66112",
  "DwellTime": 2e-06,
  "EchoTime": 0.0272,
  "EchoTrainLength": 82,
  "EffectiveEchoSpacing": 0.00049,
  "FlipAngle": 44,
  "ImageComments": "Unaliased MB8/PE3",
  "ImageOrientationPatientDICOM": [0.997216, -0.00529037, 0.0743751, 0.0116617, 0.99627, -0.085494],
  "ImageType": [
    "ORIGINAL",
    "PRIMARY",
    "M",
    "MB",
    "ND",
    "NORM",
    "MOSAIC"
],
  "ImagingFrequency": 123.252,
  "InPlanePhaseEncodingDirectionDICOM": "COL",
  "InstitutionAddress": "Maynard 3,Hanover,NH,US,03755",
  "InstitutionName": "Dartmouth College - PBS",
  "InstitutionalDepartmentName": "Department",
  "MRAcquisitionType": "2D",
  "MagneticFieldStrength": 3,
  "Manufacturer": "Siemens",
  "ManufacturersModelName": "Prisma",
  "Modality": "MR",
  "MultibandAccelerationFactor": 8,
  "PartialFourier": 1,
  "PatientPosition": "HFS",
  "PercentPhaseFOV": 100,
  "PercentSampling": 100,
  "PhaseEncodingDirection": "j-",
  "PhaseEncodingSteps": 82,
  "PhaseResolution": 1,
  "PixelBandwidth": 3050,
  "ProcedureStepDescription": "Wager_Wager^1076_spacetop",
  "ProtocolName": "func_run-03_task-social_acq-ap-mb8",
  "PulseSequenceDetails": "%CustomerSeq%\\cmrr_mbep2d_bold",
  "ReceiveCoilActiveElements": "HEA;HEP",
  "ReceiveCoilName": "Head_32",
  "ReconMatrixPE": 82,
  "RepetitionTime": 0.46,
  "SAR": 0.0757198,
  "ScanOptions": "FS",
  "ScanningSequence": "EP",
  "SequenceName": "epfid2d1_82",
  "SequenceVariant": "SK\\SS",
  "SeriesDescription": "func_run-03_task-social_acq-ap-mb8",
  "SeriesNumber": 12,
  "ShimSetting": [4167, -7742, -7242, 569, -33, -138, 8, 73],
  "SliceThickness": 2.7,
  "SliceTiming": [0, 0.2525, 0.065, 0.315, 0.1275, 0.3775, 0.19, 0, 0.2525, 0.065, 0.315, 0.1275, 0.3775, 0.19, 0, 0.2525, 0.065, 0.315, 0.1275, 0.3775, 0.19, 0, 0.2525, 0.065, 0.315, 0.1275, 0.3775, 0.19, 0, 0.2525, 0.065, 0.315, 0.1275, 0.3775, 0.19, 0, 0.2525, 0.065, 0.315, 0.1275, 0.3775, 0.19, 0, 0.2525, 0.065, 0.315, 0.1275, 0.3775, 0.19, 0, 0.2525, 0.065, 0.315, 0.1275, 0.3775, 0.19],
  "SoftwareVersions": "syngo MR E11",
  "SpacingBetweenSlices": 2.7,
  "StationName": "AWP66112",
  "TaskName": "social",
  "TotalReadoutTime": 0.03969,
  "TxRefAmp": 216.956,
  "WipMemBlock": "25f6ce74-1c81-4819-9087-2556dd4d52fe||Sequence: R016 ve11c/master r/e634e98; Dec 19 2017 11:00:25 by eja",
  "dcmmeta_affine": [
    [-2.6754584312438965, 0.03128756210207939, 0.19884254038333893, 106.42980194091797],
    [0.01419367827475071, 2.6729207038879395, -0.23253318667411804, -79.37171173095703],
    [0.19954286515712738, 0.22937428951263428, 2.6826088428497314, -74.253173828125],
    [0.0, 0.0, 0.0, 1.0]
],
  "dcmmeta_reorient_transform": [
    [0.0, -1.0, 0.0, 81.0],
    [1.0, 0.0, 0.0, 0.0],
    [0.0, 0.0, 1.0, 0.0],
    [0.0, 0.0, 0.0, 1.0]
],
  "dcmmeta_shape": [82, 82, 56, 872],
  "dcmmeta_slice_dim": 2,
  "dcmmeta_version": 0.6,
  "global": {
    "const": {
      "AccessionNumber": "A003527",
      "AcquisitionMatrix": [82, 0, 0, 82],
      "AngioFlag": "N",
      "BitsAllocated": 16,
      "BitsStored": 16,
      "BodyPartExamined": "BRAIN",
      "Columns": 656,
      "EchoNumbers": 1,
      "EchoTime": 27.2,
      "EchoTrainLength": 82,
      "FlipAngle": 44.0,
      "HighBit": 15,
      "ImageOrientationPatient": [0.99721630637992, -0.0052903707633, 0.0743750648214, 0.01166172807699, 0.99627043099687, -0.0854940490302],
      "ImagePositionPatient": [-885.80019597146, -900.18953564101, -47.112239616332],
      "ImageType": [
        "ORIGINAL",
        "PRIMARY",
        "M",
        "MB",
        "ND",
        "NORM",
        "MOSAIC"
],
      "ImagedNucleus": "1H",
      "ImagingFrequency": 123.252151,
      "InPlanePhaseEncodingDirection": "COL",
      "MRAcquisitionType": "2D",
      "MagneticFieldStrength": 3.0,
      "Manufacturer": "SIEMENS",
      "ManufacturerModelName": "Prisma",
      "Modality": "MR",
      "NumberOfAverages": 1.0,
      "NumberOfPhaseEncodingSteps": 82,
      "PercentPhaseFieldOfView": 100.0,
      "PercentSampling": 100.0,
      "PerformedProcedureStepStartTime": "144547.833000",
      "PhotometricInterpretation": "MONOCHROME2",
      "PixelBandwidth": 3050.0,
      "PixelRepresentation": 0,
      "PixelSpacing": [2.6829268932343, 2.6829268932343],
      "ProtocolName": "func_run-03_task-social_acq-ap-mb8",
      "RepetitionTime": 460.0,
      "Rows": 656,
      "SAR": 0.0757198220322,
      "SamplesPerPixel": 1,
      "ScanOptions": "FS",
      "ScanningSequence": "EP",
      "SequenceName": "epfid2d1_82",
      "SequenceVariant": [
        "SK",
        "SS"
],
      "SeriesDescription": "func_run-03_task-social_acq-ap-mb8",
      "SeriesNumber": 12,
      "SeriesTime": "152743.659000",
      "SliceLocation": -59.101071398909,
      "SliceThickness": 2.7000000476837,
      "SmallestImagePixelValue": 0,
      "SoftwareVersions": "syngo MR E11",
      "SpacingBetweenSlices": 2.6999999969183,
      "SpecificCharacterSet": "ISO_IR 100",
      "StudyID": "3",
      "StudyTime": "144547.787000",
      "TransmitCoilName": "Body",
      "VariableFlipAngleFlag": "N",
      "WindowCenterWidthExplanation": "Algo1",
      "dBdt": 0.0},
    "slices": {}
  },
  "time": {
    "samples": {
      "AcquisitionNumber": [1, 2, 3, 4, 5, 6, 7, 8, 9, 10, 11, 12, 13, 14, 15, 16, 17, 18, 19, 20, 21, 22, 23, 24, 25, 26, 27, 28, 29, 30, 31, 32, 33, 34, 35, 36, 37, 38, 39, 40, 41, 42, 43, 44, 45, 46, 47, 48, 49, 50, 51, 52, 53, 54, 55, 56, 57, 58, 59, 60, 61, 62, 63, 64, 65, 66, 67, 68, 69, 70, 71, 72, 73, 74, 75, 76, 77, 78, 79, 80, 81, 82, 83, 84, 85, 86, 87, 88, 89, 90, 91, 92, 93, 94, 95, 96, 97, 98, 99, 100, 101, 102, 103, 104, 105, 106, 107, 108, 109, 110, 111, 112, 113, 114, 115, 116, 117, 118, 119, 120, 121, 122, 123, 124, 125, 126, 127, 128, 129, 130, 131, 132, 133, 134, 135, 136, 137, 138, 139, 140, 141, 142, 143, 144, 145, 146, 147, 148, 149, 150, 151, 152, 153, 154, 155, 156, 157, 158, 159, 160, 161, 162, 163, 164, 165, 166, 167, 168, 169, 170, 171, 172, 173, 174, 175, 176, 177, 178, 179, 180, 181, 182, 183, 184, 185, 186, 187, 188, 189, 190, 191, 192, 193, 194, 195, 196, 197, 198, 199, 200, 201, 202, 203, 204, 205, 206, 207, 208, 209, 210, 211, 212, 213, 214, 215, 216, 217, 218, 219, 220, 221, 222, 223, 224, 225, 226, 227, 228, 229, 230, 231, 232, 233, 234, 235, 236, 237, 238, 239, 240, 241, 242, 243, 244, 245, 246, 247, 248, 249, 250, 251, 252, 253, 254, 255, 256, 257, 258, 259, 260, 261, 262, 263, 264, 265, 266, 267, 268, 269, 270, 271, 272, 273, 274, 275, 276, 277, 278, 279, 280, 281, 282, 283, 284, 285, 286, 287, 288, 289, 290, 291, 292, 293, 294, 295, 296, 297, 298, 299, 300, 301, 302, 303, 304, 305, 306, 307, 308, 309, 310, 311, 312, 313, 314, 315, 316, 317, 318, 319, 320, 321, 322, 323, 324, 325, 326, 327, 328, 329, 330, 331, 332, 333, 334, 335, 336, 337, 338, 339, 340, 341, 342, 343, 344, 345, 346, 347, 348, 349, 350, 351, 352, 353, 354, 355, 356, 357, 358, 359, 360, 361, 362, 363, 364, 365, 366, 367, 368, 369, 370, 371, 372, 373, 374, 375, 376, 377, 378, 379, 380, 381, 382, 383, 384, 385, 386, 387, 388, 389, 390, 391, 392, 393, 394, 395, 396, 397, 398, 399, 400, 401, 402, 403, 404, 405, 406, 407, 408, 409, 410, 411, 412, 413, 414, 415, 416, 417, 418, 419, 420, 421, 422, 423, 424, 425, 426, 427, 428, 429, 430, 431, 432, 433, 434, 435, 436, 437, 438, 439, 440, 441, 442, 443, 444, 445, 446, 447, 448, 449, 450, 451, 452, 453, 454, 455, 456, 457, 458, 459, 460, 461, 462, 463, 464, 465, 466, 467, 468, 469, 470, 471, 472, 473, 474, 475, 476, 477, 478, 479, 480, 481, 482, 483, 484, 485, 486, 487, 488, 489, 490, 491, 492, 493, 494, 495, 496, 497, 498, 499, 500, 501, 502, 503, 504, 505, 506, 507, 508, 509, 510, 511, 512, 513, 514, 515, 516, 517, 518, 519, 520, 521, 522, 523, 524, 525, 526, 527, 528, 529, 530, 531, 532, 533, 534, 535, 536, 537, 538, 539, 540, 541, 542, 543, 544, 545, 546, 547, 548, 549, 550, 551, 552, 553, 554, 555, 556, 557, 558, 559, 560, 561, 562, 563, 564, 565, 566, 567, 568, 569, 570, 571, 572, 573, 574, 575, 576, 577, 578, 579, 580, 581, 582, 583, 584, 585, 586, 587, 588, 589, 590, 591, 592, 593, 594, 595, 596, 597, 598, 599, 600, 601, 602, 603, 604, 605, 606, 607, 608, 609, 610, 611, 612, 613, 614, 615, 616, 617, 618, 619, 620, 621, 622, 623, 624, 625, 626, 627, 628, 629, 630, 631, 632, 633, 634, 635, 636, 637, 638, 639, 640, 641, 642, 643, 644, 645, 646, 647, 648, 649, 650, 651, 652, 653, 654, 655, 656, 657, 658, 659, 660, 661, 662, 663, 664, 665, 666, 667, 668, 669, 670, 671, 672, 673, 674, 675, 676, 677, 678, 679, 680, 681, 682, 683, 684, 685, 686, 687, 688, 689, 690, 691, 692, 693, 694, 695, 696, 697, 698, 699, 700, 701, 702, 703, 704, 705, 706, 707, 708, 709, 710, 711, 712, 713, 714, 715, 716, 717, 718, 719, 720, 721, 722, 723, 724, 725, 726, 727, 728, 729, 730, 731, 732, 733, 734, 735, 736, 737, 738, 739, 740, 741, 742, 743, 744, 745, 746, 747, 748, 749, 750, 751, 752, 753, 754, 755, 756, 757, 758, 759, 760, 761, 762, 763, 764, 765, 766, 767, 768, 769, 770, 771, 772, 773, 774, 775, 776, 777, 778, 779, 780, 781, 782, 783, 784, 785, 786, 787, 788, 789, 790, 791, 792, 793, 794, 795, 796, 797, 798, 799, 800, 801, 802, 803, 804, 805, 806, 807, 808, 809, 810, 811, 812, 813, 814, 815, 816, 817, 818, 819, 820, 821, 822, 823, 824, 825, 826, 827, 828, 829, 830, 831, 832, 833, 834, 835, 836, 837, 838, 839, 840, 841, 842, 843, 844, 845, 846, 847, 848, 849, 850, 851, 852, 853, 854, 855, 856, 857, 858, 859, 860, 861, 862, 863, 864, 865, 866, 867, 868, 869, 870, 871, 872],
      "AcquisitionTime": ["152724.127500", "152724.587500", "152725.047500", "152725.507500", "152725.967500", "152726.427500", "152726.887500", "152727.347500", "152727.807500", "152728.267500", "152728.727500", "152729.187500", "152729.647500", "152730.107500", "152730.567500", "152731.027500", "152731.487500", "152731.947500", "152732.407500", "152732.867500", "152733.327500", "152733.787500", "152734.247500", "152734.707500", "152735.167500", "152735.627500", "152736.087500", "152736.547500", "152737.007500", "152737.467500", "152737.927500", "152738.387500", "152738.847500", "152739.307500", "152739.767500", "152740.227500", "152740.687500", "152741.147500", "152741.607500", "152742.067500", "152742.527500", "152742.987500", "152743.447500", "152743.907500", "152744.367500", "152744.827500", "152745.287500", "152745.747500", "152746.207500", "152746.667500", "152747.127500", "152747.587500", "152748.047500", "152748.507500", "152748.967500", "152749.427500", "152749.887500", "152750.347500", "152750.807500", "152751.267500", "152751.727500", "152752.187500", "152752.647500", "152753.107500", "152753.567500", "152754.027500", "152754.487500", "152754.947500", "152755.407500", "152755.867500", "152756.327500", "152756.787500", "152757.247500", "152757.707500", "152758.167500", "152758.627500", "152759.087500", "152759.547500", "152800.007500", "152800.467500", "152800.927500", "152801.387500", "152801.847500", "152802.307500", "152802.767500", "152803.227500", "152803.687500", "152804.147500", "152804.607500", "152805.067500", "152805.527500", "152805.987500", "152806.447500", "152806.907500", "152807.367500", "152807.827500", "152808.287500", "152808.747500", "152809.207500", "152809.667500", "152810.127500", "152810.587500", "152811.047500", "152811.507500", "152811.967500", "152812.427500", "152812.887500", "152813.347500", "152813.807500", "152814.267500", "152814.727500", "152815.187500", "152815.647500", "152816.107500", "152816.567500", "152817.027500", "152817.487500", "152817.947500", "152818.407500", "152818.867500", "152819.327500", "152819.787500", "152820.247500", "152820.707500", "152821.167500", "152821.627500", "152822.087500", "152822.547500", "152823.007500", "152823.467500", "152823.927500", "152824.387500", "152824.847500", "152825.307500", "152825.767500", "152826.227500", "152826.687500", "152827.147500", "152827.607500", "152828.067500", "152828.527500", "152828.987500", "152829.447500", "152829.907500", "152830.367500", "152830.827500", "152831.287500", "152831.747500", "152832.207500", "152832.667500", "152833.127500", "152833.587500", "152834.047500", "152834.507500", "152834.967500", "152835.427500", "152835.887500", "152836.347500", "152836.807500", "152837.267500", "152837.727500", "152838.187500", "152838.647500", "152839.107500", "152839.567500", "152840.027500", "152840.487500", "152840.947500", "152841.407500", "152841.867500", "152842.327500", "152842.787500", "152843.247500", "152843.707500", "152844.167500", "152844.627500", "152845.087500", "152845.547500", "152846.007500", "152846.467500", "152846.927500", "152847.387500", "152847.847500", "152848.307500", "152848.767500", "152849.227500", "152849.687500", "152850.147500", "152850.607500", "152851.067500", "152851.527500", "152851.987500", "152852.447500", "152852.907500", "152853.367500", "152853.827500", "152854.287500", "152854.747500", "152855.207500", "152855.667500", "152856.127500", "152856.587500", "152857.047500", "152857.507500", "152857.967500", "152858.427500", "152858.887500", "152859.347500", "152859.807500", "152900.267500", "152900.727500", "152901.187500", "152901.647500", "152902.107500", "152902.567500", "152903.027500", "152903.487500", "152903.947500", "152904.407500", "152904.867500", "152905.327500", "152905.787500", "152906.247500", "152906.707500", "152907.167500", "152907.627500", "152908.087500", "152908.547500", "152909.007500", "152909.467500", "152909.927500", "152910.387500", "152910.847500", "152911.307500", "152911.767500", "152912.227500", "152912.687500", "152913.147500", "152913.607500", "152914.067500", "152914.527500", "152914.987500", "152915.447500", "152915.907500", "152916.367500", "152916.827500", "152917.287500", "152917.747500", "152918.207500", "152918.667500", "152919.127500", "152919.587500", "152920.047500", "152920.507500", "152920.967500", "152921.427500", "152921.887500", "152922.347500", "152922.807500", "152923.267500", "152923.727500", "152924.187500", "152924.647500", "152925.107500", "152925.567500", "152926.027500", "152926.487500", "152926.947500", "152927.407500", "152927.867500", "152928.327500", "152928.787500", "152929.247500", "152929.707500", "152930.167500", "152930.627500", "152931.087500", "152931.547500", "152932.007500", "152932.467500", "152932.927500", "152933.387500", "152933.847500", "152934.307500", "152934.767500", "152935.227500", "152935.687500", "152936.147500", "152936.607500", "152937.067500", "152937.527500", "152937.987500", "152938.447500", "152938.907500", "152939.367500", "152939.827500", "152940.287500", "152940.747500", "152941.207500", "152941.667500", "152942.127500", "152942.587500", "152943.047500", "152943.507500", "152943.967500", "152944.427500", "152944.887500", "152945.347500", "152945.807500", "152946.267500", "152946.727500", "152947.187500", "152947.647500", "152948.107500", "152948.567500", "152949.027500", "152949.487500", "152949.947500", "152950.407500", "152950.867500", "152951.327500", "152951.787500", "152952.247500", "152952.707500", "152953.167500", "152953.627500", "152954.087500", "152954.547500", "152955.007500", "152955.467500", "152955.927500", "152956.387500", "152956.847500", "152957.307500", "152957.767500", "152958.227500", "152958.687500", "152959.147500", "152959.607500", "153000.067500", "153000.527500", "153000.987500", "153001.447500", "153001.907500", "153002.367500", "153002.827500", "153003.287500", "153003.747500", "153004.207500", "153004.667500", "153005.127500", "153005.587500", "153006.047500", "153006.507500", "153006.967500", "153007.427500", "153007.887500", "153008.347500", "153008.807500", "153009.267500", "153009.727500", "153010.187500", "153010.647500", "153011.107500", "153011.567500", "153012.027500", "153012.487500", "153012.947500", "153013.407500", "153013.867500", "153014.327500", "153014.787500", "153015.247500", "153015.707500", "153016.167500", "153016.627500", "153017.087500", "153017.547500", "153018.007500", "153018.467500", "153018.927500", "153019.387500", "153019.847500", "153020.307500", "153020.767500", "153021.227500", "153021.687500", "153022.147500", "153022.607500", "153023.067500", "153023.527500", "153023.987500", "153024.447500", "153024.907500", "153025.367500", "153025.827500", "153026.287500", "153026.747500", "153027.207500", "153027.667500", "153028.127500", "153028.587500", "153029.047500", "153029.507500", "153029.967500", "153030.427500", "153030.887500", "153031.347500", "153031.807500", "153032.267500", "153032.727500", "153033.187500", "153033.647500", "153034.107500", "153034.567500", "153035.027500", "153035.487500", "153035.947500", "153036.407500", "153036.867500", "153037.327500", "153037.787500", "153038.247500", "153038.707500", "153039.167500", "153039.627500", "153040.087500", "153040.547500", "153041.007500", "153041.467500", "153041.927500", "153042.387500", "153042.847500", "153043.307500", "153043.767500", "153044.227500", "153044.687500", "153045.147500", "153045.607500", "153046.067500", "153046.527500", "153046.987500", "153047.447500", "153047.907500", "153048.367500", "153048.827500", "153049.287500", "153049.747500", "153050.207500", "153050.667500", "153051.127500", "153051.587500", "153052.047500", "153052.507500", "153052.967500", "153053.427500", "153053.887500", "153054.347500", "153054.807500", "153055.267500", "153055.727500", "153056.187500", "153056.647500", "153057.107500", "153057.567500", "153058.027500", "153058.487500", "153058.947500", "153059.407500", "153059.867500", "153100.327500", "153100.787500", "153101.247500", "153101.707500", "153102.167500", "153102.627500", "153103.087500", "153103.547500", "153104.007500", "153104.467500", "153104.927500", "153105.387500", "153105.847500", "153106.307500", "153106.767500", "153107.227500", "153107.687500", "153108.147500", "153108.607500", "153109.067500", "153109.527500", "153109.987500", "153110.447500", "153110.907500", "153111.367500", "153111.827500", "153112.287500", "153112.747500", "153113.207500", "153113.667500", "153114.127500", "153114.587500", "153115.047500", "153115.507500", "153115.967500", "153116.427500", "153116.887500", "153117.347500", "153117.807500", "153118.267500", "153118.727500", "153119.187500", "153119.647500", "153120.107500", "153120.567500", "153121.027500", "153121.487500", "153121.947500", "153122.407500", "153122.867500", "153123.327500", "153123.787500", "153124.247500", "153124.707500", "153125.167500", "153125.627500", "153126.087500", "153126.547500", "153127.007500", "153127.467500", "153127.927500", "153128.387500", "153128.847500", "153129.307500", "153129.767500", "153130.227500", "153130.687500", "153131.147500", "153131.607500", "153132.067500", "153132.527500", "153132.987500", "153133.447500", "153133.907500", "153134.367500", "153134.827500", "153135.287500", "153135.747500", "153136.207500", "153136.667500", "153137.127500", "153137.587500", "153138.047500", "153138.507500", "153138.967500", "153139.427500", "153139.887500", "153140.347500", "153140.807500", "153141.267500", "153141.727500", "153142.187500", "153142.647500", "153143.107500", "153143.567500", "153144.027500", "153144.487500", "153144.947500", "153145.407500", "153145.867500", "153146.327500", "153146.787500", "153147.247500", "153147.707500", "153148.167500", "153148.627500", "153149.087500", "153149.547500", "153150.007500", "153150.467500", "153150.927500", "153151.387500", "153151.847500", "153152.307500", "153152.767500", "153153.227500", "153153.687500", "153154.147500", "153154.607500", "153155.067500", "153155.527500", "153155.987500", "153156.447500", "153156.907500", "153157.367500", "153157.827500", "153158.287500", "153158.747500", "153159.207500", "153159.667500", "153200.127500", "153200.587500", "153201.047500", "153201.507500", "153201.967500", "153202.427500", "153202.887500", "153203.347500", "153203.807500", "153204.267500", "153204.727500", "153205.187500", "153205.647500", "153206.107500", "153206.567500", "153207.027500", "153207.487500", "153207.947500", "153208.407500", "153208.867500", "153209.327500", "153209.787500", "153210.247500", "153210.707500", "153211.167500", "153211.627500", "153212.087500", "153212.547500", "153213.007500", "153213.467500", "153213.927500", "153214.387500", "153214.847500", "153215.307500", "153215.767500", "153216.227500", "153216.687500", "153217.147500", "153217.607500", "153218.067500", "153218.527500", "153218.987500", "153219.447500", "153219.907500", "153220.367500", "153220.827500", "153221.287500", "153221.747500", "153222.207500", "153222.667500", "153223.127500", "153223.587500", "153224.047500", "153224.507500", "153224.967500", "153225.427500", "153225.887500", "153226.347500", "153226.807500", "153227.267500", "153227.727500", "153228.187500", "153228.647500", "153229.107500", "153229.567500", "153230.027500", "153230.487500", "153230.947500", "153231.407500", "153231.867500", "153232.327500", "153232.787500", "153233.247500", "153233.707500", "153234.167500", "153234.627500", "153235.087500", "153235.547500", "153236.007500", "153236.467500", "153236.927500", "153237.387500", "153237.847500", "153238.307500", "153238.767500", "153239.227500", "153239.687500", "153240.147500", "153240.607500", "153241.067500", "153241.527500", "153241.987500", "153242.447500", "153242.907500", "153243.367500", "153243.827500", "153244.287500", "153244.747500", "153245.207500", "153245.667500", "153246.127500", "153246.587500", "153247.047500", "153247.507500", "153247.967500", "153248.427500", "153248.887500", "153249.347500", "153249.807500", "153250.267500", "153250.727500", "153251.187500", "153251.647500", "153252.107500", "153252.567500", "153253.027500", "153253.487500", "153253.947500", "153254.407500", "153254.867500", "153255.327500", "153255.787500", "153256.247500", "153256.707500", "153257.167500", "153257.627500", "153258.087500", "153258.547500", "153259.007500", "153259.467500", "153259.927500", "153300.387500", "153300.847500", "153301.307500", "153301.767500", "153302.227500", "153302.687500", "153303.147500", "153303.607500", "153304.067500", "153304.527500", "153304.987500", "153305.447500", "153305.907500", "153306.367500", "153306.827500", "153307.287500", "153307.747500", "153308.207500", "153308.667500", "153309.127500", "153309.587500", "153310.047500", "153310.507500", "153310.967500", "153311.427500", "153311.887500", "153312.347500", "153312.807500", "153313.267500", "153313.727500", "153314.187500", "153314.647500", "153315.107500", "153315.567500", "153316.027500", "153316.487500", "153316.947500", "153317.407500", "153317.867500", "153318.327500", "153318.787500", "153319.247500", "153319.707500", "153320.167500", "153320.627500", "153321.087500", "153321.547500", "153322.007500", "153322.467500", "153322.927500", "153323.387500", "153323.847500", "153324.307500", "153324.767500", "153325.227500", "153325.687500", "153326.147500", "153326.607500", "153327.067500", "153327.527500", "153327.987500", "153328.447500", "153328.907500", "153329.367500", "153329.827500", "153330.287500", "153330.747500", "153331.207500", "153331.667500", "153332.127500", "153332.587500", "153333.047500", "153333.507500", "153333.967500", "153334.427500", "153334.887500", "153335.347500", "153335.807500", "153336.267500", "153336.727500", "153337.187500", "153337.647500", "153338.107500", "153338.567500", "153339.027500", "153339.487500", "153339.947500", "153340.407500", "153340.867500", "153341.327500", "153341.787500", "153342.247500", "153342.707500", "153343.167500", "153343.627500", "153344.087500", "153344.547500", "153345.007500", "153345.467500", "153345.927500", "153346.387500", "153346.847500", "153347.307500", "153347.767500", "153348.227500", "153348.687500", "153349.147500", "153349.607500", "153350.067500", "153350.527500", "153350.987500", "153351.447500", "153351.907500", "153352.367500", "153352.827500", "153353.287500", "153353.747500", "153354.207500", "153354.667500", "153355.127500", "153355.587500", "153356.047500", "153356.507500", "153356.967500", "153357.427500", "153357.887500", "153358.347500", "153358.807500", "153359.267500", "153359.727500", "153400.187500", "153400.647500", "153401.107500", "153401.567500", "153402.027500", "153402.487500", "153402.947500", "153403.407500", "153403.867500", "153404.327500", "153404.787500"],
