{
  "AcquisitionMatrixPE": 82,
  "AcquisitionNumber": 1,
  "AcquisitionTime": "15:11:15.195000",
  "BandwidthPerPixelPhaseEncode": 24.888,
  "BaseResolution": 82,
  "BodyPartExamined": "BRAIN",
  "ConsistencyInfo": "N4_VE11C_LATEST_20160120",
  "ConversionSoftware": "dcm2niix",
  "ConversionSoftwareVersion": "v1.0.20201102",
  "DerivedVendorReportedEchoSpacing": 0.00049,
  "DeviceSerialNumber": "66112",
  "DwellTime": 2e-06,
  "EchoTime": 0.0272,
  "EchoTrainLength": 82,
  "EffectiveEchoSpacing": 0.00049,
  "FlipAngle": 44,
  "ImageComments": "Unaliased MB8/PE3",
  "ImageOrientationPatientDICOM": [0.997216, -0.00529037, 0.0743751, 0.0116617, 0.99627, -0.085494],
  "ImageType": [
    "ORIGINAL",
    "PRIMARY",
    "M",
    "MB",
    "ND",
    "NORM",
    "MOSAIC"
],
  "ImagingFrequency": 123.252,
  "InPlanePhaseEncodingDirectionDICOM": "COL",
  "InstitutionAddress": "Maynard 3,Hanover,NH,US,03755",
  "InstitutionName": "Dartmouth College - PBS",
  "InstitutionalDepartmentName": "Department",
  "MRAcquisitionType": "2D",
  "MagneticFieldStrength": 3,
  "Manufacturer": "Siemens",
  "ManufacturersModelName": "Prisma",
  "Modality": "MR",
  "MultibandAccelerationFactor": 8,
  "PartialFourier": 1,
  "PatientPosition": "HFS",
  "PercentPhaseFOV": 100,
  "PercentSampling": 100,
  "PhaseEncodingDirection": "j-",
  "PhaseEncodingSteps": 82,
  "PhaseResolution": 1,
  "PixelBandwidth": 3050,
  "ProcedureStepDescription": "Wager_Wager^1076_spacetop",
  "ProtocolName": "func_run-01_task-social_acq-ap-mb8",
  "PulseSequenceDetails": "%CustomerSeq%\\cmrr_mbep2d_bold",
  "ReceiveCoilActiveElements": "HEA;HEP",
  "ReceiveCoilName": "Head_32",
  "ReconMatrixPE": 82,
  "RepetitionTime": 0.46,
  "SAR": 0.0757198,
  "ScanOptions": "FS",
  "ScanningSequence": "EP",
  "SequenceName": "epfid2d1_82",
  "SequenceVariant": "SK\\SS",
  "SeriesDescription": "func_run-01_task-social_acq-ap-mb8",
  "SeriesNumber": 8,
  "ShimSetting": [4167, -7742, -7242, 569, -33, -138, 8, 73],
  "SliceThickness": 2.7,
  "SliceTiming": [0, 0.25, 0.0625, 0.315, 0.125, 0.3775, 0.1875, 0, 0.25, 0.0625, 0.315, 0.125, 0.3775, 0.1875, 0, 0.25, 0.0625, 0.315, 0.125, 0.3775, 0.1875, 0, 0.25, 0.0625, 0.315, 0.125, 0.3775, 0.1875, 0, 0.25, 0.0625, 0.315, 0.125, 0.3775, 0.1875, 0, 0.25, 0.0625, 0.315, 0.125, 0.3775, 0.1875, 0, 0.25, 0.0625, 0.315, 0.125, 0.3775, 0.1875, 0, 0.25, 0.0625, 0.315, 0.125, 0.3775, 0.1875],
  "SoftwareVersions": "syngo MR E11",
  "SpacingBetweenSlices": 2.7,
  "StationName": "AWP66112",
  "TaskName": "social",
  "TotalReadoutTime": 0.03969,
  "TxRefAmp": 216.956,
  "WipMemBlock": "e014d818-f008-4aeb-bf69-57f4d0b35029||Sequence: R016 ve11c/master r/e634e98; Dec 19 2017 11:00:25 by eja",
  "dcmmeta_affine": [
    [-2.6754584312438965, 0.03128756210207939, 0.19884254038333893, 106.42980194091797],
    [0.01419367827475071, 2.6729207038879395, -0.23253318667411804, -79.37171173095703],
    [0.19954286515712738, 0.22937428951263428, 2.6826088428497314, -74.253173828125],
    [0.0, 0.0, 0.0, 1.0]
],
  "dcmmeta_reorient_transform": [
    [0.0, -1.0, 0.0, 81.0],
    [1.0, 0.0, 0.0, 0.0],
    [0.0, 0.0, 1.0, 0.0],
    [0.0, 0.0, 0.0, 1.0]
],
  "dcmmeta_shape": [82, 82, 56, 872],
  "dcmmeta_slice_dim": 2,
  "dcmmeta_version": 0.6,
  "global": {
    "const": {
      "AccessionNumber": "A003527",
      "AcquisitionMatrix": [82, 0, 0, 82],
      "AngioFlag": "N",
      "BitsAllocated": 16,
      "BitsStored": 16,
      "BodyPartExamined": "BRAIN",
      "Columns": 656,
      "EchoNumbers": 1,
      "EchoTime": 27.2,
      "EchoTrainLength": 82,
      "FlipAngle": 44.0,
      "HighBit": 15,
      "ImageOrientationPatient": [0.99721630637992, -0.0052903707633, 0.0743750648214, 0.01166172807699, 0.99627043099687, -0.0854940490302],
      "ImagePositionPatient": [-885.80019597146, -900.18953564101, -47.112239616332],
      "ImageType": [
        "ORIGINAL",
        "PRIMARY",
        "M",
        "MB",
        "ND",
        "NORM",
        "MOSAIC"
],
      "ImagedNucleus": "1H",
      "ImagingFrequency": 123.252139,
      "InPlanePhaseEncodingDirection": "COL",
      "MRAcquisitionType": "2D",
      "MagneticFieldStrength": 3.0,
      "Manufacturer": "SIEMENS",
      "ManufacturerModelName": "Prisma",
      "Modality": "MR",
      "NumberOfAverages": 1.0,
      "NumberOfPhaseEncodingSteps": 82,
      "PercentPhaseFieldOfView": 100.0,
      "PercentSampling": 100.0,
      "PerformedProcedureStepStartTime": "144547.833000",
      "PhotometricInterpretation": "MONOCHROME2",
      "PixelBandwidth": 3050.0,
      "PixelRepresentation": 0,
      "PixelSpacing": [2.6829268932343, 2.6829268932343],
      "ProtocolName": "func_run-01_task-social_acq-ap-mb8",
      "RepetitionTime": 460.0,
      "Rows": 656,
      "SAR": 0.0757198220322,
      "SamplesPerPixel": 1,
      "ScanOptions": "FS",
      "ScanningSequence": "EP",
      "SequenceName": "epfid2d1_82",
      "SequenceVariant": [
        "SK",
        "SS"
],
      "SeriesDescription": "func_run-01_task-social_acq-ap-mb8",
      "SeriesNumber": 8,
      "SeriesTime": "151143.447000",
      "SliceLocation": -59.101071398909,
      "SliceThickness": 2.7000000476837,
      "SmallestImagePixelValue": 0,
      "SoftwareVersions": "syngo MR E11",
      "SpacingBetweenSlices": 2.6999999969183,
      "SpecificCharacterSet": "ISO_IR 100",
      "StudyID": "3",
      "StudyTime": "144547.787000",
      "TransmitCoilName": "Body",
      "VariableFlipAngleFlag": "N",
      "WindowCenterWidthExplanation": "Algo1",
      "dBdt": 0.0},
    "slices": {}
  },
  "time": {
    "samples": {
      "AcquisitionNumber": [1, 2, 3, 4, 5, 6, 7, 8, 9, 10, 11, 12, 13, 14, 15, 16, 17, 18, 19, 20, 21, 22, 23, 24, 25, 26, 27, 28, 29, 30, 31, 32, 33, 34, 35, 36, 37, 38, 39, 40, 41, 42, 43, 44, 45, 46, 47, 48, 49, 50, 51, 52, 53, 54, 55, 56, 57, 58, 59, 60, 61, 62, 63, 64, 65, 66, 67, 68, 69, 70, 71, 72, 73, 74, 75, 76, 77, 78, 79, 80, 81, 82, 83, 84, 85, 86, 87, 88, 89, 90, 91, 92, 93, 94, 95, 96, 97, 98, 99, 100, 101, 102, 103, 104, 105, 106, 107, 108, 109, 110, 111, 112, 113, 114, 115, 116, 117, 118, 119, 120, 121, 122, 123, 124, 125, 126, 127, 128, 129, 130, 131, 132, 133, 134, 135, 136, 137, 138, 139, 140, 141, 142, 143, 144, 145, 146, 147, 148, 149, 150, 151, 152, 153, 154, 155, 156, 157, 158, 159, 160, 161, 162, 163, 164, 165, 166, 167, 168, 169, 170, 171, 172, 173, 174, 175, 176, 177, 178, 179, 180, 181, 182, 183, 184, 185, 186, 187, 188, 189, 190, 191, 192, 193, 194, 195, 196, 197, 198, 199, 200, 201, 202, 203, 204, 205, 206, 207, 208, 209, 210, 211, 212, 213, 214, 215, 216, 217, 218, 219, 220, 221, 222, 223, 224, 225, 226, 227, 228, 229, 230, 231, 232, 233, 234, 235, 236, 237, 238, 239, 240, 241, 242, 243, 244, 245, 246, 247, 248, 249, 250, 251, 252, 253, 254, 255, 256, 257, 258, 259, 260, 261, 262, 263, 264, 265, 266, 267, 268, 269, 270, 271, 272, 273, 274, 275, 276, 277, 278, 279, 280, 281, 282, 283, 284, 285, 286, 287, 288, 289, 290, 291, 292, 293, 294, 295, 296, 297, 298, 299, 300, 301, 302, 303, 304, 305, 306, 307, 308, 309, 310, 311, 312, 313, 314, 315, 316, 317, 318, 319, 320, 321, 322, 323, 324, 325, 326, 327, 328, 329, 330, 331, 332, 333, 334, 335, 336, 337, 338, 339, 340, 341, 342, 343, 344, 345, 346, 347, 348, 349, 350, 351, 352, 353, 354, 355, 356, 357, 358, 359, 360, 361, 362, 363, 364, 365, 366, 367, 368, 369, 370, 371, 372, 373, 374, 375, 376, 377, 378, 379, 380, 381, 382, 383, 384, 385, 386, 387, 388, 389, 390, 391, 392, 393, 394, 395, 396, 397, 398, 399, 400, 401, 402, 403, 404, 405, 406, 407, 408, 409, 410, 411, 412, 413, 414, 415, 416, 417, 418, 419, 420, 421, 422, 423, 424, 425, 426, 427, 428, 429, 430, 431, 432, 433, 434, 435, 436, 437, 438, 439, 440, 441, 442, 443, 444, 445, 446, 447, 448, 449, 450, 451, 452, 453, 454, 455, 456, 457, 458, 459, 460, 461, 462, 463, 464, 465, 466, 467, 468, 469, 470, 471, 472, 473, 474, 475, 476, 477, 478, 479, 480, 481, 482, 483, 484, 485, 486, 487, 488, 489, 490, 491, 492, 493, 494, 495, 496, 497, 498, 499, 500, 501, 502, 503, 504, 505, 506, 507, 508, 509, 510, 511, 512, 513, 514, 515, 516, 517, 518, 519, 520, 521, 522, 523, 524, 525, 526, 527, 528, 529, 530, 531, 532, 533, 534, 535, 536, 537, 538, 539, 540, 541, 542, 543, 544, 545, 546, 547, 548, 549, 550, 551, 552, 553, 554, 555, 556, 557, 558, 559, 560, 561, 562, 563, 564, 565, 566, 567, 568, 569, 570, 571, 572, 573, 574, 575, 576, 577, 578, 579, 580, 581, 582, 583, 584, 585, 586, 587, 588, 589, 590, 591, 592, 593, 594, 595, 596, 597, 598, 599, 600, 601, 602, 603, 604, 605, 606, 607, 608, 609, 610, 611, 612, 613, 614, 615, 616, 617, 618, 619, 620, 621, 622, 623, 624, 625, 626, 627, 628, 629, 630, 631, 632, 633, 634, 635, 636, 637, 638, 639, 640, 641, 642, 643, 644, 645, 646, 647, 648, 649, 650, 651, 652, 653, 654, 655, 656, 657, 658, 659, 660, 661, 662, 663, 664, 665, 666, 667, 668, 669, 670, 671, 672, 673, 674, 675, 676, 677, 678, 679, 680, 681, 682, 683, 684, 685, 686, 687, 688, 689, 690, 691, 692, 693, 694, 695, 696, 697, 698, 699, 700, 701, 702, 703, 704, 705, 706, 707, 708, 709, 710, 711, 712, 713, 714, 715, 716, 717, 718, 719, 720, 721, 722, 723, 724, 725, 726, 727, 728, 729, 730, 731, 732, 733, 734, 735, 736, 737, 738, 739, 740, 741, 742, 743, 744, 745, 746, 747, 748, 749, 750, 751, 752, 753, 754, 755, 756, 757, 758, 759, 760, 761, 762, 763, 764, 765, 766, 767, 768, 769, 770, 771, 772, 773, 774, 775, 776, 777, 778, 779, 780, 781, 782, 783, 784, 785, 786, 787, 788, 789, 790, 791, 792, 793, 794, 795, 796, 797, 798, 799, 800, 801, 802, 803, 804, 805, 806, 807, 808, 809, 810, 811, 812, 813, 814, 815, 816, 817, 818, 819, 820, 821, 822, 823, 824, 825, 826, 827, 828, 829, 830, 831, 832, 833, 834, 835, 836, 837, 838, 839, 840, 841, 842, 843, 844, 845, 846, 847, 848, 849, 850, 851, 852, 853, 854, 855, 856, 857, 858, 859, 860, 861, 862, 863, 864, 865, 866, 867, 868, 869, 870, 871, 872],
      "AcquisitionTime": ["151115.195000", "151115.655000", "151116.115000", "151116.575000", "151117.035000", "151117.495000", "151117.955000", "151118.415000", "151118.875000", "151119.335000", "151119.795000", "151120.255000", "151120.715000", "151121.175000", "151121.635000", "151122.095000", "151122.555000", "151123.015000", "151123.475000", "151123.935000", "151124.395000", "151124.855000", "151125.315000", "151125.775000", "151126.235000", "151126.695000", "151127.155000", "151127.615000", "151128.075000", "151128.535000", "151128.995000", "151129.455000", "151129.915000", "151130.375000", "151130.835000", "151131.295000", "151131.755000", "151132.215000", "151132.675000", "151133.135000", "151133.595000", "151134.055000", "151134.515000", "151134.975000", "151135.435000", "151135.895000", "151136.355000", "151136.815000", "151137.275000", "151137.735000", "151138.195000", "151138.655000", "151139.115000", "151139.575000", "151140.035000", "151140.495000", "151140.955000", "151141.415000", "151141.875000", "151142.335000", "151142.795000", "151143.255000", "151143.715000", "151144.175000", "151144.635000", "151145.095000", "151145.555000", "151146.015000", "151146.475000", "151146.935000", "151147.395000", "151147.855000", "151148.315000", "151148.775000", "151149.235000", "151149.695000", "151150.155000", "151150.615000", "151151.075000", "151151.535000", "151151.995000", "151152.455000", "151152.915000", "151153.375000", "151153.835000", "151154.295000", "151154.755000", "151155.215000", "151155.675000", "151156.135000", "151156.595000", "151157.055000", "151157.515000", "151157.975000", "151158.435000", "151158.895000", "151159.355000", "151159.815000", "151200.275000", "151200.735000", "151201.195000", "151201.655000", "151202.115000", "151202.575000", "151203.035000", "151203.495000", "151203.955000", "151204.415000", "151204.875000", "151205.335000", "151205.795000", "151206.255000", "151206.715000", "151207.175000", "151207.635000", "151208.095000", "151208.555000", "151209.015000", "151209.475000", "151209.935000", "151210.395000", "151210.855000", "151211.315000", "151211.775000", "151212.235000", "151212.695000", "151213.155000", "151213.615000", "151214.075000", "151214.535000", "151214.995000", "151215.455000", "151215.915000", "151216.375000", "151216.835000", "151217.295000", "151217.755000", "151218.215000", "151218.675000", "151219.135000", "151219.595000", "151220.055000", "151220.515000", "151220.975000", "151221.435000", "151221.895000", "151222.355000", "151222.815000", "151223.275000", "151223.735000", "151224.195000", "151224.655000", "151225.115000", "151225.575000", "151226.035000", "151226.495000", "151226.955000", "151227.415000", "151227.875000", "151228.335000", "151228.795000", "151229.255000", "151229.715000", "151230.175000", "151230.635000", "151231.095000", "151231.555000", "151232.015000", "151232.475000", "151232.935000", "151233.395000", "151233.855000", "151234.315000", "151234.775000", "151235.235000", "151235.695000", "151236.155000", "151236.615000", "151237.075000", "151237.535000", "151237.995000", "151238.455000", "151238.915000", "151239.375000", "151239.835000", "151240.295000", "151240.755000", "151241.215000", "151241.675000", "151242.135000", "151242.595000", "151243.055000", "151243.515000", "151243.975000", "151244.435000", "151244.895000", "151245.355000", "151245.815000", "151246.275000", "151246.735000", "151247.195000", "151247.655000", "151248.115000", "151248.575000", "151249.035000", "151249.495000", "151249.955000", "151250.415000", "151250.875000", "151251.335000", "151251.795000", "151252.255000", "151252.715000", "151253.175000", "151253.635000", "151254.095000", "151254.555000", "151255.015000", "151255.475000", "151255.935000", "151256.395000", "151256.855000", "151257.315000", "151257.775000", "151258.235000", "151258.695000", "151259.155000", "151259.615000", "151300.075000", "151300.535000", "151300.995000", "151301.455000", "151301.915000", "151302.375000", "151302.835000", "151303.295000", "151303.755000", "151304.215000", "151304.675000", "151305.135000", "151305.595000", "151306.055000", "151306.515000", "151306.975000", "151307.435000", "151307.895000", "151308.355000", "151308.815000", "151309.275000", "151309.735000", "151310.195000", "151310.655000", "151311.115000", "151311.575000", "151312.035000", "151312.495000", "151312.955000", "151313.415000", "151313.875000", "151314.335000", "151314.795000", "151315.255000", "151315.715000", "151316.175000", "151316.635000", "151317.095000", "151317.555000", "151318.015000", "151318.475000", "151318.935000", "151319.395000", "151319.855000", "151320.315000", "151320.775000", "151321.235000", "151321.695000", "151322.155000", "151322.615000", "151323.075000", "151323.535000", "151323.995000", "151324.455000", "151324.915000", "151325.375000", "151325.835000", "151326.295000", "151326.755000", "151327.215000", "151327.675000", "151328.135000", "151328.595000", "151329.055000", "151329.515000", "151329.975000", "151330.435000", "151330.895000", "151331.355000", "151331.815000", "151332.275000", "151332.735000", "151333.195000", "151333.655000", "151334.115000", "151334.575000", "151335.035000", "151335.495000", "151335.955000", "151336.415000", "151336.875000", "151337.335000", "151337.795000", "151338.255000", "151338.715000", "151339.175000", "151339.635000", "151340.095000", "151340.555000", "151341.015000", "151341.475000", "151341.935000", "151342.395000", "151342.855000", "151343.315000", "151343.775000", "151344.235000", "151344.695000", "151345.155000", "151345.615000", "151346.075000", "151346.535000", "151346.995000", "151347.455000", "151347.915000", "151348.375000", "151348.835000", "151349.295000", "151349.755000", "151350.215000", "151350.675000", "151351.135000", "151351.595000", "151352.055000", "151352.515000", "151352.975000", "151353.435000", "151353.895000", "151354.355000", "151354.815000", "151355.275000", "151355.735000", "151356.195000", "151356.655000", "151357.115000", "151357.575000", "151358.035000", "151358.495000", "151358.955000", "151359.415000", "151359.875000", "151400.335000", "151400.795000", "151401.255000", "151401.715000", "151402.175000", "151402.635000", "151403.095000", "151403.555000", "151404.015000", "151404.475000", "151404.935000", "151405.395000", "151405.855000", "151406.315000", "151406.775000", "151407.235000", "151407.695000", "151408.155000", "151408.615000", "151409.075000", "151409.535000", "151409.995000", "151410.455000", "151410.915000", "151411.375000", "151411.835000", "151412.295000", "151412.755000", "151413.215000", "151413.675000", "151414.135000", "151414.595000", "151415.055000", "151415.515000", "151415.975000", "151416.435000", "151416.895000", "151417.355000", "151417.815000", "151418.275000", "151418.735000", "151419.195000", "151419.655000", "151420.115000", "151420.575000", "151421.035000", "151421.495000", "151421.955000", "151422.415000", "151422.875000", "151423.335000", "151423.795000", "151424.255000", "151424.715000", "151425.175000", "151425.635000", "151426.095000", "151426.555000", "151427.015000", "151427.475000", "151427.935000", "151428.395000", "151428.855000", "151429.315000", "151429.775000", "151430.235000", "151430.695000", "151431.155000", "151431.615000", "151432.075000", "151432.535000", "151432.995000", "151433.455000", "151433.915000", "151434.375000", "151434.835000", "151435.295000", "151435.755000", "151436.215000", "151436.675000", "151437.135000", "151437.595000", "151438.055000", "151438.515000", "151438.975000", "151439.435000", "151439.895000", "151440.355000", "151440.815000", "151441.275000", "151441.735000", "151442.195000", "151442.655000", "151443.115000", "151443.575000", "151444.035000", "151444.495000", "151444.955000", "151445.415000", "151445.875000", "151446.335000", "151446.795000", "151447.255000", "151447.715000", "151448.175000", "151448.635000", "151449.095000", "151449.555000", "151450.015000", "151450.475000", "151450.935000", "151451.395000", "151451.855000", "151452.315000", "151452.775000", "151453.235000", "151453.695000", "151454.155000", "151454.615000", "151455.075000", "151455.535000", "151455.995000", "151456.455000", "151456.915000", "151457.375000", "151457.835000", "151458.295000", "151458.755000", "151459.215000", "151459.675000", "151500.135000", "151500.595000", "151501.055000", "151501.515000", "151501.975000", "151502.435000", "151502.895000", "151503.355000", "151503.815000", "151504.275000", "151504.735000", "151505.195000", "151505.655000", "151506.115000", "151506.575000", "151507.035000", "151507.495000", "151507.955000", "151508.415000", "151508.875000", "151509.335000", "151509.795000", "151510.255000", "151510.715000", "151511.175000", "151511.635000", "151512.095000", "151512.555000", "151513.015000", "151513.475000", "151513.935000", "151514.395000", "151514.855000", "151515.315000", "151515.775000", "151516.235000", "151516.695000", "151517.155000", "151517.615000", "151518.075000", "151518.535000", "151518.995000", "151519.455000", "151519.915000", "151520.375000", "151520.835000", "151521.295000", "151521.755000", "151522.215000", "151522.675000", "151523.135000", "151523.595000", "151524.055000", "151524.515000", "151524.975000", "151525.435000", "151525.895000", "151526.355000", "151526.815000", "151527.275000", "151527.735000", "151528.195000", "151528.655000", "151529.115000", "151529.575000", "151530.035000", "151530.495000", "151530.955000", "151531.415000", "151531.875000", "151532.335000", "151532.795000", "151533.255000", "151533.715000", "151534.175000", "151534.635000", "151535.095000", "151535.555000", "151536.015000", "151536.475000", "151536.935000", "151537.395000", "151537.855000", "151538.315000", "151538.775000", "151539.235000", "151539.695000", "151540.155000", "151540.615000", "151541.075000", "151541.535000", "151541.995000", "151542.455000", "151542.915000", "151543.375000", "151543.835000", "151544.295000", "151544.755000", "151545.215000", "151545.675000", "151546.135000", "151546.595000", "151547.055000", "151547.515000", "151547.975000", "151548.435000", "151548.895000", "151549.355000", "151549.815000", "151550.275000", "151550.735000", "151551.195000", "151551.655000", "151552.115000", "151552.575000", "151553.035000", "151553.495000", "151553.955000", "151554.415000", "151554.875000", "151555.335000", "151555.795000", "151556.255000", "151556.715000", "151557.175000", "151557.635000", "151558.095000", "151558.555000", "151559.015000", "151559.475000", "151559.935000", "151600.395000", "151600.855000", "151601.315000", "151601.775000", "151602.235000", "151602.695000", "151603.155000", "151603.615000", "151604.075000", "151604.535000", "151604.995000", "151605.455000", "151605.915000", "151606.375000", "151606.835000", "151607.295000", "151607.755000", "151608.215000", "151608.675000", "151609.135000", "151609.595000", "151610.055000", "151610.515000", "151610.975000", "151611.435000", "151611.895000", "151612.355000", "151612.815000", "151613.275000", "151613.735000", "151614.195000", "151614.655000", "151615.115000", "151615.575000", "151616.035000", "151616.495000", "151616.955000", "151617.415000", "151617.875000", "151618.335000", "151618.795000", "151619.255000", "151619.715000", "151620.175000", "151620.635000", "151621.095000", "151621.555000", "151622.015000", "151622.475000", "151622.935000", "151623.395000", "151623.855000", "151624.315000", "151624.775000", "151625.235000", "151625.695000", "151626.155000", "151626.615000", "151627.075000", "151627.535000", "151627.995000", "151628.455000", "151628.915000", "151629.375000", "151629.835000", "151630.295000", "151630.755000", "151631.215000", "151631.675000", "151632.135000", "151632.595000", "151633.055000", "151633.515000", "151633.975000", "151634.435000", "151634.895000", "151635.355000", "151635.815000", "151636.275000", "151636.735000", "151637.195000", "151637.655000", "151638.115000", "151638.575000", "151639.035000", "151639.495000", "151639.955000", "151640.415000", "151640.875000", "151641.335000", "151641.795000", "151642.255000", "151642.715000", "151643.175000", "151643.635000", "151644.095000", "151644.555000", "151645.015000", "151645.475000", "151645.935000", "151646.395000", "151646.855000", "151647.315000", "151647.775000", "151648.235000", "151648.695000", "151649.155000", "151649.615000", "151650.075000", "151650.535000", "151650.995000", "151651.455000", "151651.915000", "151652.375000", "151652.835000", "151653.295000", "151653.755000", "151654.215000", "151654.675000", "151655.135000", "151655.595000", "151656.055000", "151656.515000", "151656.975000", "151657.435000", "151657.895000", "151658.355000", "151658.815000", "151659.275000", "151659.735000", "151700.195000", "151700.655000", "151701.115000", "151701.575000", "151702.035000", "151702.495000", "151702.955000", "151703.415000", "151703.875000", "151704.335000", "151704.795000", "151705.255000", "151705.715000", "151706.175000", "151706.635000", "151707.095000", "151707.555000", "151708.015000", "151708.475000", "151708.935000", "151709.395000", "151709.855000", "151710.315000", "151710.775000", "151711.235000", "151711.695000", "151712.155000", "151712.615000", "151713.075000", "151713.535000", "151713.995000", "151714.455000", "151714.915000", "151715.375000", "151715.835000", "151716.295000", "151716.755000", "151717.215000", "151717.675000", "151718.135000", "151718.595000", "151719.055000", "151719.515000", "151719.975000", "151720.435000", "151720.895000", "151721.355000", "151721.815000", "151722.275000", "151722.735000", "151723.195000", "151723.655000", "151724.115000", "151724.575000", "151725.035000", "151725.495000", "151725.955000", "151726.415000", "151726.875000", "151727.335000", "151727.795000", "151728.255000", "151728.715000", "151729.175000", "151729.635000", "151730.095000", "151730.555000", "151731.015000", "151731.475000", "151731.935000", "151732.395000", "151732.855000", "151733.315000", "151733.775000", "151734.235000", "151734.695000", "151735.155000", "151735.615000", "151736.075000", "151736.535000", "151736.995000", "151737.455000", "151737.915000", "151738.375000", "151738.835000", "151739.295000", "151739.755000", "151740.215000", "151740.675000", "151741.135000", "151741.595000", "151742.055000", "151742.515000", "151742.975000", "151743.435000", "151743.895000", "151744.355000", "151744.815000", "151745.275000", "151745.735000", "151746.195000", "151746.655000", "151747.115000", "151747.575000", "151748.035000", "151748.495000", "151748.955000", "151749.415000", "151749.875000", "151750.335000", "151750.795000", "151751.255000", "151751.715000", "151752.175000", "151752.635000", "151753.095000", "151753.555000", "151754.015000", "151754.475000", "151754.935000", "151755.395000", "151755.855000"],
