{
  "AcquisitionMatrixPE": 82,
  "AcquisitionNumber": 1,
  "AcquisitionTime": "13:10:3.582500",
  "BandwidthPerPixelPhaseEncode": 24.888,
  "BaseResolution": 82,
  "BodyPartExamined": "BRAIN",
  "ConsistencyInfo": "N4_VE11E_LATEST_20181129",
  "ConversionSoftware": "dcm2niix",
  "ConversionSoftwareVersion": "v1.0.20201102",
  "DerivedVendorReportedEchoSpacing": 0.00049,
  "DeviceSerialNumber": "66112",
  "DwellTime": 2e-06,
  "EchoTime": 0.0272,
  "EchoTrainLength": 82,
  "EffectiveEchoSpacing": 0.00049,
  "FlipAngle": 44,
  "ImageComments": "Unaliased MB8/PE3",
  "ImageOrientationPatientDICOM": [0.999927, 0.00939499, -0.00759102, -0.00872622, 0.996446, 0.0837849],
  "ImageType": [
    "ORIGINAL",
    "PRIMARY",
    "M",
    "MB",
    "ND",
    "NORM",
    "MOSAIC"
],
  "ImagingFrequency": 123.252,
  "InPlanePhaseEncodingDirectionDICOM": "COL",
  "InstitutionAddress": "Maynard 3,Hanover,NH,US,03755",
  "InstitutionName": "Dartmouth College - PBS",
  "InstitutionalDepartmentName": "Department",
  "MRAcquisitionType": "2D",
  "MagneticFieldStrength": 3,
  "Manufacturer": "Siemens",
  "ManufacturersModelName": "Prisma",
  "Modality": "MR",
  "MultibandAccelerationFactor": 8,
  "PartialFourier": 1,
  "PatientPosition": "HFS",
  "PercentPhaseFOV": 100,
  "PercentSampling": 100,
  "PhaseEncodingDirection": "j-",
  "PhaseEncodingSteps": 82,
  "PhaseResolution": 1,
  "PixelBandwidth": 3050,
  "ProcedureStepDescription": "Wager_Wager^1076_spacetop",
  "ProtocolName": "func_run-05_task-social_acq-ap-mb8",
  "PulseSequenceDetails": "%CustomerSeq%\\cmrr_mbep2d_bold",
  "ReceiveCoilActiveElements": "HEA;HEP",
  "ReceiveCoilName": "Head_32",
  "ReconMatrixPE": 82,
  "RepetitionTime": 0.46,
  "SAR": 0.104914,
  "ScanOptions": "FS",
  "ScanningSequence": "EP",
  "SequenceName": "epfid2d1_82",
  "SequenceVariant": "SK\\SS",
  "SeriesDescription": "func_run-05_task-social_acq-ap-mb8",
  "SeriesNumber": 24,
  "ShimSetting": [4160, -7778, -7243, 488, 18, -82, 62, 14],
  "SliceThickness": 2.7,
  "SliceTiming": [0, 0.2525, 0.065, 0.315, 0.1275, 0.3775, 0.19, 0, 0.2525, 0.065, 0.315, 0.1275, 0.3775, 0.19, 0, 0.2525, 0.065, 0.315, 0.1275, 0.3775, 0.19, 0, 0.2525, 0.065, 0.315, 0.1275, 0.3775, 0.19, 0, 0.2525, 0.065, 0.315, 0.1275, 0.3775, 0.19, 0, 0.2525, 0.065, 0.315, 0.1275, 0.3775, 0.19, 0, 0.2525, 0.065, 0.315, 0.1275, 0.3775, 0.19, 0, 0.2525, 0.065, 0.315, 0.1275, 0.3775, 0.19],
  "SoftwareVersions": "syngo MR E11",
  "SpacingBetweenSlices": 2.7,
  "StationName": "AWP66112",
  "TaskName": "social",
  "TotalReadoutTime": 0.03969,
  "TxRefAmp": 256.292,
  "WipMemBlock": "46592527-a36c-49fd-9b60-e73332c56377||Sequence: R016 ve11e/master r/434b28f1; Aug  7 2019 18:53:46 by eja",
  "dcmmeta_affine": [
    [-2.6827311515808105, -0.023411806672811508, -0.022548237815499306, 115.82984161376953],
    [-0.0252060666680336, 2.6733908653259277, 0.22602394223213196, -90.91085052490234],
    [-0.020366156473755836, -0.2247888296842575, 2.6904282569885254, -42.00956344604492],
    [0.0, 0.0, 0.0, 1.0]
],
  "dcmmeta_reorient_transform": [
    [0.0, -1.0, 0.0, 81.0],
    [1.0, 0.0, 0.0, 0.0],
    [0.0, 0.0, 1.0, 0.0],
    [0.0, 0.0, 0.0, 1.0]
],
  "dcmmeta_shape": [82, 82, 56, 872],
  "dcmmeta_slice_dim": 2,
  "dcmmeta_version": 0.6,
  "global": {
    "const": {
      "AccessionNumber": "A004057",
      "AcquisitionMatrix": [82, 0, 0, 82],
      "AngioFlag": "N",
      "BitsAllocated": 16,
      "BitsStored": 16,
      "BodyPartExamined": "BRAIN",
      "Columns": 656,
      "EchoNumbers": 1,
      "EchoTime": 27.2,
      "EchoTrainLength": 82,
      "FlipAngle": 44.0,
      "HighBit": 15,
      "ImageOrientationPatient": [0.99992705263136, 0.00939498806613, -0.0075910220131, -0.0087262183693, 0.99644565309573, 0.0837849242978],
      "ImagePositionPatient": [-877.15814454564, -900.1311192873, -118.88676384405],
      "ImageType": [
        "ORIGINAL",
        "PRIMARY",
        "M",
        "MB",
        "ND",
        "NORM",
        "MOSAIC"
],
      "ImagedNucleus": "1H",
      "ImagingFrequency": 123.252152,
      "InPlanePhaseEncodingDirection": "COL",
      "MRAcquisitionType": "2D",
      "MagneticFieldStrength": 3.0,
      "Manufacturer": "SIEMENS",
      "ManufacturerModelName": "Prisma",
      "Modality": "MR",
      "NumberOfAverages": 1.0,
      "NumberOfPhaseEncodingSteps": 82,
      "PercentPhaseFieldOfView": 100.0,
      "PercentSampling": 100.0,
      "PerformedProcedureStepStartTime": "120017.765000",
      "PhotometricInterpretation": "MONOCHROME2",
      "PixelBandwidth": 3050.0,
      "PixelRepresentation": 0,
      "PixelSpacing": [2.6829268932343, 2.6829268932343],
      "ProtocolName": "func_run-05_task-social_acq-ap-mb8",
      "RepetitionTime": 460.0,
      "Rows": 656,
      "SAR": 0.10491373901268,
      "SamplesPerPixel": 1,
      "ScanOptions": "FS",
      "ScanningSequence": "EP",
      "SequenceName": "epfid2d1_82",
      "SequenceVariant": [
        "SK",
        "SS"
],
      "SeriesDescription": "func_run-05_task-social_acq-ap-mb8",
      "SeriesNumber": 24,
      "SeriesTime": "131024.784000",
      "SliceLocation": -50.438335815659,
      "SliceThickness": 2.7000000476837,
      "SmallestImagePixelValue": 0,
      "SoftwareVersions": "syngo MR E11",
      "SpacingBetweenSlices": 2.6999999424263,
      "SpecificCharacterSet": "ISO_IR 100",
      "StudyID": "2",
      "StudyTime": "120017.709000",
      "TransmitCoilName": "Body",
      "VariableFlipAngleFlag": "N",
      "WindowCenterWidthExplanation": "Algo1"
    },
    "slices": {}
  },
  "time": {
    "samples": {
      "AcquisitionNumber": [1, 2, 3, 4, 5, 6, 7, 8, 9, 10, 11, 12, 13, 14, 15, 16, 17, 18, 19, 20, 21, 22, 23, 24, 25, 26, 27, 28, 29, 30, 31, 32, 33, 34, 35, 36, 37, 38, 39, 40, 41, 42, 43, 44, 45, 46, 47, 48, 49, 50, 51, 52, 53, 54, 55, 56, 57, 58, 59, 60, 61, 62, 63, 64, 65, 66, 67, 68, 69, 70, 71, 72, 73, 74, 75, 76, 77, 78, 79, 80, 81, 82, 83, 84, 85, 86, 87, 88, 89, 90, 91, 92, 93, 94, 95, 96, 97, 98, 99, 100, 101, 102, 103, 104, 105, 106, 107, 108, 109, 110, 111, 112, 113, 114, 115, 116, 117, 118, 119, 120, 121, 122, 123, 124, 125, 126, 127, 128, 129, 130, 131, 132, 133, 134, 135, 136, 137, 138, 139, 140, 141, 142, 143, 144, 145, 146, 147, 148, 149, 150, 151, 152, 153, 154, 155, 156, 157, 158, 159, 160, 161, 162, 163, 164, 165, 166, 167, 168, 169, 170, 171, 172, 173, 174, 175, 176, 177, 178, 179, 180, 181, 182, 183, 184, 185, 186, 187, 188, 189, 190, 191, 192, 193, 194, 195, 196, 197, 198, 199, 200, 201, 202, 203, 204, 205, 206, 207, 208, 209, 210, 211, 212, 213, 214, 215, 216, 217, 218, 219, 220, 221, 222, 223, 224, 225, 226, 227, 228, 229, 230, 231, 232, 233, 234, 235, 236, 237, 238, 239, 240, 241, 242, 243, 244, 245, 246, 247, 248, 249, 250, 251, 252, 253, 254, 255, 256, 257, 258, 259, 260, 261, 262, 263, 264, 265, 266, 267, 268, 269, 270, 271, 272, 273, 274, 275, 276, 277, 278, 279, 280, 281, 282, 283, 284, 285, 286, 287, 288, 289, 290, 291, 292, 293, 294, 295, 296, 297, 298, 299, 300, 301, 302, 303, 304, 305, 306, 307, 308, 309, 310, 311, 312, 313, 314, 315, 316, 317, 318, 319, 320, 321, 322, 323, 324, 325, 326, 327, 328, 329, 330, 331, 332, 333, 334, 335, 336, 337, 338, 339, 340, 341, 342, 343, 344, 345, 346, 347, 348, 349, 350, 351, 352, 353, 354, 355, 356, 357, 358, 359, 360, 361, 362, 363, 364, 365, 366, 367, 368, 369, 370, 371, 372, 373, 374, 375, 376, 377, 378, 379, 380, 381, 382, 383, 384, 385, 386, 387, 388, 389, 390, 391, 392, 393, 394, 395, 396, 397, 398, 399, 400, 401, 402, 403, 404, 405, 406, 407, 408, 409, 410, 411, 412, 413, 414, 415, 416, 417, 418, 419, 420, 421, 422, 423, 424, 425, 426, 427, 428, 429, 430, 431, 432, 433, 434, 435, 436, 437, 438, 439, 440, 441, 442, 443, 444, 445, 446, 447, 448, 449, 450, 451, 452, 453, 454, 455, 456, 457, 458, 459, 460, 461, 462, 463, 464, 465, 466, 467, 468, 469, 470, 471, 472, 473, 474, 475, 476, 477, 478, 479, 480, 481, 482, 483, 484, 485, 486, 487, 488, 489, 490, 491, 492, 493, 494, 495, 496, 497, 498, 499, 500, 501, 502, 503, 504, 505, 506, 507, 508, 509, 510, 511, 512, 513, 514, 515, 516, 517, 518, 519, 520, 521, 522, 523, 524, 525, 526, 527, 528, 529, 530, 531, 532, 533, 534, 535, 536, 537, 538, 539, 540, 541, 542, 543, 544, 545, 546, 547, 548, 549, 550, 551, 552, 553, 554, 555, 556, 557, 558, 559, 560, 561, 562, 563, 564, 565, 566, 567, 568, 569, 570, 571, 572, 573, 574, 575, 576, 577, 578, 579, 580, 581, 582, 583, 584, 585, 586, 587, 588, 589, 590, 591, 592, 593, 594, 595, 596, 597, 598, 599, 600, 601, 602, 603, 604, 605, 606, 607, 608, 609, 610, 611, 612, 613, 614, 615, 616, 617, 618, 619, 620, 621, 622, 623, 624, 625, 626, 627, 628, 629, 630, 631, 632, 633, 634, 635, 636, 637, 638, 639, 640, 641, 642, 643, 644, 645, 646, 647, 648, 649, 650, 651, 652, 653, 654, 655, 656, 657, 658, 659, 660, 661, 662, 663, 664, 665, 666, 667, 668, 669, 670, 671, 672, 673, 674, 675, 676, 677, 678, 679, 680, 681, 682, 683, 684, 685, 686, 687, 688, 689, 690, 691, 692, 693, 694, 695, 696, 697, 698, 699, 700, 701, 702, 703, 704, 705, 706, 707, 708, 709, 710, 711, 712, 713, 714, 715, 716, 717, 718, 719, 720, 721, 722, 723, 724, 725, 726, 727, 728, 729, 730, 731, 732, 733, 734, 735, 736, 737, 738, 739, 740, 741, 742, 743, 744, 745, 746, 747, 748, 749, 750, 751, 752, 753, 754, 755, 756, 757, 758, 759, 760, 761, 762, 763, 764, 765, 766, 767, 768, 769, 770, 771, 772, 773, 774, 775, 776, 777, 778, 779, 780, 781, 782, 783, 784, 785, 786, 787, 788, 789, 790, 791, 792, 793, 794, 795, 796, 797, 798, 799, 800, 801, 802, 803, 804, 805, 806, 807, 808, 809, 810, 811, 812, 813, 814, 815, 816, 817, 818, 819, 820, 821, 822, 823, 824, 825, 826, 827, 828, 829, 830, 831, 832, 833, 834, 835, 836, 837, 838, 839, 840, 841, 842, 843, 844, 845, 846, 847, 848, 849, 850, 851, 852, 853, 854, 855, 856, 857, 858, 859, 860, 861, 862, 863, 864, 865, 866, 867, 868, 869, 870, 871, 872],
      "AcquisitionTime": ["131003.582500", "131004.042500", "131004.502500", "131004.962500", "131005.422500", "131005.882500", "131006.342500", "131006.802500", "131007.262500", "131007.722500", "131008.182500", "131008.642500", "131009.102500", "131009.562500", "131010.022500", "131010.482500", "131010.942500", "131011.402500", "131011.862500", "131012.322500", "131012.782500", "131013.242500", "131013.702500", "131014.162500", "131014.622500", "131015.082500", "131015.542500", "131016.002500", "131016.462500", "131016.922500", "131017.382500", "131017.842500", "131018.302500", "131018.762500", "131019.222500", "131019.682500", "131020.142500", "131020.602500", "131021.062500", "131021.522500", "131021.982500", "131022.442500", "131022.902500", "131023.362500", "131023.822500", "131024.282500", "131024.742500", "131025.202500", "131025.662500", "131026.122500", "131026.582500", "131027.042500", "131027.502500", "131027.962500", "131028.422500", "131028.882500", "131029.342500", "131029.802500", "131030.262500", "131030.722500", "131031.182500", "131031.642500", "131032.102500", "131032.562500", "131033.022500", "131033.482500", "131033.942500", "131034.402500", "131034.862500", "131035.322500", "131035.782500", "131036.242500", "131036.702500", "131037.162500", "131037.622500", "131038.082500", "131038.542500", "131039.002500", "131039.462500", "131039.922500", "131040.382500", "131040.842500", "131041.302500", "131041.762500", "131042.222500", "131042.682500", "131043.142500", "131043.602500", "131044.062500", "131044.522500", "131044.982500", "131045.442500", "131045.902500", "131046.362500", "131046.822500", "131047.282500", "131047.742500", "131048.202500", "131048.662500", "131049.122500", "131049.582500", "131050.042500", "131050.502500", "131050.962500", "131051.422500", "131051.882500", "131052.342500", "131052.802500", "131053.262500", "131053.722500", "131054.182500", "131054.642500", "131055.102500", "131055.562500", "131056.022500", "131056.482500", "131056.942500", "131057.402500", "131057.862500", "131058.322500", "131058.782500", "131059.242500", "131059.702500", "131100.162500", "131100.622500", "131101.082500", "131101.542500", "131102.002500", "131102.462500", "131102.922500", "131103.382500", "131103.842500", "131104.302500", "131104.762500", "131105.222500", "131105.682500", "131106.142500", "131106.602500", "131107.062500", "131107.522500", "131107.982500", "131108.442500", "131108.902500", "131109.362500", "131109.822500", "131110.282500", "131110.742500", "131111.202500", "131111.662500", "131112.122500", "131112.582500", "131113.042500", "131113.502500", "131113.962500", "131114.422500", "131114.882500", "131115.342500", "131115.802500", "131116.262500", "131116.722500", "131117.182500", "131117.642500", "131118.102500", "131118.562500", "131119.022500", "131119.482500", "131119.942500", "131120.402500", "131120.862500", "131121.322500", "131121.782500", "131122.242500", "131122.702500", "131123.162500", "131123.622500", "131124.082500", "131124.542500", "131125.002500", "131125.462500", "131125.922500", "131126.382500", "131126.842500", "131127.302500", "131127.762500", "131128.222500", "131128.682500", "131129.142500", "131129.602500", "131130.062500", "131130.522500", "131130.982500", "131131.442500", "131131.902500", "131132.362500", "131132.822500", "131133.282500", "131133.742500", "131134.202500", "131134.662500", "131135.122500", "131135.582500", "131136.042500", "131136.502500", "131136.962500", "131137.422500", "131137.882500", "131138.342500", "131138.802500", "131139.262500", "131139.722500", "131140.182500", "131140.642500", "131141.102500", "131141.562500", "131142.022500", "131142.482500", "131142.942500", "131143.402500", "131143.862500", "131144.322500", "131144.782500", "131145.242500", "131145.702500", "131146.162500", "131146.622500", "131147.082500", "131147.542500", "131148.002500", "131148.462500", "131148.922500", "131149.382500", "131149.842500", "131150.302500", "131150.762500", "131151.222500", "131151.682500", "131152.142500", "131152.602500", "131153.062500", "131153.522500", "131153.982500", "131154.442500", "131154.902500", "131155.362500", "131155.822500", "131156.282500", "131156.742500", "131157.202500", "131157.662500", "131158.122500", "131158.582500", "131159.042500", "131159.502500", "131159.962500", "131200.422500", "131200.882500", "131201.342500", "131201.802500", "131202.262500", "131202.722500", "131203.182500", "131203.642500", "131204.102500", "131204.562500", "131205.022500", "131205.482500", "131205.942500", "131206.402500", "131206.862500", "131207.322500", "131207.782500", "131208.242500", "131208.702500", "131209.162500", "131209.622500", "131210.082500", "131210.542500", "131211.002500", "131211.462500", "131211.922500", "131212.382500", "131212.842500", "131213.302500", "131213.762500", "131214.222500", "131214.682500", "131215.142500", "131215.602500", "131216.062500", "131216.522500", "131216.982500", "131217.442500", "131217.902500", "131218.362500", "131218.822500", "131219.282500", "131219.742500", "131220.202500", "131220.662500", "131221.122500", "131221.582500", "131222.042500", "131222.502500", "131222.962500", "131223.422500", "131223.882500", "131224.342500", "131224.802500", "131225.262500", "131225.722500", "131226.182500", "131226.642500", "131227.102500", "131227.562500", "131228.022500", "131228.482500", "131228.942500", "131229.402500", "131229.862500", "131230.322500", "131230.782500", "131231.242500", "131231.702500", "131232.162500", "131232.622500", "131233.082500", "131233.542500", "131234.002500", "131234.462500", "131234.922500", "131235.382500", "131235.842500", "131236.302500", "131236.762500", "131237.222500", "131237.682500", "131238.142500", "131238.602500", "131239.062500", "131239.522500", "131239.982500", "131240.442500", "131240.902500", "131241.362500", "131241.822500", "131242.282500", "131242.742500", "131243.202500", "131243.662500", "131244.122500", "131244.582500", "131245.042500", "131245.502500", "131245.962500", "131246.422500", "131246.882500", "131247.342500", "131247.802500", "131248.262500", "131248.722500", "131249.182500", "131249.642500", "131250.102500", "131250.562500", "131251.022500", "131251.482500", "131251.942500", "131252.402500", "131252.862500", "131253.322500", "131253.782500", "131254.242500", "131254.702500", "131255.162500", "131255.622500", "131256.082500", "131256.542500", "131257.002500", "131257.462500", "131257.922500", "131258.382500", "131258.842500", "131259.302500", "131259.762500", "131300.222500", "131300.682500", "131301.142500", "131301.602500", "131302.062500", "131302.522500", "131302.982500", "131303.442500", "131303.902500", "131304.362500", "131304.822500", "131305.282500", "131305.742500", "131306.202500", "131306.662500", "131307.122500", "131307.582500", "131308.042500", "131308.502500", "131308.962500", "131309.422500", "131309.882500", "131310.342500", "131310.802500", "131311.262500", "131311.722500", "131312.182500", "131312.642500", "131313.102500", "131313.562500", "131314.022500", "131314.482500", "131314.942500", "131315.402500", "131315.862500", "131316.322500", "131316.782500", "131317.242500", "131317.702500", "131318.162500", "131318.622500", "131319.082500", "131319.542500", "131320.002500", "131320.462500", "131320.922500", "131321.382500", "131321.842500", "131322.302500", "131322.762500", "131323.222500", "131323.682500", "131324.142500", "131324.602500", "131325.062500", "131325.522500", "131325.982500", "131326.442500", "131326.902500", "131327.362500", "131327.822500", "131328.282500", "131328.742500", "131329.202500", "131329.662500", "131330.122500", "131330.582500", "131331.042500", "131331.502500", "131331.962500", "131332.422500", "131332.882500", "131333.342500", "131333.802500", "131334.262500", "131334.722500", "131335.182500", "131335.642500", "131336.102500", "131336.562500", "131337.022500", "131337.482500", "131337.942500", "131338.402500", "131338.862500", "131339.322500", "131339.782500", "131340.242500", "131340.702500", "131341.162500", "131341.622500", "131342.082500", "131342.542500", "131343.002500", "131343.462500", "131343.922500", "131344.382500", "131344.842500", "131345.302500", "131345.762500", "131346.222500", "131346.682500", "131347.142500", "131347.602500", "131348.062500", "131348.522500", "131348.982500", "131349.442500", "131349.902500", "131350.362500", "131350.822500", "131351.282500", "131351.742500", "131352.202500", "131352.662500", "131353.122500", "131353.582500", "131354.042500", "131354.502500", "131354.962500", "131355.422500", "131355.882500", "131356.342500", "131356.802500", "131357.262500", "131357.722500", "131358.182500", "131358.642500", "131359.102500", "131359.562500", "131400.022500", "131400.482500", "131400.942500", "131401.402500", "131401.862500", "131402.322500", "131402.782500", "131403.242500", "131403.702500", "131404.162500", "131404.622500", "131405.082500", "131405.542500", "131406.002500", "131406.462500", "131406.922500", "131407.382500", "131407.842500", "131408.302500", "131408.762500", "131409.222500", "131409.682500", "131410.142500", "131410.602500", "131411.062500", "131411.522500", "131411.982500", "131412.442500", "131412.902500", "131413.362500", "131413.822500", "131414.282500", "131414.742500", "131415.202500", "131415.662500", "131416.122500", "131416.582500", "131417.042500", "131417.502500", "131417.962500", "131418.422500", "131418.882500", "131419.342500", "131419.802500", "131420.262500", "131420.722500", "131421.182500", "131421.642500", "131422.102500", "131422.562500", "131423.022500", "131423.482500", "131423.942500", "131424.402500", "131424.862500", "131425.322500", "131425.782500", "131426.242500", "131426.702500", "131427.162500", "131427.622500", "131428.082500", "131428.542500", "131429.002500", "131429.462500", "131429.922500", "131430.382500", "131430.842500", "131431.302500", "131431.762500", "131432.222500", "131432.682500", "131433.142500", "131433.602500", "131434.062500", "131434.522500", "131434.982500", "131435.442500", "131435.902500", "131436.362500", "131436.822500", "131437.282500", "131437.742500", "131438.202500", "131438.662500", "131439.122500", "131439.582500", "131440.042500", "131440.502500", "131440.962500", "131441.422500", "131441.882500", "131442.342500", "131442.802500", "131443.262500", "131443.722500", "131444.182500", "131444.642500", "131445.102500", "131445.562500", "131446.022500", "131446.482500", "131446.942500", "131447.402500", "131447.862500", "131448.322500", "131448.782500", "131449.242500", "131449.702500", "131450.162500", "131450.622500", "131451.082500", "131451.542500", "131452.002500", "131452.462500", "131452.922500", "131453.382500", "131453.842500", "131454.302500", "131454.762500", "131455.222500", "131455.682500", "131456.142500", "131456.602500", "131457.062500", "131457.522500", "131457.982500", "131458.442500", "131458.902500", "131459.362500", "131459.822500", "131500.282500", "131500.742500", "131501.202500", "131501.662500", "131502.122500", "131502.582500", "131503.042500", "131503.502500", "131503.962500", "131504.422500", "131504.882500", "131505.342500", "131505.802500", "131506.262500", "131506.722500", "131507.182500", "131507.642500", "131508.102500", "131508.562500", "131509.022500", "131509.482500", "131509.942500", "131510.402500", "131510.862500", "131511.322500", "131511.782500", "131512.242500", "131512.702500", "131513.162500", "131513.622500", "131514.082500", "131514.542500", "131515.002500", "131515.462500", "131515.922500", "131516.382500", "131516.842500", "131517.302500", "131517.762500", "131518.222500", "131518.682500", "131519.142500", "131519.602500", "131520.062500", "131520.522500", "131520.982500", "131521.442500", "131521.902500", "131522.362500", "131522.822500", "131523.282500", "131523.742500", "131524.202500", "131524.662500", "131525.122500", "131525.582500", "131526.042500", "131526.502500", "131526.962500", "131527.422500", "131527.882500", "131528.342500", "131528.802500", "131529.262500", "131529.722500", "131530.182500", "131530.642500", "131531.102500", "131531.562500", "131532.022500", "131532.482500", "131532.942500", "131533.402500", "131533.862500", "131534.322500", "131534.782500", "131535.242500", "131535.702500", "131536.162500", "131536.622500", "131537.082500", "131537.542500", "131538.002500", "131538.462500", "131538.922500", "131539.382500", "131539.842500", "131540.302500", "131540.762500", "131541.222500", "131541.682500", "131542.142500", "131542.602500", "131543.062500", "131543.522500", "131543.982500", "131544.442500", "131544.902500", "131545.362500", "131545.822500", "131546.282500", "131546.742500", "131547.202500", "131547.662500", "131548.122500", "131548.582500", "131549.042500", "131549.502500", "131549.962500", "131550.422500", "131550.882500", "131551.342500", "131551.802500", "131552.262500", "131552.722500", "131553.182500", "131553.642500", "131554.102500", "131554.562500", "131555.022500", "131555.482500", "131555.942500", "131556.402500", "131556.862500", "131557.322500", "131557.782500", "131558.242500", "131558.702500", "131559.162500", "131559.622500", "131600.082500", "131600.542500", "131601.002500", "131601.462500", "131601.922500", "131602.382500", "131602.842500", "131603.302500", "131603.762500", "131604.222500", "131604.682500", "131605.142500", "131605.602500", "131606.062500", "131606.522500", "131606.982500", "131607.442500", "131607.902500", "131608.362500", "131608.822500", "131609.282500", "131609.742500", "131610.202500", "131610.662500", "131611.122500", "131611.582500", "131612.042500", "131612.502500", "131612.962500", "131613.422500", "131613.882500", "131614.342500", "131614.802500", "131615.262500", "131615.722500", "131616.182500", "131616.642500", "131617.102500", "131617.562500", "131618.022500", "131618.482500", "131618.942500", "131619.402500", "131619.862500", "131620.322500", "131620.782500", "131621.242500", "131621.702500", "131622.162500", "131622.622500", "131623.082500", "131623.542500", "131624.002500", "131624.462500", "131624.922500", "131625.382500", "131625.842500", "131626.302500", "131626.762500", "131627.222500", "131627.682500", "131628.142500", "131628.602500", "131629.062500", "131629.522500", "131629.982500", "131630.442500", "131630.902500", "131631.362500", "131631.822500", "131632.282500", "131632.742500", "131633.202500", "131633.662500", "131634.122500", "131634.582500", "131635.042500", "131635.502500", "131635.962500", "131636.422500", "131636.882500", "131637.342500", "131637.802500", "131638.262500", "131638.722500", "131639.182500", "131639.642500", "131640.102500", "131640.562500", "131641.022500", "131641.482500", "131641.942500", "131642.402500", "131642.862500", "131643.322500", "131643.782500", "131644.242500"],
