{
  "AcquisitionMatrixPE": 82,
  "AcquisitionNumber": 1,
  "AcquisitionTime": "12:45:45.817500",
  "BandwidthPerPixelPhaseEncode": 24.888,
  "BaseResolution": 82,
  "BodyPartExamined": "BRAIN",
  "ConsistencyInfo": "N4_VE11E_LATEST_20181129",
  "ConversionSoftware": "dcm2niix",
  "ConversionSoftwareVersion": "v1.0.20201102",
  "DerivedVendorReportedEchoSpacing": 0.00049,
  "DeviceSerialNumber": "66112",
  "DwellTime": 2e-06,
  "EchoTime": 0.0272,
  "EchoTrainLength": 82,
  "EffectiveEchoSpacing": 0.00049,
  "FlipAngle": 44,
  "ImageComments": "Unaliased MB8/PE3",
  "ImageOrientationPatientDICOM": [0.999603, 0.0139628, -0.0244703, -0.00872343, 0.97926, 0.202418],
  "ImageType": [
    "ORIGINAL",
    "PRIMARY",
    "M",
    "MB",
    "ND",
    "NORM",
    "MOSAIC"
],
  "ImagingFrequency": 123.259,
  "InPlanePhaseEncodingDirectionDICOM": "COL",
  "InstitutionAddress": "Maynard 3,Hanover,NH,US,03755",
  "InstitutionName": "Dartmouth College - PBS",
  "InstitutionalDepartmentName": "Department",
  "MRAcquisitionType": "2D",
  "MagneticFieldStrength": 3,
  "Manufacturer": "Siemens",
  "ManufacturersModelName": "Prisma",
  "Modality": "MR",
  "MultibandAccelerationFactor": 8,
  "PartialFourier": 1,
  "PatientPosition": "HFS",
  "PercentPhaseFOV": 100,
  "PercentSampling": 100,
  "PhaseEncodingDirection": "j-",
  "PhaseEncodingSteps": 82,
  "PhaseResolution": 1,
  "PixelBandwidth": 3050,
  "ProcedureStepDescription": "Wager_Wager^1076_spacetop",
  "ProtocolName": "func_run-02_task-social_acq-ap-mb8",
  "PulseSequenceDetails": "%CustomerSeq%\\cmrr_mbep2d_bold",
  "ReceiveCoilActiveElements": "HEA;HEP",
  "ReceiveCoilName": "Head_32",
  "ReconMatrixPE": 82,
  "RepetitionTime": 0.46,
  "SAR": 0.09114,
  "ScanOptions": "FS",
  "ScanningSequence": "EP",
  "SequenceName": "epfid2d1_82",
  "SequenceVariant": "SK\\SS",
  "SeriesDescription": "func_run-02_task-social_acq-ap-mb8",
  "SeriesNumber": 10,
  "ShimSetting": [4216, -7813, -7167, 299, -108, 84, -10, 82],
  "SliceThickness": 2.7,
  "SliceTiming": [0, 0.2525, 0.065, 0.315, 0.1275, 0.3775, 0.19, 0, 0.2525, 0.065, 0.315, 0.1275, 0.3775, 0.19, 0, 0.2525, 0.065, 0.315, 0.1275, 0.3775, 0.19, 0, 0.2525, 0.065, 0.315, 0.1275, 0.3775, 0.19, 0, 0.2525, 0.065, 0.315, 0.1275, 0.3775, 0.19, 0, 0.2525, 0.065, 0.315, 0.1275, 0.3775, 0.19, 0, 0.2525, 0.065, 0.315, 0.1275, 0.3775, 0.19, 0, 0.2525, 0.065, 0.315, 0.1275, 0.3775, 0.19],
  "SoftwareVersions": "syngo MR E11",
  "SpacingBetweenSlices": 2.7,
  "StationName": "AWP66112",
  "TaskName": "social",
  "TotalReadoutTime": 0.03969,
  "TxRefAmp": 247.993,
  "WipMemBlock": "b8953f25-ba3c-45dd-b01b-4ea5ea32179a||Sequence: R016 ve11e/master r/434b28f1; Aug  7 2019 18:53:46 by eja",
  "dcmmeta_affine": [
    [-2.6818618774414062, -0.023404331877827644, -0.0723305270075798, 117.30829620361328],
    [-0.03746110945940018, 2.627284049987793, 0.5457354187965393, -105.89569854736328],
    [-0.06565195322036743, -0.5430728197097778, 2.643282175064087, -27.555809020996094],
    [0.0, 0.0, 0.0, 1.0]
],
  "dcmmeta_reorient_transform": [
    [0.0, -1.0, 0.0, 81.0],
    [1.0, 0.0, 0.0, 0.0],
    [0.0, 0.0, 1.0, 0.0],
    [0.0, 0.0, 0.0, 1.0]
],
  "dcmmeta_shape": [82, 82, 56, 872],
  "dcmmeta_slice_dim": 2,
  "dcmmeta_version": 0.6,
  "global": {
    "const": {
      "AccessionNumber": "A004323",
      "AcquisitionMatrix": [82, 0, 0, 82],
      "AngioFlag": "N",
      "BitsAllocated": 16,
      "BitsStored": 16,
      "BodyPartExamined": "BRAIN",
      "Columns": 656,
      "EchoNumbers": 1,
      "EchoTime": 27.2,
      "EchoTrainLength": 82,
      "FlipAngle": 44.0,
      "HighBit": 15,
      "ImageOrientationPatient": [0.99960304454109, 0.01396277699354, -0.0244702718171, -0.0087234323446, 0.97926035340453, 0.20241803767988],
      "ImagePositionPatient": [-878.38986292772, -871.69612795788, -208.56448904769],
      "ImageType": [
        "ORIGINAL",
        "PRIMARY",
        "M",
        "MB",
        "ND",
        "NORM",
        "MOSAIC"
],
      "ImagedNucleus": "1H",
      "ImagingFrequency": 123.259064,
      "InPlanePhaseEncodingDirection": "COL",
      "MRAcquisitionType": "2D",
      "MagneticFieldStrength": 3.0,
      "Manufacturer": "SIEMENS",
      "ManufacturerModelName": "Prisma",
      "Modality": "MR",
      "NumberOfAverages": 1.0,
      "NumberOfPhaseEncodingSteps": 82,
      "PercentPhaseFieldOfView": 100.0,
      "PercentSampling": 100.0,
      "PerformedProcedureStepStartTime": "121330.409000",
      "PhotometricInterpretation": "MONOCHROME2",
      "PixelBandwidth": 3050.0,
      "PixelRepresentation": 0,
      "PixelSpacing": [2.6829268932343, 2.6829268932343],
      "ProtocolName": "func_run-02_task-social_acq-ap-mb8",
      "RepetitionTime": 460.0,
      "Rows": 656,
      "SAR": 0.09113996752819,
      "SamplesPerPixel": 1,
      "ScanOptions": "FS",
      "ScanningSequence": "EP",
      "SequenceName": "epfid2d1_82",
      "SequenceVariant": [
        "SK",
        "SS"
],
      "SeriesDescription": "func_run-02_task-social_acq-ap-mb8",
      "SeriesNumber": 10,
      "SeriesTime": "124558.325000",
      "SliceLocation": -51.523624336951,
      "SliceThickness": 2.7000000476837,
      "SmallestImagePixelValue": 0,
      "SoftwareVersions": "syngo MR E11",
      "SpacingBetweenSlices": 2.6999999847954,
      "SpecificCharacterSet": "ISO_IR 100",
      "StudyID": "1",
      "StudyTime": "121330.356000",
      "TransmitCoilName": "Body",
      "VariableFlipAngleFlag": "N",
      "WindowCenterWidthExplanation": "Algo1"
    },
    "slices": {}
  },
  "time": {
    "samples": {
      "AcquisitionNumber": [1, 2, 3, 4, 5, 6, 7, 8, 9, 10, 11, 12, 13, 14, 15, 16, 17, 18, 19, 20, 21, 22, 23, 24, 25, 26, 27, 28, 29, 30, 31, 32, 33, 34, 35, 36, 37, 38, 39, 40, 41, 42, 43, 44, 45, 46, 47, 48, 49, 50, 51, 52, 53, 54, 55, 56, 57, 58, 59, 60, 61, 62, 63, 64, 65, 66, 67, 68, 69, 70, 71, 72, 73, 74, 75, 76, 77, 78, 79, 80, 81, 82, 83, 84, 85, 86, 87, 88, 89, 90, 91, 92, 93, 94, 95, 96, 97, 98, 99, 100, 101, 102, 103, 104, 105, 106, 107, 108, 109, 110, 111, 112, 113, 114, 115, 116, 117, 118, 119, 120, 121, 122, 123, 124, 125, 126, 127, 128, 129, 130, 131, 132, 133, 134, 135, 136, 137, 138, 139, 140, 141, 142, 143, 144, 145, 146, 147, 148, 149, 150, 151, 152, 153, 154, 155, 156, 157, 158, 159, 160, 161, 162, 163, 164, 165, 166, 167, 168, 169, 170, 171, 172, 173, 174, 175, 176, 177, 178, 179, 180, 181, 182, 183, 184, 185, 186, 187, 188, 189, 190, 191, 192, 193, 194, 195, 196, 197, 198, 199, 200, 201, 202, 203, 204, 205, 206, 207, 208, 209, 210, 211, 212, 213, 214, 215, 216, 217, 218, 219, 220, 221, 222, 223, 224, 225, 226, 227, 228, 229, 230, 231, 232, 233, 234, 235, 236, 237, 238, 239, 240, 241, 242, 243, 244, 245, 246, 247, 248, 249, 250, 251, 252, 253, 254, 255, 256, 257, 258, 259, 260, 261, 262, 263, 264, 265, 266, 267, 268, 269, 270, 271, 272, 273, 274, 275, 276, 277, 278, 279, 280, 281, 282, 283, 284, 285, 286, 287, 288, 289, 290, 291, 292, 293, 294, 295, 296, 297, 298, 299, 300, 301, 302, 303, 304, 305, 306, 307, 308, 309, 310, 311, 312, 313, 314, 315, 316, 317, 318, 319, 320, 321, 322, 323, 324, 325, 326, 327, 328, 329, 330, 331, 332, 333, 334, 335, 336, 337, 338, 339, 340, 341, 342, 343, 344, 345, 346, 347, 348, 349, 350, 351, 352, 353, 354, 355, 356, 357, 358, 359, 360, 361, 362, 363, 364, 365, 366, 367, 368, 369, 370, 371, 372, 373, 374, 375, 376, 377, 378, 379, 380, 381, 382, 383, 384, 385, 386, 387, 388, 389, 390, 391, 392, 393, 394, 395, 396, 397, 398, 399, 400, 401, 402, 403, 404, 405, 406, 407, 408, 409, 410, 411, 412, 413, 414, 415, 416, 417, 418, 419, 420, 421, 422, 423, 424, 425, 426, 427, 428, 429, 430, 431, 432, 433, 434, 435, 436, 437, 438, 439, 440, 441, 442, 443, 444, 445, 446, 447, 448, 449, 450, 451, 452, 453, 454, 455, 456, 457, 458, 459, 460, 461, 462, 463, 464, 465, 466, 467, 468, 469, 470, 471, 472, 473, 474, 475, 476, 477, 478, 479, 480, 481, 482, 483, 484, 485, 486, 487, 488, 489, 490, 491, 492, 493, 494, 495, 496, 497, 498, 499, 500, 501, 502, 503, 504, 505, 506, 507, 508, 509, 510, 511, 512, 513, 514, 515, 516, 517, 518, 519, 520, 521, 522, 523, 524, 525, 526, 527, 528, 529, 530, 531, 532, 533, 534, 535, 536, 537, 538, 539, 540, 541, 542, 543, 544, 545, 546, 547, 548, 549, 550, 551, 552, 553, 554, 555, 556, 557, 558, 559, 560, 561, 562, 563, 564, 565, 566, 567, 568, 569, 570, 571, 572, 573, 574, 575, 576, 577, 578, 579, 580, 581, 582, 583, 584, 585, 586, 587, 588, 589, 590, 591, 592, 593, 594, 595, 596, 597, 598, 599, 600, 601, 602, 603, 604, 605, 606, 607, 608, 609, 610, 611, 612, 613, 614, 615, 616, 617, 618, 619, 620, 621, 622, 623, 624, 625, 626, 627, 628, 629, 630, 631, 632, 633, 634, 635, 636, 637, 638, 639, 640, 641, 642, 643, 644, 645, 646, 647, 648, 649, 650, 651, 652, 653, 654, 655, 656, 657, 658, 659, 660, 661, 662, 663, 664, 665, 666, 667, 668, 669, 670, 671, 672, 673, 674, 675, 676, 677, 678, 679, 680, 681, 682, 683, 684, 685, 686, 687, 688, 689, 690, 691, 692, 693, 694, 695, 696, 697, 698, 699, 700, 701, 702, 703, 704, 705, 706, 707, 708, 709, 710, 711, 712, 713, 714, 715, 716, 717, 718, 719, 720, 721, 722, 723, 724, 725, 726, 727, 728, 729, 730, 731, 732, 733, 734, 735, 736, 737, 738, 739, 740, 741, 742, 743, 744, 745, 746, 747, 748, 749, 750, 751, 752, 753, 754, 755, 756, 757, 758, 759, 760, 761, 762, 763, 764, 765, 766, 767, 768, 769, 770, 771, 772, 773, 774, 775, 776, 777, 778, 779, 780, 781, 782, 783, 784, 785, 786, 787, 788, 789, 790, 791, 792, 793, 794, 795, 796, 797, 798, 799, 800, 801, 802, 803, 804, 805, 806, 807, 808, 809, 810, 811, 812, 813, 814, 815, 816, 817, 818, 819, 820, 821, 822, 823, 824, 825, 826, 827, 828, 829, 830, 831, 832, 833, 834, 835, 836, 837, 838, 839, 840, 841, 842, 843, 844, 845, 846, 847, 848, 849, 850, 851, 852, 853, 854, 855, 856, 857, 858, 859, 860, 861, 862, 863, 864, 865, 866, 867, 868, 869, 870, 871, 872],
      "AcquisitionTime": ["124545.817500", "124546.277500", "124546.737500", "124547.197500", "124547.657500", "124548.117500", "124548.577500", "124549.037500", "124549.497500", "124549.957500", "124550.417500", "124550.877500", "124551.337500", "124551.797500", "124552.257500", "124552.717500", "124553.177500", "124553.637500", "124554.097500", "124554.557500", "124555.017500", "124555.477500", "124555.937500", "124556.397500", "124556.857500", "124557.317500", "124557.777500", "124558.237500", "124558.697500", "124559.157500", "124559.617500", "124600.077500", "124600.537500", "124600.997500", "124601.457500", "124601.917500", "124602.377500", "124602.837500", "124603.297500", "124603.757500", "124604.217500", "124604.677500", "124605.137500", "124605.597500", "124606.057500", "124606.517500", "124606.977500", "124607.437500", "124607.897500", "124608.357500", "124608.817500", "124609.277500", "124609.737500", "124610.197500", "124610.657500", "124611.117500", "124611.577500", "124612.037500", "124612.497500", "124612.957500", "124613.417500", "124613.877500", "124614.337500", "124614.797500", "124615.257500", "124615.717500", "124616.177500", "124616.637500", "124617.097500", "124617.557500", "124618.017500", "124618.477500", "124618.937500", "124619.397500", "124619.857500", "124620.317500", "124620.777500", "124621.237500", "124621.697500", "124622.157500", "124622.617500", "124623.077500", "124623.537500", "124623.997500", "124624.457500", "124624.917500", "124625.377500", "124625.837500", "124626.297500", "124626.757500", "124627.217500", "124627.677500", "124628.137500", "124628.597500", "124629.057500", "124629.517500", "124629.977500", "124630.437500", "124630.897500", "124631.357500", "124631.817500", "124632.277500", "124632.737500", "124633.197500", "124633.657500", "124634.117500", "124634.577500", "124635.037500", "124635.497500", "124635.957500", "124636.417500", "124636.877500", "124637.337500", "124637.797500", "124638.257500", "124638.717500", "124639.177500", "124639.637500", "124640.097500", "124640.557500", "124641.017500", "124641.477500", "124641.937500", "124642.397500", "124642.857500", "124643.317500", "124643.777500", "124644.237500", "124644.697500", "124645.157500", "124645.617500", "124646.077500", "124646.537500", "124646.997500", "124647.457500", "124647.917500", "124648.377500", "124648.837500", "124649.297500", "124649.757500", "124650.217500", "124650.677500", "124651.137500", "124651.597500", "124652.057500", "124652.517500", "124652.977500", "124653.437500", "124653.897500", "124654.357500", "124654.817500", "124655.277500", "124655.737500", "124656.197500", "124656.657500", "124657.117500", "124657.577500", "124658.037500", "124658.497500", "124658.957500", "124659.417500", "124659.877500", "124700.337500", "124700.797500", "124701.257500", "124701.717500", "124702.177500", "124702.637500", "124703.097500", "124703.557500", "124704.017500", "124704.477500", "124704.937500", "124705.397500", "124705.857500", "124706.317500", "124706.777500", "124707.237500", "124707.697500", "124708.157500", "124708.617500", "124709.077500", "124709.537500", "124709.997500", "124710.457500", "124710.917500", "124711.377500", "124711.837500", "124712.297500", "124712.757500", "124713.217500", "124713.677500", "124714.137500", "124714.597500", "124715.057500", "124715.517500", "124715.977500", "124716.437500", "124716.897500", "124717.357500", "124717.817500", "124718.277500", "124718.737500", "124719.197500", "124719.657500", "124720.117500", "124720.577500", "124721.037500", "124721.497500", "124721.957500", "124722.417500", "124722.877500", "124723.337500", "124723.797500", "124724.257500", "124724.717500", "124725.177500", "124725.637500", "124726.097500", "124726.557500", "124727.017500", "124727.477500", "124727.937500", "124728.397500", "124728.857500", "124729.317500", "124729.777500", "124730.237500", "124730.697500", "124731.157500", "124731.617500", "124732.077500", "124732.537500", "124732.997500", "124733.457500", "124733.917500", "124734.377500", "124734.837500", "124735.297500", "124735.757500", "124736.217500", "124736.677500", "124737.137500", "124737.597500", "124738.057500", "124738.517500", "124738.977500", "124739.437500", "124739.897500", "124740.357500", "124740.817500", "124741.277500", "124741.737500", "124742.197500", "124742.657500", "124743.117500", "124743.577500", "124744.037500", "124744.497500", "124744.957500", "124745.417500", "124745.877500", "124746.337500", "124746.797500", "124747.257500", "124747.717500", "124748.177500", "124748.637500", "124749.097500", "124749.557500", "124750.017500", "124750.477500", "124750.937500", "124751.397500", "124751.857500", "124752.317500", "124752.777500", "124753.237500", "124753.697500", "124754.157500", "124754.617500", "124755.077500", "124755.537500", "124755.997500", "124756.457500", "124756.917500", "124757.377500", "124757.837500", "124758.297500", "124758.757500", "124759.217500", "124759.677500", "124800.137500", "124800.597500", "124801.057500", "124801.517500", "124801.977500", "124802.437500", "124802.897500", "124803.357500", "124803.817500", "124804.277500", "124804.737500", "124805.197500", "124805.657500", "124806.117500", "124806.577500", "124807.037500", "124807.497500", "124807.957500", "124808.417500", "124808.877500", "124809.337500", "124809.797500", "124810.257500", "124810.717500", "124811.177500", "124811.637500", "124812.097500", "124812.557500", "124813.017500", "124813.477500", "124813.937500", "124814.397500", "124814.857500", "124815.317500", "124815.777500", "124816.237500", "124816.697500", "124817.157500", "124817.617500", "124818.077500", "124818.537500", "124818.997500", "124819.457500", "124819.917500", "124820.377500", "124820.837500", "124821.297500", "124821.757500", "124822.217500", "124822.677500", "124823.137500", "124823.597500", "124824.057500", "124824.517500", "124824.977500", "124825.437500", "124825.897500", "124826.357500", "124826.817500", "124827.277500", "124827.737500", "124828.197500", "124828.657500", "124829.117500", "124829.577500", "124830.037500", "124830.497500", "124830.957500", "124831.417500", "124831.877500", "124832.337500", "124832.797500", "124833.257500", "124833.717500", "124834.177500", "124834.637500", "124835.097500", "124835.557500", "124836.017500", "124836.477500", "124836.937500", "124837.397500", "124837.857500", "124838.317500", "124838.777500", "124839.237500", "124839.697500", "124840.157500", "124840.617500", "124841.077500", "124841.537500", "124841.997500", "124842.457500", "124842.917500", "124843.377500", "124843.837500", "124844.297500", "124844.757500", "124845.217500", "124845.677500", "124846.137500", "124846.597500", "124847.057500", "124847.517500", "124847.977500", "124848.437500", "124848.897500", "124849.357500", "124849.817500", "124850.277500", "124850.737500", "124851.197500", "124851.657500", "124852.117500", "124852.577500", "124853.037500", "124853.497500", "124853.957500", "124854.417500", "124854.877500", "124855.337500", "124855.797500", "124856.257500", "124856.717500", "124857.177500", "124857.637500", "124858.097500", "124858.557500", "124859.017500", "124859.477500", "124859.937500", "124900.397500", "124900.857500", "124901.317500", "124901.777500", "124902.237500", "124902.697500", "124903.157500", "124903.617500", "124904.077500", "124904.537500", "124904.997500", "124905.457500", "124905.917500", "124906.377500", "124906.837500", "124907.297500", "124907.757500", "124908.217500", "124908.677500", "124909.137500", "124909.597500", "124910.057500", "124910.517500", "124910.977500", "124911.437500", "124911.897500", "124912.357500", "124912.817500", "124913.277500", "124913.737500", "124914.197500", "124914.657500", "124915.117500", "124915.577500", "124916.037500", "124916.497500", "124916.957500", "124917.417500", "124917.877500", "124918.337500", "124918.797500", "124919.257500", "124919.717500", "124920.177500", "124920.637500", "124921.097500", "124921.557500", "124922.017500", "124922.477500", "124922.937500", "124923.397500", "124923.857500", "124924.317500", "124924.777500", "124925.237500", "124925.697500", "124926.157500", "124926.617500", "124927.077500", "124927.537500", "124927.997500", "124928.457500", "124928.917500", "124929.377500", "124929.837500", "124930.297500", "124930.757500", "124931.217500", "124931.677500", "124932.137500", "124932.597500", "124933.057500", "124933.517500", "124933.977500", "124934.437500", "124934.897500", "124935.357500", "124935.817500", "124936.277500", "124936.737500", "124937.197500", "124937.657500", "124938.117500", "124938.577500", "124939.037500", "124939.497500", "124939.957500", "124940.417500", "124940.877500", "124941.337500", "124941.797500", "124942.257500", "124942.717500", "124943.177500", "124943.637500", "124944.097500", "124944.557500", "124945.017500", "124945.477500", "124945.937500", "124946.397500", "124946.857500", "124947.317500", "124947.777500", "124948.237500", "124948.697500", "124949.157500", "124949.617500", "124950.077500", "124950.537500", "124950.997500", "124951.457500", "124951.917500", "124952.377500", "124952.837500", "124953.297500", "124953.757500", "124954.217500", "124954.677500", "124955.137500", "124955.597500", "124956.057500", "124956.517500", "124956.977500", "124957.437500", "124957.897500", "124958.357500", "124958.817500", "124959.277500", "124959.737500", "125000.197500", "125000.657500", "125001.117500", "125001.577500", "125002.037500", "125002.497500", "125002.957500", "125003.417500", "125003.877500", "125004.337500", "125004.797500", "125005.257500", "125005.717500", "125006.177500", "125006.637500", "125007.097500", "125007.557500", "125008.017500", "125008.477500", "125008.937500", "125009.397500", "125009.857500", "125010.317500", "125010.777500", "125011.237500", "125011.697500", "125012.157500", "125012.617500", "125013.077500", "125013.537500", "125013.997500", "125014.457500", "125014.917500", "125015.377500", "125015.837500", "125016.297500", "125016.757500", "125017.217500", "125017.677500", "125018.137500", "125018.597500", "125019.057500", "125019.517500", "125019.977500", "125020.437500", "125020.897500", "125021.357500", "125021.817500", "125022.277500", "125022.737500", "125023.197500", "125023.657500", "125024.117500", "125024.577500", "125025.037500", "125025.497500", "125025.957500", "125026.417500", "125026.877500", "125027.337500", "125027.797500", "125028.257500", "125028.717500", "125029.177500", "125029.637500", "125030.097500", "125030.557500", "125031.017500", "125031.477500", "125031.937500", "125032.397500", "125032.857500", "125033.317500", "125033.777500", "125034.237500", "125034.697500", "125035.157500", "125035.617500", "125036.077500", "125036.537500", "125036.997500", "125037.457500", "125037.917500", "125038.377500", "125038.837500", "125039.297500", "125039.757500", "125040.217500", "125040.677500", "125041.137500", "125041.597500", "125042.057500", "125042.517500", "125042.977500", "125043.437500", "125043.897500", "125044.357500", "125044.817500", "125045.277500", "125045.737500", "125046.197500", "125046.657500", "125047.117500", "125047.577500", "125048.037500", "125048.497500", "125048.957500", "125049.417500", "125049.877500", "125050.337500", "125050.797500", "125051.257500", "125051.717500", "125052.177500", "125052.637500", "125053.097500", "125053.557500", "125054.017500", "125054.477500", "125054.937500", "125055.397500", "125055.857500", "125056.317500", "125056.777500", "125057.237500", "125057.697500", "125058.157500", "125058.617500", "125059.077500", "125059.537500", "125059.997500", "125100.457500", "125100.917500", "125101.377500", "125101.837500", "125102.297500", "125102.757500", "125103.217500", "125103.677500", "125104.137500", "125104.597500", "125105.057500", "125105.517500", "125105.977500", "125106.437500", "125106.897500", "125107.357500", "125107.817500", "125108.277500", "125108.737500", "125109.197500", "125109.657500", "125110.117500", "125110.577500", "125111.037500", "125111.497500", "125111.957500", "125112.417500", "125112.877500", "125113.337500", "125113.797500", "125114.257500", "125114.717500", "125115.177500", "125115.637500", "125116.097500", "125116.557500", "125117.017500", "125117.477500", "125117.937500", "125118.397500", "125118.857500", "125119.317500", "125119.777500", "125120.237500", "125120.697500", "125121.157500", "125121.617500", "125122.077500", "125122.537500", "125122.997500", "125123.457500", "125123.917500", "125124.377500", "125124.837500", "125125.297500", "125125.757500", "125126.217500", "125126.677500", "125127.137500", "125127.597500", "125128.057500", "125128.517500", "125128.977500", "125129.437500", "125129.897500", "125130.357500", "125130.817500", "125131.277500", "125131.737500", "125132.197500", "125132.657500", "125133.117500", "125133.577500", "125134.037500", "125134.497500", "125134.957500", "125135.417500", "125135.877500", "125136.337500", "125136.797500", "125137.257500", "125137.717500", "125138.177500", "125138.637500", "125139.097500", "125139.557500", "125140.017500", "125140.477500", "125140.937500", "125141.397500", "125141.857500", "125142.317500", "125142.777500", "125143.237500", "125143.697500", "125144.157500", "125144.617500", "125145.077500", "125145.537500", "125145.997500", "125146.457500", "125146.917500", "125147.377500", "125147.837500", "125148.297500", "125148.757500", "125149.217500", "125149.677500", "125150.137500", "125150.597500", "125151.057500", "125151.517500", "125151.977500", "125152.437500", "125152.897500", "125153.357500", "125153.817500", "125154.277500", "125154.737500", "125155.197500", "125155.657500", "125156.117500", "125156.577500", "125157.037500", "125157.497500", "125157.957500", "125158.417500", "125158.877500", "125159.337500", "125159.797500", "125200.257500", "125200.717500", "125201.177500", "125201.637500", "125202.097500", "125202.557500", "125203.017500", "125203.477500", "125203.937500", "125204.397500", "125204.857500", "125205.317500", "125205.777500", "125206.237500", "125206.697500", "125207.157500", "125207.617500", "125208.077500", "125208.537500", "125208.997500", "125209.457500", "125209.917500", "125210.377500", "125210.837500", "125211.297500", "125211.757500", "125212.217500", "125212.677500", "125213.137500", "125213.597500", "125214.057500", "125214.517500", "125214.977500", "125215.437500", "125215.897500", "125216.357500", "125216.817500", "125217.277500", "125217.737500", "125218.197500", "125218.657500", "125219.117500", "125219.577500", "125220.037500", "125220.497500", "125220.957500", "125221.417500", "125221.877500", "125222.337500", "125222.797500", "125223.257500", "125223.717500", "125224.177500", "125224.637500", "125225.097500", "125225.557500", "125226.017500", "125226.477500"],
