{
  "AcquisitionMatrixPE": 82,
  "AcquisitionNumber": 1,
  "AcquisitionTime": "13:59:24.660000",
  "BandwidthPerPixelPhaseEncode": 24.888,
  "BaseResolution": 82,
  "BodyPartExamined": "BRAIN",
  "ConsistencyInfo": "N4_VE11E_LATEST_20181129",
  "ConversionSoftware": "dcm2niix",
  "ConversionSoftwareVersion": "v1.0.20201102",
  "DerivedVendorReportedEchoSpacing": 0.00049,
  "DeviceSerialNumber": "66112",
  "DwellTime": 2e-06,
  "EchoTime": 0.0272,
  "EchoTrainLength": 82,
  "EffectiveEchoSpacing": 0.00049,
  "FlipAngle": 44,
  "ImageComments": "Unaliased MB8/PE3",
  "ImageOrientationPatientDICOM": [0.999693, 0.00938333, -0.0229487, -0.00540886, 0.985861, 0.16748],
  "ImageType": [
    "ORIGINAL",
    "PRIMARY",
    "M",
    "MB",
    "ND",
    "NORM",
    "MOSAIC"
],
  "ImagingFrequency": 123.259,
  "InPlanePhaseEncodingDirectionDICOM": "COL",
  "InstitutionAddress": "Maynard 3,Hanover,NH,US,03755",
  "InstitutionName": "Dartmouth College - PBS",
  "InstitutionalDepartmentName": "Department",
  "MRAcquisitionType": "2D",
  "MagneticFieldStrength": 3,
  "Manufacturer": "Siemens",
  "ManufacturersModelName": "Prisma",
  "Modality": "MR",
  "MultibandAccelerationFactor": 8,
  "PartialFourier": 1,
  "PatientPosition": "HFS",
  "PercentPhaseFOV": 100,
  "PercentSampling": 100,
  "PhaseEncodingDirection": "j-",
  "PhaseEncodingSteps": 82,
  "PhaseResolution": 1,
  "PixelBandwidth": 3050,
  "ProcedureStepDescription": "Wager_Wager^1076_spacetop",
  "ProtocolName": "func_run-03_task-alignvideo_acq-ap-mb8",
  "PulseSequenceDetails": "%CustomerSeq%\\cmrr_mbep2d_bold",
  "ReceiveCoilActiveElements": "HEA;HEP",
  "ReceiveCoilName": "Head_32",
  "ReconMatrixPE": 82,
  "RepetitionTime": 0.46,
  "SAR": 0.0912428,
  "ScanOptions": "FS",
  "ScanningSequence": "EP",
  "SequenceName": "epfid2d1_82",
  "SequenceVariant": "SK\\SS",
  "SeriesDescription": "func_run-03_task-alignvideo_acq-ap-mb8",
  "SeriesNumber": 32,
  "ShimSetting": [4215, -7809, -7160, 317, -109, 108, -10, 82],
  "SliceThickness": 2.7,
  "SliceTiming": [0, 0.25, 0.0625, 0.3125, 0.125, 0.3775, 0.1875, 0, 0.25, 0.0625, 0.3125, 0.125, 0.3775, 0.1875, 0, 0.25, 0.0625, 0.3125, 0.125, 0.3775, 0.1875, 0, 0.25, 0.0625, 0.3125, 0.125, 0.3775, 0.1875, 0, 0.25, 0.0625, 0.3125, 0.125, 0.3775, 0.1875, 0, 0.25, 0.0625, 0.3125, 0.125, 0.3775, 0.1875, 0, 0.25, 0.0625, 0.3125, 0.125, 0.3775, 0.1875, 0, 0.25, 0.0625, 0.3125, 0.125, 0.3775, 0.1875],
  "SoftwareVersions": "syngo MR E11",
  "SpacingBetweenSlices": 2.7,
  "StationName": "AWP66112",
  "TaskName": "alignvideo",
  "TotalReadoutTime": 0.03969,
  "TxRefAmp": 247.993,
  "WipMemBlock": "25590d92-a12e-420a-ad12-ec60f15bcad6||Sequence: R016 ve11e/master r/434b28f1; Aug  7 2019 18:53:46 by eja",
  "dcmmeta_affine": [
    [-2.6821022033691406, -0.014511585235595703, -0.06532857567071915, 116.3984603881836],
    [-0.025174787268042564, 2.6449921131134033, 0.4517219662666321, -104.43051147460938],
    [-0.061569761484861374, -0.4493367075920105, 2.661142587661743, -25.569622039794922],
    [0.0, 0.0, 0.0, 1.0]
],
  "dcmmeta_reorient_transform": [
    [0.0, -1.0, 0.0, 81.0],
    [1.0, 0.0, 0.0, 0.0],
    [0.0, 0.0, 1.0, 0.0],
    [0.0, 0.0, 0.0, 1.0]
],
  "dcmmeta_shape": [82, 82, 56, 1065],
  "dcmmeta_slice_dim": 2,
  "dcmmeta_version": 0.6,
  "global": {
    "const": {
      "AccessionNumber": "A004323",
      "AcquisitionMatrix": [82, 0, 0, 82],
      "AngioFlag": "N",
      "BitsAllocated": 16,
      "BitsStored": 16,
      "BodyPartExamined": "BRAIN",
      "Columns": 656,
      "EchoNumbers": 1,
      "EchoTime": 27.2,
      "EchoTrainLength": 82,
      "FlipAngle": 44.0,
      "HighBit": 15,
      "ImageOrientationPatient": [0.9996926072331, 0.00938332939222, -0.0229487292244, -0.0054088635579, 0.98586062916712, 0.16748004076075],
      "ImagePositionPatient": [-880.82152145884, -876.15170841918, -173.25500866146],
      "ImageType": [
        "ORIGINAL",
        "PRIMARY",
        "M",
        "MB",
        "ND",
        "NORM",
        "MOSAIC"
],
      "ImagedNucleus": "1H",
      "ImagingFrequency": 123.259075,
      "InPlanePhaseEncodingDirection": "COL",
      "MRAcquisitionType": "2D",
      "MagneticFieldStrength": 3.0,
      "Manufacturer": "SIEMENS",
      "ManufacturerModelName": "Prisma",
      "Modality": "MR",
      "NumberOfAverages": 1.0,
      "NumberOfPhaseEncodingSteps": 82,
      "PercentPhaseFieldOfView": 100.0,
      "PercentSampling": 100.0,
      "PerformedProcedureStepStartTime": "121330.409000",
      "PhotometricInterpretation": "MONOCHROME2",
      "PixelBandwidth": 3050.0,
      "PixelRepresentation": 0,
      "PixelSpacing": [2.6829268932343, 2.6829268932343],
      "ProtocolName": "func_run-03_task-alignvideo_acq-ap-mb8",
      "RepetitionTime": 460.0,
      "Rows": 656,
      "SAR": 0.0912427801296,
      "SamplesPerPixel": 1,
      "ScanOptions": "FS",
      "ScanningSequence": "EP",
      "SequenceName": "epfid2d1_82",
      "SequenceVariant": [
        "SK",
        "SS"
],
      "SeriesDescription": "func_run-03_task-alignvideo_acq-ap-mb8",
      "SeriesNumber": 32,
      "SeriesTime": "135938.450000",
      "SliceLocation": -45.489670875423,
      "SliceThickness": 2.7000000476837,
      "SmallestImagePixelValue": 0,
      "SoftwareVersions": "syngo MR E11",
      "SpacingBetweenSlices": 2.7000000186768,
      "SpecificCharacterSet": "ISO_IR 100",
      "StudyID": "1",
      "StudyTime": "121330.356000",
      "TransmitCoilName": "Body",
      "VariableFlipAngleFlag": "N",
      "WindowCenterWidthExplanation": "Algo1"
    },
    "slices": {}
  },
  "time": {
    "samples": {
      "AcquisitionNumber": [1, 2, 3, 4, 5, 6, 7, 8, 9, 10, 11, 12, 13, 14, 15, 16, 17, 18, 19, 20, 21, 22, 23, 24, 25, 26, 27, 28, 29, 30, 31, 32, 33, 34, 35, 36, 37, 38, 39, 40, 41, 42, 43, 44, 45, 46, 47, 48, 49, 50, 51, 52, 53, 54, 55, 56, 57, 58, 59, 60, 61, 62, 63, 64, 65, 66, 67, 68, 69, 70, 71, 72, 73, 74, 75, 76, 77, 78, 79, 80, 81, 82, 83, 84, 85, 86, 87, 88, 89, 90, 91, 92, 93, 94, 95, 96, 97, 98, 99, 100, 101, 102, 103, 104, 105, 106, 107, 108, 109, 110, 111, 112, 113, 114, 115, 116, 117, 118, 119, 120, 121, 122, 123, 124, 125, 126, 127, 128, 129, 130, 131, 132, 133, 134, 135, 136, 137, 138, 139, 140, 141, 142, 143, 144, 145, 146, 147, 148, 149, 150, 151, 152, 153, 154, 155, 156, 157, 158, 159, 160, 161, 162, 163, 164, 165, 166, 167, 168, 169, 170, 171, 172, 173, 174, 175, 176, 177, 178, 179, 180, 181, 182, 183, 184, 185, 186, 187, 188, 189, 190, 191, 192, 193, 194, 195, 196, 197, 198, 199, 200, 201, 202, 203, 204, 205, 206, 207, 208, 209, 210, 211, 212, 213, 214, 215, 216, 217, 218, 219, 220, 221, 222, 223, 224, 225, 226, 227, 228, 229, 230, 231, 232, 233, 234, 235, 236, 237, 238, 239, 240, 241, 242, 243, 244, 245, 246, 247, 248, 249, 250, 251, 252, 253, 254, 255, 256, 257, 258, 259, 260, 261, 262, 263, 264, 265, 266, 267, 268, 269, 270, 271, 272, 273, 274, 275, 276, 277, 278, 279, 280, 281, 282, 283, 284, 285, 286, 287, 288, 289, 290, 291, 292, 293, 294, 295, 296, 297, 298, 299, 300, 301, 302, 303, 304, 305, 306, 307, 308, 309, 310, 311, 312, 313, 314, 315, 316, 317, 318, 319, 320, 321, 322, 323, 324, 325, 326, 327, 328, 329, 330, 331, 332, 333, 334, 335, 336, 337, 338, 339, 340, 341, 342, 343, 344, 345, 346, 347, 348, 349, 350, 351, 352, 353, 354, 355, 356, 357, 358, 359, 360, 361, 362, 363, 364, 365, 366, 367, 368, 369, 370, 371, 372, 373, 374, 375, 376, 377, 378, 379, 380, 381, 382, 383, 384, 385, 386, 387, 388, 389, 390, 391, 392, 393, 394, 395, 396, 397, 398, 399, 400, 401, 402, 403, 404, 405, 406, 407, 408, 409, 410, 411, 412, 413, 414, 415, 416, 417, 418, 419, 420, 421, 422, 423, 424, 425, 426, 427, 428, 429, 430, 431, 432, 433, 434, 435, 436, 437, 438, 439, 440, 441, 442, 443, 444, 445, 446, 447, 448, 449, 450, 451, 452, 453, 454, 455, 456, 457, 458, 459, 460, 461, 462, 463, 464, 465, 466, 467, 468, 469, 470, 471, 472, 473, 474, 475, 476, 477, 478, 479, 480, 481, 482, 483, 484, 485, 486, 487, 488, 489, 490, 491, 492, 493, 494, 495, 496, 497, 498, 499, 500, 501, 502, 503, 504, 505, 506, 507, 508, 509, 510, 511, 512, 513, 514, 515, 516, 517, 518, 519, 520, 521, 522, 523, 524, 525, 526, 527, 528, 529, 530, 531, 532, 533, 534, 535, 536, 537, 538, 539, 540, 541, 542, 543, 544, 545, 546, 547, 548, 549, 550, 551, 552, 553, 554, 555, 556, 557, 558, 559, 560, 561, 562, 563, 564, 565, 566, 567, 568, 569, 570, 571, 572, 573, 574, 575, 576, 577, 578, 579, 580, 581, 582, 583, 584, 585, 586, 587, 588, 589, 590, 591, 592, 593, 594, 595, 596, 597, 598, 599, 600, 601, 602, 603, 604, 605, 606, 607, 608, 609, 610, 611, 612, 613, 614, 615, 616, 617, 618, 619, 620, 621, 622, 623, 624, 625, 626, 627, 628, 629, 630, 631, 632, 633, 634, 635, 636, 637, 638, 639, 640, 641, 642, 643, 644, 645, 646, 647, 648, 649, 650, 651, 652, 653, 654, 655, 656, 657, 658, 659, 660, 661, 662, 663, 664, 665, 666, 667, 668, 669, 670, 671, 672, 673, 674, 675, 676, 677, 678, 679, 680, 681, 682, 683, 684, 685, 686, 687, 688, 689, 690, 691, 692, 693, 694, 695, 696, 697, 698, 699, 700, 701, 702, 703, 704, 705, 706, 707, 708, 709, 710, 711, 712, 713, 714, 715, 716, 717, 718, 719, 720, 721, 722, 723, 724, 725, 726, 727, 728, 729, 730, 731, 732, 733, 734, 735, 736, 737, 738, 739, 740, 741, 742, 743, 744, 745, 746, 747, 748, 749, 750, 751, 752, 753, 754, 755, 756, 757, 758, 759, 760, 761, 762, 763, 764, 765, 766, 767, 768, 769, 770, 771, 772, 773, 774, 775, 776, 777, 778, 779, 780, 781, 782, 783, 784, 785, 786, 787, 788, 789, 790, 791, 792, 793, 794, 795, 796, 797, 798, 799, 800, 801, 802, 803, 804, 805, 806, 807, 808, 809, 810, 811, 812, 813, 814, 815, 816, 817, 818, 819, 820, 821, 822, 823, 824, 825, 826, 827, 828, 829, 830, 831, 832, 833, 834, 835, 836, 837, 838, 839, 840, 841, 842, 843, 844, 845, 846, 847, 848, 849, 850, 851, 852, 853, 854, 855, 856, 857, 858, 859, 860, 861, 862, 863, 864, 865, 866, 867, 868, 869, 870, 871, 872, 873, 874, 875, 876, 877, 878, 879, 880, 881, 882, 883, 884, 885, 886, 887, 888, 889, 890, 891, 892, 893, 894, 895, 896, 897, 898, 899, 900, 901, 902, 903, 904, 905, 906, 907, 908, 909, 910, 911, 912, 913, 914, 915, 916, 917, 918, 919, 920, 921, 922, 923, 924, 925, 926, 927, 928, 929, 930, 931, 932, 933, 934, 935, 936, 937, 938, 939, 940, 941, 942, 943, 944, 945, 946, 947, 948, 949, 950, 951, 952, 953, 954, 955, 956, 957, 958, 959, 960, 961, 962, 963, 964, 965, 966, 967, 968, 969, 970, 971, 972, 973, 974, 975, 976, 977, 978, 979, 980, 981, 982, 983, 984, 985, 986, 987, 988, 989, 990, 991, 992, 993, 994, 995, 996, 997, 998, 999, 1000, 1001, 1002, 1003, 1004, 1005, 1006, 1007, 1008, 1009, 1010, 1011, 1012, 1013, 1014, 1015, 1016, 1017, 1018, 1019, 1020, 1021, 1022, 1023, 1024, 1025, 1026, 1027, 1028, 1029, 1030, 1031, 1032, 1033, 1034, 1035, 1036, 1037, 1038, 1039, 1040, 1041, 1042, 1043, 1044, 1045, 1046, 1047, 1048, 1049, 1050, 1051, 1052, 1053, 1054, 1055, 1056, 1057, 1058, 1059, 1060, 1061, 1062, 1063, 1064, 1065],
      "AcquisitionTime": ["135924.660000", "135925.120000", "135925.580000", "135926.040000", "135926.500000", "135926.960000", "135927.420000", "135927.880000", "135928.340000", "135928.800000", "135929.260000", "135929.720000", "135930.180000", "135930.640000", "135931.100000", "135931.560000", "135932.020000", "135932.480000", "135932.940000", "135933.400000", "135933.860000", "135934.320000", "135934.780000", "135935.240000", "135935.700000", "135936.160000", "135936.620000", "135937.080000", "135937.540000", "135938.000000", "135938.460000", "135938.920000", "135939.380000", "135939.840000", "135940.300000", "135940.760000", "135941.220000", "135941.680000", "135942.140000", "135942.600000", "135943.060000", "135943.520000", "135943.980000", "135944.440000", "135944.900000", "135945.360000", "135945.820000", "135946.280000", "135946.740000", "135947.200000", "135947.660000", "135948.120000", "135948.580000", "135949.040000", "135949.500000", "135949.960000", "135950.420000", "135950.880000", "135951.340000", "135951.800000", "135952.260000", "135952.720000", "135953.180000", "135953.640000", "135954.100000", "135954.560000", "135955.020000", "135955.480000", "135955.940000", "135956.400000", "135956.860000", "135957.320000", "135957.780000", "135958.240000", "135958.700000", "135959.160000", "135959.620000", "140000.080000", "140000.540000", "140001.000000", "140001.460000", "140001.920000", "140002.380000", "140002.840000", "140003.300000", "140003.760000", "140004.220000", "140004.680000", "140005.140000", "140005.600000", "140006.060000", "140006.520000", "140006.980000", "140007.440000", "140007.900000", "140008.360000", "140008.820000", "140009.280000", "140009.740000", "140010.200000", "140010.660000", "140011.120000", "140011.580000", "140012.040000", "140012.500000", "140012.960000", "140013.420000", "140013.880000", "140014.340000", "140014.800000", "140015.260000", "140015.720000", "140016.180000", "140016.640000", "140017.100000", "140017.560000", "140018.020000", "140018.480000", "140018.940000", "140019.400000", "140019.860000", "140020.320000", "140020.780000", "140021.240000", "140021.700000", "140022.160000", "140022.620000", "140023.080000", "140023.540000", "140024.000000", "140024.460000", "140024.920000", "140025.380000", "140025.840000", "140026.300000", "140026.760000", "140027.220000", "140027.680000", "140028.140000", "140028.600000", "140029.060000", "140029.520000", "140029.980000", "140030.440000", "140030.900000", "140031.360000", "140031.820000", "140032.280000", "140032.740000", "140033.200000", "140033.660000", "140034.120000", "140034.580000", "140035.040000", "140035.500000", "140035.960000", "140036.420000", "140036.880000", "140037.340000", "140037.800000", "140038.260000", "140038.720000", "140039.180000", "140039.640000", "140040.100000", "140040.560000", "140041.020000", "140041.480000", "140041.940000", "140042.400000", "140042.860000", "140043.320000", "140043.780000", "140044.240000", "140044.700000", "140045.160000", "140045.620000", "140046.080000", "140046.540000", "140047.000000", "140047.460000", "140047.920000", "140048.380000", "140048.840000", "140049.300000", "140049.760000", "140050.220000", "140050.680000", "140051.140000", "140051.600000", "140052.060000", "140052.520000", "140052.980000", "140053.440000", "140053.900000", "140054.360000", "140054.820000", "140055.280000", "140055.740000", "140056.200000", "140056.660000", "140057.120000", "140057.580000", "140058.040000", "140058.500000", "140058.960000", "140059.420000", "140059.880000", "140100.340000", "140100.800000", "140101.260000", "140101.720000", "140102.180000", "140102.640000", "140103.100000", "140103.560000", "140104.020000", "140104.480000", "140104.940000", "140105.400000", "140105.860000", "140106.320000", "140106.780000", "140107.240000", "140107.700000", "140108.160000", "140108.620000", "140109.080000", "140109.540000", "140110.000000", "140110.460000", "140110.920000", "140111.380000", "140111.840000", "140112.300000", "140112.760000", "140113.220000", "140113.680000", "140114.140000", "140114.600000", "140115.060000", "140115.520000", "140115.980000", "140116.440000", "140116.900000", "140117.360000", "140117.820000", "140118.280000", "140118.740000", "140119.200000", "140119.660000", "140120.120000", "140120.580000", "140121.040000", "140121.500000", "140121.960000", "140122.420000", "140122.880000", "140123.340000", "140123.800000", "140124.260000", "140124.720000", "140125.180000", "140125.640000", "140126.100000", "140126.560000", "140127.020000", "140127.480000", "140127.940000", "140128.400000", "140128.860000", "140129.320000", "140129.780000", "140130.240000", "140130.700000", "140131.160000", "140131.620000", "140132.080000", "140132.540000", "140133.000000", "140133.460000", "140133.920000", "140134.380000", "140134.840000", "140135.300000", "140135.760000", "140136.220000", "140136.680000", "140137.140000", "140137.600000", "140138.060000", "140138.520000", "140138.980000", "140139.440000", "140139.900000", "140140.360000", "140140.820000", "140141.280000", "140141.740000", "140142.200000", "140142.660000", "140143.120000", "140143.580000", "140144.040000", "140144.500000", "140144.960000", "140145.420000", "140145.880000", "140146.340000", "140146.800000", "140147.260000", "140147.720000", "140148.180000", "140148.640000", "140149.100000", "140149.560000", "140150.020000", "140150.480000", "140150.940000", "140151.400000", "140151.860000", "140152.320000", "140152.780000", "140153.240000", "140153.700000", "140154.160000", "140154.620000", "140155.080000", "140155.540000", "140156.000000", "140156.460000", "140156.920000", "140157.380000", "140157.840000", "140158.300000", "140158.760000", "140159.220000", "140159.680000", "140200.140000", "140200.600000", "140201.060000", "140201.520000", "140201.980000", "140202.440000", "140202.900000", "140203.360000", "140203.820000", "140204.280000", "140204.740000", "140205.200000", "140205.660000", "140206.120000", "140206.580000", "140207.040000", "140207.500000", "140207.960000", "140208.420000", "140208.880000", "140209.340000", "140209.800000", "140210.260000", "140210.720000", "140211.180000", "140211.640000", "140212.100000", "140212.560000", "140213.020000", "140213.480000", "140213.940000", "140214.400000", "140214.860000", "140215.320000", "140215.780000", "140216.240000", "140216.700000", "140217.160000", "140217.620000", "140218.080000", "140218.540000", "140219.000000", "140219.460000", "140219.920000", "140220.380000", "140220.840000", "140221.300000", "140221.760000", "140222.220000", "140222.680000", "140223.140000", "140223.600000", "140224.060000", "140224.520000", "140224.980000", "140225.440000", "140225.900000", "140226.360000", "140226.820000", "140227.280000", "140227.740000", "140228.200000", "140228.660000", "140229.120000", "140229.580000", "140230.040000", "140230.500000", "140230.960000", "140231.420000", "140231.880000", "140232.340000", "140232.800000", "140233.260000", "140233.720000", "140234.180000", "140234.640000", "140235.100000", "140235.560000", "140236.020000", "140236.480000", "140236.940000", "140237.400000", "140237.860000", "140238.320000", "140238.780000", "140239.240000", "140239.700000", "140240.160000", "140240.620000", "140241.080000", "140241.540000", "140242.000000", "140242.460000", "140242.920000", "140243.380000", "140243.840000", "140244.300000", "140244.760000", "140245.220000", "140245.680000", "140246.140000", "140246.600000", "140247.060000", "140247.520000", "140247.980000", "140248.440000", "140248.900000", "140249.360000", "140249.820000", "140250.280000", "140250.740000", "140251.200000", "140251.660000", "140252.120000", "140252.580000", "140253.040000", "140253.500000", "140253.960000", "140254.420000", "140254.880000", "140255.340000", "140255.800000", "140256.260000", "140256.720000", "140257.180000", "140257.640000", "140258.100000", "140258.560000", "140259.020000", "140259.480000", "140259.940000", "140300.400000", "140300.860000", "140301.320000", "140301.780000", "140302.240000", "140302.700000", "140303.160000", "140303.620000", "140304.080000", "140304.540000", "140305.000000", "140305.460000", "140305.920000", "140306.380000", "140306.840000", "140307.300000", "140307.760000", "140308.220000", "140308.680000", "140309.140000", "140309.600000", "140310.060000", "140310.520000", "140310.980000", "140311.440000", "140311.900000", "140312.360000", "140312.820000", "140313.280000", "140313.740000", "140314.200000", "140314.660000", "140315.120000", "140315.580000", "140316.040000", "140316.500000", "140316.960000", "140317.420000", "140317.880000", "140318.340000", "140318.800000", "140319.260000", "140319.720000", "140320.180000", "140320.640000", "140321.100000", "140321.560000", "140322.020000", "140322.480000", "140322.940000", "140323.400000", "140323.860000", "140324.320000", "140324.780000", "140325.240000", "140325.700000", "140326.160000", "140326.620000", "140327.080000", "140327.540000", "140328.000000", "140328.460000", "140328.920000", "140329.380000", "140329.840000", "140330.300000", "140330.760000", "140331.220000", "140331.680000", "140332.140000", "140332.600000", "140333.060000", "140333.520000", "140333.980000", "140334.440000", "140334.900000", "140335.360000", "140335.820000", "140336.280000", "140336.740000", "140337.200000", "140337.660000", "140338.120000", "140338.580000", "140339.040000", "140339.500000", "140339.960000", "140340.420000", "140340.880000", "140341.340000", "140341.800000", "140342.260000", "140342.720000", "140343.180000", "140343.640000", "140344.100000", "140344.560000", "140345.020000", "140345.480000", "140345.940000", "140346.400000", "140346.860000", "140347.320000", "140347.780000", "140348.240000", "140348.700000", "140349.160000", "140349.620000", "140350.080000", "140350.540000", "140351.000000", "140351.460000", "140351.920000", "140352.380000", "140352.840000", "140353.300000", "140353.760000", "140354.220000", "140354.680000", "140355.140000", "140355.600000", "140356.060000", "140356.520000", "140356.980000", "140357.440000", "140357.900000", "140358.360000", "140358.820000", "140359.280000", "140359.740000", "140400.200000", "140400.660000", "140401.120000", "140401.580000", "140402.040000", "140402.500000", "140402.960000", "140403.420000", "140403.880000", "140404.340000", "140404.800000", "140405.260000", "140405.720000", "140406.180000", "140406.640000", "140407.100000", "140407.560000", "140408.020000", "140408.480000", "140408.940000", "140409.400000", "140409.860000", "140410.320000", "140410.780000", "140411.240000", "140411.700000", "140412.160000", "140412.620000", "140413.080000", "140413.540000", "140414.000000", "140414.460000", "140414.920000", "140415.380000", "140415.840000", "140416.300000", "140416.760000", "140417.220000", "140417.680000", "140418.140000", "140418.600000", "140419.060000", "140419.520000", "140419.980000", "140420.440000", "140420.900000", "140421.360000", "140421.820000", "140422.280000", "140422.740000", "140423.200000", "140423.660000", "140424.120000", "140424.580000", "140425.040000", "140425.500000", "140425.960000", "140426.420000", "140426.880000", "140427.340000", "140427.800000", "140428.260000", "140428.720000", "140429.180000", "140429.640000", "140430.100000", "140430.560000", "140431.020000", "140431.480000", "140431.940000", "140432.400000", "140432.860000", "140433.320000", "140433.780000", "140434.240000", "140434.700000", "140435.160000", "140435.620000", "140436.080000", "140436.540000", "140437.000000", "140437.460000", "140437.920000", "140438.380000", "140438.840000", "140439.300000", "140439.760000", "140440.220000", "140440.680000", "140441.140000", "140441.600000", "140442.060000", "140442.520000", "140442.980000", "140443.440000", "140443.900000", "140444.360000", "140444.820000", "140445.280000", "140445.740000", "140446.200000", "140446.660000", "140447.120000", "140447.580000", "140448.040000", "140448.500000", "140448.960000", "140449.420000", "140449.880000", "140450.340000", "140450.800000", "140451.260000", "140451.720000", "140452.180000", "140452.640000", "140453.100000", "140453.560000", "140454.020000", "140454.480000", "140454.940000", "140455.400000", "140455.860000", "140456.320000", "140456.780000", "140457.240000", "140457.700000", "140458.160000", "140458.620000", "140459.080000", "140459.540000", "140500.000000", "140500.460000", "140500.920000", "140501.380000", "140501.840000", "140502.300000", "140502.760000", "140503.220000", "140503.680000", "140504.140000", "140504.600000", "140505.060000", "140505.520000", "140505.980000", "140506.440000", "140506.900000", "140507.360000", "140507.820000", "140508.280000", "140508.740000", "140509.200000", "140509.660000", "140510.120000", "140510.580000", "140511.040000", "140511.500000", "140511.960000", "140512.420000", "140512.880000", "140513.340000", "140513.800000", "140514.260000", "140514.720000", "140515.180000", "140515.640000", "140516.100000", "140516.560000", "140517.020000", "140517.480000", "140517.940000", "140518.400000", "140518.860000", "140519.320000", "140519.780000", "140520.240000", "140520.700000", "140521.160000", "140521.620000", "140522.080000", "140522.540000", "140523.000000", "140523.460000", "140523.920000", "140524.380000", "140524.840000", "140525.300000", "140525.760000", "140526.220000", "140526.680000", "140527.140000", "140527.600000", "140528.060000", "140528.520000", "140528.980000", "140529.440000", "140529.900000", "140530.360000", "140530.820000", "140531.280000", "140531.740000", "140532.200000", "140532.660000", "140533.120000", "140533.580000", "140534.040000", "140534.500000", "140534.960000", "140535.420000", "140535.880000", "140536.340000", "140536.800000", "140537.260000", "140537.720000", "140538.180000", "140538.640000", "140539.100000", "140539.560000", "140540.020000", "140540.480000", "140540.940000", "140541.400000", "140541.860000", "140542.320000", "140542.780000", "140543.240000", "140543.700000", "140544.160000", "140544.620000", "140545.080000", "140545.540000", "140546.000000", "140546.460000", "140546.920000", "140547.380000", "140547.840000", "140548.300000", "140548.760000", "140549.220000", "140549.680000", "140550.140000", "140550.600000", "140551.060000", "140551.520000", "140551.980000", "140552.440000", "140552.900000", "140553.360000", "140553.820000", "140554.280000", "140554.740000", "140555.200000", "140555.660000", "140556.120000", "140556.580000", "140557.040000", "140557.500000", "140557.960000", "140558.420000", "140558.880000", "140559.340000", "140559.800000", "140600.260000", "140600.720000", "140601.180000", "140601.640000", "140602.100000", "140602.560000", "140603.020000", "140603.480000", "140603.940000", "140604.400000", "140604.860000", "140605.320000", "140605.780000", "140606.240000", "140606.700000", "140607.160000", "140607.620000", "140608.080000", "140608.540000", "140609.000000", "140609.460000", "140609.920000", "140610.380000", "140610.840000", "140611.300000", "140611.760000", "140612.220000", "140612.680000", "140613.140000", "140613.600000", "140614.060000", "140614.520000", "140614.980000", "140615.440000", "140615.900000", "140616.360000", "140616.820000", "140617.280000", "140617.740000", "140618.200000", "140618.660000", "140619.120000", "140619.580000", "140620.040000", "140620.500000", "140620.960000", "140621.420000", "140621.880000", "140622.340000", "140622.800000", "140623.260000", "140623.720000", "140624.180000", "140624.640000", "140625.100000", "140625.560000", "140626.020000", "140626.480000", "140626.940000", "140627.400000", "140627.860000", "140628.320000", "140628.780000", "140629.240000", "140629.700000", "140630.160000", "140630.620000", "140631.080000", "140631.540000", "140632.000000", "140632.460000", "140632.920000", "140633.380000", "140633.840000", "140634.300000", "140634.760000", "140635.220000", "140635.680000", "140636.140000", "140636.600000", "140637.060000", "140637.520000", "140637.980000", "140638.440000", "140638.900000", "140639.360000", "140639.820000", "140640.280000", "140640.740000", "140641.200000", "140641.660000", "140642.120000", "140642.580000", "140643.040000", "140643.500000", "140643.960000", "140644.420000", "140644.880000", "140645.340000", "140645.800000", "140646.260000", "140646.720000", "140647.180000", "140647.640000", "140648.100000", "140648.560000", "140649.020000", "140649.480000", "140649.940000", "140650.400000", "140650.860000", "140651.320000", "140651.780000", "140652.240000", "140652.700000", "140653.160000", "140653.620000", "140654.080000", "140654.540000", "140655.000000", "140655.460000", "140655.920000", "140656.380000", "140656.840000", "140657.300000", "140657.760000", "140658.220000", "140658.680000", "140659.140000", "140659.600000", "140700.060000", "140700.520000", "140700.980000", "140701.440000", "140701.900000", "140702.360000", "140702.820000", "140703.280000", "140703.740000", "140704.200000", "140704.660000", "140705.120000", "140705.580000", "140706.040000", "140706.500000", "140706.960000", "140707.420000", "140707.880000", "140708.340000", "140708.800000", "140709.260000", "140709.720000", "140710.180000", "140710.640000", "140711.100000", "140711.560000", "140712.020000", "140712.480000", "140712.940000", "140713.400000", "140713.860000", "140714.320000", "140714.780000", "140715.240000", "140715.700000", "140716.160000", "140716.620000", "140717.080000", "140717.540000", "140718.000000", "140718.460000", "140718.920000", "140719.380000", "140719.840000", "140720.300000", "140720.760000", "140721.220000", "140721.680000", "140722.140000", "140722.600000", "140723.060000", "140723.520000", "140723.980000", "140724.440000", "140724.900000", "140725.360000", "140725.820000", "140726.280000", "140726.740000", "140727.200000", "140727.660000", "140728.120000", "140728.580000", "140729.040000", "140729.500000", "140729.960000", "140730.420000", "140730.880000", "140731.340000", "140731.800000", "140732.260000", "140732.720000", "140733.180000", "140733.640000", "140734.100000"],
