{
  "AcquisitionMatrixPE": 82,
  "AcquisitionNumber": 1,
  "AcquisitionTime": "19:47:58.085000",
  "BandwidthPerPixelPhaseEncode": 24.888,
  "BaseResolution": 82,
  "BodyPartExamined": "BRAIN",
  "ConsistencyInfo": "N4_VE11E_LATEST_20181129",
  "ConversionSoftware": "dcm2niix",
  "ConversionSoftwareVersion": "v1.0.20201102",
  "DerivedVendorReportedEchoSpacing": 0.00049,
  "DeviceSerialNumber": "66112",
  "DwellTime": 2e-06,
  "EchoTime": 0.0272,
  "EchoTrainLength": 82,
  "EffectiveEchoSpacing": 0.00049,
  "FlipAngle": 44,
  "ImageComments": "Unaliased MB8/PE3",
  "ImageOrientationPatientDICOM": [0.997558, -0.0562444, -0.0414188, 0.0500105, 0.989081, -0.138631],
  "ImageType": [
    "ORIGINAL",
    "PRIMARY",
    "M",
    "MB",
    "ND",
    "NORM",
    "MOSAIC"
],
  "ImagingFrequency": 123.259,
  "InPlanePhaseEncodingDirectionDICOM": "COL",
  "InstitutionAddress": "Maynard 3,Hanover,NH,US,03755",
  "InstitutionName": "Dartmouth College - PBS",
  "InstitutionalDepartmentName": "Department",
  "MRAcquisitionType": "2D",
  "MagneticFieldStrength": 3,
  "Manufacturer": "Siemens",
  "ManufacturersModelName": "Prisma",
  "Modality": "MR",
  "MultibandAccelerationFactor": 8,
  "PartialFourier": 1,
  "PatientPosition": "HFS",
  "PercentPhaseFOV": 100,
  "PercentSampling": 100,
  "PhaseEncodingDirection": "j-",
  "PhaseEncodingSteps": 82,
  "PhaseResolution": 1,
  "PixelBandwidth": 3050,
  "ProcedureStepDescription": "Wager_Wager^1076_spacetop",
  "ProtocolName": "func_run-04_task-social_acq-ap-mb8",
  "PulseSequenceDetails": "%CustomerSeq%\\cmrr_mbep2d_bold",
  "ReceiveCoilActiveElements": "HEA;HEP",
  "ReceiveCoilName": "Head_32",
  "ReconMatrixPE": 82,
  "RepetitionTime": 0.46,
  "SAR": 0.0967532,
  "ScanOptions": "FS",
  "ScanningSequence": "EP",
  "SequenceName": "epfid2d1_82",
  "SequenceVariant": "SK\\SS",
  "SeriesDescription": "func_run-04_task-social_acq-ap-mb8",
  "SeriesNumber": 18,
  "ShimSetting": [4218, -7713, -7278, 240, -125, -51, -84, 82],
  "SliceThickness": 2.7,
  "SliceTiming": [0, 0.2525, 0.0625, 0.315, 0.125, 0.3775, 0.19, 0, 0.2525, 0.0625, 0.315, 0.125, 0.3775, 0.19, 0, 0.2525, 0.0625, 0.315, 0.125, 0.3775, 0.19, 0, 0.2525, 0.0625, 0.315, 0.125, 0.3775, 0.19, 0, 0.2525, 0.0625, 0.315, 0.125, 0.3775, 0.19, 0, 0.2525, 0.0625, 0.315, 0.125, 0.3775, 0.19, 0, 0.2525, 0.0625, 0.315, 0.125, 0.3775, 0.19, 0, 0.2525, 0.0625, 0.315, 0.125, 0.3775, 0.19],
  "SoftwareVersions": "syngo MR E11",
  "SpacingBetweenSlices": 2.7,
  "StationName": "AWP66112",
  "TaskName": "social",
  "TotalReadoutTime": 0.03969,
  "TxRefAmp": 243.874,
  "WipMemBlock": "57609541-ab37-4ea2-9809-20a64ef602dc||Sequence: R016 ve11e/master r/434b28f1; Aug  7 2019 18:53:46 by eja",
  "dcmmeta_affine": [
    [-2.6763739585876465, 0.1341744214296341, -0.13166221976280212, 106.23872375488281],
    [0.15089964866638184, 2.6536307334899902, -0.36779728531837463, -102.8181381225586],
    [-0.11112368106842041, 0.3719373643398285, 2.6715893745422363, -82.62708282470703],
    [0.0, 0.0, 0.0, 1.0]
],
  "dcmmeta_reorient_transform": [
    [0.0, -1.0, 0.0, 81.0],
    [1.0, 0.0, 0.0, 0.0],
    [0.0, 0.0, 1.0, 0.0],
    [0.0, 0.0, 0.0, 1.0]
],
  "dcmmeta_shape": [82, 82, 56, 872],
  "dcmmeta_slice_dim": 2,
  "dcmmeta_version": 0.6,
  "global": {
    "const": {
      "AccessionNumber": "A004729",
      "AcquisitionMatrix": [82, 0, 0, 82],
      "AngioFlag": "N",
      "BitsAllocated": 16,
      "BitsStored": 16,
      "BodyPartExamined": "BRAIN",
      "Columns": 656,
      "EchoNumbers": 1,
      "EchoTime": 27.2,
      "EchoTrainLength": 82,
      "FlipAngle": 44.0,
      "HighBit": 15,
      "ImageOrientationPatient": [0.99755754061333, -0.0562444129073, -0.0414188264223, 0.05001046242876, 0.98908055597886, -0.138631192133],
      "ImagePositionPatient": [-923.7342359461, -830.40980729382, 86.138363673087],
      "ImageType": [
        "ORIGINAL",
        "PRIMARY",
        "M",
        "MB",
        "ND",
        "NORM",
        "MOSAIC"
],
      "ImagedNucleus": "1H",
      "ImagingFrequency": 123.259135,
      "InPlanePhaseEncodingDirection": "COL",
      "MRAcquisitionType": "2D",
      "MagneticFieldStrength": 3.0,
      "Manufacturer": "SIEMENS",
      "ManufacturerModelName": "Prisma",
      "Modality": "MR",
      "NumberOfAverages": 1.0,
      "NumberOfPhaseEncodingSteps": 82,
      "PercentPhaseFieldOfView": 100.0,
      "PercentSampling": 100.0,
      "PerformedProcedureStepStartTime": "184906.386000",
      "PhotometricInterpretation": "MONOCHROME2",
      "PixelBandwidth": 3050.0,
      "PixelRepresentation": 0,
      "PixelSpacing": [2.6829268932343, 2.6829268932343],
      "ProtocolName": "func_run-04_task-social_acq-ap-mb8",
      "RepetitionTime": 460.0,
      "Rows": 656,
      "SAR": 0.096753159521,
      "SamplesPerPixel": 1,
      "ScanOptions": "FS",
      "ScanningSequence": "EP",
      "SequenceName": "epfid2d1_82",
      "SequenceVariant": [
        "SK",
        "SS"
],
      "SeriesDescription": "func_run-04_task-social_acq-ap-mb8",
      "SeriesNumber": 18,
      "SeriesTime": "194816.895000",
      "SliceLocation": -72.932233274337,
      "SliceThickness": 2.7000000476837,
      "SmallestImagePixelValue": 0,
      "SoftwareVersions": "syngo MR E11",
      "SpacingBetweenSlices": 2.6999999283105,
      "SpecificCharacterSet": "ISO_IR 100",
      "StudyID": "1",
      "StudyTime": "184906.303000",
      "TransmitCoilName": "Body",
      "VariableFlipAngleFlag": "N",
      "WindowCenterWidthExplanation": "Algo1"
    },
    "slices": {}
  },
  "time": {
    "samples": {
      "AcquisitionNumber": [1, 2, 3, 4, 5, 6, 7, 8, 9, 10, 11, 12, 13, 14, 15, 16, 17, 18, 19, 20, 21, 22, 23, 24, 25, 26, 27, 28, 29, 30, 31, 32, 33, 34, 35, 36, 37, 38, 39, 40, 41, 42, 43, 44, 45, 46, 47, 48, 49, 50, 51, 52, 53, 54, 55, 56, 57, 58, 59, 60, 61, 62, 63, 64, 65, 66, 67, 68, 69, 70, 71, 72, 73, 74, 75, 76, 77, 78, 79, 80, 81, 82, 83, 84, 85, 86, 87, 88, 89, 90, 91, 92, 93, 94, 95, 96, 97, 98, 99, 100, 101, 102, 103, 104, 105, 106, 107, 108, 109, 110, 111, 112, 113, 114, 115, 116, 117, 118, 119, 120, 121, 122, 123, 124, 125, 126, 127, 128, 129, 130, 131, 132, 133, 134, 135, 136, 137, 138, 139, 140, 141, 142, 143, 144, 145, 146, 147, 148, 149, 150, 151, 152, 153, 154, 155, 156, 157, 158, 159, 160, 161, 162, 163, 164, 165, 166, 167, 168, 169, 170, 171, 172, 173, 174, 175, 176, 177, 178, 179, 180, 181, 182, 183, 184, 185, 186, 187, 188, 189, 190, 191, 192, 193, 194, 195, 196, 197, 198, 199, 200, 201, 202, 203, 204, 205, 206, 207, 208, 209, 210, 211, 212, 213, 214, 215, 216, 217, 218, 219, 220, 221, 222, 223, 224, 225, 226, 227, 228, 229, 230, 231, 232, 233, 234, 235, 236, 237, 238, 239, 240, 241, 242, 243, 244, 245, 246, 247, 248, 249, 250, 251, 252, 253, 254, 255, 256, 257, 258, 259, 260, 261, 262, 263, 264, 265, 266, 267, 268, 269, 270, 271, 272, 273, 274, 275, 276, 277, 278, 279, 280, 281, 282, 283, 284, 285, 286, 287, 288, 289, 290, 291, 292, 293, 294, 295, 296, 297, 298, 299, 300, 301, 302, 303, 304, 305, 306, 307, 308, 309, 310, 311, 312, 313, 314, 315, 316, 317, 318, 319, 320, 321, 322, 323, 324, 325, 326, 327, 328, 329, 330, 331, 332, 333, 334, 335, 336, 337, 338, 339, 340, 341, 342, 343, 344, 345, 346, 347, 348, 349, 350, 351, 352, 353, 354, 355, 356, 357, 358, 359, 360, 361, 362, 363, 364, 365, 366, 367, 368, 369, 370, 371, 372, 373, 374, 375, 376, 377, 378, 379, 380, 381, 382, 383, 384, 385, 386, 387, 388, 389, 390, 391, 392, 393, 394, 395, 396, 397, 398, 399, 400, 401, 402, 403, 404, 405, 406, 407, 408, 409, 410, 411, 412, 413, 414, 415, 416, 417, 418, 419, 420, 421, 422, 423, 424, 425, 426, 427, 428, 429, 430, 431, 432, 433, 434, 435, 436, 437, 438, 439, 440, 441, 442, 443, 444, 445, 446, 447, 448, 449, 450, 451, 452, 453, 454, 455, 456, 457, 458, 459, 460, 461, 462, 463, 464, 465, 466, 467, 468, 469, 470, 471, 472, 473, 474, 475, 476, 477, 478, 479, 480, 481, 482, 483, 484, 485, 486, 487, 488, 489, 490, 491, 492, 493, 494, 495, 496, 497, 498, 499, 500, 501, 502, 503, 504, 505, 506, 507, 508, 509, 510, 511, 512, 513, 514, 515, 516, 517, 518, 519, 520, 521, 522, 523, 524, 525, 526, 527, 528, 529, 530, 531, 532, 533, 534, 535, 536, 537, 538, 539, 540, 541, 542, 543, 544, 545, 546, 547, 548, 549, 550, 551, 552, 553, 554, 555, 556, 557, 558, 559, 560, 561, 562, 563, 564, 565, 566, 567, 568, 569, 570, 571, 572, 573, 574, 575, 576, 577, 578, 579, 580, 581, 582, 583, 584, 585, 586, 587, 588, 589, 590, 591, 592, 593, 594, 595, 596, 597, 598, 599, 600, 601, 602, 603, 604, 605, 606, 607, 608, 609, 610, 611, 612, 613, 614, 615, 616, 617, 618, 619, 620, 621, 622, 623, 624, 625, 626, 627, 628, 629, 630, 631, 632, 633, 634, 635, 636, 637, 638, 639, 640, 641, 642, 643, 644, 645, 646, 647, 648, 649, 650, 651, 652, 653, 654, 655, 656, 657, 658, 659, 660, 661, 662, 663, 664, 665, 666, 667, 668, 669, 670, 671, 672, 673, 674, 675, 676, 677, 678, 679, 680, 681, 682, 683, 684, 685, 686, 687, 688, 689, 690, 691, 692, 693, 694, 695, 696, 697, 698, 699, 700, 701, 702, 703, 704, 705, 706, 707, 708, 709, 710, 711, 712, 713, 714, 715, 716, 717, 718, 719, 720, 721, 722, 723, 724, 725, 726, 727, 728, 729, 730, 731, 732, 733, 734, 735, 736, 737, 738, 739, 740, 741, 742, 743, 744, 745, 746, 747, 748, 749, 750, 751, 752, 753, 754, 755, 756, 757, 758, 759, 760, 761, 762, 763, 764, 765, 766, 767, 768, 769, 770, 771, 772, 773, 774, 775, 776, 777, 778, 779, 780, 781, 782, 783, 784, 785, 786, 787, 788, 789, 790, 791, 792, 793, 794, 795, 796, 797, 798, 799, 800, 801, 802, 803, 804, 805, 806, 807, 808, 809, 810, 811, 812, 813, 814, 815, 816, 817, 818, 819, 820, 821, 822, 823, 824, 825, 826, 827, 828, 829, 830, 831, 832, 833, 834, 835, 836, 837, 838, 839, 840, 841, 842, 843, 844, 845, 846, 847, 848, 849, 850, 851, 852, 853, 854, 855, 856, 857, 858, 859, 860, 861, 862, 863, 864, 865, 866, 867, 868, 869, 870, 871, 872],
      "AcquisitionTime": ["194758.085000", "194758.545000", "194759.005000", "194759.465000", "194759.925000", "194800.385000", "194800.845000", "194801.305000", "194801.765000", "194802.225000", "194802.685000", "194803.145000", "194803.605000", "194804.065000", "194804.525000", "194804.985000", "194805.445000", "194805.905000", "194806.365000", "194806.825000", "194807.285000", "194807.745000", "194808.205000", "194808.665000", "194809.125000", "194809.585000", "194810.045000", "194810.505000", "194810.965000", "194811.425000", "194811.885000", "194812.345000", "194812.805000", "194813.265000", "194813.725000", "194814.185000", "194814.645000", "194815.105000", "194815.565000", "194816.025000", "194816.485000", "194816.945000", "194817.405000", "194817.865000", "194818.325000", "194818.785000", "194819.245000", "194819.705000", "194820.165000", "194820.625000", "194821.085000", "194821.545000", "194822.005000", "194822.465000", "194822.925000", "194823.385000", "194823.845000", "194824.305000", "194824.765000", "194825.225000", "194825.685000", "194826.145000", "194826.605000", "194827.065000", "194827.525000", "194827.985000", "194828.445000", "194828.905000", "194829.365000", "194829.825000", "194830.285000", "194830.745000", "194831.205000", "194831.665000", "194832.125000", "194832.585000", "194833.045000", "194833.505000", "194833.965000", "194834.425000", "194834.885000", "194835.345000", "194835.805000", "194836.265000", "194836.725000", "194837.185000", "194837.645000", "194838.105000", "194838.565000", "194839.025000", "194839.485000", "194839.945000", "194840.405000", "194840.865000", "194841.325000", "194841.785000", "194842.245000", "194842.705000", "194843.165000", "194843.625000", "194844.085000", "194844.545000", "194845.005000", "194845.465000", "194845.925000", "194846.385000", "194846.845000", "194847.305000", "194847.765000", "194848.225000", "194848.685000", "194849.145000", "194849.605000", "194850.065000", "194850.525000", "194850.985000", "194851.445000", "194851.905000", "194852.365000", "194852.825000", "194853.285000", "194853.745000", "194854.205000", "194854.665000", "194855.125000", "194855.585000", "194856.045000", "194856.505000", "194856.965000", "194857.425000", "194857.885000", "194858.345000", "194858.805000", "194859.265000", "194859.725000", "194900.185000", "194900.645000", "194901.105000", "194901.565000", "194902.025000", "194902.485000", "194902.945000", "194903.405000", "194903.865000", "194904.325000", "194904.785000", "194905.245000", "194905.705000", "194906.165000", "194906.625000", "194907.085000", "194907.545000", "194908.005000", "194908.465000", "194908.925000", "194909.385000", "194909.845000", "194910.305000", "194910.765000", "194911.225000", "194911.685000", "194912.145000", "194912.605000", "194913.065000", "194913.525000", "194913.985000", "194914.445000", "194914.905000", "194915.365000", "194915.825000", "194916.285000", "194916.745000", "194917.205000", "194917.665000", "194918.125000", "194918.585000", "194919.045000", "194919.505000", "194919.965000", "194920.425000", "194920.885000", "194921.345000", "194921.805000", "194922.265000", "194922.725000", "194923.185000", "194923.645000", "194924.105000", "194924.565000", "194925.025000", "194925.485000", "194925.945000", "194926.405000", "194926.865000", "194927.325000", "194927.785000", "194928.245000", "194928.705000", "194929.165000", "194929.625000", "194930.085000", "194930.545000", "194931.005000", "194931.465000", "194931.925000", "194932.385000", "194932.845000", "194933.305000", "194933.765000", "194934.225000", "194934.685000", "194935.145000", "194935.605000", "194936.065000", "194936.525000", "194936.985000", "194937.445000", "194937.905000", "194938.365000", "194938.825000", "194939.285000", "194939.745000", "194940.205000", "194940.665000", "194941.125000", "194941.585000", "194942.045000", "194942.505000", "194942.965000", "194943.425000", "194943.885000", "194944.345000", "194944.805000", "194945.265000", "194945.725000", "194946.185000", "194946.645000", "194947.105000", "194947.565000", "194948.025000", "194948.485000", "194948.945000", "194949.405000", "194949.865000", "194950.325000", "194950.785000", "194951.245000", "194951.705000", "194952.165000", "194952.625000", "194953.085000", "194953.545000", "194954.005000", "194954.465000", "194954.925000", "194955.385000", "194955.845000", "194956.305000", "194956.765000", "194957.225000", "194957.685000", "194958.145000", "194958.605000", "194959.065000", "194959.525000", "194959.985000", "195000.445000", "195000.905000", "195001.365000", "195001.825000", "195002.285000", "195002.745000", "195003.205000", "195003.665000", "195004.125000", "195004.585000", "195005.045000", "195005.505000", "195005.965000", "195006.425000", "195006.885000", "195007.345000", "195007.805000", "195008.265000", "195008.725000", "195009.185000", "195009.645000", "195010.105000", "195010.565000", "195011.025000", "195011.485000", "195011.945000", "195012.405000", "195012.865000", "195013.325000", "195013.785000", "195014.245000", "195014.705000", "195015.165000", "195015.625000", "195016.085000", "195016.545000", "195017.005000", "195017.465000", "195017.925000", "195018.385000", "195018.845000", "195019.305000", "195019.765000", "195020.225000", "195020.685000", "195021.145000", "195021.605000", "195022.065000", "195022.525000", "195022.985000", "195023.445000", "195023.905000", "195024.365000", "195024.825000", "195025.285000", "195025.745000", "195026.205000", "195026.665000", "195027.125000", "195027.585000", "195028.045000", "195028.505000", "195028.965000", "195029.425000", "195029.885000", "195030.345000", "195030.805000", "195031.265000", "195031.725000", "195032.185000", "195032.645000", "195033.105000", "195033.565000", "195034.025000", "195034.485000", "195034.945000", "195035.405000", "195035.865000", "195036.325000", "195036.785000", "195037.245000", "195037.705000", "195038.165000", "195038.625000", "195039.085000", "195039.545000", "195040.005000", "195040.465000", "195040.925000", "195041.385000", "195041.845000", "195042.305000", "195042.765000", "195043.225000", "195043.685000", "195044.145000", "195044.605000", "195045.065000", "195045.525000", "195045.985000", "195046.445000", "195046.905000", "195047.365000", "195047.825000", "195048.285000", "195048.745000", "195049.205000", "195049.665000", "195050.125000", "195050.585000", "195051.045000", "195051.505000", "195051.965000", "195052.425000", "195052.885000", "195053.345000", "195053.805000", "195054.265000", "195054.725000", "195055.185000", "195055.645000", "195056.105000", "195056.565000", "195057.025000", "195057.485000", "195057.945000", "195058.405000", "195058.865000", "195059.325000", "195059.785000", "195100.245000", "195100.705000", "195101.165000", "195101.625000", "195102.085000", "195102.545000", "195103.005000", "195103.465000", "195103.925000", "195104.385000", "195104.845000", "195105.305000", "195105.765000", "195106.225000", "195106.685000", "195107.145000", "195107.605000", "195108.065000", "195108.525000", "195108.985000", "195109.445000", "195109.905000", "195110.365000", "195110.825000", "195111.285000", "195111.745000", "195112.205000", "195112.665000", "195113.125000", "195113.585000", "195114.045000", "195114.505000", "195114.965000", "195115.425000", "195115.885000", "195116.345000", "195116.805000", "195117.265000", "195117.725000", "195118.185000", "195118.645000", "195119.105000", "195119.565000", "195120.025000", "195120.485000", "195120.945000", "195121.405000", "195121.865000", "195122.325000", "195122.785000", "195123.245000", "195123.705000", "195124.165000", "195124.625000", "195125.085000", "195125.545000", "195126.005000", "195126.465000", "195126.925000", "195127.385000", "195127.845000", "195128.305000", "195128.765000", "195129.225000", "195129.685000", "195130.145000", "195130.605000", "195131.065000", "195131.525000", "195131.985000", "195132.445000", "195132.905000", "195133.365000", "195133.825000", "195134.285000", "195134.745000", "195135.205000", "195135.665000", "195136.125000", "195136.585000", "195137.045000", "195137.505000", "195137.965000", "195138.425000", "195138.885000", "195139.345000", "195139.805000", "195140.265000", "195140.725000", "195141.185000", "195141.645000", "195142.105000", "195142.565000", "195143.025000", "195143.485000", "195143.945000", "195144.405000", "195144.865000", "195145.325000", "195145.785000", "195146.245000", "195146.705000", "195147.165000", "195147.625000", "195148.085000", "195148.545000", "195149.005000", "195149.465000", "195149.925000", "195150.385000", "195150.845000", "195151.305000", "195151.765000", "195152.225000", "195152.685000", "195153.145000", "195153.605000", "195154.065000", "195154.525000", "195154.985000", "195155.445000", "195155.905000", "195156.365000", "195156.825000", "195157.285000", "195157.745000", "195158.205000", "195158.665000", "195159.125000", "195159.585000", "195200.045000", "195200.505000", "195200.965000", "195201.425000", "195201.885000", "195202.345000", "195202.805000", "195203.265000", "195203.725000", "195204.185000", "195204.645000", "195205.105000", "195205.565000", "195206.025000", "195206.485000", "195206.945000", "195207.405000", "195207.865000", "195208.325000", "195208.785000", "195209.245000", "195209.705000", "195210.165000", "195210.625000", "195211.085000", "195211.545000", "195212.005000", "195212.465000", "195212.925000", "195213.385000", "195213.845000", "195214.305000", "195214.765000", "195215.225000", "195215.685000", "195216.145000", "195216.605000", "195217.065000", "195217.525000", "195217.985000", "195218.445000", "195218.905000", "195219.365000", "195219.825000", "195220.285000", "195220.745000", "195221.205000", "195221.665000", "195222.125000", "195222.585000", "195223.045000", "195223.505000", "195223.965000", "195224.425000", "195224.885000", "195225.345000", "195225.805000", "195226.265000", "195226.725000", "195227.185000", "195227.645000", "195228.105000", "195228.565000", "195229.025000", "195229.485000", "195229.945000", "195230.405000", "195230.865000", "195231.325000", "195231.785000", "195232.245000", "195232.705000", "195233.165000", "195233.625000", "195234.085000", "195234.545000", "195235.005000", "195235.465000", "195235.925000", "195236.385000", "195236.845000", "195237.305000", "195237.765000", "195238.225000", "195238.685000", "195239.145000", "195239.605000", "195240.065000", "195240.525000", "195240.985000", "195241.445000", "195241.905000", "195242.365000", "195242.825000", "195243.285000", "195243.745000", "195244.205000", "195244.665000", "195245.125000", "195245.585000", "195246.045000", "195246.505000", "195246.965000", "195247.425000", "195247.885000", "195248.345000", "195248.805000", "195249.265000", "195249.725000", "195250.185000", "195250.645000", "195251.105000", "195251.565000", "195252.025000", "195252.485000", "195252.945000", "195253.405000", "195253.865000", "195254.325000", "195254.785000", "195255.245000", "195255.705000", "195256.165000", "195256.625000", "195257.085000", "195257.545000", "195258.005000", "195258.465000", "195258.925000", "195259.385000", "195259.845000", "195300.305000", "195300.765000", "195301.225000", "195301.685000", "195302.145000", "195302.605000", "195303.065000", "195303.525000", "195303.985000", "195304.445000", "195304.905000", "195305.365000", "195305.825000", "195306.285000", "195306.745000", "195307.205000", "195307.665000", "195308.125000", "195308.585000", "195309.045000", "195309.505000", "195309.965000", "195310.425000", "195310.885000", "195311.345000", "195311.805000", "195312.265000", "195312.725000", "195313.185000", "195313.645000", "195314.105000", "195314.565000", "195315.025000", "195315.485000", "195315.945000", "195316.405000", "195316.865000", "195317.325000", "195317.785000", "195318.245000", "195318.705000", "195319.165000", "195319.625000", "195320.085000", "195320.545000", "195321.005000", "195321.465000", "195321.925000", "195322.385000", "195322.845000", "195323.305000", "195323.765000", "195324.225000", "195324.685000", "195325.145000", "195325.605000", "195326.065000", "195326.525000", "195326.985000", "195327.445000", "195327.905000", "195328.365000", "195328.825000", "195329.285000", "195329.745000", "195330.205000", "195330.665000", "195331.125000", "195331.585000", "195332.045000", "195332.505000", "195332.965000", "195333.425000", "195333.885000", "195334.345000", "195334.805000", "195335.265000", "195335.725000", "195336.185000", "195336.645000", "195337.105000", "195337.565000", "195338.025000", "195338.485000", "195338.945000", "195339.405000", "195339.865000", "195340.325000", "195340.785000", "195341.245000", "195341.705000", "195342.165000", "195342.625000", "195343.085000", "195343.545000", "195344.005000", "195344.465000", "195344.925000", "195345.385000", "195345.845000", "195346.305000", "195346.765000", "195347.225000", "195347.685000", "195348.145000", "195348.605000", "195349.065000", "195349.525000", "195349.985000", "195350.445000", "195350.905000", "195351.365000", "195351.825000", "195352.285000", "195352.745000", "195353.205000", "195353.665000", "195354.125000", "195354.585000", "195355.045000", "195355.505000", "195355.965000", "195356.425000", "195356.885000", "195357.345000", "195357.805000", "195358.265000", "195358.725000", "195359.185000", "195359.645000", "195400.105000", "195400.565000", "195401.025000", "195401.485000", "195401.945000", "195402.405000", "195402.865000", "195403.325000", "195403.785000", "195404.245000", "195404.705000", "195405.165000", "195405.625000", "195406.085000", "195406.545000", "195407.005000", "195407.465000", "195407.925000", "195408.385000", "195408.845000", "195409.305000", "195409.765000", "195410.225000", "195410.685000", "195411.145000", "195411.605000", "195412.065000", "195412.525000", "195412.985000", "195413.445000", "195413.905000", "195414.365000", "195414.825000", "195415.285000", "195415.745000", "195416.205000", "195416.665000", "195417.125000", "195417.585000", "195418.045000", "195418.505000", "195418.965000", "195419.425000", "195419.885000", "195420.345000", "195420.805000", "195421.265000", "195421.725000", "195422.185000", "195422.645000", "195423.105000", "195423.565000", "195424.025000", "195424.485000", "195424.945000", "195425.405000", "195425.865000", "195426.325000", "195426.785000", "195427.245000", "195427.705000", "195428.165000", "195428.625000", "195429.085000", "195429.545000", "195430.005000", "195430.465000", "195430.925000", "195431.385000", "195431.845000", "195432.305000", "195432.765000", "195433.225000", "195433.685000", "195434.145000", "195434.605000", "195435.065000", "195435.525000", "195435.985000", "195436.445000", "195436.905000", "195437.365000", "195437.825000", "195438.285000", "195438.745000"],
