{
  "AcquisitionMatrixPE": 82,
  "AcquisitionNumber": 1,
  "AcquisitionTime": "09:44:40.325000",
  "BandwidthPerPixelPhaseEncode": 24.888,
  "BaseResolution": 82,
  "BodyPartExamined": "BRAIN",
  "ConsistencyInfo": "N4_VE11C_LATEST_20160120",
  "ConversionSoftware": "dcm2niix",
  "ConversionSoftwareVersion": "v1.0.20201102",
  "DerivedVendorReportedEchoSpacing": 0.00049,
  "DeviceSerialNumber": "66112",
  "DwellTime": 2e-06,
  "EchoTime": 0.0272,
  "EchoTrainLength": 82,
  "EffectiveEchoSpacing": 0.00049,
  "FlipAngle": 44,
  "ImageComments": "Unaliased MB8/PE3",
  "ImageOrientationPatientDICOM": [0.998988, -0.0274021, 0.0356674, 0.0280787, 0.999433, -0.0186091],
  "ImageType": [
    "ORIGINAL",
    "PRIMARY",
    "M",
    "MB",
    "ND",
    "NORM",
    "MOSAIC"
],
  "ImagingFrequency": 123.252,
  "InPlanePhaseEncodingDirectionDICOM": "COL",
  "InstitutionAddress": "Maynard 3,Hanover,NH,US,03755",
  "InstitutionName": "Dartmouth College - PBS",
  "InstitutionalDepartmentName": "Department",
  "MRAcquisitionType": "2D",
  "MagneticFieldStrength": 3,
  "Manufacturer": "Siemens",
  "ManufacturersModelName": "Prisma",
  "Modality": "MR",
  "MultibandAccelerationFactor": 8,
  "PartialFourier": 1,
  "PatientPosition": "HFS",
  "PercentPhaseFOV": 100,
  "PercentSampling": 100,
  "PhaseEncodingDirection": "j-",
  "PhaseEncodingSteps": 82,
  "PhaseResolution": 1,
  "PixelBandwidth": 3050,
  "ProcedureStepDescription": "Wager_Wager^1076_spacetop",
  "ProtocolName": "func_run-02_task-faces_acq-ap-mb8",
  "PulseSequenceDetails": "%CustomerSeq%\\cmrr_mbep2d_bold",
  "ReceiveCoilActiveElements": "HEA;HEP",
  "ReceiveCoilName": "Head_32",
  "ReconMatrixPE": 82,
  "RepetitionTime": 0.46,
  "SAR": 0.10386,
  "ScanOptions": "FS",
  "ScanningSequence": "EP",
  "SequenceName": "epfid2d1_82",
  "SequenceVariant": "SK\\SS",
  "SeriesDescription": "func_run-02_task-faces_acq-ap-mb8",
  "SeriesNumber": 22,
  "ShimSetting": [4164, -7708, -7284, 598, -39, -85, 71, 78],
  "SliceThickness": 2.7,
  "SliceTiming": [0, 0.25, 0.0625, 0.315, 0.125, 0.3775, 0.1875, 0, 0.25, 0.0625, 0.315, 0.125, 0.3775, 0.1875, 0, 0.25, 0.0625, 0.315, 0.125, 0.3775, 0.1875, 0, 0.25, 0.0625, 0.315, 0.125, 0.3775, 0.1875, 0, 0.25, 0.0625, 0.315, 0.125, 0.3775, 0.1875, 0, 0.25, 0.0625, 0.315, 0.125, 0.3775, 0.1875, 0, 0.25, 0.0625, 0.315, 0.125, 0.3775, 0.1875, 0, 0.25, 0.0625, 0.315, 0.125, 0.3775, 0.1875],
  "SoftwareVersions": "syngo MR E11",
  "SpacingBetweenSlices": 2.7,
  "StationName": "AWP66112",
  "TaskName": "faces",
  "TotalReadoutTime": 0.03969,
  "TxRefAmp": 284.406,
  "WipMemBlock": "9cdbe6b0-1b0f-40e4-ab07-96694f06e13c||Sequence: R016 ve11c/master r/e634e98; Dec 19 2017 11:00:25 by eja",
  "dcmmeta_affine": [
    [-2.6802117824554443, 0.07533321529626846, 0.09487057477235794, 105.37657928466797],
    [0.07351792603731155, 2.6814043521881104, -0.052897870540618896, -90.77581024169922],
    [0.09569308906793594, 0.049926962703466415, 2.6978142261505127, -75.6954345703125],
    [0.0, 0.0, 0.0, 1.0]
],
  "dcmmeta_reorient_transform": [
    [0.0, -1.0, 0.0, 81.0],
    [1.0, 0.0, 0.0, 0.0],
    [0.0, 0.0, 1.0, 0.0],
    [0.0, 0.0, 0.0, 1.0]
],
  "dcmmeta_shape": [82, 82, 56, 914],
  "dcmmeta_slice_dim": 2,
  "dcmmeta_version": 0.6,
  "global": {
    "const": {
      "AccessionNumber": "A003832",
      "AcquisitionMatrix": [82, 0, 0, 82],
      "AngioFlag": "N",
      "BitsAllocated": 16,
      "BitsStored": 16,
      "BodyPartExamined": "BRAIN",
      "Columns": 656,
      "EchoNumbers": 1,
      "EchoTime": 27.2,
      "EchoTrainLength": 82,
      "FlipAngle": 44.0,
      "HighBit": 15,
      "ImageOrientationPatient": [0.99898796678958, -0.0274021363557, 0.03566742397153, 0.02807874185692, 0.99943248102857, -0.0186091407865],
      "ImagePositionPatient": [-902.31995563592, -874.88131637275, -84.786230051473],
      "ImageType": [
        "ORIGINAL",
        "PRIMARY",
        "M",
        "MB",
        "ND",
        "NORM",
        "MOSAIC"
],
      "ImagedNucleus": "1H",
      "ImagingFrequency": 123.252221,
      "InPlanePhaseEncodingDirection": "COL",
      "MRAcquisitionType": "2D",
      "MagneticFieldStrength": 3.0,
      "Manufacturer": "SIEMENS",
      "ManufacturerModelName": "Prisma",
      "Modality": "MR",
      "NumberOfAverages": 1.0,
      "NumberOfPhaseEncodingSteps": 82,
      "PercentPhaseFieldOfView": 100.0,
      "PercentSampling": 100.0,
      "PerformedProcedureStepStartTime": "083239.589000",
      "PhotometricInterpretation": "MONOCHROME2",
      "PixelBandwidth": 3050.0,
      "PixelRepresentation": 0,
      "PixelSpacing": [2.6829268932343, 2.6829268932343],
      "ProtocolName": "func_run-02_task-faces_acq-ap-mb8",
      "RepetitionTime": 460.0,
      "Rows": 656,
      "SAR": 0.10386020950192,
      "SamplesPerPixel": 1,
      "ScanOptions": "FS",
      "ScanningSequence": "EP",
      "SequenceName": "epfid2d1_82",
      "SequenceVariant": [
        "SK",
        "SS"
],
      "SeriesDescription": "func_run-02_task-faces_acq-ap-mb8",
      "SeriesNumber": 22,
      "SeriesTime": "094507.489000",
      "SliceLocation": -70.153050350318,
      "SliceThickness": 2.7000000476837,
      "SmallestImagePixelValue": 0,
      "SoftwareVersions": "syngo MR E11",
      "SpacingBetweenSlices": 2.6999999223601,
      "SpecificCharacterSet": "ISO_IR 100",
      "StudyID": "1",
      "StudyTime": "083239.441000",
      "TransmitCoilName": "Body",
      "VariableFlipAngleFlag": "N",
      "WindowCenterWidthExplanation": "Algo1",
      "dBdt": 0.0},
    "slices": {}
  },
  "time": {
    "samples": {
      "AcquisitionNumber": [1, 2, 3, 4, 5, 6, 7, 8, 9, 10, 11, 12, 13, 14, 15, 16, 17, 18, 19, 20, 21, 22, 23, 24, 25, 26, 27, 28, 29, 30, 31, 32, 33, 34, 35, 36, 37, 38, 39, 40, 41, 42, 43, 44, 45, 46, 47, 48, 49, 50, 51, 52, 53, 54, 55, 56, 57, 58, 59, 60, 61, 62, 63, 64, 65, 66, 67, 68, 69, 70, 71, 72, 73, 74, 75, 76, 77, 78, 79, 80, 81, 82, 83, 84, 85, 86, 87, 88, 89, 90, 91, 92, 93, 94, 95, 96, 97, 98, 99, 100, 101, 102, 103, 104, 105, 106, 107, 108, 109, 110, 111, 112, 113, 114, 115, 116, 117, 118, 119, 120, 121, 122, 123, 124, 125, 126, 127, 128, 129, 130, 131, 132, 133, 134, 135, 136, 137, 138, 139, 140, 141, 142, 143, 144, 145, 146, 147, 148, 149, 150, 151, 152, 153, 154, 155, 156, 157, 158, 159, 160, 161, 162, 163, 164, 165, 166, 167, 168, 169, 170, 171, 172, 173, 174, 175, 176, 177, 178, 179, 180, 181, 182, 183, 184, 185, 186, 187, 188, 189, 190, 191, 192, 193, 194, 195, 196, 197, 198, 199, 200, 201, 202, 203, 204, 205, 206, 207, 208, 209, 210, 211, 212, 213, 214, 215, 216, 217, 218, 219, 220, 221, 222, 223, 224, 225, 226, 227, 228, 229, 230, 231, 232, 233, 234, 235, 236, 237, 238, 239, 240, 241, 242, 243, 244, 245, 246, 247, 248, 249, 250, 251, 252, 253, 254, 255, 256, 257, 258, 259, 260, 261, 262, 263, 264, 265, 266, 267, 268, 269, 270, 271, 272, 273, 274, 275, 276, 277, 278, 279, 280, 281, 282, 283, 284, 285, 286, 287, 288, 289, 290, 291, 292, 293, 294, 295, 296, 297, 298, 299, 300, 301, 302, 303, 304, 305, 306, 307, 308, 309, 310, 311, 312, 313, 314, 315, 316, 317, 318, 319, 320, 321, 322, 323, 324, 325, 326, 327, 328, 329, 330, 331, 332, 333, 334, 335, 336, 337, 338, 339, 340, 341, 342, 343, 344, 345, 346, 347, 348, 349, 350, 351, 352, 353, 354, 355, 356, 357, 358, 359, 360, 361, 362, 363, 364, 365, 366, 367, 368, 369, 370, 371, 372, 373, 374, 375, 376, 377, 378, 379, 380, 381, 382, 383, 384, 385, 386, 387, 388, 389, 390, 391, 392, 393, 394, 395, 396, 397, 398, 399, 400, 401, 402, 403, 404, 405, 406, 407, 408, 409, 410, 411, 412, 413, 414, 415, 416, 417, 418, 419, 420, 421, 422, 423, 424, 425, 426, 427, 428, 429, 430, 431, 432, 433, 434, 435, 436, 437, 438, 439, 440, 441, 442, 443, 444, 445, 446, 447, 448, 449, 450, 451, 452, 453, 454, 455, 456, 457, 458, 459, 460, 461, 462, 463, 464, 465, 466, 467, 468, 469, 470, 471, 472, 473, 474, 475, 476, 477, 478, 479, 480, 481, 482, 483, 484, 485, 486, 487, 488, 489, 490, 491, 492, 493, 494, 495, 496, 497, 498, 499, 500, 501, 502, 503, 504, 505, 506, 507, 508, 509, 510, 511, 512, 513, 514, 515, 516, 517, 518, 519, 520, 521, 522, 523, 524, 525, 526, 527, 528, 529, 530, 531, 532, 533, 534, 535, 536, 537, 538, 539, 540, 541, 542, 543, 544, 545, 546, 547, 548, 549, 550, 551, 552, 553, 554, 555, 556, 557, 558, 559, 560, 561, 562, 563, 564, 565, 566, 567, 568, 569, 570, 571, 572, 573, 574, 575, 576, 577, 578, 579, 580, 581, 582, 583, 584, 585, 586, 587, 588, 589, 590, 591, 592, 593, 594, 595, 596, 597, 598, 599, 600, 601, 602, 603, 604, 605, 606, 607, 608, 609, 610, 611, 612, 613, 614, 615, 616, 617, 618, 619, 620, 621, 622, 623, 624, 625, 626, 627, 628, 629, 630, 631, 632, 633, 634, 635, 636, 637, 638, 639, 640, 641, 642, 643, 644, 645, 646, 647, 648, 649, 650, 651, 652, 653, 654, 655, 656, 657, 658, 659, 660, 661, 662, 663, 664, 665, 666, 667, 668, 669, 670, 671, 672, 673, 674, 675, 676, 677, 678, 679, 680, 681, 682, 683, 684, 685, 686, 687, 688, 689, 690, 691, 692, 693, 694, 695, 696, 697, 698, 699, 700, 701, 702, 703, 704, 705, 706, 707, 708, 709, 710, 711, 712, 713, 714, 715, 716, 717, 718, 719, 720, 721, 722, 723, 724, 725, 726, 727, 728, 729, 730, 731, 732, 733, 734, 735, 736, 737, 738, 739, 740, 741, 742, 743, 744, 745, 746, 747, 748, 749, 750, 751, 752, 753, 754, 755, 756, 757, 758, 759, 760, 761, 762, 763, 764, 765, 766, 767, 768, 769, 770, 771, 772, 773, 774, 775, 776, 777, 778, 779, 780, 781, 782, 783, 784, 785, 786, 787, 788, 789, 790, 791, 792, 793, 794, 795, 796, 797, 798, 799, 800, 801, 802, 803, 804, 805, 806, 807, 808, 809, 810, 811, 812, 813, 814, 815, 816, 817, 818, 819, 820, 821, 822, 823, 824, 825, 826, 827, 828, 829, 830, 831, 832, 833, 834, 835, 836, 837, 838, 839, 840, 841, 842, 843, 844, 845, 846, 847, 848, 849, 850, 851, 852, 853, 854, 855, 856, 857, 858, 859, 860, 861, 862, 863, 864, 865, 866, 867, 868, 869, 870, 871, 872, 873, 874, 875, 876, 877, 878, 879, 880, 881, 882, 883, 884, 885, 886, 887, 888, 889, 890, 891, 892, 893, 894, 895, 896, 897, 898, 899, 900, 901, 902, 903, 904, 905, 906, 907, 908, 909, 910, 911, 912, 913, 914],
      "AcquisitionTime": ["094440.325000", "094440.785000", "094441.245000", "094441.705000", "094442.165000", "094442.625000", "094443.085000", "094443.545000", "094444.005000", "094444.465000", "094444.925000", "094445.385000", "094445.845000", "094446.305000", "094446.765000", "094447.225000", "094447.685000", "094448.145000", "094448.605000", "094449.065000", "094449.525000", "094449.985000", "094450.445000", "094450.905000", "094451.365000", "094451.825000", "094452.285000", "094452.745000", "094453.205000", "094453.665000", "094454.125000", "094454.585000", "094455.045000", "094455.505000", "094455.965000", "094456.425000", "094456.885000", "094457.345000", "094457.805000", "094458.265000", "094458.725000", "094459.185000", "094459.645000", "094500.105000", "094500.565000", "094501.025000", "094501.485000", "094501.945000", "094502.405000", "094502.865000", "094503.325000", "094503.785000", "094504.245000", "094504.705000", "094505.165000", "094505.625000", "094506.085000", "094506.545000", "094507.005000", "094507.465000", "094507.925000", "094508.385000", "094508.845000", "094509.305000", "094509.765000", "094510.225000", "094510.685000", "094511.145000", "094511.605000", "094512.065000", "094512.525000", "094512.985000", "094513.445000", "094513.905000", "094514.365000", "094514.825000", "094515.285000", "094515.745000", "094516.205000", "094516.665000", "094517.125000", "094517.585000", "094518.045000", "094518.505000", "094518.965000", "094519.425000", "094519.885000", "094520.345000", "094520.805000", "094521.265000", "094521.725000", "094522.185000", "094522.645000", "094523.105000", "094523.565000", "094524.025000", "094524.485000", "094524.945000", "094525.405000", "094525.865000", "094526.325000", "094526.785000", "094527.245000", "094527.705000", "094528.165000", "094528.625000", "094529.085000", "094529.545000", "094530.005000", "094530.465000", "094530.925000", "094531.385000", "094531.845000", "094532.305000", "094532.765000", "094533.225000", "094533.685000", "094534.145000", "094534.605000", "094535.065000", "094535.525000", "094535.985000", "094536.445000", "094536.905000", "094537.365000", "094537.825000", "094538.285000", "094538.745000", "094539.205000", "094539.665000", "094540.125000", "094540.585000", "094541.045000", "094541.505000", "094541.965000", "094542.425000", "094542.885000", "094543.345000", "094543.805000", "094544.265000", "094544.725000", "094545.185000", "094545.645000", "094546.105000", "094546.565000", "094547.025000", "094547.485000", "094547.945000", "094548.405000", "094548.865000", "094549.325000", "094549.785000", "094550.245000", "094550.705000", "094551.165000", "094551.625000", "094552.085000", "094552.545000", "094553.005000", "094553.465000", "094553.925000", "094554.385000", "094554.845000", "094555.305000", "094555.765000", "094556.225000", "094556.685000", "094557.145000", "094557.605000", "094558.065000", "094558.525000", "094558.985000", "094559.445000", "094559.905000", "094600.365000", "094600.825000", "094601.285000", "094601.745000", "094602.205000", "094602.665000", "094603.125000", "094603.585000", "094604.045000", "094604.505000", "094604.965000", "094605.425000", "094605.885000", "094606.345000", "094606.805000", "094607.265000", "094607.725000", "094608.185000", "094608.645000", "094609.105000", "094609.565000", "094610.025000", "094610.485000", "094610.945000", "094611.405000", "094611.865000", "094612.325000", "094612.785000", "094613.245000", "094613.705000", "094614.165000", "094614.625000", "094615.085000", "094615.545000", "094616.005000", "094616.465000", "094616.925000", "094617.385000", "094617.845000", "094618.305000", "094618.765000", "094619.225000", "094619.685000", "094620.145000", "094620.605000", "094621.065000", "094621.525000", "094621.985000", "094622.445000", "094622.905000", "094623.365000", "094623.825000", "094624.285000", "094624.745000", "094625.205000", "094625.665000", "094626.125000", "094626.585000", "094627.045000", "094627.505000", "094627.965000", "094628.425000", "094628.885000", "094629.345000", "094629.805000", "094630.265000", "094630.725000", "094631.185000", "094631.645000", "094632.105000", "094632.565000", "094633.025000", "094633.485000", "094633.945000", "094634.405000", "094634.865000", "094635.325000", "094635.785000", "094636.245000", "094636.705000", "094637.165000", "094637.625000", "094638.085000", "094638.545000", "094639.005000", "094639.465000", "094639.925000", "094640.385000", "094640.845000", "094641.305000", "094641.765000", "094642.225000", "094642.685000", "094643.145000", "094643.605000", "094644.065000", "094644.525000", "094644.985000", "094645.445000", "094645.905000", "094646.365000", "094646.825000", "094647.285000", "094647.745000", "094648.205000", "094648.665000", "094649.125000", "094649.585000", "094650.045000", "094650.505000", "094650.965000", "094651.425000", "094651.885000", "094652.345000", "094652.805000", "094653.265000", "094653.725000", "094654.185000", "094654.645000", "094655.105000", "094655.565000", "094656.025000", "094656.485000", "094656.945000", "094657.405000", "094657.865000", "094658.325000", "094658.785000", "094659.245000", "094659.705000", "094700.165000", "094700.625000", "094701.085000", "094701.545000", "094702.005000", "094702.465000", "094702.925000", "094703.385000", "094703.845000", "094704.305000", "094704.765000", "094705.225000", "094705.685000", "094706.145000", "094706.605000", "094707.065000", "094707.525000", "094707.985000", "094708.445000", "094708.905000", "094709.365000", "094709.825000", "094710.285000", "094710.745000", "094711.205000", "094711.665000", "094712.125000", "094712.585000", "094713.045000", "094713.505000", "094713.965000", "094714.425000", "094714.885000", "094715.345000", "094715.805000", "094716.265000", "094716.725000", "094717.185000", "094717.645000", "094718.105000", "094718.565000", "094719.025000", "094719.485000", "094719.945000", "094720.405000", "094720.865000", "094721.325000", "094721.785000", "094722.245000", "094722.705000", "094723.165000", "094723.625000", "094724.085000", "094724.545000", "094725.005000", "094725.465000", "094725.925000", "094726.385000", "094726.845000", "094727.305000", "094727.765000", "094728.225000", "094728.685000", "094729.145000", "094729.605000", "094730.065000", "094730.525000", "094730.985000", "094731.445000", "094731.905000", "094732.365000", "094732.825000", "094733.285000", "094733.745000", "094734.205000", "094734.665000", "094735.125000", "094735.585000", "094736.045000", "094736.505000", "094736.965000", "094737.425000", "094737.885000", "094738.345000", "094738.805000", "094739.265000", "094739.725000", "094740.185000", "094740.645000", "094741.105000", "094741.565000", "094742.025000", "094742.485000", "094742.945000", "094743.405000", "094743.865000", "094744.325000", "094744.785000", "094745.245000", "094745.705000", "094746.165000", "094746.625000", "094747.085000", "094747.545000", "094748.005000", "094748.465000", "094748.925000", "094749.385000", "094749.845000", "094750.305000", "094750.765000", "094751.225000", "094751.685000", "094752.145000", "094752.605000", "094753.065000", "094753.525000", "094753.985000", "094754.445000", "094754.905000", "094755.365000", "094755.825000", "094756.285000", "094756.745000", "094757.205000", "094757.665000", "094758.125000", "094758.585000", "094759.045000", "094759.505000", "094759.965000", "094800.425000", "094800.885000", "094801.345000", "094801.805000", "094802.265000", "094802.725000", "094803.185000", "094803.645000", "094804.105000", "094804.565000", "094805.025000", "094805.485000", "094805.945000", "094806.405000", "094806.865000", "094807.325000", "094807.785000", "094808.245000", "094808.705000", "094809.165000", "094809.625000", "094810.085000", "094810.545000", "094811.005000", "094811.465000", "094811.925000", "094812.385000", "094812.845000", "094813.305000", "094813.765000", "094814.225000", "094814.685000", "094815.145000", "094815.605000", "094816.065000", "094816.525000", "094816.985000", "094817.445000", "094817.905000", "094818.365000", "094818.825000", "094819.285000", "094819.745000", "094820.205000", "094820.665000", "094821.125000", "094821.585000", "094822.045000", "094822.505000", "094822.965000", "094823.425000", "094823.885000", "094824.345000", "094824.805000", "094825.265000", "094825.725000", "094826.185000", "094826.645000", "094827.105000", "094827.565000", "094828.025000", "094828.485000", "094828.945000", "094829.405000", "094829.865000", "094830.325000", "094830.785000", "094831.245000", "094831.705000", "094832.165000", "094832.625000", "094833.085000", "094833.545000", "094834.005000", "094834.465000", "094834.925000", "094835.385000", "094835.845000", "094836.305000", "094836.765000", "094837.225000", "094837.685000", "094838.145000", "094838.605000", "094839.065000", "094839.525000", "094839.985000", "094840.445000", "094840.905000", "094841.365000", "094841.825000", "094842.285000", "094842.745000", "094843.205000", "094843.665000", "094844.125000", "094844.585000", "094845.045000", "094845.505000", "094845.965000", "094846.425000", "094846.885000", "094847.345000", "094847.805000", "094848.265000", "094848.725000", "094849.185000", "094849.645000", "094850.105000", "094850.565000", "094851.025000", "094851.485000", "094851.945000", "094852.405000", "094852.865000", "094853.325000", "094853.785000", "094854.245000", "094854.705000", "094855.165000", "094855.625000", "094856.085000", "094856.545000", "094857.005000", "094857.465000", "094857.925000", "094858.385000", "094858.845000", "094859.305000", "094859.765000", "094900.225000", "094900.685000", "094901.145000", "094901.605000", "094902.065000", "094902.525000", "094902.985000", "094903.445000", "094903.905000", "094904.365000", "094904.825000", "094905.285000", "094905.745000", "094906.205000", "094906.665000", "094907.125000", "094907.585000", "094908.045000", "094908.505000", "094908.965000", "094909.425000", "094909.885000", "094910.345000", "094910.805000", "094911.265000", "094911.725000", "094912.185000", "094912.645000", "094913.105000", "094913.565000", "094914.025000", "094914.485000", "094914.945000", "094915.405000", "094915.865000", "094916.325000", "094916.785000", "094917.245000", "094917.705000", "094918.165000", "094918.625000", "094919.085000", "094919.545000", "094920.005000", "094920.465000", "094920.925000", "094921.385000", "094921.845000", "094922.305000", "094922.765000", "094923.225000", "094923.685000", "094924.145000", "094924.605000", "094925.065000", "094925.525000", "094925.985000", "094926.445000", "094926.905000", "094927.365000", "094927.825000", "094928.285000", "094928.745000", "094929.205000", "094929.665000", "094930.125000", "094930.585000", "094931.045000", "094931.505000", "094931.965000", "094932.425000", "094932.885000", "094933.345000", "094933.805000", "094934.265000", "094934.725000", "094935.185000", "094935.645000", "094936.105000", "094936.565000", "094937.025000", "094937.485000", "094937.945000", "094938.405000", "094938.865000", "094939.325000", "094939.785000", "094940.245000", "094940.705000", "094941.165000", "094941.625000", "094942.085000", "094942.545000", "094943.005000", "094943.465000", "094943.925000", "094944.385000", "094944.845000", "094945.305000", "094945.765000", "094946.225000", "094946.685000", "094947.145000", "094947.605000", "094948.065000", "094948.525000", "094948.985000", "094949.445000", "094949.905000", "094950.365000", "094950.825000", "094951.285000", "094951.745000", "094952.205000", "094952.665000", "094953.125000", "094953.585000", "094954.045000", "094954.505000", "094954.965000", "094955.425000", "094955.885000", "094956.345000", "094956.805000", "094957.265000", "094957.725000", "094958.185000", "094958.645000", "094959.105000", "094959.565000", "095000.025000", "095000.485000", "095000.945000", "095001.405000", "095001.865000", "095002.325000", "095002.785000", "095003.245000", "095003.705000", "095004.165000", "095004.625000", "095005.085000", "095005.545000", "095006.005000", "095006.465000", "095006.925000", "095007.385000", "095007.845000", "095008.305000", "095008.765000", "095009.225000", "095009.685000", "095010.145000", "095010.605000", "095011.065000", "095011.525000", "095011.985000", "095012.445000", "095012.905000", "095013.365000", "095013.825000", "095014.285000", "095014.745000", "095015.205000", "095015.665000", "095016.125000", "095016.585000", "095017.045000", "095017.505000", "095017.965000", "095018.425000", "095018.885000", "095019.345000", "095019.805000", "095020.265000", "095020.725000", "095021.185000", "095021.645000", "095022.105000", "095022.565000", "095023.025000", "095023.485000", "095023.945000", "095024.405000", "095024.865000", "095025.325000", "095025.785000", "095026.245000", "095026.705000", "095027.165000", "095027.625000", "095028.085000", "095028.545000", "095029.005000", "095029.465000", "095029.925000", "095030.385000", "095030.845000", "095031.305000", "095031.765000", "095032.225000", "095032.685000", "095033.145000", "095033.605000", "095034.065000", "095034.525000", "095034.985000", "095035.445000", "095035.905000", "095036.365000", "095036.825000", "095037.285000", "095037.745000", "095038.205000", "095038.665000", "095039.125000", "095039.585000", "095040.045000", "095040.505000", "095040.965000", "095041.425000", "095041.885000", "095042.345000", "095042.805000", "095043.265000", "095043.725000", "095044.185000", "095044.645000", "095045.105000", "095045.565000", "095046.025000", "095046.485000", "095046.945000", "095047.405000", "095047.865000", "095048.325000", "095048.785000", "095049.245000", "095049.705000", "095050.165000", "095050.625000", "095051.085000", "095051.545000", "095052.005000", "095052.465000", "095052.925000", "095053.385000", "095053.845000", "095054.305000", "095054.765000", "095055.225000", "095055.685000", "095056.145000", "095056.605000", "095057.065000", "095057.525000", "095057.985000", "095058.445000", "095058.905000", "095059.365000", "095059.825000", "095100.285000", "095100.745000", "095101.205000", "095101.665000", "095102.125000", "095102.585000", "095103.045000", "095103.505000", "095103.965000", "095104.425000", "095104.885000", "095105.345000", "095105.805000", "095106.265000", "095106.725000", "095107.185000", "095107.645000", "095108.105000", "095108.565000", "095109.025000", "095109.485000", "095109.945000", "095110.405000", "095110.865000", "095111.325000", "095111.785000", "095112.245000", "095112.705000", "095113.165000", "095113.625000", "095114.085000", "095114.545000", "095115.005000", "095115.465000", "095115.925000", "095116.385000", "095116.845000", "095117.305000", "095117.765000", "095118.225000", "095118.685000", "095119.145000", "095119.605000", "095120.065000", "095120.525000", "095120.985000", "095121.445000", "095121.905000", "095122.365000", "095122.825000", "095123.285000", "095123.745000", "095124.205000", "095124.665000", "095125.125000", "095125.585000", "095126.045000", "095126.505000", "095126.965000", "095127.425000", "095127.885000", "095128.345000", "095128.805000", "095129.265000", "095129.725000", "095130.185000", "095130.645000", "095131.105000", "095131.565000", "095132.025000", "095132.485000", "095132.945000", "095133.405000", "095133.865000", "095134.325000", "095134.785000", "095135.245000", "095135.705000", "095136.165000", "095136.625000", "095137.085000", "095137.545000", "095138.005000", "095138.465000", "095138.925000", "095139.385000", "095139.845000", "095140.305000"],
