{
  "AcquisitionMatrixPE": 82,
  "AcquisitionNumber": 1,
  "AcquisitionTime": "14:27:19.200000",
  "BandwidthPerPixelPhaseEncode": 24.888,
  "BaseResolution": 82,
  "BodyPartExamined": "BRAIN",
  "ConsistencyInfo": "N4_VE11E_LATEST_20181129",
  "ConversionSoftware": "dcm2niix",
  "ConversionSoftwareVersion": "v1.0.20201102",
  "DerivedVendorReportedEchoSpacing": 0.00049,
  "DeviceSerialNumber": "66112",
  "DwellTime": 2e-06,
  "EchoTime": 0.0272,
  "EchoTrainLength": 82,
  "EffectiveEchoSpacing": 0.00049,
  "FlipAngle": 44,
  "ImageComments": "Unaliased MB8/PE3",
  "ImageOrientationPatientDICOM": [0.999821, 0.0159116, 0.0101995, -0.0136119, 0.980616, -0.195468],
  "ImageType": [
    "ORIGINAL",
    "PRIMARY",
    "M",
    "MB",
    "ND",
    "NORM",
    "MOSAIC"
],
  "ImagingFrequency": 123.259,
  "InPlanePhaseEncodingDirectionDICOM": "COL",
  "InstitutionAddress": "Maynard 3,Hanover,NH,US,03755",
  "InstitutionName": "Dartmouth College - PBS",
  "InstitutionalDepartmentName": "Department",
  "MRAcquisitionType": "2D",
  "MagneticFieldStrength": 3,
  "Manufacturer": "Siemens",
  "ManufacturersModelName": "Prisma",
  "Modality": "MR",
  "MultibandAccelerationFactor": 8,
  "PartialFourier": 1,
  "PatientPosition": "HFS",
  "PercentPhaseFOV": 100,
  "PercentSampling": 100,
  "PhaseEncodingDirection": "j-",
  "PhaseEncodingSteps": 82,
  "PhaseResolution": 1,
  "PixelBandwidth": 3050,
  "ProcedureStepDescription": "Wager_Wager^1076_spacetop",
  "ProtocolName": "func_run-05_task-social_acq-ap-mb8",
  "PulseSequenceDetails": "%CustomerSeq%\\cmrr_mbep2d_bold",
  "ReceiveCoilActiveElements": "HEA;HEP",
  "ReceiveCoilName": "Head_32",
  "ReconMatrixPE": 82,
  "RepetitionTime": 0.46,
  "SAR": 0.124787,
  "ScanOptions": "FS",
  "ScanningSequence": "EP",
  "SequenceName": "epfid2d1_82",
  "SequenceVariant": "SK\\SS",
  "SeriesDescription": "func_run-05_task-social_acq-ap-mb8",
  "SeriesNumber": 20,
  "ShimSetting": [4238, -7770, -7237, 88, -140, -56, 54, 64],
  "SliceThickness": 2.7,
  "SliceTiming": [0, 0.2525, 0.065, 0.315, 0.1275, 0.3775, 0.19, 0, 0.2525, 0.065, 0.315, 0.1275, 0.3775, 0.19, 0, 0.2525, 0.065, 0.315, 0.1275, 0.3775, 0.19, 0, 0.2525, 0.065, 0.315, 0.1275, 0.3775, 0.19, 0, 0.2525, 0.065, 0.315, 0.1275, 0.3775, 0.19, 0, 0.2525, 0.065, 0.315, 0.1275, 0.3775, 0.19, 0, 0.2525, 0.065, 0.315, 0.1275, 0.3775, 0.19, 0, 0.2525, 0.065, 0.315, 0.1275, 0.3775, 0.19],
  "SoftwareVersions": "syngo MR E11",
  "SpacingBetweenSlices": 2.7,
  "StationName": "AWP66112",
  "TaskName": "social",
  "TotalReadoutTime": 0.03969,
  "TxRefAmp": 314.388,
  "WipMemBlock": "d9176a67-b3d3-4d38-8b39-8db78c0ee94d||Sequence: R016 ve11e/master r/434b28f1; Aug  7 2019 18:53:46 by eja",
  "dcmmeta_affine": [
    [-2.682447671890259, -0.03651982918381691, 0.03540227934718132, 110.65784454345703],
    [-0.04268967732787132, 2.630920171737671, -0.5272938013076782, -81.31256866455078],
    [0.027364404872059822, 0.5244256854057312, 2.6477742195129395, -100.97154235839844],
    [0.0, 0.0, 0.0, 1.0]
],
  "dcmmeta_reorient_transform": [
    [0.0, -1.0, 0.0, 81.0],
    [1.0, 0.0, 0.0, 0.0],
    [0.0, 0.0, 1.0, 0.0],
    [0.0, 0.0, 0.0, 1.0]
],
  "dcmmeta_shape": [82, 82, 56, 872],
  "dcmmeta_slice_dim": 2,
  "dcmmeta_version": 0.6,
  "global": {
    "const": {
      "AccessionNumber": "A004314",
      "AcquisitionMatrix": [82, 0, 0, 82],
      "AngioFlag": "N",
      "BitsAllocated": 16,
      "BitsStored": 16,
      "BodyPartExamined": "BRAIN",
      "Columns": 656,
      "EchoNumbers": 1,
      "EchoTime": 27.2,
      "EchoTrainLength": 82,
      "FlipAngle": 44.0,
      "HighBit": 15,
      "ImageOrientationPatient": [0.99982137995408, 0.01591160597407, 0.01019945988973, -0.013611935906, 0.98061566084331, -0.1954677490271],
      "ImagePositionPatient": [-867.08102825259, -899.11797353198, 84.163524475438],
      "ImageType": [
        "ORIGINAL",
        "PRIMARY",
        "M",
        "MB",
        "ND",
        "NORM",
        "MOSAIC"
],
      "ImagedNucleus": "1H",
      "ImagingFrequency": 123.259079,
      "InPlanePhaseEncodingDirection": "COL",
      "MRAcquisitionType": "2D",
      "MagneticFieldStrength": 3.0,
      "Manufacturer": "SIEMENS",
      "ManufacturerModelName": "Prisma",
      "Modality": "MR",
      "NumberOfAverages": 1.0,
      "NumberOfPhaseEncodingSteps": 82,
      "PercentPhaseFieldOfView": 100.0,
      "PercentSampling": 100.0,
      "PerformedProcedureStepStartTime": "132711.163000",
      "PhotometricInterpretation": "MONOCHROME2",
      "PixelBandwidth": 3050.0,
      "PixelRepresentation": 0,
      "PixelSpacing": [2.6829268932343, 2.6829268932343],
      "ProtocolName": "func_run-05_task-social_acq-ap-mb8",
      "RepetitionTime": 460.0,
      "Rows": 656,
      "SAR": 0.12478742129146,
      "SamplesPerPixel": 1,
      "ScanOptions": "FS",
      "ScanningSequence": "EP",
      "SequenceName": "epfid2d1_82",
      "SequenceVariant": [
        "SK",
        "SS"
],
      "SeriesDescription": "func_run-05_task-social_acq-ap-mb8",
      "SeriesNumber": 20,
      "SeriesTime": "142740.530000",
      "SliceLocation": -81.687660393416,
      "SliceThickness": 2.7000000476837,
      "SmallestImagePixelValue": 0,
      "SoftwareVersions": "syngo MR E11",
      "SpacingBetweenSlices": 2.7000000186313,
      "SpecificCharacterSet": "ISO_IR 100",
      "StudyID": "1",
      "StudyTime": "132710.935000",
      "TransmitCoilName": "Body",
      "VariableFlipAngleFlag": "N",
      "WindowCenterWidthExplanation": "Algo1"
    },
    "slices": {}
  },
  "time": {
    "samples": {
      "AcquisitionNumber": [1, 2, 3, 4, 5, 6, 7, 8, 9, 10, 11, 12, 13, 14, 15, 16, 17, 18, 19, 20, 21, 22, 23, 24, 25, 26, 27, 28, 29, 30, 31, 32, 33, 34, 35, 36, 37, 38, 39, 40, 41, 42, 43, 44, 45, 46, 47, 48, 49, 50, 51, 52, 53, 54, 55, 56, 57, 58, 59, 60, 61, 62, 63, 64, 65, 66, 67, 68, 69, 70, 71, 72, 73, 74, 75, 76, 77, 78, 79, 80, 81, 82, 83, 84, 85, 86, 87, 88, 89, 90, 91, 92, 93, 94, 95, 96, 97, 98, 99, 100, 101, 102, 103, 104, 105, 106, 107, 108, 109, 110, 111, 112, 113, 114, 115, 116, 117, 118, 119, 120, 121, 122, 123, 124, 125, 126, 127, 128, 129, 130, 131, 132, 133, 134, 135, 136, 137, 138, 139, 140, 141, 142, 143, 144, 145, 146, 147, 148, 149, 150, 151, 152, 153, 154, 155, 156, 157, 158, 159, 160, 161, 162, 163, 164, 165, 166, 167, 168, 169, 170, 171, 172, 173, 174, 175, 176, 177, 178, 179, 180, 181, 182, 183, 184, 185, 186, 187, 188, 189, 190, 191, 192, 193, 194, 195, 196, 197, 198, 199, 200, 201, 202, 203, 204, 205, 206, 207, 208, 209, 210, 211, 212, 213, 214, 215, 216, 217, 218, 219, 220, 221, 222, 223, 224, 225, 226, 227, 228, 229, 230, 231, 232, 233, 234, 235, 236, 237, 238, 239, 240, 241, 242, 243, 244, 245, 246, 247, 248, 249, 250, 251, 252, 253, 254, 255, 256, 257, 258, 259, 260, 261, 262, 263, 264, 265, 266, 267, 268, 269, 270, 271, 272, 273, 274, 275, 276, 277, 278, 279, 280, 281, 282, 283, 284, 285, 286, 287, 288, 289, 290, 291, 292, 293, 294, 295, 296, 297, 298, 299, 300, 301, 302, 303, 304, 305, 306, 307, 308, 309, 310, 311, 312, 313, 314, 315, 316, 317, 318, 319, 320, 321, 322, 323, 324, 325, 326, 327, 328, 329, 330, 331, 332, 333, 334, 335, 336, 337, 338, 339, 340, 341, 342, 343, 344, 345, 346, 347, 348, 349, 350, 351, 352, 353, 354, 355, 356, 357, 358, 359, 360, 361, 362, 363, 364, 365, 366, 367, 368, 369, 370, 371, 372, 373, 374, 375, 376, 377, 378, 379, 380, 381, 382, 383, 384, 385, 386, 387, 388, 389, 390, 391, 392, 393, 394, 395, 396, 397, 398, 399, 400, 401, 402, 403, 404, 405, 406, 407, 408, 409, 410, 411, 412, 413, 414, 415, 416, 417, 418, 419, 420, 421, 422, 423, 424, 425, 426, 427, 428, 429, 430, 431, 432, 433, 434, 435, 436, 437, 438, 439, 440, 441, 442, 443, 444, 445, 446, 447, 448, 449, 450, 451, 452, 453, 454, 455, 456, 457, 458, 459, 460, 461, 462, 463, 464, 465, 466, 467, 468, 469, 470, 471, 472, 473, 474, 475, 476, 477, 478, 479, 480, 481, 482, 483, 484, 485, 486, 487, 488, 489, 490, 491, 492, 493, 494, 495, 496, 497, 498, 499, 500, 501, 502, 503, 504, 505, 506, 507, 508, 509, 510, 511, 512, 513, 514, 515, 516, 517, 518, 519, 520, 521, 522, 523, 524, 525, 526, 527, 528, 529, 530, 531, 532, 533, 534, 535, 536, 537, 538, 539, 540, 541, 542, 543, 544, 545, 546, 547, 548, 549, 550, 551, 552, 553, 554, 555, 556, 557, 558, 559, 560, 561, 562, 563, 564, 565, 566, 567, 568, 569, 570, 571, 572, 573, 574, 575, 576, 577, 578, 579, 580, 581, 582, 583, 584, 585, 586, 587, 588, 589, 590, 591, 592, 593, 594, 595, 596, 597, 598, 599, 600, 601, 602, 603, 604, 605, 606, 607, 608, 609, 610, 611, 612, 613, 614, 615, 616, 617, 618, 619, 620, 621, 622, 623, 624, 625, 626, 627, 628, 629, 630, 631, 632, 633, 634, 635, 636, 637, 638, 639, 640, 641, 642, 643, 644, 645, 646, 647, 648, 649, 650, 651, 652, 653, 654, 655, 656, 657, 658, 659, 660, 661, 662, 663, 664, 665, 666, 667, 668, 669, 670, 671, 672, 673, 674, 675, 676, 677, 678, 679, 680, 681, 682, 683, 684, 685, 686, 687, 688, 689, 690, 691, 692, 693, 694, 695, 696, 697, 698, 699, 700, 701, 702, 703, 704, 705, 706, 707, 708, 709, 710, 711, 712, 713, 714, 715, 716, 717, 718, 719, 720, 721, 722, 723, 724, 725, 726, 727, 728, 729, 730, 731, 732, 733, 734, 735, 736, 737, 738, 739, 740, 741, 742, 743, 744, 745, 746, 747, 748, 749, 750, 751, 752, 753, 754, 755, 756, 757, 758, 759, 760, 761, 762, 763, 764, 765, 766, 767, 768, 769, 770, 771, 772, 773, 774, 775, 776, 777, 778, 779, 780, 781, 782, 783, 784, 785, 786, 787, 788, 789, 790, 791, 792, 793, 794, 795, 796, 797, 798, 799, 800, 801, 802, 803, 804, 805, 806, 807, 808, 809, 810, 811, 812, 813, 814, 815, 816, 817, 818, 819, 820, 821, 822, 823, 824, 825, 826, 827, 828, 829, 830, 831, 832, 833, 834, 835, 836, 837, 838, 839, 840, 841, 842, 843, 844, 845, 846, 847, 848, 849, 850, 851, 852, 853, 854, 855, 856, 857, 858, 859, 860, 861, 862, 863, 864, 865, 866, 867, 868, 869, 870, 871, 872],
      "AcquisitionTime": ["142719.200000", "142719.660000", "142720.120000", "142720.580000", "142721.040000", "142721.500000", "142721.960000", "142722.420000", "142722.880000", "142723.340000", "142723.800000", "142724.260000", "142724.720000", "142725.180000", "142725.640000", "142726.100000", "142726.560000", "142727.020000", "142727.480000", "142727.940000", "142728.400000", "142728.860000", "142729.320000", "142729.780000", "142730.240000", "142730.700000", "142731.160000", "142731.620000", "142732.080000", "142732.540000", "142733.000000", "142733.460000", "142733.920000", "142734.380000", "142734.840000", "142735.300000", "142735.760000", "142736.220000", "142736.680000", "142737.140000", "142737.600000", "142738.060000", "142738.520000", "142738.980000", "142739.440000", "142739.900000", "142740.360000", "142740.820000", "142741.280000", "142741.740000", "142742.200000", "142742.660000", "142743.120000", "142743.580000", "142744.040000", "142744.500000", "142744.960000", "142745.420000", "142745.880000", "142746.340000", "142746.800000", "142747.260000", "142747.720000", "142748.180000", "142748.640000", "142749.100000", "142749.560000", "142750.020000", "142750.480000", "142750.940000", "142751.400000", "142751.860000", "142752.320000", "142752.780000", "142753.240000", "142753.700000", "142754.160000", "142754.620000", "142755.080000", "142755.540000", "142756.000000", "142756.460000", "142756.920000", "142757.380000", "142757.840000", "142758.300000", "142758.760000", "142759.220000", "142759.680000", "142800.140000", "142800.600000", "142801.060000", "142801.520000", "142801.980000", "142802.440000", "142802.900000", "142803.360000", "142803.820000", "142804.280000", "142804.740000", "142805.200000", "142805.660000", "142806.120000", "142806.580000", "142807.040000", "142807.500000", "142807.960000", "142808.420000", "142808.880000", "142809.340000", "142809.800000", "142810.260000", "142810.720000", "142811.180000", "142811.640000", "142812.100000", "142812.560000", "142813.020000", "142813.480000", "142813.940000", "142814.400000", "142814.860000", "142815.320000", "142815.780000", "142816.240000", "142816.700000", "142817.160000", "142817.620000", "142818.080000", "142818.540000", "142819.000000", "142819.460000", "142819.920000", "142820.380000", "142820.840000", "142821.300000", "142821.760000", "142822.220000", "142822.680000", "142823.140000", "142823.600000", "142824.060000", "142824.520000", "142824.980000", "142825.440000", "142825.900000", "142826.360000", "142826.820000", "142827.280000", "142827.740000", "142828.200000", "142828.660000", "142829.120000", "142829.580000", "142830.040000", "142830.500000", "142830.960000", "142831.420000", "142831.880000", "142832.340000", "142832.800000", "142833.260000", "142833.720000", "142834.180000", "142834.640000", "142835.100000", "142835.560000", "142836.020000", "142836.480000", "142836.940000", "142837.400000", "142837.860000", "142838.320000", "142838.780000", "142839.240000", "142839.700000", "142840.160000", "142840.620000", "142841.080000", "142841.540000", "142842.000000", "142842.460000", "142842.920000", "142843.380000", "142843.840000", "142844.300000", "142844.760000", "142845.220000", "142845.680000", "142846.140000", "142846.600000", "142847.060000", "142847.520000", "142847.980000", "142848.440000", "142848.900000", "142849.360000", "142849.820000", "142850.280000", "142850.740000", "142851.200000", "142851.660000", "142852.120000", "142852.580000", "142853.040000", "142853.500000", "142853.960000", "142854.420000", "142854.880000", "142855.340000", "142855.800000", "142856.260000", "142856.720000", "142857.180000", "142857.640000", "142858.100000", "142858.560000", "142859.020000", "142859.480000", "142859.940000", "142900.400000", "142900.860000", "142901.320000", "142901.780000", "142902.240000", "142902.700000", "142903.160000", "142903.620000", "142904.080000", "142904.540000", "142905.000000", "142905.460000", "142905.920000", "142906.380000", "142906.840000", "142907.300000", "142907.760000", "142908.220000", "142908.680000", "142909.140000", "142909.600000", "142910.060000", "142910.520000", "142910.980000", "142911.440000", "142911.900000", "142912.360000", "142912.820000", "142913.280000", "142913.740000", "142914.200000", "142914.660000", "142915.120000", "142915.580000", "142916.040000", "142916.500000", "142916.960000", "142917.420000", "142917.880000", "142918.340000", "142918.800000", "142919.260000", "142919.720000", "142920.180000", "142920.640000", "142921.100000", "142921.560000", "142922.020000", "142922.480000", "142922.940000", "142923.400000", "142923.860000", "142924.320000", "142924.780000", "142925.240000", "142925.700000", "142926.160000", "142926.620000", "142927.080000", "142927.540000", "142928.000000", "142928.460000", "142928.920000", "142929.380000", "142929.840000", "142930.300000", "142930.760000", "142931.220000", "142931.680000", "142932.140000", "142932.600000", "142933.060000", "142933.520000", "142933.980000", "142934.440000", "142934.900000", "142935.360000", "142935.820000", "142936.280000", "142936.740000", "142937.200000", "142937.660000", "142938.120000", "142938.580000", "142939.040000", "142939.500000", "142939.960000", "142940.420000", "142940.880000", "142941.340000", "142941.800000", "142942.260000", "142942.720000", "142943.180000", "142943.640000", "142944.100000", "142944.560000", "142945.020000", "142945.480000", "142945.940000", "142946.400000", "142946.860000", "142947.320000", "142947.780000", "142948.240000", "142948.700000", "142949.160000", "142949.620000", "142950.080000", "142950.540000", "142951.000000", "142951.460000", "142951.920000", "142952.380000", "142952.840000", "142953.300000", "142953.760000", "142954.220000", "142954.680000", "142955.140000", "142955.600000", "142956.060000", "142956.520000", "142956.980000", "142957.440000", "142957.900000", "142958.360000", "142958.820000", "142959.280000", "142959.740000", "143000.200000", "143000.660000", "143001.120000", "143001.580000", "143002.040000", "143002.500000", "143002.960000", "143003.420000", "143003.880000", "143004.340000", "143004.800000", "143005.260000", "143005.720000", "143006.180000", "143006.640000", "143007.100000", "143007.560000", "143008.020000", "143008.480000", "143008.940000", "143009.400000", "143009.860000", "143010.320000", "143010.780000", "143011.240000", "143011.700000", "143012.160000", "143012.620000", "143013.080000", "143013.540000", "143014.000000", "143014.460000", "143014.920000", "143015.380000", "143015.840000", "143016.300000", "143016.760000", "143017.220000", "143017.680000", "143018.140000", "143018.600000", "143019.060000", "143019.520000", "143019.980000", "143020.440000", "143020.900000", "143021.360000", "143021.820000", "143022.280000", "143022.740000", "143023.200000", "143023.660000", "143024.120000", "143024.580000", "143025.040000", "143025.500000", "143025.960000", "143026.420000", "143026.880000", "143027.340000", "143027.800000", "143028.260000", "143028.720000", "143029.180000", "143029.640000", "143030.100000", "143030.560000", "143031.020000", "143031.480000", "143031.940000", "143032.400000", "143032.860000", "143033.320000", "143033.780000", "143034.240000", "143034.700000", "143035.160000", "143035.620000", "143036.080000", "143036.540000", "143037.000000", "143037.460000", "143037.920000", "143038.380000", "143038.840000", "143039.300000", "143039.760000", "143040.220000", "143040.680000", "143041.140000", "143041.600000", "143042.060000", "143042.520000", "143042.980000", "143043.440000", "143043.900000", "143044.360000", "143044.820000", "143045.280000", "143045.740000", "143046.200000", "143046.660000", "143047.120000", "143047.580000", "143048.040000", "143048.500000", "143048.960000", "143049.420000", "143049.880000", "143050.340000", "143050.800000", "143051.260000", "143051.720000", "143052.180000", "143052.640000", "143053.100000", "143053.560000", "143054.020000", "143054.480000", "143054.940000", "143055.400000", "143055.860000", "143056.320000", "143056.780000", "143057.240000", "143057.700000", "143058.160000", "143058.620000", "143059.080000", "143059.540000", "143100.000000", "143100.460000", "143100.920000", "143101.380000", "143101.840000", "143102.300000", "143102.760000", "143103.220000", "143103.680000", "143104.140000", "143104.600000", "143105.060000", "143105.520000", "143105.980000", "143106.440000", "143106.900000", "143107.360000", "143107.820000", "143108.280000", "143108.740000", "143109.200000", "143109.660000", "143110.120000", "143110.580000", "143111.040000", "143111.500000", "143111.960000", "143112.420000", "143112.880000", "143113.340000", "143113.800000", "143114.260000", "143114.720000", "143115.180000", "143115.640000", "143116.100000", "143116.560000", "143117.020000", "143117.480000", "143117.940000", "143118.400000", "143118.860000", "143119.320000", "143119.780000", "143120.240000", "143120.700000", "143121.160000", "143121.620000", "143122.080000", "143122.540000", "143123.000000", "143123.460000", "143123.920000", "143124.380000", "143124.840000", "143125.300000", "143125.760000", "143126.220000", "143126.680000", "143127.140000", "143127.600000", "143128.060000", "143128.520000", "143128.980000", "143129.440000", "143129.900000", "143130.360000", "143130.820000", "143131.280000", "143131.740000", "143132.200000", "143132.660000", "143133.120000", "143133.580000", "143134.040000", "143134.500000", "143134.960000", "143135.420000", "143135.880000", "143136.340000", "143136.800000", "143137.260000", "143137.720000", "143138.180000", "143138.640000", "143139.100000", "143139.560000", "143140.020000", "143140.480000", "143140.940000", "143141.400000", "143141.860000", "143142.320000", "143142.780000", "143143.240000", "143143.700000", "143144.160000", "143144.620000", "143145.080000", "143145.540000", "143146.000000", "143146.460000", "143146.920000", "143147.380000", "143147.840000", "143148.300000", "143148.760000", "143149.220000", "143149.680000", "143150.140000", "143150.600000", "143151.060000", "143151.520000", "143151.980000", "143152.440000", "143152.900000", "143153.360000", "143153.820000", "143154.280000", "143154.740000", "143155.200000", "143155.660000", "143156.120000", "143156.580000", "143157.040000", "143157.500000", "143157.960000", "143158.420000", "143158.880000", "143159.340000", "143159.800000", "143200.260000", "143200.720000", "143201.180000", "143201.640000", "143202.100000", "143202.560000", "143203.020000", "143203.480000", "143203.940000", "143204.400000", "143204.860000", "143205.320000", "143205.780000", "143206.240000", "143206.700000", "143207.160000", "143207.620000", "143208.080000", "143208.540000", "143209.000000", "143209.460000", "143209.920000", "143210.380000", "143210.840000", "143211.300000", "143211.760000", "143212.220000", "143212.680000", "143213.140000", "143213.600000", "143214.060000", "143214.520000", "143214.980000", "143215.440000", "143215.900000", "143216.360000", "143216.820000", "143217.280000", "143217.740000", "143218.200000", "143218.660000", "143219.120000", "143219.580000", "143220.040000", "143220.500000", "143220.960000", "143221.420000", "143221.880000", "143222.340000", "143222.800000", "143223.260000", "143223.720000", "143224.180000", "143224.640000", "143225.100000", "143225.560000", "143226.020000", "143226.480000", "143226.940000", "143227.400000", "143227.860000", "143228.320000", "143228.780000", "143229.240000", "143229.700000", "143230.160000", "143230.620000", "143231.080000", "143231.540000", "143232.000000", "143232.460000", "143232.920000", "143233.380000", "143233.840000", "143234.300000", "143234.760000", "143235.220000", "143235.680000", "143236.140000", "143236.600000", "143237.060000", "143237.520000", "143237.980000", "143238.440000", "143238.900000", "143239.360000", "143239.820000", "143240.280000", "143240.740000", "143241.200000", "143241.660000", "143242.120000", "143242.580000", "143243.040000", "143243.500000", "143243.960000", "143244.420000", "143244.880000", "143245.340000", "143245.800000", "143246.260000", "143246.720000", "143247.180000", "143247.640000", "143248.100000", "143248.560000", "143249.020000", "143249.480000", "143249.940000", "143250.400000", "143250.860000", "143251.320000", "143251.780000", "143252.240000", "143252.700000", "143253.160000", "143253.620000", "143254.080000", "143254.540000", "143255.000000", "143255.460000", "143255.920000", "143256.380000", "143256.840000", "143257.300000", "143257.760000", "143258.220000", "143258.680000", "143259.140000", "143259.600000", "143300.060000", "143300.520000", "143300.980000", "143301.440000", "143301.900000", "143302.360000", "143302.820000", "143303.280000", "143303.740000", "143304.200000", "143304.660000", "143305.120000", "143305.580000", "143306.040000", "143306.500000", "143306.960000", "143307.420000", "143307.880000", "143308.340000", "143308.800000", "143309.260000", "143309.720000", "143310.180000", "143310.640000", "143311.100000", "143311.560000", "143312.020000", "143312.480000", "143312.940000", "143313.400000", "143313.860000", "143314.320000", "143314.780000", "143315.240000", "143315.700000", "143316.160000", "143316.620000", "143317.080000", "143317.540000", "143318.000000", "143318.460000", "143318.920000", "143319.380000", "143319.840000", "143320.300000", "143320.760000", "143321.220000", "143321.680000", "143322.140000", "143322.600000", "143323.060000", "143323.520000", "143323.980000", "143324.440000", "143324.900000", "143325.360000", "143325.820000", "143326.280000", "143326.740000", "143327.200000", "143327.660000", "143328.120000", "143328.580000", "143329.040000", "143329.500000", "143329.960000", "143330.420000", "143330.880000", "143331.340000", "143331.800000", "143332.260000", "143332.720000", "143333.180000", "143333.640000", "143334.100000", "143334.560000", "143335.020000", "143335.480000", "143335.940000", "143336.400000", "143336.860000", "143337.320000", "143337.780000", "143338.240000", "143338.700000", "143339.160000", "143339.620000", "143340.080000", "143340.540000", "143341.000000", "143341.460000", "143341.920000", "143342.380000", "143342.840000", "143343.300000", "143343.760000", "143344.220000", "143344.680000", "143345.140000", "143345.600000", "143346.060000", "143346.520000", "143346.980000", "143347.440000", "143347.900000", "143348.360000", "143348.820000", "143349.280000", "143349.740000", "143350.200000", "143350.660000", "143351.120000", "143351.580000", "143352.040000", "143352.500000", "143352.960000", "143353.420000", "143353.880000", "143354.340000", "143354.800000", "143355.260000", "143355.720000", "143356.180000", "143356.640000", "143357.100000", "143357.560000", "143358.020000", "143358.480000", "143358.940000", "143359.400000", "143359.860000"],
