{
  "AcquisitionMatrixPE": 82,
  "AcquisitionNumber": 1,
  "AcquisitionTime": "14:12:7.840000",
  "BandwidthPerPixelPhaseEncode": 24.888,
  "BaseResolution": 82,
  "BodyPartExamined": "BRAIN",
  "ConsistencyInfo": "N4_VE11E_LATEST_20181129",
  "ConversionSoftware": "dcm2niix",
  "ConversionSoftwareVersion": "v1.0.20201102",
  "DerivedVendorReportedEchoSpacing": 0.00049,
  "DeviceSerialNumber": "66112",
  "DwellTime": 2e-06,
  "EchoTime": 0.0272,
  "EchoTrainLength": 82,
  "EffectiveEchoSpacing": 0.00049,
  "FlipAngle": 44,
  "ImageComments": "Unaliased MB8/PE3",
  "ImageOrientationPatientDICOM": [0.999821, 0.0159116, 0.0101995, -0.0136119, 0.980616, -0.195468],
  "ImageType": [
    "ORIGINAL",
    "PRIMARY",
    "M",
    "MB",
    "ND",
    "NORM",
    "MOSAIC"
],
  "ImagingFrequency": 123.259,
  "InPlanePhaseEncodingDirectionDICOM": "COL",
  "InstitutionAddress": "Maynard 3,Hanover,NH,US,03755",
  "InstitutionName": "Dartmouth College - PBS",
  "InstitutionalDepartmentName": "Department",
  "MRAcquisitionType": "2D",
  "MagneticFieldStrength": 3,
  "Manufacturer": "Siemens",
  "ManufacturersModelName": "Prisma",
  "Modality": "MR",
  "MultibandAccelerationFactor": 8,
  "PartialFourier": 1,
  "PatientPosition": "HFS",
  "PercentPhaseFOV": 100,
  "PercentSampling": 100,
  "PhaseEncodingDirection": "j-",
  "PhaseEncodingSteps": 82,
  "PhaseResolution": 1,
  "PixelBandwidth": 3050,
  "ProcedureStepDescription": "Wager_Wager^1076_spacetop",
  "ProtocolName": "func_run-03_task-social_acq-ap-mb8",
  "PulseSequenceDetails": "%CustomerSeq%\\cmrr_mbep2d_bold",
  "ReceiveCoilActiveElements": "HEA;HEP",
  "ReceiveCoilName": "Head_32",
  "ReconMatrixPE": 82,
  "RepetitionTime": 0.46,
  "SAR": 0.124787,
  "ScanOptions": "FS",
  "ScanningSequence": "EP",
  "SequenceName": "epfid2d1_82",
  "SequenceVariant": "SK\\SS",
  "SeriesDescription": "func_run-03_task-social_acq-ap-mb8",
  "SeriesNumber": 16,
  "ShimSetting": [4238, -7770, -7237, 88, -140, -56, 54, 64],
  "SliceThickness": 2.7,
  "SliceTiming": [0, 0.2525, 0.0625, 0.315, 0.1275, 0.3775, 0.19, 0, 0.2525, 0.0625, 0.315, 0.1275, 0.3775, 0.19, 0, 0.2525, 0.0625, 0.315, 0.1275, 0.3775, 0.19, 0, 0.2525, 0.0625, 0.315, 0.1275, 0.3775, 0.19, 0, 0.2525, 0.0625, 0.315, 0.1275, 0.3775, 0.19, 0, 0.2525, 0.0625, 0.315, 0.1275, 0.3775, 0.19, 0, 0.2525, 0.0625, 0.315, 0.1275, 0.3775, 0.19, 0, 0.2525, 0.0625, 0.315, 0.1275, 0.3775, 0.19],
  "SoftwareVersions": "syngo MR E11",
  "SpacingBetweenSlices": 2.7,
  "StationName": "AWP66112",
  "TaskName": "social",
  "TotalReadoutTime": 0.03969,
  "TxRefAmp": 314.388,
  "WipMemBlock": "4590345b-9fa3-41c2-83a6-19bbd1477ae8||Sequence: R016 ve11e/master r/434b28f1; Aug  7 2019 18:53:46 by eja",
  "dcmmeta_affine": [
    [-2.682447671890259, -0.03651982918381691, 0.03540227934718132, 110.65784454345703],
    [-0.04268967732787132, 2.630920171737671, -0.5272938013076782, -81.31256866455078],
    [0.027364404872059822, 0.5244256854057312, 2.6477742195129395, -100.97154235839844],
    [0.0, 0.0, 0.0, 1.0]
],
  "dcmmeta_reorient_transform": [
    [0.0, -1.0, 0.0, 81.0],
    [1.0, 0.0, 0.0, 0.0],
    [0.0, 0.0, 1.0, 0.0],
    [0.0, 0.0, 0.0, 1.0]
],
  "dcmmeta_shape": [82, 82, 56, 872],
  "dcmmeta_slice_dim": 2,
  "dcmmeta_version": 0.6,
  "global": {
    "const": {
      "AccessionNumber": "A004314",
      "AcquisitionMatrix": [82, 0, 0, 82],
      "AngioFlag": "N",
      "BitsAllocated": 16,
      "BitsStored": 16,
      "BodyPartExamined": "BRAIN",
      "Columns": 656,
      "EchoNumbers": 1,
      "EchoTime": 27.2,
      "EchoTrainLength": 82,
      "FlipAngle": 44.0,
      "HighBit": 15,
      "ImageOrientationPatient": [0.99982137995408, 0.01591160597407, 0.01019945988973, -0.013611935906, 0.98061566084331, -0.1954677490271],
      "ImagePositionPatient": [-867.08102825259, -899.11797353198, 84.163524475438],
      "ImageType": [
        "ORIGINAL",
        "PRIMARY",
        "M",
        "MB",
        "ND",
        "NORM",
        "MOSAIC"
],
      "ImagedNucleus": "1H",
      "ImagingFrequency": 123.259073,
      "InPlanePhaseEncodingDirection": "COL",
      "MRAcquisitionType": "2D",
      "MagneticFieldStrength": 3.0,
      "Manufacturer": "SIEMENS",
      "ManufacturerModelName": "Prisma",
      "Modality": "MR",
      "NumberOfAverages": 1.0,
      "NumberOfPhaseEncodingSteps": 82,
      "PercentPhaseFieldOfView": 100.0,
      "PercentSampling": 100.0,
      "PerformedProcedureStepStartTime": "132711.163000",
      "PhotometricInterpretation": "MONOCHROME2",
      "PixelBandwidth": 3050.0,
      "PixelRepresentation": 0,
      "PixelSpacing": [2.6829268932343, 2.6829268932343],
      "ProtocolName": "func_run-03_task-social_acq-ap-mb8",
      "RepetitionTime": 460.0,
      "Rows": 656,
      "SAR": 0.12478742129146,
      "SamplesPerPixel": 1,
      "ScanOptions": "FS",
      "ScanningSequence": "EP",
      "SequenceName": "epfid2d1_82",
      "SequenceVariant": [
        "SK",
        "SS"
],
      "SeriesDescription": "func_run-03_task-social_acq-ap-mb8",
      "SeriesNumber": 16,
      "SeriesTime": "141220.593000",
      "SliceLocation": -81.687660393416,
      "SliceThickness": 2.7000000476837,
      "SmallestImagePixelValue": 0,
      "SoftwareVersions": "syngo MR E11",
      "SpacingBetweenSlices": 2.7000000186313,
      "SpecificCharacterSet": "ISO_IR 100",
      "StudyID": "1",
      "StudyTime": "132710.935000",
      "TransmitCoilName": "Body",
      "VariableFlipAngleFlag": "N",
      "WindowCenterWidthExplanation": "Algo1"
    },
    "slices": {}
  },
  "time": {
    "samples": {
      "AcquisitionNumber": [1, 2, 3, 4, 5, 6, 7, 8, 9, 10, 11, 12, 13, 14, 15, 16, 17, 18, 19, 20, 21, 22, 23, 24, 25, 26, 27, 28, 29, 30, 31, 32, 33, 34, 35, 36, 37, 38, 39, 40, 41, 42, 43, 44, 45, 46, 47, 48, 49, 50, 51, 52, 53, 54, 55, 56, 57, 58, 59, 60, 61, 62, 63, 64, 65, 66, 67, 68, 69, 70, 71, 72, 73, 74, 75, 76, 77, 78, 79, 80, 81, 82, 83, 84, 85, 86, 87, 88, 89, 90, 91, 92, 93, 94, 95, 96, 97, 98, 99, 100, 101, 102, 103, 104, 105, 106, 107, 108, 109, 110, 111, 112, 113, 114, 115, 116, 117, 118, 119, 120, 121, 122, 123, 124, 125, 126, 127, 128, 129, 130, 131, 132, 133, 134, 135, 136, 137, 138, 139, 140, 141, 142, 143, 144, 145, 146, 147, 148, 149, 150, 151, 152, 153, 154, 155, 156, 157, 158, 159, 160, 161, 162, 163, 164, 165, 166, 167, 168, 169, 170, 171, 172, 173, 174, 175, 176, 177, 178, 179, 180, 181, 182, 183, 184, 185, 186, 187, 188, 189, 190, 191, 192, 193, 194, 195, 196, 197, 198, 199, 200, 201, 202, 203, 204, 205, 206, 207, 208, 209, 210, 211, 212, 213, 214, 215, 216, 217, 218, 219, 220, 221, 222, 223, 224, 225, 226, 227, 228, 229, 230, 231, 232, 233, 234, 235, 236, 237, 238, 239, 240, 241, 242, 243, 244, 245, 246, 247, 248, 249, 250, 251, 252, 253, 254, 255, 256, 257, 258, 259, 260, 261, 262, 263, 264, 265, 266, 267, 268, 269, 270, 271, 272, 273, 274, 275, 276, 277, 278, 279, 280, 281, 282, 283, 284, 285, 286, 287, 288, 289, 290, 291, 292, 293, 294, 295, 296, 297, 298, 299, 300, 301, 302, 303, 304, 305, 306, 307, 308, 309, 310, 311, 312, 313, 314, 315, 316, 317, 318, 319, 320, 321, 322, 323, 324, 325, 326, 327, 328, 329, 330, 331, 332, 333, 334, 335, 336, 337, 338, 339, 340, 341, 342, 343, 344, 345, 346, 347, 348, 349, 350, 351, 352, 353, 354, 355, 356, 357, 358, 359, 360, 361, 362, 363, 364, 365, 366, 367, 368, 369, 370, 371, 372, 373, 374, 375, 376, 377, 378, 379, 380, 381, 382, 383, 384, 385, 386, 387, 388, 389, 390, 391, 392, 393, 394, 395, 396, 397, 398, 399, 400, 401, 402, 403, 404, 405, 406, 407, 408, 409, 410, 411, 412, 413, 414, 415, 416, 417, 418, 419, 420, 421, 422, 423, 424, 425, 426, 427, 428, 429, 430, 431, 432, 433, 434, 435, 436, 437, 438, 439, 440, 441, 442, 443, 444, 445, 446, 447, 448, 449, 450, 451, 452, 453, 454, 455, 456, 457, 458, 459, 460, 461, 462, 463, 464, 465, 466, 467, 468, 469, 470, 471, 472, 473, 474, 475, 476, 477, 478, 479, 480, 481, 482, 483, 484, 485, 486, 487, 488, 489, 490, 491, 492, 493, 494, 495, 496, 497, 498, 499, 500, 501, 502, 503, 504, 505, 506, 507, 508, 509, 510, 511, 512, 513, 514, 515, 516, 517, 518, 519, 520, 521, 522, 523, 524, 525, 526, 527, 528, 529, 530, 531, 532, 533, 534, 535, 536, 537, 538, 539, 540, 541, 542, 543, 544, 545, 546, 547, 548, 549, 550, 551, 552, 553, 554, 555, 556, 557, 558, 559, 560, 561, 562, 563, 564, 565, 566, 567, 568, 569, 570, 571, 572, 573, 574, 575, 576, 577, 578, 579, 580, 581, 582, 583, 584, 585, 586, 587, 588, 589, 590, 591, 592, 593, 594, 595, 596, 597, 598, 599, 600, 601, 602, 603, 604, 605, 606, 607, 608, 609, 610, 611, 612, 613, 614, 615, 616, 617, 618, 619, 620, 621, 622, 623, 624, 625, 626, 627, 628, 629, 630, 631, 632, 633, 634, 635, 636, 637, 638, 639, 640, 641, 642, 643, 644, 645, 646, 647, 648, 649, 650, 651, 652, 653, 654, 655, 656, 657, 658, 659, 660, 661, 662, 663, 664, 665, 666, 667, 668, 669, 670, 671, 672, 673, 674, 675, 676, 677, 678, 679, 680, 681, 682, 683, 684, 685, 686, 687, 688, 689, 690, 691, 692, 693, 694, 695, 696, 697, 698, 699, 700, 701, 702, 703, 704, 705, 706, 707, 708, 709, 710, 711, 712, 713, 714, 715, 716, 717, 718, 719, 720, 721, 722, 723, 724, 725, 726, 727, 728, 729, 730, 731, 732, 733, 734, 735, 736, 737, 738, 739, 740, 741, 742, 743, 744, 745, 746, 747, 748, 749, 750, 751, 752, 753, 754, 755, 756, 757, 758, 759, 760, 761, 762, 763, 764, 765, 766, 767, 768, 769, 770, 771, 772, 773, 774, 775, 776, 777, 778, 779, 780, 781, 782, 783, 784, 785, 786, 787, 788, 789, 790, 791, 792, 793, 794, 795, 796, 797, 798, 799, 800, 801, 802, 803, 804, 805, 806, 807, 808, 809, 810, 811, 812, 813, 814, 815, 816, 817, 818, 819, 820, 821, 822, 823, 824, 825, 826, 827, 828, 829, 830, 831, 832, 833, 834, 835, 836, 837, 838, 839, 840, 841, 842, 843, 844, 845, 846, 847, 848, 849, 850, 851, 852, 853, 854, 855, 856, 857, 858, 859, 860, 861, 862, 863, 864, 865, 866, 867, 868, 869, 870, 871, 872],
      "AcquisitionTime": ["141207.840000", "141208.300000", "141208.760000", "141209.220000", "141209.680000", "141210.140000", "141210.600000", "141211.060000", "141211.520000", "141211.980000", "141212.440000", "141212.900000", "141213.360000", "141213.820000", "141214.280000", "141214.740000", "141215.200000", "141215.660000", "141216.120000", "141216.580000", "141217.040000", "141217.500000", "141217.960000", "141218.420000", "141218.880000", "141219.340000", "141219.800000", "141220.260000", "141220.720000", "141221.180000", "141221.640000", "141222.100000", "141222.560000", "141223.020000", "141223.480000", "141223.940000", "141224.400000", "141224.860000", "141225.320000", "141225.780000", "141226.240000", "141226.700000", "141227.160000", "141227.620000", "141228.080000", "141228.540000", "141229.000000", "141229.460000", "141229.920000", "141230.380000", "141230.840000", "141231.300000", "141231.760000", "141232.220000", "141232.680000", "141233.140000", "141233.600000", "141234.060000", "141234.520000", "141234.980000", "141235.440000", "141235.900000", "141236.360000", "141236.820000", "141237.280000", "141237.740000", "141238.200000", "141238.660000", "141239.120000", "141239.580000", "141240.040000", "141240.500000", "141240.960000", "141241.420000", "141241.880000", "141242.340000", "141242.800000", "141243.260000", "141243.720000", "141244.180000", "141244.640000", "141245.100000", "141245.560000", "141246.020000", "141246.480000", "141246.940000", "141247.400000", "141247.860000", "141248.320000", "141248.780000", "141249.240000", "141249.700000", "141250.160000", "141250.620000", "141251.080000", "141251.540000", "141252.000000", "141252.460000", "141252.920000", "141253.380000", "141253.840000", "141254.300000", "141254.760000", "141255.220000", "141255.680000", "141256.140000", "141256.600000", "141257.060000", "141257.520000", "141257.980000", "141258.440000", "141258.900000", "141259.360000", "141259.820000", "141300.280000", "141300.740000", "141301.200000", "141301.660000", "141302.120000", "141302.580000", "141303.040000", "141303.500000", "141303.960000", "141304.420000", "141304.880000", "141305.340000", "141305.800000", "141306.260000", "141306.720000", "141307.180000", "141307.640000", "141308.100000", "141308.560000", "141309.020000", "141309.480000", "141309.940000", "141310.400000", "141310.860000", "141311.320000", "141311.780000", "141312.240000", "141312.700000", "141313.160000", "141313.620000", "141314.080000", "141314.540000", "141315.000000", "141315.460000", "141315.920000", "141316.380000", "141316.840000", "141317.300000", "141317.760000", "141318.220000", "141318.680000", "141319.140000", "141319.600000", "141320.060000", "141320.520000", "141320.980000", "141321.440000", "141321.900000", "141322.360000", "141322.820000", "141323.280000", "141323.740000", "141324.200000", "141324.660000", "141325.120000", "141325.580000", "141326.040000", "141326.500000", "141326.960000", "141327.420000", "141327.880000", "141328.340000", "141328.800000", "141329.260000", "141329.720000", "141330.180000", "141330.640000", "141331.100000", "141331.560000", "141332.020000", "141332.480000", "141332.940000", "141333.400000", "141333.860000", "141334.320000", "141334.780000", "141335.240000", "141335.700000", "141336.160000", "141336.620000", "141337.080000", "141337.540000", "141338.000000", "141338.460000", "141338.920000", "141339.380000", "141339.840000", "141340.300000", "141340.760000", "141341.220000", "141341.680000", "141342.140000", "141342.600000", "141343.060000", "141343.520000", "141343.980000", "141344.440000", "141344.900000", "141345.360000", "141345.820000", "141346.280000", "141346.740000", "141347.200000", "141347.660000", "141348.120000", "141348.580000", "141349.040000", "141349.500000", "141349.960000", "141350.420000", "141350.880000", "141351.340000", "141351.800000", "141352.260000", "141352.720000", "141353.180000", "141353.640000", "141354.100000", "141354.560000", "141355.020000", "141355.480000", "141355.940000", "141356.400000", "141356.860000", "141357.320000", "141357.780000", "141358.240000", "141358.700000", "141359.160000", "141359.620000", "141400.080000", "141400.540000", "141401.000000", "141401.460000", "141401.920000", "141402.380000", "141402.840000", "141403.300000", "141403.760000", "141404.220000", "141404.680000", "141405.140000", "141405.600000", "141406.060000", "141406.520000", "141406.980000", "141407.440000", "141407.900000", "141408.360000", "141408.820000", "141409.280000", "141409.740000", "141410.200000", "141410.660000", "141411.120000", "141411.580000", "141412.040000", "141412.500000", "141412.960000", "141413.420000", "141413.880000", "141414.340000", "141414.800000", "141415.260000", "141415.720000", "141416.180000", "141416.640000", "141417.100000", "141417.560000", "141418.020000", "141418.480000", "141418.940000", "141419.400000", "141419.860000", "141420.320000", "141420.780000", "141421.240000", "141421.700000", "141422.160000", "141422.620000", "141423.080000", "141423.540000", "141424.000000", "141424.460000", "141424.920000", "141425.380000", "141425.840000", "141426.300000", "141426.760000", "141427.220000", "141427.680000", "141428.140000", "141428.600000", "141429.060000", "141429.520000", "141429.980000", "141430.440000", "141430.900000", "141431.360000", "141431.820000", "141432.280000", "141432.740000", "141433.200000", "141433.660000", "141434.120000", "141434.580000", "141435.040000", "141435.500000", "141435.960000", "141436.420000", "141436.880000", "141437.340000", "141437.800000", "141438.260000", "141438.720000", "141439.180000", "141439.640000", "141440.100000", "141440.560000", "141441.020000", "141441.480000", "141441.940000", "141442.400000", "141442.860000", "141443.320000", "141443.780000", "141444.240000", "141444.700000", "141445.160000", "141445.620000", "141446.080000", "141446.540000", "141447.000000", "141447.460000", "141447.920000", "141448.380000", "141448.840000", "141449.300000", "141449.760000", "141450.220000", "141450.680000", "141451.140000", "141451.600000", "141452.060000", "141452.520000", "141452.980000", "141453.440000", "141453.900000", "141454.360000", "141454.820000", "141455.280000", "141455.740000", "141456.200000", "141456.660000", "141457.120000", "141457.580000", "141458.040000", "141458.500000", "141458.960000", "141459.420000", "141459.880000", "141500.340000", "141500.800000", "141501.260000", "141501.720000", "141502.180000", "141502.640000", "141503.100000", "141503.560000", "141504.020000", "141504.480000", "141504.940000", "141505.400000", "141505.860000", "141506.320000", "141506.780000", "141507.240000", "141507.700000", "141508.160000", "141508.620000", "141509.080000", "141509.540000", "141510.000000", "141510.460000", "141510.920000", "141511.380000", "141511.840000", "141512.300000", "141512.760000", "141513.220000", "141513.680000", "141514.140000", "141514.600000", "141515.060000", "141515.520000", "141515.980000", "141516.440000", "141516.900000", "141517.360000", "141517.820000", "141518.280000", "141518.740000", "141519.200000", "141519.660000", "141520.120000", "141520.580000", "141521.040000", "141521.500000", "141521.960000", "141522.420000", "141522.880000", "141523.340000", "141523.800000", "141524.260000", "141524.720000", "141525.180000", "141525.640000", "141526.100000", "141526.560000", "141527.020000", "141527.480000", "141527.940000", "141528.400000", "141528.860000", "141529.320000", "141529.780000", "141530.240000", "141530.700000", "141531.160000", "141531.620000", "141532.080000", "141532.540000", "141533.000000", "141533.460000", "141533.920000", "141534.380000", "141534.840000", "141535.300000", "141535.760000", "141536.220000", "141536.680000", "141537.140000", "141537.600000", "141538.060000", "141538.520000", "141538.980000", "141539.440000", "141539.900000", "141540.360000", "141540.820000", "141541.280000", "141541.740000", "141542.200000", "141542.660000", "141543.120000", "141543.580000", "141544.040000", "141544.500000", "141544.960000", "141545.420000", "141545.880000", "141546.340000", "141546.800000", "141547.260000", "141547.720000", "141548.180000", "141548.640000", "141549.100000", "141549.560000", "141550.020000", "141550.480000", "141550.940000", "141551.400000", "141551.860000", "141552.320000", "141552.780000", "141553.240000", "141553.700000", "141554.160000", "141554.620000", "141555.080000", "141555.540000", "141556.000000", "141556.460000", "141556.920000", "141557.380000", "141557.840000", "141558.300000", "141558.760000", "141559.220000", "141559.680000", "141600.140000", "141600.600000", "141601.060000", "141601.520000", "141601.980000", "141602.440000", "141602.900000", "141603.360000", "141603.820000", "141604.280000", "141604.740000", "141605.200000", "141605.660000", "141606.120000", "141606.580000", "141607.040000", "141607.500000", "141607.960000", "141608.420000", "141608.880000", "141609.340000", "141609.800000", "141610.260000", "141610.720000", "141611.180000", "141611.640000", "141612.100000", "141612.560000", "141613.020000", "141613.480000", "141613.940000", "141614.400000", "141614.860000", "141615.320000", "141615.780000", "141616.240000", "141616.700000", "141617.160000", "141617.620000", "141618.080000", "141618.540000", "141619.000000", "141619.460000", "141619.920000", "141620.380000", "141620.840000", "141621.300000", "141621.760000", "141622.220000", "141622.680000", "141623.140000", "141623.600000", "141624.060000", "141624.520000", "141624.980000", "141625.440000", "141625.900000", "141626.360000", "141626.820000", "141627.280000", "141627.740000", "141628.200000", "141628.660000", "141629.120000", "141629.580000", "141630.040000", "141630.500000", "141630.960000", "141631.420000", "141631.880000", "141632.340000", "141632.800000", "141633.260000", "141633.720000", "141634.180000", "141634.640000", "141635.100000", "141635.560000", "141636.020000", "141636.480000", "141636.940000", "141637.400000", "141637.860000", "141638.320000", "141638.780000", "141639.240000", "141639.700000", "141640.160000", "141640.620000", "141641.080000", "141641.540000", "141642.000000", "141642.460000", "141642.920000", "141643.380000", "141643.840000", "141644.300000", "141644.760000", "141645.220000", "141645.680000", "141646.140000", "141646.600000", "141647.060000", "141647.520000", "141647.980000", "141648.440000", "141648.900000", "141649.360000", "141649.820000", "141650.280000", "141650.740000", "141651.200000", "141651.660000", "141652.120000", "141652.580000", "141653.040000", "141653.500000", "141653.960000", "141654.420000", "141654.880000", "141655.340000", "141655.800000", "141656.260000", "141656.720000", "141657.180000", "141657.640000", "141658.100000", "141658.560000", "141659.020000", "141659.480000", "141659.940000", "141700.400000", "141700.860000", "141701.320000", "141701.780000", "141702.240000", "141702.700000", "141703.160000", "141703.620000", "141704.080000", "141704.540000", "141705.000000", "141705.460000", "141705.920000", "141706.380000", "141706.840000", "141707.300000", "141707.760000", "141708.220000", "141708.680000", "141709.140000", "141709.600000", "141710.060000", "141710.520000", "141710.980000", "141711.440000", "141711.900000", "141712.360000", "141712.820000", "141713.280000", "141713.740000", "141714.200000", "141714.660000", "141715.120000", "141715.580000", "141716.040000", "141716.500000", "141716.960000", "141717.420000", "141717.880000", "141718.340000", "141718.800000", "141719.260000", "141719.720000", "141720.180000", "141720.640000", "141721.100000", "141721.560000", "141722.020000", "141722.480000", "141722.940000", "141723.400000", "141723.860000", "141724.320000", "141724.780000", "141725.240000", "141725.700000", "141726.160000", "141726.620000", "141727.080000", "141727.540000", "141728.000000", "141728.460000", "141728.920000", "141729.380000", "141729.840000", "141730.300000", "141730.760000", "141731.220000", "141731.680000", "141732.140000", "141732.600000", "141733.060000", "141733.520000", "141733.980000", "141734.440000", "141734.900000", "141735.360000", "141735.820000", "141736.280000", "141736.740000", "141737.200000", "141737.660000", "141738.120000", "141738.580000", "141739.040000", "141739.500000", "141739.960000", "141740.420000", "141740.880000", "141741.340000", "141741.800000", "141742.260000", "141742.720000", "141743.180000", "141743.640000", "141744.100000", "141744.560000", "141745.020000", "141745.480000", "141745.940000", "141746.400000", "141746.860000", "141747.320000", "141747.780000", "141748.240000", "141748.700000", "141749.160000", "141749.620000", "141750.080000", "141750.540000", "141751.000000", "141751.460000", "141751.920000", "141752.380000", "141752.840000", "141753.300000", "141753.760000", "141754.220000", "141754.680000", "141755.140000", "141755.600000", "141756.060000", "141756.520000", "141756.980000", "141757.440000", "141757.900000", "141758.360000", "141758.820000", "141759.280000", "141759.740000", "141800.200000", "141800.660000", "141801.120000", "141801.580000", "141802.040000", "141802.500000", "141802.960000", "141803.420000", "141803.880000", "141804.340000", "141804.800000", "141805.260000", "141805.720000", "141806.180000", "141806.640000", "141807.100000", "141807.560000", "141808.020000", "141808.480000", "141808.940000", "141809.400000", "141809.860000", "141810.320000", "141810.780000", "141811.240000", "141811.700000", "141812.160000", "141812.620000", "141813.080000", "141813.540000", "141814.000000", "141814.460000", "141814.920000", "141815.380000", "141815.840000", "141816.300000", "141816.760000", "141817.220000", "141817.680000", "141818.140000", "141818.600000", "141819.060000", "141819.520000", "141819.980000", "141820.440000", "141820.900000", "141821.360000", "141821.820000", "141822.280000", "141822.740000", "141823.200000", "141823.660000", "141824.120000", "141824.580000", "141825.040000", "141825.500000", "141825.960000", "141826.420000", "141826.880000", "141827.340000", "141827.800000", "141828.260000", "141828.720000", "141829.180000", "141829.640000", "141830.100000", "141830.560000", "141831.020000", "141831.480000", "141831.940000", "141832.400000", "141832.860000", "141833.320000", "141833.780000", "141834.240000", "141834.700000", "141835.160000", "141835.620000", "141836.080000", "141836.540000", "141837.000000", "141837.460000", "141837.920000", "141838.380000", "141838.840000", "141839.300000", "141839.760000", "141840.220000", "141840.680000", "141841.140000", "141841.600000", "141842.060000", "141842.520000", "141842.980000", "141843.440000", "141843.900000", "141844.360000", "141844.820000", "141845.280000", "141845.740000", "141846.200000", "141846.660000", "141847.120000", "141847.580000", "141848.040000", "141848.500000"],
