{
  "AcquisitionMatrixPE": 82,
  "AcquisitionNumber": 1,
  "AcquisitionTime": "14:34:29.382500",
  "BandwidthPerPixelPhaseEncode": 24.888,
  "BaseResolution": 82,
  "BodyPartExamined": "BRAIN",
  "ConsistencyInfo": "N4_VE11E_LATEST_20181129",
  "ConversionSoftware": "dcm2niix",
  "ConversionSoftwareVersion": "v1.0.20201102",
  "DerivedVendorReportedEchoSpacing": 0.00049,
  "DeviceSerialNumber": "66112",
  "DwellTime": 2e-06,
  "EchoTime": 0.0272,
  "EchoTrainLength": 82,
  "EffectiveEchoSpacing": 0.00049,
  "FlipAngle": 44,
  "ImageComments": "Unaliased MB8/PE3",
  "ImageOrientationPatientDICOM": [0.999821, 0.0159116, 0.0101995, -0.0136119, 0.980616, -0.195468],
  "ImageType": [
    "ORIGINAL",
    "PRIMARY",
    "M",
    "MB",
    "ND",
    "NORM",
    "MOSAIC"
],
  "ImagingFrequency": 123.259,
  "InPlanePhaseEncodingDirectionDICOM": "COL",
  "InstitutionAddress": "Maynard 3,Hanover,NH,US,03755",
  "InstitutionName": "Dartmouth College - PBS",
  "InstitutionalDepartmentName": "Department",
  "MRAcquisitionType": "2D",
  "MagneticFieldStrength": 3,
  "Manufacturer": "Siemens",
  "ManufacturersModelName": "Prisma",
  "Modality": "MR",
  "MultibandAccelerationFactor": 8,
  "PartialFourier": 1,
  "PatientPosition": "HFS",
  "PercentPhaseFOV": 100,
  "PercentSampling": 100,
  "PhaseEncodingDirection": "j-",
  "PhaseEncodingSteps": 82,
  "PhaseResolution": 1,
  "PixelBandwidth": 3050,
  "ProcedureStepDescription": "Wager_Wager^1076_spacetop",
  "ProtocolName": "func_run-06_task-social_acq-ap-mb8",
  "PulseSequenceDetails": "%CustomerSeq%\\cmrr_mbep2d_bold",
  "ReceiveCoilActiveElements": "HEA;HEP",
  "ReceiveCoilName": "Head_32",
  "ReconMatrixPE": 82,
  "RepetitionTime": 0.46,
  "SAR": 0.124787,
  "ScanOptions": "FS",
  "ScanningSequence": "EP",
  "SequenceName": "epfid2d1_82",
  "SequenceVariant": "SK\\SS",
  "SeriesDescription": "func_run-06_task-social_acq-ap-mb8",
  "SeriesNumber": 22,
  "ShimSetting": [4238, -7770, -7237, 88, -140, -56, 54, 64],
  "SliceThickness": 2.7,
  "SliceTiming": [0, 0.25, 0.0625, 0.3125, 0.125, 0.3775, 0.1875, 0, 0.25, 0.0625, 0.3125, 0.125, 0.3775, 0.1875, 0, 0.25, 0.0625, 0.3125, 0.125, 0.3775, 0.1875, 0, 0.25, 0.0625, 0.3125, 0.125, 0.3775, 0.1875, 0, 0.25, 0.0625, 0.3125, 0.125, 0.3775, 0.1875, 0, 0.25, 0.0625, 0.3125, 0.125, 0.3775, 0.1875, 0, 0.25, 0.0625, 0.3125, 0.125, 0.3775, 0.1875, 0, 0.25, 0.0625, 0.3125, 0.125, 0.3775, 0.1875],
  "SoftwareVersions": "syngo MR E11",
  "SpacingBetweenSlices": 2.7,
  "StationName": "AWP66112",
  "TaskName": "social",
  "TotalReadoutTime": 0.03969,
  "TxRefAmp": 314.388,
  "WipMemBlock": "c686ba71-d283-4108-ade8-a4c6f64e7b4b||Sequence: R016 ve11e/master r/434b28f1; Aug  7 2019 18:53:46 by eja",
  "dcmmeta_affine": [
    [-2.682447671890259, -0.03651982918381691, 0.03540227934718132, 110.65784454345703],
    [-0.04268967732787132, 2.630920171737671, -0.5272938013076782, -81.31256866455078],
    [0.027364404872059822, 0.5244256854057312, 2.6477742195129395, -100.97154235839844],
    [0.0, 0.0, 0.0, 1.0]
],
  "dcmmeta_reorient_transform": [
    [0.0, -1.0, 0.0, 81.0],
    [1.0, 0.0, 0.0, 0.0],
    [0.0, 0.0, 1.0, 0.0],
    [0.0, 0.0, 0.0, 1.0]
],
  "dcmmeta_shape": [82, 82, 56, 872],
  "dcmmeta_slice_dim": 2,
  "dcmmeta_version": 0.6,
  "global": {
    "const": {
      "AccessionNumber": "A004314",
      "AcquisitionMatrix": [82, 0, 0, 82],
      "AngioFlag": "N",
      "BitsAllocated": 16,
      "BitsStored": 16,
      "BodyPartExamined": "BRAIN",
      "Columns": 656,
      "EchoNumbers": 1,
      "EchoTime": 27.2,
      "EchoTrainLength": 82,
      "FlipAngle": 44.0,
      "HighBit": 15,
      "ImageOrientationPatient": [0.99982137995408, 0.01591160597407, 0.01019945988973, -0.013611935906, 0.98061566084331, -0.1954677490271],
      "ImagePositionPatient": [-867.08102825259, -899.11797353198, 84.163524475438],
      "ImageType": [
        "ORIGINAL",
        "PRIMARY",
        "M",
        "MB",
        "ND",
        "NORM",
        "MOSAIC"
],
      "ImagedNucleus": "1H",
      "ImagingFrequency": 123.259083,
      "InPlanePhaseEncodingDirection": "COL",
      "MRAcquisitionType": "2D",
      "MagneticFieldStrength": 3.0,
      "Manufacturer": "SIEMENS",
      "ManufacturerModelName": "Prisma",
      "Modality": "MR",
      "NumberOfAverages": 1.0,
      "NumberOfPhaseEncodingSteps": 82,
      "PercentPhaseFieldOfView": 100.0,
      "PercentSampling": 100.0,
      "PerformedProcedureStepStartTime": "132711.163000",
      "PhotometricInterpretation": "MONOCHROME2",
      "PixelBandwidth": 3050.0,
      "PixelRepresentation": 0,
      "PixelSpacing": [2.6829268932343, 2.6829268932343],
      "ProtocolName": "func_run-06_task-social_acq-ap-mb8",
      "RepetitionTime": 460.0,
      "Rows": 656,
      "SAR": 0.12478742129146,
      "SamplesPerPixel": 1,
      "ScanOptions": "FS",
      "ScanningSequence": "EP",
      "SequenceName": "epfid2d1_82",
      "SequenceVariant": [
        "SK",
        "SS"
],
      "SeriesDescription": "func_run-06_task-social_acq-ap-mb8",
      "SeriesNumber": 22,
      "SeriesTime": "143440.603000",
      "SliceLocation": -81.687660393416,
      "SliceThickness": 2.7000000476837,
      "SmallestImagePixelValue": 0,
      "SoftwareVersions": "syngo MR E11",
      "SpacingBetweenSlices": 2.7000000186313,
      "SpecificCharacterSet": "ISO_IR 100",
      "StudyID": "1",
      "StudyTime": "132710.935000",
      "TransmitCoilName": "Body",
      "VariableFlipAngleFlag": "N",
      "WindowCenterWidthExplanation": "Algo1"
    },
    "slices": {}
  },
  "time": {
    "samples": {
      "AcquisitionNumber": [1, 2, 3, 4, 5, 6, 7, 8, 9, 10, 11, 12, 13, 14, 15, 16, 17, 18, 19, 20, 21, 22, 23, 24, 25, 26, 27, 28, 29, 30, 31, 32, 33, 34, 35, 36, 37, 38, 39, 40, 41, 42, 43, 44, 45, 46, 47, 48, 49, 50, 51, 52, 53, 54, 55, 56, 57, 58, 59, 60, 61, 62, 63, 64, 65, 66, 67, 68, 69, 70, 71, 72, 73, 74, 75, 76, 77, 78, 79, 80, 81, 82, 83, 84, 85, 86, 87, 88, 89, 90, 91, 92, 93, 94, 95, 96, 97, 98, 99, 100, 101, 102, 103, 104, 105, 106, 107, 108, 109, 110, 111, 112, 113, 114, 115, 116, 117, 118, 119, 120, 121, 122, 123, 124, 125, 126, 127, 128, 129, 130, 131, 132, 133, 134, 135, 136, 137, 138, 139, 140, 141, 142, 143, 144, 145, 146, 147, 148, 149, 150, 151, 152, 153, 154, 155, 156, 157, 158, 159, 160, 161, 162, 163, 164, 165, 166, 167, 168, 169, 170, 171, 172, 173, 174, 175, 176, 177, 178, 179, 180, 181, 182, 183, 184, 185, 186, 187, 188, 189, 190, 191, 192, 193, 194, 195, 196, 197, 198, 199, 200, 201, 202, 203, 204, 205, 206, 207, 208, 209, 210, 211, 212, 213, 214, 215, 216, 217, 218, 219, 220, 221, 222, 223, 224, 225, 226, 227, 228, 229, 230, 231, 232, 233, 234, 235, 236, 237, 238, 239, 240, 241, 242, 243, 244, 245, 246, 247, 248, 249, 250, 251, 252, 253, 254, 255, 256, 257, 258, 259, 260, 261, 262, 263, 264, 265, 266, 267, 268, 269, 270, 271, 272, 273, 274, 275, 276, 277, 278, 279, 280, 281, 282, 283, 284, 285, 286, 287, 288, 289, 290, 291, 292, 293, 294, 295, 296, 297, 298, 299, 300, 301, 302, 303, 304, 305, 306, 307, 308, 309, 310, 311, 312, 313, 314, 315, 316, 317, 318, 319, 320, 321, 322, 323, 324, 325, 326, 327, 328, 329, 330, 331, 332, 333, 334, 335, 336, 337, 338, 339, 340, 341, 342, 343, 344, 345, 346, 347, 348, 349, 350, 351, 352, 353, 354, 355, 356, 357, 358, 359, 360, 361, 362, 363, 364, 365, 366, 367, 368, 369, 370, 371, 372, 373, 374, 375, 376, 377, 378, 379, 380, 381, 382, 383, 384, 385, 386, 387, 388, 389, 390, 391, 392, 393, 394, 395, 396, 397, 398, 399, 400, 401, 402, 403, 404, 405, 406, 407, 408, 409, 410, 411, 412, 413, 414, 415, 416, 417, 418, 419, 420, 421, 422, 423, 424, 425, 426, 427, 428, 429, 430, 431, 432, 433, 434, 435, 436, 437, 438, 439, 440, 441, 442, 443, 444, 445, 446, 447, 448, 449, 450, 451, 452, 453, 454, 455, 456, 457, 458, 459, 460, 461, 462, 463, 464, 465, 466, 467, 468, 469, 470, 471, 472, 473, 474, 475, 476, 477, 478, 479, 480, 481, 482, 483, 484, 485, 486, 487, 488, 489, 490, 491, 492, 493, 494, 495, 496, 497, 498, 499, 500, 501, 502, 503, 504, 505, 506, 507, 508, 509, 510, 511, 512, 513, 514, 515, 516, 517, 518, 519, 520, 521, 522, 523, 524, 525, 526, 527, 528, 529, 530, 531, 532, 533, 534, 535, 536, 537, 538, 539, 540, 541, 542, 543, 544, 545, 546, 547, 548, 549, 550, 551, 552, 553, 554, 555, 556, 557, 558, 559, 560, 561, 562, 563, 564, 565, 566, 567, 568, 569, 570, 571, 572, 573, 574, 575, 576, 577, 578, 579, 580, 581, 582, 583, 584, 585, 586, 587, 588, 589, 590, 591, 592, 593, 594, 595, 596, 597, 598, 599, 600, 601, 602, 603, 604, 605, 606, 607, 608, 609, 610, 611, 612, 613, 614, 615, 616, 617, 618, 619, 620, 621, 622, 623, 624, 625, 626, 627, 628, 629, 630, 631, 632, 633, 634, 635, 636, 637, 638, 639, 640, 641, 642, 643, 644, 645, 646, 647, 648, 649, 650, 651, 652, 653, 654, 655, 656, 657, 658, 659, 660, 661, 662, 663, 664, 665, 666, 667, 668, 669, 670, 671, 672, 673, 674, 675, 676, 677, 678, 679, 680, 681, 682, 683, 684, 685, 686, 687, 688, 689, 690, 691, 692, 693, 694, 695, 696, 697, 698, 699, 700, 701, 702, 703, 704, 705, 706, 707, 708, 709, 710, 711, 712, 713, 714, 715, 716, 717, 718, 719, 720, 721, 722, 723, 724, 725, 726, 727, 728, 729, 730, 731, 732, 733, 734, 735, 736, 737, 738, 739, 740, 741, 742, 743, 744, 745, 746, 747, 748, 749, 750, 751, 752, 753, 754, 755, 756, 757, 758, 759, 760, 761, 762, 763, 764, 765, 766, 767, 768, 769, 770, 771, 772, 773, 774, 775, 776, 777, 778, 779, 780, 781, 782, 783, 784, 785, 786, 787, 788, 789, 790, 791, 792, 793, 794, 795, 796, 797, 798, 799, 800, 801, 802, 803, 804, 805, 806, 807, 808, 809, 810, 811, 812, 813, 814, 815, 816, 817, 818, 819, 820, 821, 822, 823, 824, 825, 826, 827, 828, 829, 830, 831, 832, 833, 834, 835, 836, 837, 838, 839, 840, 841, 842, 843, 844, 845, 846, 847, 848, 849, 850, 851, 852, 853, 854, 855, 856, 857, 858, 859, 860, 861, 862, 863, 864, 865, 866, 867, 868, 869, 870, 871, 872],
      "AcquisitionTime": ["143429.382500", "143429.842500", "143430.302500", "143430.762500", "143431.222500", "143431.682500", "143432.142500", "143432.602500", "143433.062500", "143433.522500", "143433.982500", "143434.442500", "143434.902500", "143435.362500", "143435.822500", "143436.282500", "143436.742500", "143437.202500", "143437.662500", "143438.122500", "143438.582500", "143439.042500", "143439.502500", "143439.962500", "143440.422500", "143440.882500", "143441.342500", "143441.802500", "143442.262500", "143442.722500", "143443.182500", "143443.642500", "143444.102500", "143444.562500", "143445.022500", "143445.482500", "143445.942500", "143446.402500", "143446.862500", "143447.322500", "143447.782500", "143448.242500", "143448.702500", "143449.162500", "143449.622500", "143450.082500", "143450.542500", "143451.002500", "143451.462500", "143451.922500", "143452.382500", "143452.842500", "143453.302500", "143453.762500", "143454.222500", "143454.682500", "143455.142500", "143455.602500", "143456.062500", "143456.522500", "143456.982500", "143457.442500", "143457.902500", "143458.362500", "143458.822500", "143459.282500", "143459.742500", "143500.202500", "143500.662500", "143501.122500", "143501.582500", "143502.042500", "143502.502500", "143502.962500", "143503.422500", "143503.882500", "143504.342500", "143504.802500", "143505.262500", "143505.722500", "143506.182500", "143506.642500", "143507.102500", "143507.562500", "143508.022500", "143508.482500", "143508.942500", "143509.402500", "143509.862500", "143510.322500", "143510.782500", "143511.242500", "143511.702500", "143512.162500", "143512.622500", "143513.082500", "143513.542500", "143514.002500", "143514.462500", "143514.922500", "143515.382500", "143515.842500", "143516.302500", "143516.762500", "143517.222500", "143517.682500", "143518.142500", "143518.602500", "143519.062500", "143519.522500", "143519.982500", "143520.442500", "143520.902500", "143521.362500", "143521.822500", "143522.282500", "143522.742500", "143523.202500", "143523.662500", "143524.122500", "143524.582500", "143525.042500", "143525.502500", "143525.962500", "143526.422500", "143526.882500", "143527.342500", "143527.802500", "143528.262500", "143528.722500", "143529.182500", "143529.642500", "143530.102500", "143530.562500", "143531.022500", "143531.482500", "143531.942500", "143532.402500", "143532.862500", "143533.322500", "143533.782500", "143534.242500", "143534.702500", "143535.162500", "143535.622500", "143536.082500", "143536.542500", "143537.002500", "143537.462500", "143537.922500", "143538.382500", "143538.842500", "143539.302500", "143539.762500", "143540.222500", "143540.682500", "143541.142500", "143541.602500", "143542.062500", "143542.522500", "143542.982500", "143543.442500", "143543.902500", "143544.362500", "143544.822500", "143545.282500", "143545.742500", "143546.202500", "143546.662500", "143547.122500", "143547.582500", "143548.042500", "143548.502500", "143548.962500", "143549.422500", "143549.882500", "143550.342500", "143550.802500", "143551.262500", "143551.722500", "143552.182500", "143552.642500", "143553.102500", "143553.562500", "143554.022500", "143554.482500", "143554.942500", "143555.402500", "143555.862500", "143556.322500", "143556.782500", "143557.242500", "143557.702500", "143558.162500", "143558.622500", "143559.082500", "143559.542500", "143600.002500", "143600.462500", "143600.922500", "143601.382500", "143601.842500", "143602.302500", "143602.762500", "143603.222500", "143603.682500", "143604.142500", "143604.602500", "143605.062500", "143605.522500", "143605.982500", "143606.442500", "143606.902500", "143607.362500", "143607.822500", "143608.282500", "143608.742500", "143609.202500", "143609.662500", "143610.122500", "143610.582500", "143611.042500", "143611.502500", "143611.962500", "143612.422500", "143612.882500", "143613.342500", "143613.802500", "143614.262500", "143614.722500", "143615.182500", "143615.642500", "143616.102500", "143616.562500", "143617.022500", "143617.482500", "143617.942500", "143618.402500", "143618.862500", "143619.322500", "143619.782500", "143620.242500", "143620.702500", "143621.162500", "143621.622500", "143622.082500", "143622.542500", "143623.002500", "143623.462500", "143623.922500", "143624.382500", "143624.842500", "143625.302500", "143625.762500", "143626.222500", "143626.682500", "143627.142500", "143627.602500", "143628.062500", "143628.522500", "143628.982500", "143629.442500", "143629.902500", "143630.362500", "143630.822500", "143631.282500", "143631.742500", "143632.202500", "143632.662500", "143633.122500", "143633.582500", "143634.042500", "143634.502500", "143634.962500", "143635.422500", "143635.882500", "143636.342500", "143636.802500", "143637.262500", "143637.722500", "143638.182500", "143638.642500", "143639.102500", "143639.562500", "143640.022500", "143640.482500", "143640.942500", "143641.402500", "143641.862500", "143642.322500", "143642.782500", "143643.242500", "143643.702500", "143644.162500", "143644.622500", "143645.082500", "143645.542500", "143646.002500", "143646.462500", "143646.922500", "143647.382500", "143647.842500", "143648.302500", "143648.762500", "143649.222500", "143649.682500", "143650.142500", "143650.602500", "143651.062500", "143651.522500", "143651.982500", "143652.442500", "143652.902500", "143653.362500", "143653.822500", "143654.282500", "143654.742500", "143655.202500", "143655.662500", "143656.122500", "143656.582500", "143657.042500", "143657.502500", "143657.962500", "143658.422500", "143658.882500", "143659.342500", "143659.802500", "143700.262500", "143700.722500", "143701.182500", "143701.642500", "143702.102500", "143702.562500", "143703.022500", "143703.482500", "143703.942500", "143704.402500", "143704.862500", "143705.322500", "143705.782500", "143706.242500", "143706.702500", "143707.162500", "143707.622500", "143708.082500", "143708.542500", "143709.002500", "143709.462500", "143709.922500", "143710.382500", "143710.842500", "143711.302500", "143711.762500", "143712.222500", "143712.682500", "143713.142500", "143713.602500", "143714.062500", "143714.522500", "143714.982500", "143715.442500", "143715.902500", "143716.362500", "143716.822500", "143717.282500", "143717.742500", "143718.202500", "143718.662500", "143719.122500", "143719.582500", "143720.042500", "143720.502500", "143720.962500", "143721.422500", "143721.882500", "143722.342500", "143722.802500", "143723.262500", "143723.722500", "143724.182500", "143724.642500", "143725.102500", "143725.562500", "143726.022500", "143726.482500", "143726.942500", "143727.402500", "143727.862500", "143728.322500", "143728.782500", "143729.242500", "143729.702500", "143730.162500", "143730.622500", "143731.082500", "143731.542500", "143732.002500", "143732.462500", "143732.922500", "143733.382500", "143733.842500", "143734.302500", "143734.762500", "143735.222500", "143735.682500", "143736.142500", "143736.602500", "143737.062500", "143737.522500", "143737.982500", "143738.442500", "143738.902500", "143739.362500", "143739.822500", "143740.282500", "143740.742500", "143741.202500", "143741.662500", "143742.122500", "143742.582500", "143743.042500", "143743.502500", "143743.962500", "143744.422500", "143744.882500", "143745.342500", "143745.802500", "143746.262500", "143746.722500", "143747.182500", "143747.642500", "143748.102500", "143748.562500", "143749.022500", "143749.482500", "143749.942500", "143750.402500", "143750.862500", "143751.322500", "143751.782500", "143752.242500", "143752.702500", "143753.162500", "143753.622500", "143754.082500", "143754.542500", "143755.002500", "143755.462500", "143755.922500", "143756.382500", "143756.842500", "143757.302500", "143757.762500", "143758.222500", "143758.682500", "143759.142500", "143759.602500", "143800.062500", "143800.522500", "143800.982500", "143801.442500", "143801.902500", "143802.362500", "143802.822500", "143803.282500", "143803.742500", "143804.202500", "143804.662500", "143805.122500", "143805.582500", "143806.042500", "143806.502500", "143806.962500", "143807.422500", "143807.882500", "143808.342500", "143808.802500", "143809.262500", "143809.722500", "143810.182500", "143810.642500", "143811.102500", "143811.562500", "143812.022500", "143812.482500", "143812.942500", "143813.402500", "143813.862500", "143814.322500", "143814.782500", "143815.242500", "143815.702500", "143816.162500", "143816.622500", "143817.082500", "143817.542500", "143818.002500", "143818.462500", "143818.922500", "143819.382500", "143819.842500", "143820.302500", "143820.762500", "143821.222500", "143821.682500", "143822.142500", "143822.602500", "143823.062500", "143823.522500", "143823.982500", "143824.442500", "143824.902500", "143825.362500", "143825.822500", "143826.282500", "143826.742500", "143827.202500", "143827.662500", "143828.122500", "143828.582500", "143829.042500", "143829.502500", "143829.962500", "143830.422500", "143830.882500", "143831.342500", "143831.802500", "143832.262500", "143832.722500", "143833.182500", "143833.642500", "143834.102500", "143834.562500", "143835.022500", "143835.482500", "143835.942500", "143836.402500", "143836.862500", "143837.322500", "143837.782500", "143838.242500", "143838.702500", "143839.162500", "143839.622500", "143840.082500", "143840.542500", "143841.002500", "143841.462500", "143841.922500", "143842.382500", "143842.842500", "143843.302500", "143843.762500", "143844.222500", "143844.682500", "143845.142500", "143845.602500", "143846.062500", "143846.522500", "143846.982500", "143847.442500", "143847.902500", "143848.362500", "143848.822500", "143849.282500", "143849.742500", "143850.202500", "143850.662500", "143851.122500", "143851.582500", "143852.042500", "143852.502500", "143852.962500", "143853.422500", "143853.882500", "143854.342500", "143854.802500", "143855.262500", "143855.722500", "143856.182500", "143856.642500", "143857.102500", "143857.562500", "143858.022500", "143858.482500", "143858.942500", "143859.402500", "143859.862500", "143900.322500", "143900.782500", "143901.242500", "143901.702500", "143902.162500", "143902.622500", "143903.082500", "143903.542500", "143904.002500", "143904.462500", "143904.922500", "143905.382500", "143905.842500", "143906.302500", "143906.762500", "143907.222500", "143907.682500", "143908.142500", "143908.602500", "143909.062500", "143909.522500", "143909.982500", "143910.442500", "143910.902500", "143911.362500", "143911.822500", "143912.282500", "143912.742500", "143913.202500", "143913.662500", "143914.122500", "143914.582500", "143915.042500", "143915.502500", "143915.962500", "143916.422500", "143916.882500", "143917.342500", "143917.802500", "143918.262500", "143918.722500", "143919.182500", "143919.642500", "143920.102500", "143920.562500", "143921.022500", "143921.482500", "143921.942500", "143922.402500", "143922.862500", "143923.322500", "143923.782500", "143924.242500", "143924.702500", "143925.162500", "143925.622500", "143926.082500", "143926.542500", "143927.002500", "143927.462500", "143927.922500", "143928.382500", "143928.842500", "143929.302500", "143929.762500", "143930.222500", "143930.682500", "143931.142500", "143931.602500", "143932.062500", "143932.522500", "143932.982500", "143933.442500", "143933.902500", "143934.362500", "143934.822500", "143935.282500", "143935.742500", "143936.202500", "143936.662500", "143937.122500", "143937.582500", "143938.042500", "143938.502500", "143938.962500", "143939.422500", "143939.882500", "143940.342500", "143940.802500", "143941.262500", "143941.722500", "143942.182500", "143942.642500", "143943.102500", "143943.562500", "143944.022500", "143944.482500", "143944.942500", "143945.402500", "143945.862500", "143946.322500", "143946.782500", "143947.242500", "143947.702500", "143948.162500", "143948.622500", "143949.082500", "143949.542500", "143950.002500", "143950.462500", "143950.922500", "143951.382500", "143951.842500", "143952.302500", "143952.762500", "143953.222500", "143953.682500", "143954.142500", "143954.602500", "143955.062500", "143955.522500", "143955.982500", "143956.442500", "143956.902500", "143957.362500", "143957.822500", "143958.282500", "143958.742500", "143959.202500", "143959.662500", "144000.122500", "144000.582500", "144001.042500", "144001.502500", "144001.962500", "144002.422500", "144002.882500", "144003.342500", "144003.802500", "144004.262500", "144004.722500", "144005.182500", "144005.642500", "144006.102500", "144006.562500", "144007.022500", "144007.482500", "144007.942500", "144008.402500", "144008.862500", "144009.322500", "144009.782500", "144010.242500", "144010.702500", "144011.162500", "144011.622500", "144012.082500", "144012.542500", "144013.002500", "144013.462500", "144013.922500", "144014.382500", "144014.842500", "144015.302500", "144015.762500", "144016.222500", "144016.682500", "144017.142500", "144017.602500", "144018.062500", "144018.522500", "144018.982500", "144019.442500", "144019.902500", "144020.362500", "144020.822500", "144021.282500", "144021.742500", "144022.202500", "144022.662500", "144023.122500", "144023.582500", "144024.042500", "144024.502500", "144024.962500", "144025.422500", "144025.882500", "144026.342500", "144026.802500", "144027.262500", "144027.722500", "144028.182500", "144028.642500", "144029.102500", "144029.562500", "144030.022500", "144030.482500", "144030.942500", "144031.402500", "144031.862500", "144032.322500", "144032.782500", "144033.242500", "144033.702500", "144034.162500", "144034.622500", "144035.082500", "144035.542500", "144036.002500", "144036.462500", "144036.922500", "144037.382500", "144037.842500", "144038.302500", "144038.762500", "144039.222500", "144039.682500", "144040.142500", "144040.602500", "144041.062500", "144041.522500", "144041.982500", "144042.442500", "144042.902500", "144043.362500", "144043.822500", "144044.282500", "144044.742500", "144045.202500", "144045.662500", "144046.122500", "144046.582500", "144047.042500", "144047.502500", "144047.962500", "144048.422500", "144048.882500", "144049.342500", "144049.802500", "144050.262500", "144050.722500", "144051.182500", "144051.642500", "144052.102500", "144052.562500", "144053.022500", "144053.482500", "144053.942500", "144054.402500", "144054.862500", "144055.322500", "144055.782500", "144056.242500", "144056.702500", "144057.162500", "144057.622500", "144058.082500", "144058.542500", "144059.002500", "144059.462500", "144059.922500", "144100.382500", "144100.842500", "144101.302500", "144101.762500", "144102.222500", "144102.682500", "144103.142500", "144103.602500", "144104.062500", "144104.522500", "144104.982500", "144105.442500", "144105.902500", "144106.362500", "144106.822500", "144107.282500", "144107.742500", "144108.202500", "144108.662500", "144109.122500", "144109.582500", "144110.042500"],
