{
  "AcquisitionMatrixPE": 82,
  "AcquisitionNumber": 1,
  "AcquisitionTime": "17:43:49.945000",
  "BandwidthPerPixelPhaseEncode": 24.888,
  "BaseResolution": 82,
  "BodyPartExamined": "BRAIN",
  "ConsistencyInfo": "N4_VE11C_LATEST_20160120",
  "ConversionSoftware": "dcm2niix",
  "ConversionSoftwareVersion": "v1.0.20201102",
  "DerivedVendorReportedEchoSpacing": 0.00049,
  "DeviceSerialNumber": "66112",
  "DwellTime": 2e-06,
  "EchoTime": 0.0272,
  "EchoTrainLength": 82,
  "EffectiveEchoSpacing": 0.00049,
  "FlipAngle": 44,
  "ImageComments": "Unaliased MB8/PE3",
  "ImageOrientationPatientDICOM": [0.999287, -0.0238615, 0.0292679, 0.0214556, 0.99657, 0.0799299],
  "ImageType": [
    "ORIGINAL",
    "PRIMARY",
    "M",
    "MB",
    "ND",
    "NORM",
    "MOSAIC"
],
  "ImagingFrequency": 123.252,
  "InPlanePhaseEncodingDirectionDICOM": "COL",
  "InstitutionAddress": "Maynard 3,Hanover,NH,US,03755",
  "InstitutionName": "Dartmouth College - PBS",
  "InstitutionalDepartmentName": "Department",
  "MRAcquisitionType": "2D",
  "MagneticFieldStrength": 3,
  "Manufacturer": "Siemens",
  "ManufacturersModelName": "Prisma",
  "Modality": "MR",
  "MultibandAccelerationFactor": 8,
  "PartialFourier": 1,
  "PatientPosition": "HFS",
  "PercentPhaseFOV": 100,
  "PercentSampling": 100,
  "PhaseEncodingDirection": "j-",
  "PhaseEncodingSteps": 82,
  "PhaseResolution": 1,
  "PixelBandwidth": 3050,
  "ProcedureStepDescription": "Wager_Wager^1076_spacetop",
  "ProtocolName": "func_run-05_task-social_acq-ap-mb8",
  "PulseSequenceDetails": "%CustomerSeq%\\cmrr_mbep2d_bold",
  "ReceiveCoilActiveElements": "HEA;HEP",
  "ReceiveCoilName": "Head_32",
  "ReconMatrixPE": 82,
  "RepetitionTime": 0.46,
  "SAR": 0.0968797,
  "ScanOptions": "FS",
  "ScanningSequence": "EP",
  "SequenceName": "epfid2d1_82",
  "SequenceVariant": "SK\\SS",
  "SeriesDescription": "func_run-05_task-social_acq-ap-mb8",
  "SeriesNumber": 18,
  "ShimSetting": [4159, -7710, -7237, 475, -22, -8, 57, 77],
  "SliceThickness": 2.7,
  "SliceTiming": [0, 0.2525, 0.0625, 0.315, 0.125, 0.3775, 0.19, 0, 0.2525, 0.0625, 0.315, 0.125, 0.3775, 0.19, 0, 0.2525, 0.0625, 0.315, 0.125, 0.3775, 0.19, 0, 0.2525, 0.0625, 0.315, 0.125, 0.3775, 0.19, 0, 0.2525, 0.0625, 0.315, 0.125, 0.3775, 0.19, 0, 0.2525, 0.0625, 0.315, 0.125, 0.3775, 0.19, 0, 0.2525, 0.0625, 0.315, 0.125, 0.3775, 0.19, 0, 0.2525, 0.0625, 0.315, 0.125, 0.3775, 0.19],
  "SoftwareVersions": "syngo MR E11",
  "SpacingBetweenSlices": 2.7,
  "StationName": "AWP66112",
  "TaskName": "social",
  "TotalReadoutTime": 0.03969,
  "TxRefAmp": 229.302,
  "WipMemBlock": "077f11b3-ed2f-4f0e-bea8-780ddc615667||Sequence: R016 ve11c/master r/e634e98; Dec 19 2017 11:00:25 by eja",
  "dcmmeta_affine": [
    [-2.681013345718384, 0.05756368488073349, 0.08390175551176071, 108.0659408569336],
    [0.0640186220407486, 2.6737232208251953, 0.21396134793758392, -103.86685180664062],
    [0.07852357625961304, -0.21444611251354218, 2.6902010440826416, -51.61527633666992],
    [0.0, 0.0, 0.0, 1.0]
],
  "dcmmeta_reorient_transform": [
    [0.0, -1.0, 0.0, 81.0],
    [1.0, 0.0, 0.0, 0.0],
    [0.0, 0.0, 1.0, 0.0],
    [0.0, 0.0, 0.0, 1.0]
],
  "dcmmeta_shape": [82, 82, 56, 872],
  "dcmmeta_slice_dim": 2,
  "dcmmeta_version": 0.6,
  "global": {
    "const": {
      "AccessionNumber": "A003852",
      "AcquisitionMatrix": [82, 0, 0, 82],
      "AngioFlag": "N",
      "BitsAllocated": 16,
      "BitsStored": 16,
      "BodyPartExamined": "BRAIN",
      "Columns": 656,
      "EchoNumbers": 1,
      "EchoTime": 27.2,
      "EchoTrainLength": 82,
      "FlipAngle": 44.0,
      "HighBit": 15,
      "ImageOrientationPatient": [0.99928675602714, -0.0238614859167, 0.02926787861479, 0.02145555439014, 0.99656955023691, 0.07992991133746],
      "ImagePositionPatient": [-898.70019864117, -861.68995609463, -153.06771314972],
      "ImageType": [
        "ORIGINAL",
        "PRIMARY",
        "M",
        "MB",
        "ND",
        "NORM",
        "MOSAIC"
],
      "ImagedNucleus": "1H",
      "ImagingFrequency": 123.252232,
      "InPlanePhaseEncodingDirection": "COL",
      "MRAcquisitionType": "2D",
      "MagneticFieldStrength": 3.0,
      "Manufacturer": "SIEMENS",
      "ManufacturerModelName": "Prisma",
      "Modality": "MR",
      "NumberOfAverages": 1.0,
      "NumberOfPhaseEncodingSteps": 82,
      "PercentPhaseFieldOfView": 100.0,
      "PercentSampling": 100.0,
      "PerformedProcedureStepStartTime": "164353.731000",
      "PhotometricInterpretation": "MONOCHROME2",
      "PixelBandwidth": 3050.0,
      "PixelRepresentation": 0,
      "PixelSpacing": [2.6829268932343, 2.6829268932343],
      "ProtocolName": "func_run-05_task-social_acq-ap-mb8",
      "RepetitionTime": 460.0,
      "Rows": 656,
      "SAR": 0.09687973037064,
      "SamplesPerPixel": 1,
      "ScanOptions": "FS",
      "ScanningSequence": "EP",
      "SequenceName": "epfid2d1_82",
      "SequenceVariant": [
        "SK",
        "SS"
],
      "SeriesDescription": "func_run-05_task-social_acq-ap-mb8",
      "SeriesNumber": 18,
      "SeriesTime": "174405.699000",
      "SliceLocation": -56.30075523142,
      "SliceThickness": 2.7000000476837,
      "SmallestImagePixelValue": 0,
      "SoftwareVersions": "syngo MR E11",
      "SpacingBetweenSlices": 2.700000014083,
      "SpecificCharacterSet": "ISO_IR 100",
      "StudyID": "1",
      "StudyTime": "164353.663000",
      "TransmitCoilName": "Body",
      "VariableFlipAngleFlag": "N",
      "WindowCenterWidthExplanation": "Algo1",
      "dBdt": 0.0},
    "slices": {}
  },
  "time": {
    "samples": {
      "AcquisitionNumber": [1, 2, 3, 4, 5, 6, 7, 8, 9, 10, 11, 12, 13, 14, 15, 16, 17, 18, 19, 20, 21, 22, 23, 24, 25, 26, 27, 28, 29, 30, 31, 32, 33, 34, 35, 36, 37, 38, 39, 40, 41, 42, 43, 44, 45, 46, 47, 48, 49, 50, 51, 52, 53, 54, 55, 56, 57, 58, 59, 60, 61, 62, 63, 64, 65, 66, 67, 68, 69, 70, 71, 72, 73, 74, 75, 76, 77, 78, 79, 80, 81, 82, 83, 84, 85, 86, 87, 88, 89, 90, 91, 92, 93, 94, 95, 96, 97, 98, 99, 100, 101, 102, 103, 104, 105, 106, 107, 108, 109, 110, 111, 112, 113, 114, 115, 116, 117, 118, 119, 120, 121, 122, 123, 124, 125, 126, 127, 128, 129, 130, 131, 132, 133, 134, 135, 136, 137, 138, 139, 140, 141, 142, 143, 144, 145, 146, 147, 148, 149, 150, 151, 152, 153, 154, 155, 156, 157, 158, 159, 160, 161, 162, 163, 164, 165, 166, 167, 168, 169, 170, 171, 172, 173, 174, 175, 176, 177, 178, 179, 180, 181, 182, 183, 184, 185, 186, 187, 188, 189, 190, 191, 192, 193, 194, 195, 196, 197, 198, 199, 200, 201, 202, 203, 204, 205, 206, 207, 208, 209, 210, 211, 212, 213, 214, 215, 216, 217, 218, 219, 220, 221, 222, 223, 224, 225, 226, 227, 228, 229, 230, 231, 232, 233, 234, 235, 236, 237, 238, 239, 240, 241, 242, 243, 244, 245, 246, 247, 248, 249, 250, 251, 252, 253, 254, 255, 256, 257, 258, 259, 260, 261, 262, 263, 264, 265, 266, 267, 268, 269, 270, 271, 272, 273, 274, 275, 276, 277, 278, 279, 280, 281, 282, 283, 284, 285, 286, 287, 288, 289, 290, 291, 292, 293, 294, 295, 296, 297, 298, 299, 300, 301, 302, 303, 304, 305, 306, 307, 308, 309, 310, 311, 312, 313, 314, 315, 316, 317, 318, 319, 320, 321, 322, 323, 324, 325, 326, 327, 328, 329, 330, 331, 332, 333, 334, 335, 336, 337, 338, 339, 340, 341, 342, 343, 344, 345, 346, 347, 348, 349, 350, 351, 352, 353, 354, 355, 356, 357, 358, 359, 360, 361, 362, 363, 364, 365, 366, 367, 368, 369, 370, 371, 372, 373, 374, 375, 376, 377, 378, 379, 380, 381, 382, 383, 384, 385, 386, 387, 388, 389, 390, 391, 392, 393, 394, 395, 396, 397, 398, 399, 400, 401, 402, 403, 404, 405, 406, 407, 408, 409, 410, 411, 412, 413, 414, 415, 416, 417, 418, 419, 420, 421, 422, 423, 424, 425, 426, 427, 428, 429, 430, 431, 432, 433, 434, 435, 436, 437, 438, 439, 440, 441, 442, 443, 444, 445, 446, 447, 448, 449, 450, 451, 452, 453, 454, 455, 456, 457, 458, 459, 460, 461, 462, 463, 464, 465, 466, 467, 468, 469, 470, 471, 472, 473, 474, 475, 476, 477, 478, 479, 480, 481, 482, 483, 484, 485, 486, 487, 488, 489, 490, 491, 492, 493, 494, 495, 496, 497, 498, 499, 500, 501, 502, 503, 504, 505, 506, 507, 508, 509, 510, 511, 512, 513, 514, 515, 516, 517, 518, 519, 520, 521, 522, 523, 524, 525, 526, 527, 528, 529, 530, 531, 532, 533, 534, 535, 536, 537, 538, 539, 540, 541, 542, 543, 544, 545, 546, 547, 548, 549, 550, 551, 552, 553, 554, 555, 556, 557, 558, 559, 560, 561, 562, 563, 564, 565, 566, 567, 568, 569, 570, 571, 572, 573, 574, 575, 576, 577, 578, 579, 580, 581, 582, 583, 584, 585, 586, 587, 588, 589, 590, 591, 592, 593, 594, 595, 596, 597, 598, 599, 600, 601, 602, 603, 604, 605, 606, 607, 608, 609, 610, 611, 612, 613, 614, 615, 616, 617, 618, 619, 620, 621, 622, 623, 624, 625, 626, 627, 628, 629, 630, 631, 632, 633, 634, 635, 636, 637, 638, 639, 640, 641, 642, 643, 644, 645, 646, 647, 648, 649, 650, 651, 652, 653, 654, 655, 656, 657, 658, 659, 660, 661, 662, 663, 664, 665, 666, 667, 668, 669, 670, 671, 672, 673, 674, 675, 676, 677, 678, 679, 680, 681, 682, 683, 684, 685, 686, 687, 688, 689, 690, 691, 692, 693, 694, 695, 696, 697, 698, 699, 700, 701, 702, 703, 704, 705, 706, 707, 708, 709, 710, 711, 712, 713, 714, 715, 716, 717, 718, 719, 720, 721, 722, 723, 724, 725, 726, 727, 728, 729, 730, 731, 732, 733, 734, 735, 736, 737, 738, 739, 740, 741, 742, 743, 744, 745, 746, 747, 748, 749, 750, 751, 752, 753, 754, 755, 756, 757, 758, 759, 760, 761, 762, 763, 764, 765, 766, 767, 768, 769, 770, 771, 772, 773, 774, 775, 776, 777, 778, 779, 780, 781, 782, 783, 784, 785, 786, 787, 788, 789, 790, 791, 792, 793, 794, 795, 796, 797, 798, 799, 800, 801, 802, 803, 804, 805, 806, 807, 808, 809, 810, 811, 812, 813, 814, 815, 816, 817, 818, 819, 820, 821, 822, 823, 824, 825, 826, 827, 828, 829, 830, 831, 832, 833, 834, 835, 836, 837, 838, 839, 840, 841, 842, 843, 844, 845, 846, 847, 848, 849, 850, 851, 852, 853, 854, 855, 856, 857, 858, 859, 860, 861, 862, 863, 864, 865, 866, 867, 868, 869, 870, 871, 872],
      "AcquisitionTime": ["174349.945000", "174350.405000", "174350.865000", "174351.325000", "174351.785000", "174352.245000", "174352.705000", "174353.165000", "174353.625000", "174354.085000", "174354.545000", "174355.005000", "174355.465000", "174355.925000", "174356.385000", "174356.845000", "174357.305000", "174357.765000", "174358.225000", "174358.685000", "174359.145000", "174359.605000", "174400.065000", "174400.525000", "174400.985000", "174401.445000", "174401.905000", "174402.365000", "174402.825000", "174403.285000", "174403.745000", "174404.205000", "174404.665000", "174405.125000", "174405.585000", "174406.045000", "174406.505000", "174406.965000", "174407.425000", "174407.885000", "174408.345000", "174408.805000", "174409.265000", "174409.725000", "174410.185000", "174410.645000", "174411.105000", "174411.565000", "174412.025000", "174412.485000", "174412.945000", "174413.405000", "174413.865000", "174414.325000", "174414.785000", "174415.245000", "174415.705000", "174416.165000", "174416.625000", "174417.085000", "174417.545000", "174418.005000", "174418.465000", "174418.925000", "174419.385000", "174419.845000", "174420.305000", "174420.765000", "174421.225000", "174421.685000", "174422.145000", "174422.605000", "174423.065000", "174423.525000", "174423.985000", "174424.445000", "174424.905000", "174425.365000", "174425.825000", "174426.285000", "174426.745000", "174427.205000", "174427.665000", "174428.125000", "174428.585000", "174429.045000", "174429.505000", "174429.965000", "174430.425000", "174430.885000", "174431.345000", "174431.805000", "174432.265000", "174432.725000", "174433.185000", "174433.645000", "174434.105000", "174434.565000", "174435.025000", "174435.485000", "174435.945000", "174436.405000", "174436.865000", "174437.325000", "174437.785000", "174438.245000", "174438.705000", "174439.165000", "174439.625000", "174440.085000", "174440.545000", "174441.005000", "174441.465000", "174441.925000", "174442.385000", "174442.845000", "174443.305000", "174443.765000", "174444.225000", "174444.685000", "174445.145000", "174445.605000", "174446.065000", "174446.525000", "174446.985000", "174447.445000", "174447.905000", "174448.365000", "174448.825000", "174449.285000", "174449.745000", "174450.205000", "174450.665000", "174451.125000", "174451.585000", "174452.045000", "174452.505000", "174452.965000", "174453.425000", "174453.885000", "174454.345000", "174454.805000", "174455.265000", "174455.725000", "174456.185000", "174456.645000", "174457.105000", "174457.565000", "174458.025000", "174458.485000", "174458.945000", "174459.405000", "174459.865000", "174500.325000", "174500.785000", "174501.245000", "174501.705000", "174502.165000", "174502.625000", "174503.085000", "174503.545000", "174504.005000", "174504.465000", "174504.925000", "174505.385000", "174505.845000", "174506.305000", "174506.765000", "174507.225000", "174507.685000", "174508.145000", "174508.605000", "174509.065000", "174509.525000", "174509.985000", "174510.445000", "174510.905000", "174511.365000", "174511.825000", "174512.285000", "174512.745000", "174513.205000", "174513.665000", "174514.125000", "174514.585000", "174515.045000", "174515.505000", "174515.965000", "174516.425000", "174516.885000", "174517.345000", "174517.805000", "174518.265000", "174518.725000", "174519.185000", "174519.645000", "174520.105000", "174520.565000", "174521.025000", "174521.485000", "174521.945000", "174522.405000", "174522.865000", "174523.325000", "174523.785000", "174524.245000", "174524.705000", "174525.165000", "174525.625000", "174526.085000", "174526.545000", "174527.005000", "174527.465000", "174527.925000", "174528.385000", "174528.845000", "174529.305000", "174529.765000", "174530.225000", "174530.685000", "174531.145000", "174531.605000", "174532.065000", "174532.525000", "174532.985000", "174533.445000", "174533.905000", "174534.365000", "174534.825000", "174535.285000", "174535.745000", "174536.205000", "174536.665000", "174537.125000", "174537.585000", "174538.045000", "174538.505000", "174538.965000", "174539.425000", "174539.885000", "174540.345000", "174540.805000", "174541.265000", "174541.725000", "174542.185000", "174542.645000", "174543.105000", "174543.565000", "174544.025000", "174544.485000", "174544.945000", "174545.405000", "174545.865000", "174546.325000", "174546.785000", "174547.245000", "174547.705000", "174548.165000", "174548.625000", "174549.085000", "174549.545000", "174550.005000", "174550.465000", "174550.925000", "174551.385000", "174551.845000", "174552.305000", "174552.765000", "174553.225000", "174553.685000", "174554.145000", "174554.605000", "174555.065000", "174555.525000", "174555.985000", "174556.445000", "174556.905000", "174557.365000", "174557.825000", "174558.285000", "174558.745000", "174559.205000", "174559.665000", "174600.125000", "174600.585000", "174601.045000", "174601.505000", "174601.965000", "174602.425000", "174602.885000", "174603.345000", "174603.805000", "174604.265000", "174604.725000", "174605.185000", "174605.645000", "174606.105000", "174606.565000", "174607.025000", "174607.485000", "174607.945000", "174608.405000", "174608.865000", "174609.325000", "174609.785000", "174610.245000", "174610.705000", "174611.165000", "174611.625000", "174612.085000", "174612.545000", "174613.005000", "174613.465000", "174613.925000", "174614.385000", "174614.845000", "174615.305000", "174615.765000", "174616.225000", "174616.685000", "174617.145000", "174617.605000", "174618.065000", "174618.525000", "174618.985000", "174619.445000", "174619.905000", "174620.365000", "174620.825000", "174621.285000", "174621.745000", "174622.205000", "174622.665000", "174623.125000", "174623.585000", "174624.045000", "174624.505000", "174624.965000", "174625.425000", "174625.885000", "174626.345000", "174626.805000", "174627.265000", "174627.725000", "174628.185000", "174628.645000", "174629.105000", "174629.565000", "174630.025000", "174630.485000", "174630.945000", "174631.405000", "174631.865000", "174632.325000", "174632.785000", "174633.245000", "174633.705000", "174634.165000", "174634.625000", "174635.085000", "174635.545000", "174636.005000", "174636.465000", "174636.925000", "174637.385000", "174637.845000", "174638.305000", "174638.765000", "174639.225000", "174639.685000", "174640.145000", "174640.605000", "174641.065000", "174641.525000", "174641.985000", "174642.445000", "174642.905000", "174643.365000", "174643.825000", "174644.285000", "174644.745000", "174645.205000", "174645.665000", "174646.125000", "174646.585000", "174647.045000", "174647.505000", "174647.965000", "174648.425000", "174648.885000", "174649.345000", "174649.805000", "174650.265000", "174650.725000", "174651.185000", "174651.645000", "174652.105000", "174652.565000", "174653.025000", "174653.485000", "174653.945000", "174654.405000", "174654.865000", "174655.325000", "174655.785000", "174656.245000", "174656.705000", "174657.165000", "174657.625000", "174658.085000", "174658.545000", "174659.005000", "174659.465000", "174659.925000", "174700.385000", "174700.845000", "174701.305000", "174701.765000", "174702.225000", "174702.685000", "174703.145000", "174703.605000", "174704.065000", "174704.525000", "174704.985000", "174705.445000", "174705.905000", "174706.365000", "174706.825000", "174707.285000", "174707.745000", "174708.205000", "174708.665000", "174709.125000", "174709.585000", "174710.045000", "174710.505000", "174710.965000", "174711.425000", "174711.885000", "174712.345000", "174712.805000", "174713.265000", "174713.725000", "174714.185000", "174714.645000", "174715.105000", "174715.565000", "174716.025000", "174716.485000", "174716.945000", "174717.405000", "174717.865000", "174718.325000", "174718.785000", "174719.245000", "174719.705000", "174720.165000", "174720.625000", "174721.085000", "174721.545000", "174722.005000", "174722.465000", "174722.925000", "174723.385000", "174723.845000", "174724.305000", "174724.765000", "174725.225000", "174725.685000", "174726.145000", "174726.605000", "174727.065000", "174727.525000", "174727.985000", "174728.445000", "174728.905000", "174729.365000", "174729.825000", "174730.285000", "174730.745000", "174731.205000", "174731.665000", "174732.125000", "174732.585000", "174733.045000", "174733.505000", "174733.965000", "174734.425000", "174734.885000", "174735.345000", "174735.805000", "174736.265000", "174736.725000", "174737.185000", "174737.645000", "174738.105000", "174738.565000", "174739.025000", "174739.485000", "174739.945000", "174740.405000", "174740.865000", "174741.325000", "174741.785000", "174742.245000", "174742.705000", "174743.165000", "174743.625000", "174744.085000", "174744.545000", "174745.005000", "174745.465000", "174745.925000", "174746.385000", "174746.845000", "174747.305000", "174747.765000", "174748.225000", "174748.685000", "174749.145000", "174749.605000", "174750.065000", "174750.525000", "174750.985000", "174751.445000", "174751.905000", "174752.365000", "174752.825000", "174753.285000", "174753.745000", "174754.205000", "174754.665000", "174755.125000", "174755.585000", "174756.045000", "174756.505000", "174756.965000", "174757.425000", "174757.885000", "174758.345000", "174758.805000", "174759.265000", "174759.725000", "174800.185000", "174800.645000", "174801.105000", "174801.565000", "174802.025000", "174802.485000", "174802.945000", "174803.405000", "174803.865000", "174804.325000", "174804.785000", "174805.245000", "174805.705000", "174806.165000", "174806.625000", "174807.085000", "174807.545000", "174808.005000", "174808.465000", "174808.925000", "174809.385000", "174809.845000", "174810.305000", "174810.765000", "174811.225000", "174811.685000", "174812.145000", "174812.605000", "174813.065000", "174813.525000", "174813.985000", "174814.445000", "174814.905000", "174815.365000", "174815.825000", "174816.285000", "174816.745000", "174817.205000", "174817.665000", "174818.125000", "174818.585000", "174819.045000", "174819.505000", "174819.965000", "174820.425000", "174820.885000", "174821.345000", "174821.805000", "174822.265000", "174822.725000", "174823.185000", "174823.645000", "174824.105000", "174824.565000", "174825.025000", "174825.485000", "174825.945000", "174826.405000", "174826.865000", "174827.325000", "174827.785000", "174828.245000", "174828.705000", "174829.165000", "174829.625000", "174830.085000", "174830.545000", "174831.005000", "174831.465000", "174831.925000", "174832.385000", "174832.845000", "174833.305000", "174833.765000", "174834.225000", "174834.685000", "174835.145000", "174835.605000", "174836.065000", "174836.525000", "174836.985000", "174837.445000", "174837.905000", "174838.365000", "174838.825000", "174839.285000", "174839.745000", "174840.205000", "174840.665000", "174841.125000", "174841.585000", "174842.045000", "174842.505000", "174842.965000", "174843.425000", "174843.885000", "174844.345000", "174844.805000", "174845.265000", "174845.725000", "174846.185000", "174846.645000", "174847.105000", "174847.565000", "174848.025000", "174848.485000", "174848.945000", "174849.405000", "174849.865000", "174850.325000", "174850.785000", "174851.245000", "174851.705000", "174852.165000", "174852.625000", "174853.085000", "174853.545000", "174854.005000", "174854.465000", "174854.925000", "174855.385000", "174855.845000", "174856.305000", "174856.765000", "174857.225000", "174857.685000", "174858.145000", "174858.605000", "174859.065000", "174859.525000", "174859.985000", "174900.445000", "174900.905000", "174901.365000", "174901.825000", "174902.285000", "174902.745000", "174903.205000", "174903.665000", "174904.125000", "174904.585000", "174905.045000", "174905.505000", "174905.965000", "174906.425000", "174906.885000", "174907.345000", "174907.805000", "174908.265000", "174908.725000", "174909.185000", "174909.645000", "174910.105000", "174910.565000", "174911.025000", "174911.485000", "174911.945000", "174912.405000", "174912.865000", "174913.325000", "174913.785000", "174914.245000", "174914.705000", "174915.165000", "174915.625000", "174916.085000", "174916.545000", "174917.005000", "174917.465000", "174917.925000", "174918.385000", "174918.845000", "174919.305000", "174919.765000", "174920.225000", "174920.685000", "174921.145000", "174921.605000", "174922.065000", "174922.525000", "174922.985000", "174923.445000", "174923.905000", "174924.365000", "174924.825000", "174925.285000", "174925.745000", "174926.205000", "174926.665000", "174927.125000", "174927.585000", "174928.045000", "174928.505000", "174928.965000", "174929.425000", "174929.885000", "174930.345000", "174930.805000", "174931.265000", "174931.725000", "174932.185000", "174932.645000", "174933.105000", "174933.565000", "174934.025000", "174934.485000", "174934.945000", "174935.405000", "174935.865000", "174936.325000", "174936.785000", "174937.245000", "174937.705000", "174938.165000", "174938.625000", "174939.085000", "174939.545000", "174940.005000", "174940.465000", "174940.925000", "174941.385000", "174941.845000", "174942.305000", "174942.765000", "174943.225000", "174943.685000", "174944.145000", "174944.605000", "174945.065000", "174945.525000", "174945.985000", "174946.445000", "174946.905000", "174947.365000", "174947.825000", "174948.285000", "174948.745000", "174949.205000", "174949.665000", "174950.125000", "174950.585000", "174951.045000", "174951.505000", "174951.965000", "174952.425000", "174952.885000", "174953.345000", "174953.805000", "174954.265000", "174954.725000", "174955.185000", "174955.645000", "174956.105000", "174956.565000", "174957.025000", "174957.485000", "174957.945000", "174958.405000", "174958.865000", "174959.325000", "174959.785000", "175000.245000", "175000.705000", "175001.165000", "175001.625000", "175002.085000", "175002.545000", "175003.005000", "175003.465000", "175003.925000", "175004.385000", "175004.845000", "175005.305000", "175005.765000", "175006.225000", "175006.685000", "175007.145000", "175007.605000", "175008.065000", "175008.525000", "175008.985000", "175009.445000", "175009.905000", "175010.365000", "175010.825000", "175011.285000", "175011.745000", "175012.205000", "175012.665000", "175013.125000", "175013.585000", "175014.045000", "175014.505000", "175014.965000", "175015.425000", "175015.885000", "175016.345000", "175016.805000", "175017.265000", "175017.725000", "175018.185000", "175018.645000", "175019.105000", "175019.565000", "175020.025000", "175020.485000", "175020.945000", "175021.405000", "175021.865000", "175022.325000", "175022.785000", "175023.245000", "175023.705000", "175024.165000", "175024.625000", "175025.085000", "175025.545000", "175026.005000", "175026.465000", "175026.925000", "175027.385000", "175027.845000", "175028.305000", "175028.765000", "175029.225000", "175029.685000", "175030.145000", "175030.605000"],
