{
  "AcquisitionMatrixPE": 82,
  "AcquisitionNumber": 1,
  "AcquisitionTime": "17:11:21.027500",
  "BandwidthPerPixelPhaseEncode": 24.888,
  "BaseResolution": 82,
  "BodyPartExamined": "BRAIN",
  "ConsistencyInfo": "N4_VE11C_LATEST_20160120",
  "ConversionSoftware": "dcm2niix",
  "ConversionSoftwareVersion": "v1.0.20201102",
  "DerivedVendorReportedEchoSpacing": 0.00049,
  "DeviceSerialNumber": "66112",
  "DwellTime": 2e-06,
  "EchoTime": 0.0272,
  "EchoTrainLength": 82,
  "EffectiveEchoSpacing": 0.00049,
  "FlipAngle": 44,
  "ImageComments": "Unaliased MB8/PE3",
  "ImageOrientationPatientDICOM": [0.999287, -0.0238615, 0.0292679, 0.0214556, 0.99657, 0.0799299],
  "ImageType": [
    "ORIGINAL",
    "PRIMARY",
    "M",
    "MB",
    "ND",
    "NORM",
    "MOSAIC"
],
  "ImagingFrequency": 123.252,
  "InPlanePhaseEncodingDirectionDICOM": "COL",
  "InstitutionAddress": "Maynard 3,Hanover,NH,US,03755",
  "InstitutionName": "Dartmouth College - PBS",
  "InstitutionalDepartmentName": "Department",
  "MRAcquisitionType": "2D",
  "MagneticFieldStrength": 3,
  "Manufacturer": "Siemens",
  "ManufacturersModelName": "Prisma",
  "Modality": "MR",
  "MultibandAccelerationFactor": 8,
  "PartialFourier": 1,
  "PatientPosition": "HFS",
  "PercentPhaseFOV": 100,
  "PercentSampling": 100,
  "PhaseEncodingDirection": "j-",
  "PhaseEncodingSteps": 82,
  "PhaseResolution": 1,
  "PixelBandwidth": 3050,
  "ProcedureStepDescription": "Wager_Wager^1076_spacetop",
  "ProtocolName": "func_run-01_task-social_acq-ap-mb8",
  "PulseSequenceDetails": "%CustomerSeq%\\cmrr_mbep2d_bold",
  "ReceiveCoilActiveElements": "HEA;HEP",
  "ReceiveCoilName": "Head_32",
  "ReconMatrixPE": 82,
  "RepetitionTime": 0.46,
  "SAR": 0.0968797,
  "ScanOptions": "FS",
  "ScanningSequence": "EP",
  "SequenceName": "epfid2d1_82",
  "SequenceVariant": "SK\\SS",
  "SeriesDescription": "func_run-01_task-social_acq-ap-mb8",
  "SeriesNumber": 8,
  "ShimSetting": [4159, -7710, -7237, 475, -22, -8, 57, 77],
  "SliceThickness": 2.7,
  "SliceTiming": [0, 0.2525, 0.0625, 0.315, 0.1275, 0.3775, 0.19, 0, 0.2525, 0.0625, 0.315, 0.1275, 0.3775, 0.19, 0, 0.2525, 0.0625, 0.315, 0.1275, 0.3775, 0.19, 0, 0.2525, 0.0625, 0.315, 0.1275, 0.3775, 0.19, 0, 0.2525, 0.0625, 0.315, 0.1275, 0.3775, 0.19, 0, 0.2525, 0.0625, 0.315, 0.1275, 0.3775, 0.19, 0, 0.2525, 0.0625, 0.315, 0.1275, 0.3775, 0.19, 0, 0.2525, 0.0625, 0.315, 0.1275, 0.3775, 0.19],
  "SoftwareVersions": "syngo MR E11",
  "SpacingBetweenSlices": 2.7,
  "StationName": "AWP66112",
  "TaskName": "social",
  "TotalReadoutTime": 0.03969,
  "TxRefAmp": 229.302,
  "WipMemBlock": "d81dbc8a-1589-4c23-b245-41adcda165c8||Sequence: R016 ve11c/master r/e634e98; Dec 19 2017 11:00:25 by eja",
  "dcmmeta_affine": [
    [-2.681013345718384, 0.05756368488073349, 0.08390175551176071, 108.0659408569336],
    [0.0640186220407486, 2.6737232208251953, 0.21396134793758392, -103.86685180664062],
    [0.07852357625961304, -0.21444611251354218, 2.6902010440826416, -51.61527633666992],
    [0.0, 0.0, 0.0, 1.0]
],
  "dcmmeta_reorient_transform": [
    [0.0, -1.0, 0.0, 81.0],
    [1.0, 0.0, 0.0, 0.0],
    [0.0, 0.0, 1.0, 0.0],
    [0.0, 0.0, 0.0, 1.0]
],
  "dcmmeta_shape": [82, 82, 56, 872],
  "dcmmeta_slice_dim": 2,
  "dcmmeta_version": 0.6,
  "global": {
    "const": {
      "AccessionNumber": "A003852",
      "AcquisitionMatrix": [82, 0, 0, 82],
      "AngioFlag": "N",
      "BitsAllocated": 16,
      "BitsStored": 16,
      "BodyPartExamined": "BRAIN",
      "Columns": 656,
      "EchoNumbers": 1,
      "EchoTime": 27.2,
      "EchoTrainLength": 82,
      "FlipAngle": 44.0,
      "HighBit": 15,
      "ImageOrientationPatient": [0.99928675602714, -0.0238614859167, 0.02926787861479, 0.02145555439014, 0.99656955023691, 0.07992991133746],
      "ImagePositionPatient": [-898.70019864117, -861.68995609463, -153.06771314972],
      "ImageType": [
        "ORIGINAL",
        "PRIMARY",
        "M",
        "MB",
        "ND",
        "NORM",
        "MOSAIC"
],
      "ImagedNucleus": "1H",
      "ImagingFrequency": 123.252216,
      "InPlanePhaseEncodingDirection": "COL",
      "MRAcquisitionType": "2D",
      "MagneticFieldStrength": 3.0,
      "Manufacturer": "SIEMENS",
      "ManufacturerModelName": "Prisma",
      "Modality": "MR",
      "NumberOfAverages": 1.0,
      "NumberOfPhaseEncodingSteps": 82,
      "PercentPhaseFieldOfView": 100.0,
      "PercentSampling": 100.0,
      "PerformedProcedureStepStartTime": "164353.731000",
      "PhotometricInterpretation": "MONOCHROME2",
      "PixelBandwidth": 3050.0,
      "PixelRepresentation": 0,
      "PixelSpacing": [2.6829268932343, 2.6829268932343],
      "ProtocolName": "func_run-01_task-social_acq-ap-mb8",
      "RepetitionTime": 460.0,
      "Rows": 656,
      "SAR": 0.09687973037064,
      "SamplesPerPixel": 1,
      "ScanOptions": "FS",
      "ScanningSequence": "EP",
      "SequenceName": "epfid2d1_82",
      "SequenceVariant": [
        "SK",
        "SS"
],
      "SeriesDescription": "func_run-01_task-social_acq-ap-mb8",
      "SeriesNumber": 8,
      "SeriesTime": "171145.785000",
      "SliceLocation": -56.30075523142,
      "SliceThickness": 2.7000000476837,
      "SmallestImagePixelValue": 0,
      "SoftwareVersions": "syngo MR E11",
      "SpacingBetweenSlices": 2.700000014083,
      "SpecificCharacterSet": "ISO_IR 100",
      "StudyID": "1",
      "StudyTime": "164353.663000",
      "TransmitCoilName": "Body",
      "VariableFlipAngleFlag": "N",
      "WindowCenterWidthExplanation": "Algo1",
      "dBdt": 0.0},
    "slices": {}
  },
  "time": {
    "samples": {
      "AcquisitionNumber": [1, 2, 3, 4, 5, 6, 7, 8, 9, 10, 11, 12, 13, 14, 15, 16, 17, 18, 19, 20, 21, 22, 23, 24, 25, 26, 27, 28, 29, 30, 31, 32, 33, 34, 35, 36, 37, 38, 39, 40, 41, 42, 43, 44, 45, 46, 47, 48, 49, 50, 51, 52, 53, 54, 55, 56, 57, 58, 59, 60, 61, 62, 63, 64, 65, 66, 67, 68, 69, 70, 71, 72, 73, 74, 75, 76, 77, 78, 79, 80, 81, 82, 83, 84, 85, 86, 87, 88, 89, 90, 91, 92, 93, 94, 95, 96, 97, 98, 99, 100, 101, 102, 103, 104, 105, 106, 107, 108, 109, 110, 111, 112, 113, 114, 115, 116, 117, 118, 119, 120, 121, 122, 123, 124, 125, 126, 127, 128, 129, 130, 131, 132, 133, 134, 135, 136, 137, 138, 139, 140, 141, 142, 143, 144, 145, 146, 147, 148, 149, 150, 151, 152, 153, 154, 155, 156, 157, 158, 159, 160, 161, 162, 163, 164, 165, 166, 167, 168, 169, 170, 171, 172, 173, 174, 175, 176, 177, 178, 179, 180, 181, 182, 183, 184, 185, 186, 187, 188, 189, 190, 191, 192, 193, 194, 195, 196, 197, 198, 199, 200, 201, 202, 203, 204, 205, 206, 207, 208, 209, 210, 211, 212, 213, 214, 215, 216, 217, 218, 219, 220, 221, 222, 223, 224, 225, 226, 227, 228, 229, 230, 231, 232, 233, 234, 235, 236, 237, 238, 239, 240, 241, 242, 243, 244, 245, 246, 247, 248, 249, 250, 251, 252, 253, 254, 255, 256, 257, 258, 259, 260, 261, 262, 263, 264, 265, 266, 267, 268, 269, 270, 271, 272, 273, 274, 275, 276, 277, 278, 279, 280, 281, 282, 283, 284, 285, 286, 287, 288, 289, 290, 291, 292, 293, 294, 295, 296, 297, 298, 299, 300, 301, 302, 303, 304, 305, 306, 307, 308, 309, 310, 311, 312, 313, 314, 315, 316, 317, 318, 319, 320, 321, 322, 323, 324, 325, 326, 327, 328, 329, 330, 331, 332, 333, 334, 335, 336, 337, 338, 339, 340, 341, 342, 343, 344, 345, 346, 347, 348, 349, 350, 351, 352, 353, 354, 355, 356, 357, 358, 359, 360, 361, 362, 363, 364, 365, 366, 367, 368, 369, 370, 371, 372, 373, 374, 375, 376, 377, 378, 379, 380, 381, 382, 383, 384, 385, 386, 387, 388, 389, 390, 391, 392, 393, 394, 395, 396, 397, 398, 399, 400, 401, 402, 403, 404, 405, 406, 407, 408, 409, 410, 411, 412, 413, 414, 415, 416, 417, 418, 419, 420, 421, 422, 423, 424, 425, 426, 427, 428, 429, 430, 431, 432, 433, 434, 435, 436, 437, 438, 439, 440, 441, 442, 443, 444, 445, 446, 447, 448, 449, 450, 451, 452, 453, 454, 455, 456, 457, 458, 459, 460, 461, 462, 463, 464, 465, 466, 467, 468, 469, 470, 471, 472, 473, 474, 475, 476, 477, 478, 479, 480, 481, 482, 483, 484, 485, 486, 487, 488, 489, 490, 491, 492, 493, 494, 495, 496, 497, 498, 499, 500, 501, 502, 503, 504, 505, 506, 507, 508, 509, 510, 511, 512, 513, 514, 515, 516, 517, 518, 519, 520, 521, 522, 523, 524, 525, 526, 527, 528, 529, 530, 531, 532, 533, 534, 535, 536, 537, 538, 539, 540, 541, 542, 543, 544, 545, 546, 547, 548, 549, 550, 551, 552, 553, 554, 555, 556, 557, 558, 559, 560, 561, 562, 563, 564, 565, 566, 567, 568, 569, 570, 571, 572, 573, 574, 575, 576, 577, 578, 579, 580, 581, 582, 583, 584, 585, 586, 587, 588, 589, 590, 591, 592, 593, 594, 595, 596, 597, 598, 599, 600, 601, 602, 603, 604, 605, 606, 607, 608, 609, 610, 611, 612, 613, 614, 615, 616, 617, 618, 619, 620, 621, 622, 623, 624, 625, 626, 627, 628, 629, 630, 631, 632, 633, 634, 635, 636, 637, 638, 639, 640, 641, 642, 643, 644, 645, 646, 647, 648, 649, 650, 651, 652, 653, 654, 655, 656, 657, 658, 659, 660, 661, 662, 663, 664, 665, 666, 667, 668, 669, 670, 671, 672, 673, 674, 675, 676, 677, 678, 679, 680, 681, 682, 683, 684, 685, 686, 687, 688, 689, 690, 691, 692, 693, 694, 695, 696, 697, 698, 699, 700, 701, 702, 703, 704, 705, 706, 707, 708, 709, 710, 711, 712, 713, 714, 715, 716, 717, 718, 719, 720, 721, 722, 723, 724, 725, 726, 727, 728, 729, 730, 731, 732, 733, 734, 735, 736, 737, 738, 739, 740, 741, 742, 743, 744, 745, 746, 747, 748, 749, 750, 751, 752, 753, 754, 755, 756, 757, 758, 759, 760, 761, 762, 763, 764, 765, 766, 767, 768, 769, 770, 771, 772, 773, 774, 775, 776, 777, 778, 779, 780, 781, 782, 783, 784, 785, 786, 787, 788, 789, 790, 791, 792, 793, 794, 795, 796, 797, 798, 799, 800, 801, 802, 803, 804, 805, 806, 807, 808, 809, 810, 811, 812, 813, 814, 815, 816, 817, 818, 819, 820, 821, 822, 823, 824, 825, 826, 827, 828, 829, 830, 831, 832, 833, 834, 835, 836, 837, 838, 839, 840, 841, 842, 843, 844, 845, 846, 847, 848, 849, 850, 851, 852, 853, 854, 855, 856, 857, 858, 859, 860, 861, 862, 863, 864, 865, 866, 867, 868, 869, 870, 871, 872],
      "AcquisitionTime": ["171121.027500", "171121.487500", "171121.947500", "171122.407500", "171122.867500", "171123.327500", "171123.787500", "171124.247500", "171124.707500", "171125.167500", "171125.627500", "171126.087500", "171126.547500", "171127.007500", "171127.467500", "171127.927500", "171128.387500", "171128.847500", "171129.307500", "171129.767500", "171130.227500", "171130.687500", "171131.147500", "171131.607500", "171132.067500", "171132.527500", "171132.987500", "171133.447500", "171133.907500", "171134.367500", "171134.827500", "171135.287500", "171135.747500", "171136.207500", "171136.667500", "171137.127500", "171137.587500", "171138.047500", "171138.507500", "171138.967500", "171139.427500", "171139.887500", "171140.347500", "171140.807500", "171141.267500", "171141.727500", "171142.187500", "171142.647500", "171143.107500", "171143.567500", "171144.027500", "171144.487500", "171144.947500", "171145.407500", "171145.867500", "171146.327500", "171146.787500", "171147.247500", "171147.707500", "171148.167500", "171148.627500", "171149.087500", "171149.547500", "171150.007500", "171150.467500", "171150.927500", "171151.387500", "171151.847500", "171152.307500", "171152.767500", "171153.227500", "171153.687500", "171154.147500", "171154.607500", "171155.067500", "171155.527500", "171155.987500", "171156.447500", "171156.907500", "171157.367500", "171157.827500", "171158.287500", "171158.747500", "171159.207500", "171159.667500", "171200.127500", "171200.587500", "171201.047500", "171201.507500", "171201.967500", "171202.427500", "171202.887500", "171203.347500", "171203.807500", "171204.267500", "171204.727500", "171205.187500", "171205.647500", "171206.107500", "171206.567500", "171207.027500", "171207.487500", "171207.947500", "171208.407500", "171208.867500", "171209.327500", "171209.787500", "171210.247500", "171210.707500", "171211.167500", "171211.627500", "171212.087500", "171212.547500", "171213.007500", "171213.467500", "171213.927500", "171214.387500", "171214.847500", "171215.307500", "171215.767500", "171216.227500", "171216.687500", "171217.147500", "171217.607500", "171218.067500", "171218.527500", "171218.987500", "171219.447500", "171219.907500", "171220.367500", "171220.827500", "171221.287500", "171221.747500", "171222.207500", "171222.667500", "171223.127500", "171223.587500", "171224.047500", "171224.507500", "171224.967500", "171225.427500", "171225.887500", "171226.347500", "171226.807500", "171227.267500", "171227.727500", "171228.187500", "171228.647500", "171229.107500", "171229.567500", "171230.027500", "171230.487500", "171230.947500", "171231.407500", "171231.867500", "171232.327500", "171232.787500", "171233.247500", "171233.707500", "171234.167500", "171234.627500", "171235.087500", "171235.547500", "171236.007500", "171236.467500", "171236.927500", "171237.387500", "171237.847500", "171238.307500", "171238.767500", "171239.227500", "171239.687500", "171240.147500", "171240.607500", "171241.067500", "171241.527500", "171241.987500", "171242.447500", "171242.907500", "171243.367500", "171243.827500", "171244.287500", "171244.747500", "171245.207500", "171245.667500", "171246.127500", "171246.587500", "171247.047500", "171247.507500", "171247.967500", "171248.427500", "171248.887500", "171249.347500", "171249.807500", "171250.267500", "171250.727500", "171251.187500", "171251.647500", "171252.107500", "171252.567500", "171253.027500", "171253.487500", "171253.947500", "171254.407500", "171254.867500", "171255.327500", "171255.787500", "171256.247500", "171256.707500", "171257.167500", "171257.627500", "171258.087500", "171258.547500", "171259.007500", "171259.467500", "171259.927500", "171300.387500", "171300.847500", "171301.307500", "171301.767500", "171302.227500", "171302.687500", "171303.147500", "171303.607500", "171304.067500", "171304.527500", "171304.987500", "171305.447500", "171305.907500", "171306.367500", "171306.827500", "171307.287500", "171307.747500", "171308.207500", "171308.667500", "171309.127500", "171309.587500", "171310.047500", "171310.507500", "171310.967500", "171311.427500", "171311.887500", "171312.347500", "171312.807500", "171313.267500", "171313.727500", "171314.187500", "171314.647500", "171315.107500", "171315.567500", "171316.027500", "171316.487500", "171316.947500", "171317.407500", "171317.867500", "171318.327500", "171318.787500", "171319.247500", "171319.707500", "171320.167500", "171320.627500", "171321.087500", "171321.547500", "171322.007500", "171322.467500", "171322.927500", "171323.387500", "171323.847500", "171324.307500", "171324.767500", "171325.227500", "171325.687500", "171326.147500", "171326.607500", "171327.067500", "171327.527500", "171327.987500", "171328.447500", "171328.907500", "171329.367500", "171329.827500", "171330.287500", "171330.747500", "171331.207500", "171331.667500", "171332.127500", "171332.587500", "171333.047500", "171333.507500", "171333.967500", "171334.427500", "171334.887500", "171335.347500", "171335.807500", "171336.267500", "171336.727500", "171337.187500", "171337.647500", "171338.107500", "171338.567500", "171339.027500", "171339.487500", "171339.947500", "171340.407500", "171340.867500", "171341.327500", "171341.787500", "171342.247500", "171342.707500", "171343.167500", "171343.627500", "171344.087500", "171344.547500", "171345.007500", "171345.467500", "171345.927500", "171346.387500", "171346.847500", "171347.307500", "171347.767500", "171348.227500", "171348.687500", "171349.147500", "171349.607500", "171350.067500", "171350.527500", "171350.987500", "171351.447500", "171351.907500", "171352.367500", "171352.827500", "171353.287500", "171353.747500", "171354.207500", "171354.667500", "171355.127500", "171355.587500", "171356.047500", "171356.507500", "171356.967500", "171357.427500", "171357.887500", "171358.347500", "171358.807500", "171359.267500", "171359.727500", "171400.187500", "171400.647500", "171401.107500", "171401.567500", "171402.027500", "171402.487500", "171402.947500", "171403.407500", "171403.867500", "171404.327500", "171404.787500", "171405.247500", "171405.707500", "171406.167500", "171406.627500", "171407.087500", "171407.547500", "171408.007500", "171408.467500", "171408.927500", "171409.387500", "171409.847500", "171410.307500", "171410.767500", "171411.227500", "171411.687500", "171412.147500", "171412.607500", "171413.067500", "171413.527500", "171413.987500", "171414.447500", "171414.907500", "171415.367500", "171415.827500", "171416.287500", "171416.747500", "171417.207500", "171417.667500", "171418.127500", "171418.587500", "171419.047500", "171419.507500", "171419.967500", "171420.427500", "171420.887500", "171421.347500", "171421.807500", "171422.267500", "171422.727500", "171423.187500", "171423.647500", "171424.107500", "171424.567500", "171425.027500", "171425.487500", "171425.947500", "171426.407500", "171426.867500", "171427.327500", "171427.787500", "171428.247500", "171428.707500", "171429.167500", "171429.627500", "171430.087500", "171430.547500", "171431.007500", "171431.467500", "171431.927500", "171432.387500", "171432.847500", "171433.307500", "171433.767500", "171434.227500", "171434.687500", "171435.147500", "171435.607500", "171436.067500", "171436.527500", "171436.987500", "171437.447500", "171437.907500", "171438.367500", "171438.827500", "171439.287500", "171439.747500", "171440.207500", "171440.667500", "171441.127500", "171441.587500", "171442.047500", "171442.507500", "171442.967500", "171443.427500", "171443.887500", "171444.347500", "171444.807500", "171445.267500", "171445.727500", "171446.187500", "171446.647500", "171447.107500", "171447.567500", "171448.027500", "171448.487500", "171448.947500", "171449.407500", "171449.867500", "171450.327500", "171450.787500", "171451.247500", "171451.707500", "171452.167500", "171452.627500", "171453.087500", "171453.547500", "171454.007500", "171454.467500", "171454.927500", "171455.387500", "171455.847500", "171456.307500", "171456.767500", "171457.227500", "171457.687500", "171458.147500", "171458.607500", "171459.067500", "171459.527500", "171459.987500", "171500.447500", "171500.907500", "171501.367500", "171501.827500", "171502.287500", "171502.747500", "171503.207500", "171503.667500", "171504.127500", "171504.587500", "171505.047500", "171505.507500", "171505.967500", "171506.427500", "171506.887500", "171507.347500", "171507.807500", "171508.267500", "171508.727500", "171509.187500", "171509.647500", "171510.107500", "171510.567500", "171511.027500", "171511.487500", "171511.947500", "171512.407500", "171512.867500", "171513.327500", "171513.787500", "171514.247500", "171514.707500", "171515.167500", "171515.627500", "171516.087500", "171516.547500", "171517.007500", "171517.467500", "171517.927500", "171518.387500", "171518.847500", "171519.307500", "171519.767500", "171520.227500", "171520.687500", "171521.147500", "171521.607500", "171522.067500", "171522.527500", "171522.987500", "171523.447500", "171523.907500", "171524.367500", "171524.827500", "171525.287500", "171525.747500", "171526.207500", "171526.667500", "171527.127500", "171527.587500", "171528.047500", "171528.507500", "171528.967500", "171529.427500", "171529.887500", "171530.347500", "171530.807500", "171531.267500", "171531.727500", "171532.187500", "171532.647500", "171533.107500", "171533.567500", "171534.027500", "171534.487500", "171534.947500", "171535.407500", "171535.867500", "171536.327500", "171536.787500", "171537.247500", "171537.707500", "171538.167500", "171538.627500", "171539.087500", "171539.547500", "171540.007500", "171540.467500", "171540.927500", "171541.387500", "171541.847500", "171542.307500", "171542.767500", "171543.227500", "171543.687500", "171544.147500", "171544.607500", "171545.067500", "171545.527500", "171545.987500", "171546.447500", "171546.907500", "171547.367500", "171547.827500", "171548.287500", "171548.747500", "171549.207500", "171549.667500", "171550.127500", "171550.587500", "171551.047500", "171551.507500", "171551.967500", "171552.427500", "171552.887500", "171553.347500", "171553.807500", "171554.267500", "171554.727500", "171555.187500", "171555.647500", "171556.107500", "171556.567500", "171557.027500", "171557.487500", "171557.947500", "171558.407500", "171558.867500", "171559.327500", "171559.787500", "171600.247500", "171600.707500", "171601.167500", "171601.627500", "171602.087500", "171602.547500", "171603.007500", "171603.467500", "171603.927500", "171604.387500", "171604.847500", "171605.307500", "171605.767500", "171606.227500", "171606.687500", "171607.147500", "171607.607500", "171608.067500", "171608.527500", "171608.987500", "171609.447500", "171609.907500", "171610.367500", "171610.827500", "171611.287500", "171611.747500", "171612.207500", "171612.667500", "171613.127500", "171613.587500", "171614.047500", "171614.507500", "171614.967500", "171615.427500", "171615.887500", "171616.347500", "171616.807500", "171617.267500", "171617.727500", "171618.187500", "171618.647500", "171619.107500", "171619.567500", "171620.027500", "171620.487500", "171620.947500", "171621.407500", "171621.867500", "171622.327500", "171622.787500", "171623.247500", "171623.707500", "171624.167500", "171624.627500", "171625.087500", "171625.547500", "171626.007500", "171626.467500", "171626.927500", "171627.387500", "171627.847500", "171628.307500", "171628.767500", "171629.227500", "171629.687500", "171630.147500", "171630.607500", "171631.067500", "171631.527500", "171631.987500", "171632.447500", "171632.907500", "171633.367500", "171633.827500", "171634.287500", "171634.747500", "171635.207500", "171635.667500", "171636.127500", "171636.587500", "171637.047500", "171637.507500", "171637.967500", "171638.427500", "171638.887500", "171639.347500", "171639.807500", "171640.267500", "171640.727500", "171641.187500", "171641.647500", "171642.107500", "171642.567500", "171643.027500", "171643.487500", "171643.947500", "171644.407500", "171644.867500", "171645.327500", "171645.787500", "171646.247500", "171646.707500", "171647.167500", "171647.627500", "171648.087500", "171648.547500", "171649.007500", "171649.467500", "171649.927500", "171650.387500", "171650.847500", "171651.307500", "171651.767500", "171652.227500", "171652.687500", "171653.147500", "171653.607500", "171654.067500", "171654.527500", "171654.987500", "171655.447500", "171655.907500", "171656.367500", "171656.827500", "171657.287500", "171657.747500", "171658.207500", "171658.667500", "171659.127500", "171659.587500", "171700.047500", "171700.507500", "171700.967500", "171701.427500", "171701.887500", "171702.347500", "171702.807500", "171703.267500", "171703.727500", "171704.187500", "171704.647500", "171705.107500", "171705.567500", "171706.027500", "171706.487500", "171706.947500", "171707.407500", "171707.867500", "171708.327500", "171708.787500", "171709.247500", "171709.707500", "171710.167500", "171710.627500", "171711.087500", "171711.547500", "171712.007500", "171712.467500", "171712.927500", "171713.387500", "171713.847500", "171714.307500", "171714.767500", "171715.227500", "171715.687500", "171716.147500", "171716.607500", "171717.067500", "171717.527500", "171717.987500", "171718.447500", "171718.907500", "171719.367500", "171719.827500", "171720.287500", "171720.747500", "171721.207500", "171721.667500", "171722.127500", "171722.587500", "171723.047500", "171723.507500", "171723.967500", "171724.427500", "171724.887500", "171725.347500", "171725.807500", "171726.267500", "171726.727500", "171727.187500", "171727.647500", "171728.107500", "171728.567500", "171729.027500", "171729.487500", "171729.947500", "171730.407500", "171730.867500", "171731.327500", "171731.787500", "171732.247500", "171732.707500", "171733.167500", "171733.627500", "171734.087500", "171734.547500", "171735.007500", "171735.467500", "171735.927500", "171736.387500", "171736.847500", "171737.307500", "171737.767500", "171738.227500", "171738.687500", "171739.147500", "171739.607500", "171740.067500", "171740.527500", "171740.987500", "171741.447500", "171741.907500", "171742.367500", "171742.827500", "171743.287500", "171743.747500", "171744.207500", "171744.667500", "171745.127500", "171745.587500", "171746.047500", "171746.507500", "171746.967500", "171747.427500", "171747.887500", "171748.347500", "171748.807500", "171749.267500", "171749.727500", "171750.187500", "171750.647500", "171751.107500", "171751.567500", "171752.027500", "171752.487500", "171752.947500", "171753.407500", "171753.867500", "171754.327500", "171754.787500", "171755.247500", "171755.707500", "171756.167500", "171756.627500", "171757.087500", "171757.547500", "171758.007500", "171758.467500", "171758.927500", "171759.387500", "171759.847500", "171800.307500", "171800.767500", "171801.227500", "171801.687500"],
