{
  "AcquisitionMatrixPE": 82,
  "AcquisitionNumber": 1,
  "AcquisitionTime": "17:18:20.647500",
  "BandwidthPerPixelPhaseEncode": 24.888,
  "BaseResolution": 82,
  "BodyPartExamined": "BRAIN",
  "ConsistencyInfo": "N4_VE11C_LATEST_20160120",
  "ConversionSoftware": "dcm2niix",
  "ConversionSoftwareVersion": "v1.0.20201102",
  "DerivedVendorReportedEchoSpacing": 0.00049,
  "DeviceSerialNumber": "66112",
  "DwellTime": 2e-06,
  "EchoTime": 0.0272,
  "EchoTrainLength": 82,
  "EffectiveEchoSpacing": 0.00049,
  "FlipAngle": 44,
  "ImageComments": "Unaliased MB8/PE3",
  "ImageOrientationPatientDICOM": [0.999287, -0.0238615, 0.0292679, 0.0214556, 0.99657, 0.0799299],
  "ImageType": [
    "ORIGINAL",
    "PRIMARY",
    "M",
    "MB",
    "ND",
    "NORM",
    "MOSAIC"
],
  "ImagingFrequency": 123.252,
  "InPlanePhaseEncodingDirectionDICOM": "COL",
  "InstitutionAddress": "Maynard 3,Hanover,NH,US,03755",
  "InstitutionName": "Dartmouth College - PBS",
  "InstitutionalDepartmentName": "Department",
  "MRAcquisitionType": "2D",
  "MagneticFieldStrength": 3,
  "Manufacturer": "Siemens",
  "ManufacturersModelName": "Prisma",
  "Modality": "MR",
  "MultibandAccelerationFactor": 8,
  "PartialFourier": 1,
  "PatientPosition": "HFS",
  "PercentPhaseFOV": 100,
  "PercentSampling": 100,
  "PhaseEncodingDirection": "j-",
  "PhaseEncodingSteps": 82,
  "PhaseResolution": 1,
  "PixelBandwidth": 3050,
  "ProcedureStepDescription": "Wager_Wager^1076_spacetop",
  "ProtocolName": "func_run-02_task-social_acq-ap-mb8",
  "PulseSequenceDetails": "%CustomerSeq%\\cmrr_mbep2d_bold",
  "ReceiveCoilActiveElements": "HEA;HEP",
  "ReceiveCoilName": "Head_32",
  "ReconMatrixPE": 82,
  "RepetitionTime": 0.46,
  "SAR": 0.0968797,
  "ScanOptions": "FS",
  "ScanningSequence": "EP",
  "SequenceName": "epfid2d1_82",
  "SequenceVariant": "SK\\SS",
  "SeriesDescription": "func_run-02_task-social_acq-ap-mb8",
  "SeriesNumber": 10,
  "ShimSetting": [4159, -7710, -7237, 475, -22, -8, 57, 77],
  "SliceThickness": 2.7,
  "SliceTiming": [0, 0.2525, 0.0625, 0.315, 0.125, 0.3775, 0.19, 0, 0.2525, 0.0625, 0.315, 0.125, 0.3775, 0.19, 0, 0.2525, 0.0625, 0.315, 0.125, 0.3775, 0.19, 0, 0.2525, 0.0625, 0.315, 0.125, 0.3775, 0.19, 0, 0.2525, 0.0625, 0.315, 0.125, 0.3775, 0.19, 0, 0.2525, 0.0625, 0.315, 0.125, 0.3775, 0.19, 0, 0.2525, 0.0625, 0.315, 0.125, 0.3775, 0.19, 0, 0.2525, 0.0625, 0.315, 0.125, 0.3775, 0.19],
  "SoftwareVersions": "syngo MR E11",
  "SpacingBetweenSlices": 2.7,
  "StationName": "AWP66112",
  "TaskName": "social",
  "TotalReadoutTime": 0.03969,
  "TxRefAmp": 229.302,
  "WipMemBlock": "c4c51f28-45d3-48d3-a5b3-42fbb69e53ce||Sequence: R016 ve11c/master r/e634e98; Dec 19 2017 11:00:25 by eja",
  "dcmmeta_affine": [
    [-2.681013345718384, 0.05756368488073349, 0.08390175551176071, 108.0659408569336],
    [0.0640186220407486, 2.6737232208251953, 0.21396134793758392, -103.86685180664062],
    [0.07852357625961304, -0.21444611251354218, 2.6902010440826416, -51.61527633666992],
    [0.0, 0.0, 0.0, 1.0]
],
  "dcmmeta_reorient_transform": [
    [0.0, -1.0, 0.0, 81.0],
    [1.0, 0.0, 0.0, 0.0],
    [0.0, 0.0, 1.0, 0.0],
    [0.0, 0.0, 0.0, 1.0]
],
  "dcmmeta_shape": [82, 82, 56, 872],
  "dcmmeta_slice_dim": 2,
  "dcmmeta_version": 0.6,
  "global": {
    "const": {
      "AccessionNumber": "A003852",
      "AcquisitionMatrix": [82, 0, 0, 82],
      "AngioFlag": "N",
      "BitsAllocated": 16,
      "BitsStored": 16,
      "BodyPartExamined": "BRAIN",
      "Columns": 656,
      "EchoNumbers": 1,
      "EchoTime": 27.2,
      "EchoTrainLength": 82,
      "FlipAngle": 44.0,
      "HighBit": 15,
      "ImageOrientationPatient": [0.99928675602714, -0.0238614859167, 0.02926787861479, 0.02145555439014, 0.99656955023691, 0.07992991133746],
      "ImagePositionPatient": [-898.70019864117, -861.68995609463, -153.06771314972],
      "ImageType": [
        "ORIGINAL",
        "PRIMARY",
        "M",
        "MB",
        "ND",
        "NORM",
        "MOSAIC"
],
      "ImagedNucleus": "1H",
      "ImagingFrequency": 123.252222,
      "InPlanePhaseEncodingDirection": "COL",
      "MRAcquisitionType": "2D",
      "MagneticFieldStrength": 3.0,
      "Manufacturer": "SIEMENS",
      "ManufacturerModelName": "Prisma",
      "Modality": "MR",
      "NumberOfAverages": 1.0,
      "NumberOfPhaseEncodingSteps": 82,
      "PercentPhaseFieldOfView": 100.0,
      "PercentSampling": 100.0,
      "PerformedProcedureStepStartTime": "164353.731000",
      "PhotometricInterpretation": "MONOCHROME2",
      "PixelBandwidth": 3050.0,
      "PixelRepresentation": 0,
      "PixelSpacing": [2.6829268932343, 2.6829268932343],
      "ProtocolName": "func_run-02_task-social_acq-ap-mb8",
      "RepetitionTime": 460.0,
      "Rows": 656,
      "SAR": 0.09687973037064,
      "SamplesPerPixel": 1,
      "ScanOptions": "FS",
      "ScanningSequence": "EP",
      "SequenceName": "epfid2d1_82",
      "SequenceVariant": [
        "SK",
        "SS"
],
      "SeriesDescription": "func_run-02_task-social_acq-ap-mb8",
      "SeriesNumber": 10,
      "SeriesTime": "171845.837000",
      "SliceLocation": -56.30075523142,
      "SliceThickness": 2.7000000476837,
      "SmallestImagePixelValue": 0,
      "SoftwareVersions": "syngo MR E11",
      "SpacingBetweenSlices": 2.700000014083,
      "SpecificCharacterSet": "ISO_IR 100",
      "StudyID": "1",
      "StudyTime": "164353.663000",
      "TransmitCoilName": "Body",
      "VariableFlipAngleFlag": "N",
      "WindowCenterWidthExplanation": "Algo1",
      "dBdt": 0.0},
    "slices": {}
  },
  "time": {
    "samples": {
      "AcquisitionNumber": [1, 2, 3, 4, 5, 6, 7, 8, 9, 10, 11, 12, 13, 14, 15, 16, 17, 18, 19, 20, 21, 22, 23, 24, 25, 26, 27, 28, 29, 30, 31, 32, 33, 34, 35, 36, 37, 38, 39, 40, 41, 42, 43, 44, 45, 46, 47, 48, 49, 50, 51, 52, 53, 54, 55, 56, 57, 58, 59, 60, 61, 62, 63, 64, 65, 66, 67, 68, 69, 70, 71, 72, 73, 74, 75, 76, 77, 78, 79, 80, 81, 82, 83, 84, 85, 86, 87, 88, 89, 90, 91, 92, 93, 94, 95, 96, 97, 98, 99, 100, 101, 102, 103, 104, 105, 106, 107, 108, 109, 110, 111, 112, 113, 114, 115, 116, 117, 118, 119, 120, 121, 122, 123, 124, 125, 126, 127, 128, 129, 130, 131, 132, 133, 134, 135, 136, 137, 138, 139, 140, 141, 142, 143, 144, 145, 146, 147, 148, 149, 150, 151, 152, 153, 154, 155, 156, 157, 158, 159, 160, 161, 162, 163, 164, 165, 166, 167, 168, 169, 170, 171, 172, 173, 174, 175, 176, 177, 178, 179, 180, 181, 182, 183, 184, 185, 186, 187, 188, 189, 190, 191, 192, 193, 194, 195, 196, 197, 198, 199, 200, 201, 202, 203, 204, 205, 206, 207, 208, 209, 210, 211, 212, 213, 214, 215, 216, 217, 218, 219, 220, 221, 222, 223, 224, 225, 226, 227, 228, 229, 230, 231, 232, 233, 234, 235, 236, 237, 238, 239, 240, 241, 242, 243, 244, 245, 246, 247, 248, 249, 250, 251, 252, 253, 254, 255, 256, 257, 258, 259, 260, 261, 262, 263, 264, 265, 266, 267, 268, 269, 270, 271, 272, 273, 274, 275, 276, 277, 278, 279, 280, 281, 282, 283, 284, 285, 286, 287, 288, 289, 290, 291, 292, 293, 294, 295, 296, 297, 298, 299, 300, 301, 302, 303, 304, 305, 306, 307, 308, 309, 310, 311, 312, 313, 314, 315, 316, 317, 318, 319, 320, 321, 322, 323, 324, 325, 326, 327, 328, 329, 330, 331, 332, 333, 334, 335, 336, 337, 338, 339, 340, 341, 342, 343, 344, 345, 346, 347, 348, 349, 350, 351, 352, 353, 354, 355, 356, 357, 358, 359, 360, 361, 362, 363, 364, 365, 366, 367, 368, 369, 370, 371, 372, 373, 374, 375, 376, 377, 378, 379, 380, 381, 382, 383, 384, 385, 386, 387, 388, 389, 390, 391, 392, 393, 394, 395, 396, 397, 398, 399, 400, 401, 402, 403, 404, 405, 406, 407, 408, 409, 410, 411, 412, 413, 414, 415, 416, 417, 418, 419, 420, 421, 422, 423, 424, 425, 426, 427, 428, 429, 430, 431, 432, 433, 434, 435, 436, 437, 438, 439, 440, 441, 442, 443, 444, 445, 446, 447, 448, 449, 450, 451, 452, 453, 454, 455, 456, 457, 458, 459, 460, 461, 462, 463, 464, 465, 466, 467, 468, 469, 470, 471, 472, 473, 474, 475, 476, 477, 478, 479, 480, 481, 482, 483, 484, 485, 486, 487, 488, 489, 490, 491, 492, 493, 494, 495, 496, 497, 498, 499, 500, 501, 502, 503, 504, 505, 506, 507, 508, 509, 510, 511, 512, 513, 514, 515, 516, 517, 518, 519, 520, 521, 522, 523, 524, 525, 526, 527, 528, 529, 530, 531, 532, 533, 534, 535, 536, 537, 538, 539, 540, 541, 542, 543, 544, 545, 546, 547, 548, 549, 550, 551, 552, 553, 554, 555, 556, 557, 558, 559, 560, 561, 562, 563, 564, 565, 566, 567, 568, 569, 570, 571, 572, 573, 574, 575, 576, 577, 578, 579, 580, 581, 582, 583, 584, 585, 586, 587, 588, 589, 590, 591, 592, 593, 594, 595, 596, 597, 598, 599, 600, 601, 602, 603, 604, 605, 606, 607, 608, 609, 610, 611, 612, 613, 614, 615, 616, 617, 618, 619, 620, 621, 622, 623, 624, 625, 626, 627, 628, 629, 630, 631, 632, 633, 634, 635, 636, 637, 638, 639, 640, 641, 642, 643, 644, 645, 646, 647, 648, 649, 650, 651, 652, 653, 654, 655, 656, 657, 658, 659, 660, 661, 662, 663, 664, 665, 666, 667, 668, 669, 670, 671, 672, 673, 674, 675, 676, 677, 678, 679, 680, 681, 682, 683, 684, 685, 686, 687, 688, 689, 690, 691, 692, 693, 694, 695, 696, 697, 698, 699, 700, 701, 702, 703, 704, 705, 706, 707, 708, 709, 710, 711, 712, 713, 714, 715, 716, 717, 718, 719, 720, 721, 722, 723, 724, 725, 726, 727, 728, 729, 730, 731, 732, 733, 734, 735, 736, 737, 738, 739, 740, 741, 742, 743, 744, 745, 746, 747, 748, 749, 750, 751, 752, 753, 754, 755, 756, 757, 758, 759, 760, 761, 762, 763, 764, 765, 766, 767, 768, 769, 770, 771, 772, 773, 774, 775, 776, 777, 778, 779, 780, 781, 782, 783, 784, 785, 786, 787, 788, 789, 790, 791, 792, 793, 794, 795, 796, 797, 798, 799, 800, 801, 802, 803, 804, 805, 806, 807, 808, 809, 810, 811, 812, 813, 814, 815, 816, 817, 818, 819, 820, 821, 822, 823, 824, 825, 826, 827, 828, 829, 830, 831, 832, 833, 834, 835, 836, 837, 838, 839, 840, 841, 842, 843, 844, 845, 846, 847, 848, 849, 850, 851, 852, 853, 854, 855, 856, 857, 858, 859, 860, 861, 862, 863, 864, 865, 866, 867, 868, 869, 870, 871, 872],
      "AcquisitionTime": ["171820.647500", "171821.107500", "171821.567500", "171822.027500", "171822.487500", "171822.947500", "171823.407500", "171823.867500", "171824.327500", "171824.787500", "171825.247500", "171825.707500", "171826.167500", "171826.627500", "171827.087500", "171827.547500", "171828.007500", "171828.467500", "171828.927500", "171829.387500", "171829.847500", "171830.307500", "171830.767500", "171831.227500", "171831.687500", "171832.147500", "171832.607500", "171833.067500", "171833.527500", "171833.987500", "171834.447500", "171834.907500", "171835.367500", "171835.827500", "171836.287500", "171836.747500", "171837.207500", "171837.667500", "171838.127500", "171838.587500", "171839.047500", "171839.507500", "171839.967500", "171840.427500", "171840.887500", "171841.347500", "171841.807500", "171842.267500", "171842.727500", "171843.187500", "171843.647500", "171844.107500", "171844.567500", "171845.027500", "171845.487500", "171845.947500", "171846.407500", "171846.867500", "171847.327500", "171847.787500", "171848.247500", "171848.707500", "171849.167500", "171849.627500", "171850.087500", "171850.547500", "171851.007500", "171851.467500", "171851.927500", "171852.387500", "171852.847500", "171853.307500", "171853.767500", "171854.227500", "171854.687500", "171855.147500", "171855.607500", "171856.067500", "171856.527500", "171856.987500", "171857.447500", "171857.907500", "171858.367500", "171858.827500", "171859.287500", "171859.747500", "171900.207500", "171900.667500", "171901.127500", "171901.587500", "171902.047500", "171902.507500", "171902.967500", "171903.427500", "171903.887500", "171904.347500", "171904.807500", "171905.267500", "171905.727500", "171906.187500", "171906.647500", "171907.107500", "171907.567500", "171908.027500", "171908.487500", "171908.947500", "171909.407500", "171909.867500", "171910.327500", "171910.787500", "171911.247500", "171911.707500", "171912.167500", "171912.627500", "171913.087500", "171913.547500", "171914.007500", "171914.467500", "171914.927500", "171915.387500", "171915.847500", "171916.307500", "171916.767500", "171917.227500", "171917.687500", "171918.147500", "171918.607500", "171919.067500", "171919.527500", "171919.987500", "171920.447500", "171920.907500", "171921.367500", "171921.827500", "171922.287500", "171922.747500", "171923.207500", "171923.667500", "171924.127500", "171924.587500", "171925.047500", "171925.507500", "171925.967500", "171926.427500", "171926.887500", "171927.347500", "171927.807500", "171928.267500", "171928.727500", "171929.187500", "171929.647500", "171930.107500", "171930.567500", "171931.027500", "171931.487500", "171931.947500", "171932.407500", "171932.867500", "171933.327500", "171933.787500", "171934.247500", "171934.707500", "171935.167500", "171935.627500", "171936.087500", "171936.547500", "171937.007500", "171937.467500", "171937.927500", "171938.387500", "171938.847500", "171939.307500", "171939.767500", "171940.227500", "171940.687500", "171941.147500", "171941.607500", "171942.067500", "171942.527500", "171942.987500", "171943.447500", "171943.907500", "171944.367500", "171944.827500", "171945.287500", "171945.747500", "171946.207500", "171946.667500", "171947.127500", "171947.587500", "171948.047500", "171948.507500", "171948.967500", "171949.427500", "171949.887500", "171950.347500", "171950.807500", "171951.267500", "171951.727500", "171952.187500", "171952.647500", "171953.107500", "171953.567500", "171954.027500", "171954.487500", "171954.947500", "171955.407500", "171955.867500", "171956.327500", "171956.787500", "171957.247500", "171957.707500", "171958.167500", "171958.627500", "171959.087500", "171959.547500", "172000.007500", "172000.467500", "172000.927500", "172001.387500", "172001.847500", "172002.307500", "172002.767500", "172003.227500", "172003.687500", "172004.147500", "172004.607500", "172005.067500", "172005.527500", "172005.987500", "172006.447500", "172006.907500", "172007.367500", "172007.827500", "172008.287500", "172008.747500", "172009.207500", "172009.667500", "172010.127500", "172010.587500", "172011.047500", "172011.507500", "172011.967500", "172012.427500", "172012.887500", "172013.347500", "172013.807500", "172014.267500", "172014.727500", "172015.187500", "172015.647500", "172016.107500", "172016.567500", "172017.027500", "172017.487500", "172017.947500", "172018.407500", "172018.867500", "172019.327500", "172019.787500", "172020.247500", "172020.707500", "172021.167500", "172021.627500", "172022.087500", "172022.547500", "172023.007500", "172023.467500", "172023.927500", "172024.387500", "172024.847500", "172025.307500", "172025.767500", "172026.227500", "172026.687500", "172027.147500", "172027.607500", "172028.067500", "172028.527500", "172028.987500", "172029.447500", "172029.907500", "172030.367500", "172030.827500", "172031.287500", "172031.747500", "172032.207500", "172032.667500", "172033.127500", "172033.587500", "172034.047500", "172034.507500", "172034.967500", "172035.427500", "172035.887500", "172036.347500", "172036.807500", "172037.267500", "172037.727500", "172038.187500", "172038.647500", "172039.107500", "172039.567500", "172040.027500", "172040.487500", "172040.947500", "172041.407500", "172041.867500", "172042.327500", "172042.787500", "172043.247500", "172043.707500", "172044.167500", "172044.627500", "172045.087500", "172045.547500", "172046.007500", "172046.467500", "172046.927500", "172047.387500", "172047.847500", "172048.307500", "172048.767500", "172049.227500", "172049.687500", "172050.147500", "172050.607500", "172051.067500", "172051.527500", "172051.987500", "172052.447500", "172052.907500", "172053.367500", "172053.827500", "172054.287500", "172054.747500", "172055.207500", "172055.667500", "172056.127500", "172056.587500", "172057.047500", "172057.507500", "172057.967500", "172058.427500", "172058.887500", "172059.347500", "172059.807500", "172100.267500", "172100.727500", "172101.187500", "172101.647500", "172102.107500", "172102.567500", "172103.027500", "172103.487500", "172103.947500", "172104.407500", "172104.867500", "172105.327500", "172105.787500", "172106.247500", "172106.707500", "172107.167500", "172107.627500", "172108.087500", "172108.547500", "172109.007500", "172109.467500", "172109.927500", "172110.387500", "172110.847500", "172111.307500", "172111.767500", "172112.227500", "172112.687500", "172113.147500", "172113.607500", "172114.067500", "172114.527500", "172114.987500", "172115.447500", "172115.907500", "172116.367500", "172116.827500", "172117.287500", "172117.747500", "172118.207500", "172118.667500", "172119.127500", "172119.587500", "172120.047500", "172120.507500", "172120.967500", "172121.427500", "172121.887500", "172122.347500", "172122.807500", "172123.267500", "172123.727500", "172124.187500", "172124.647500", "172125.107500", "172125.567500", "172126.027500", "172126.487500", "172126.947500", "172127.407500", "172127.867500", "172128.327500", "172128.787500", "172129.247500", "172129.707500", "172130.167500", "172130.627500", "172131.087500", "172131.547500", "172132.007500", "172132.467500", "172132.927500", "172133.387500", "172133.847500", "172134.307500", "172134.767500", "172135.227500", "172135.687500", "172136.147500", "172136.607500", "172137.067500", "172137.527500", "172137.987500", "172138.447500", "172138.907500", "172139.367500", "172139.827500", "172140.287500", "172140.747500", "172141.207500", "172141.667500", "172142.127500", "172142.587500", "172143.047500", "172143.507500", "172143.967500", "172144.427500", "172144.887500", "172145.347500", "172145.807500", "172146.267500", "172146.727500", "172147.187500", "172147.647500", "172148.107500", "172148.567500", "172149.027500", "172149.487500", "172149.947500", "172150.407500", "172150.867500", "172151.327500", "172151.787500", "172152.247500", "172152.707500", "172153.167500", "172153.627500", "172154.087500", "172154.547500", "172155.007500", "172155.467500", "172155.927500", "172156.387500", "172156.847500", "172157.307500", "172157.767500", "172158.227500", "172158.687500", "172159.147500", "172159.607500", "172200.067500", "172200.527500", "172200.987500", "172201.447500", "172201.907500", "172202.367500", "172202.827500", "172203.287500", "172203.747500", "172204.207500", "172204.667500", "172205.127500", "172205.587500", "172206.047500", "172206.507500", "172206.967500", "172207.427500", "172207.887500", "172208.347500", "172208.807500", "172209.267500", "172209.727500", "172210.187500", "172210.647500", "172211.107500", "172211.567500", "172212.027500", "172212.487500", "172212.947500", "172213.407500", "172213.867500", "172214.327500", "172214.787500", "172215.247500", "172215.707500", "172216.167500", "172216.627500", "172217.087500", "172217.547500", "172218.007500", "172218.467500", "172218.927500", "172219.387500", "172219.847500", "172220.307500", "172220.767500", "172221.227500", "172221.687500", "172222.147500", "172222.607500", "172223.067500", "172223.527500", "172223.987500", "172224.447500", "172224.907500", "172225.367500", "172225.827500", "172226.287500", "172226.747500", "172227.207500", "172227.667500", "172228.127500", "172228.587500", "172229.047500", "172229.507500", "172229.967500", "172230.427500", "172230.887500", "172231.347500", "172231.807500", "172232.267500", "172232.727500", "172233.187500", "172233.647500", "172234.107500", "172234.567500", "172235.027500", "172235.487500", "172235.947500", "172236.407500", "172236.867500", "172237.327500", "172237.787500", "172238.247500", "172238.707500", "172239.167500", "172239.627500", "172240.087500", "172240.547500", "172241.007500", "172241.467500", "172241.927500", "172242.387500", "172242.847500", "172243.307500", "172243.767500", "172244.227500", "172244.687500", "172245.147500", "172245.607500", "172246.067500", "172246.527500", "172246.987500", "172247.447500", "172247.907500", "172248.367500", "172248.827500", "172249.287500", "172249.747500", "172250.207500", "172250.667500", "172251.127500", "172251.587500", "172252.047500", "172252.507500", "172252.967500", "172253.427500", "172253.887500", "172254.347500", "172254.807500", "172255.267500", "172255.727500", "172256.187500", "172256.647500", "172257.107500", "172257.567500", "172258.027500", "172258.487500", "172258.947500", "172259.407500", "172259.867500", "172300.327500", "172300.787500", "172301.247500", "172301.707500", "172302.167500", "172302.627500", "172303.087500", "172303.547500", "172304.007500", "172304.467500", "172304.927500", "172305.387500", "172305.847500", "172306.307500", "172306.767500", "172307.227500", "172307.687500", "172308.147500", "172308.607500", "172309.067500", "172309.527500", "172309.987500", "172310.447500", "172310.907500", "172311.367500", "172311.827500", "172312.287500", "172312.747500", "172313.207500", "172313.667500", "172314.127500", "172314.587500", "172315.047500", "172315.507500", "172315.967500", "172316.427500", "172316.887500", "172317.347500", "172317.807500", "172318.267500", "172318.727500", "172319.187500", "172319.647500", "172320.107500", "172320.567500", "172321.027500", "172321.487500", "172321.947500", "172322.407500", "172322.867500", "172323.327500", "172323.787500", "172324.247500", "172324.707500", "172325.167500", "172325.627500", "172326.087500", "172326.547500", "172327.007500", "172327.467500", "172327.927500", "172328.387500", "172328.847500", "172329.307500", "172329.767500", "172330.227500", "172330.687500", "172331.147500", "172331.607500", "172332.067500", "172332.527500", "172332.987500", "172333.447500", "172333.907500", "172334.367500", "172334.827500", "172335.287500", "172335.747500", "172336.207500", "172336.667500", "172337.127500", "172337.587500", "172338.047500", "172338.507500", "172338.967500", "172339.427500", "172339.887500", "172340.347500", "172340.807500", "172341.267500", "172341.727500", "172342.187500", "172342.647500", "172343.107500", "172343.567500", "172344.027500", "172344.487500", "172344.947500", "172345.407500", "172345.867500", "172346.327500", "172346.787500", "172347.247500", "172347.707500", "172348.167500", "172348.627500", "172349.087500", "172349.547500", "172350.007500", "172350.467500", "172350.927500", "172351.387500", "172351.847500", "172352.307500", "172352.767500", "172353.227500", "172353.687500", "172354.147500", "172354.607500", "172355.067500", "172355.527500", "172355.987500", "172356.447500", "172356.907500", "172357.367500", "172357.827500", "172358.287500", "172358.747500", "172359.207500", "172359.667500", "172400.127500", "172400.587500", "172401.047500", "172401.507500", "172401.967500", "172402.427500", "172402.887500", "172403.347500", "172403.807500", "172404.267500", "172404.727500", "172405.187500", "172405.647500", "172406.107500", "172406.567500", "172407.027500", "172407.487500", "172407.947500", "172408.407500", "172408.867500", "172409.327500", "172409.787500", "172410.247500", "172410.707500", "172411.167500", "172411.627500", "172412.087500", "172412.547500", "172413.007500", "172413.467500", "172413.927500", "172414.387500", "172414.847500", "172415.307500", "172415.767500", "172416.227500", "172416.687500", "172417.147500", "172417.607500", "172418.067500", "172418.527500", "172418.987500", "172419.447500", "172419.907500", "172420.367500", "172420.827500", "172421.287500", "172421.747500", "172422.207500", "172422.667500", "172423.127500", "172423.587500", "172424.047500", "172424.507500", "172424.967500", "172425.427500", "172425.887500", "172426.347500", "172426.807500", "172427.267500", "172427.727500", "172428.187500", "172428.647500", "172429.107500", "172429.567500", "172430.027500", "172430.487500", "172430.947500", "172431.407500", "172431.867500", "172432.327500", "172432.787500", "172433.247500", "172433.707500", "172434.167500", "172434.627500", "172435.087500", "172435.547500", "172436.007500", "172436.467500", "172436.927500", "172437.387500", "172437.847500", "172438.307500", "172438.767500", "172439.227500", "172439.687500", "172440.147500", "172440.607500", "172441.067500", "172441.527500", "172441.987500", "172442.447500", "172442.907500", "172443.367500", "172443.827500", "172444.287500", "172444.747500", "172445.207500", "172445.667500", "172446.127500", "172446.587500", "172447.047500", "172447.507500", "172447.967500", "172448.427500", "172448.887500", "172449.347500", "172449.807500", "172450.267500", "172450.727500", "172451.187500", "172451.647500", "172452.107500", "172452.567500", "172453.027500", "172453.487500", "172453.947500", "172454.407500", "172454.867500", "172455.327500", "172455.787500", "172456.247500", "172456.707500", "172457.167500", "172457.627500", "172458.087500", "172458.547500", "172459.007500", "172459.467500", "172459.927500", "172500.387500", "172500.847500", "172501.307500"],
