{
  "AcquisitionMatrixPE": 82,
  "AcquisitionNumber": 1,
  "AcquisitionTime": "13:50:35.585000",
  "BandwidthPerPixelPhaseEncode": 24.888,
  "BaseResolution": 82,
  "BodyPartExamined": "BRAIN",
  "ConsistencyInfo": "N4_VE11E_LATEST_20181129",
  "ConversionSoftware": "dcm2niix",
  "ConversionSoftwareVersion": "v1.0.20201102",
  "DerivedVendorReportedEchoSpacing": 0.00049,
  "DeviceSerialNumber": "66112",
  "DwellTime": 2e-06,
  "EchoTime": 0.0272,
  "EchoTrainLength": 82,
  "EffectiveEchoSpacing": 0.00049,
  "FlipAngle": 44,
  "ImageComments": "Unaliased MB8/PE3",
  "ImageOrientationPatientDICOM": [0.999037, 0.0298197, 0.0321938, -0.0310469, 0.998783, 0.0383168],
  "ImageType": [
    "ORIGINAL",
    "PRIMARY",
    "M",
    "MB",
    "ND",
    "NORM",
    "MOSAIC"
],
  "ImagingFrequency": 123.252,
  "InPlanePhaseEncodingDirectionDICOM": "COL",
  "InstitutionAddress": "Maynard 3,Hanover,NH,US,03755",
  "InstitutionName": "dartmouth_brain_imaging_center",
  "InstitutionalDepartmentName": "Department",
  "MRAcquisitionType": "2D",
  "MagneticFieldStrength": 3,
  "Manufacturer": "Siemens",
  "ManufacturersModelName": "Prisma",
  "Modality": "MR",
  "MultibandAccelerationFactor": 8,
  "PartialFourier": 1,
  "PatientPosition": "HFS",
  "PercentPhaseFOV": 100,
  "PercentSampling": 100,
  "PhaseEncodingDirection": "j-",
  "PhaseEncodingSteps": 82,
  "PhaseResolution": 1,
  "PixelBandwidth": 3050,
  "ProcedureStepDescription": "Wager_Wager^1076_spacetop",
  "ProtocolName": "func_run-01_task-faces_acq-ap-mb8",
  "PulseSequenceDetails": "%CustomerSeq%\\cmrr_mbep2d_bold",
  "ReceiveCoilActiveElements": "HEA;HEP",
  "ReceiveCoilName": "Head_32",
  "ReconMatrixPE": 82,
  "RepetitionTime": 0.46,
  "SAR": 0.123101,
  "ScanOptions": "FS",
  "ScanningSequence": "EP",
  "SequenceName": "epfid2d1_82",
  "SequenceVariant": "SK\\SS",
  "SeriesDescription": "func_run-01_task-faces_acq-ap-mb8",
  "SeriesNumber": 18,
  "ShimSetting": [4142, -7767, -7252, 475, -57, -101, 4, 35],
  "SliceThickness": 2.7,
  "SliceTiming": [0, 0.2525, 0.065, 0.315, 0.1275, 0.3775, 0.19, 0, 0.2525, 0.065, 0.315, 0.1275, 0.3775, 0.19, 0, 0.2525, 0.065, 0.315, 0.1275, 0.3775, 0.19, 0, 0.2525, 0.065, 0.315, 0.1275, 0.3775, 0.19, 0, 0.2525, 0.065, 0.315, 0.1275, 0.3775, 0.19, 0, 0.2525, 0.065, 0.315, 0.1275, 0.3775, 0.19, 0, 0.2525, 0.065, 0.315, 0.1275, 0.3775, 0.19, 0, 0.2525, 0.065, 0.315, 0.1275, 0.3775, 0.19],
  "SoftwareVersions": "syngo MR E11",
  "SpacingBetweenSlices": 2.7,
  "StationName": "AWP66112",
  "TaskName": "faces",
  "TotalReadoutTime": 0.03969,
  "TxRefAmp": 269.146,
  "WipMemBlock": "40b9e290-7890-4d60-b552-495fd160c076||Sequence: R016 ve11e/master r/434b28f1; Aug  7 2019 18:53:46 by eja",
  "dcmmeta_affine": [
    [-2.680342435836792, -0.08329656720161438, 0.08373238891363144, 118.11659240722656],
    [-0.08000411838293076, 2.6796624660491943, 0.10605449229478836, -94.88450622558594],
    [0.08637352287769318, -0.10280126333236694, 2.6966166496276855, -43.06901168823242],
    [0.0, 0.0, 0.0, 1.0]
],
  "dcmmeta_reorient_transform": [
    [0.0, -1.0, 0.0, 81.0],
    [1.0, 0.0, 0.0, 0.0],
    [0.0, 0.0, 1.0, 0.0],
    [0.0, 0.0, 0.0, 1.0]
],
  "dcmmeta_shape": [82, 82, 56, 914],
  "dcmmeta_slice_dim": 2,
  "dcmmeta_version": 0.6,
  "global": {
    "const": {
      "AccessionNumber": "A003899",
      "AcquisitionMatrix": [82, 0, 0, 82],
      "AngioFlag": "N",
      "BitsAllocated": 16,
      "BitsStored": 16,
      "BodyPartExamined": "BRAIN",
      "Columns": 656,
      "EchoNumbers": 1,
      "EchoTime": 27.2,
      "EchoTrainLength": 82,
      "FlipAngle": 44.0,
      "HighBit": 15,
      "ImageOrientationPatient": [0.99903670901785, 0.02981971579724, 0.03219376623751, -0.0310469020279, 0.99878321474184, 0.03831683473899],
      "ImagePositionPatient": [-856.72173697234, -914.19241861635, -105.68907795832],
      "ImageType": [
        "ORIGINAL",
        "PRIMARY",
        "M",
        "MB",
        "ND",
        "NORM",
        "MOSAIC"
],
      "ImagedNucleus": "1H",
      "ImagingFrequency": 123.252169,
      "InPlanePhaseEncodingDirection": "COL",
      "MRAcquisitionType": "2D",
      "MagneticFieldStrength": 3.0,
      "Manufacturer": "SIEMENS",
      "ManufacturerModelName": "Prisma",
      "Modality": "MR",
      "NumberOfAverages": 1.0,
      "NumberOfPhaseEncodingSteps": 82,
      "PercentPhaseFieldOfView": 100.0,
      "PercentSampling": 100.0,
      "PerformedProcedureStepStartTime": "124447.648000",
      "PhotometricInterpretation": "MONOCHROME2",
      "PixelBandwidth": 3050.0,
      "PixelRepresentation": 0,
      "PixelSpacing": [2.6829268932343, 2.6829268932343],
      "ProtocolName": "func_run-01_task-faces_acq-ap-mb8",
      "RepetitionTime": 460.0,
      "Rows": 656,
      "SAR": 0.12310075703756,
      "SamplesPerPixel": 1,
      "ScanOptions": "FS",
      "ScanningSequence": "EP",
      "SequenceName": "epfid2d1_82",
      "SequenceVariant": [
        "SK",
        "SS"
],
      "SeriesDescription": "func_run-01_task-faces_acq-ap-mb8",
      "SeriesNumber": 18,
      "SeriesTime": "135052.889000",
      "SliceLocation": -43.07902097202,
      "SliceThickness": 2.7000000476837,
      "SmallestImagePixelValue": 0,
      "SoftwareVersions": "syngo MR E11",
      "SpacingBetweenSlices": 2.7000000644077,
      "SpecificCharacterSet": "ISO_IR 100",
      "StudyID": "2",
      "StudyTime": "124447.571000",
      "TransmitCoilName": "Body",
      "VariableFlipAngleFlag": "N",
      "WindowCenterWidthExplanation": "Algo1"
    },
    "slices": {}
  },
  "time": {
    "samples": {
      "AcquisitionNumber": [1, 2, 3, 4, 5, 6, 7, 8, 9, 10, 11, 12, 13, 14, 15, 16, 17, 18, 19, 20, 21, 22, 23, 24, 25, 26, 27, 28, 29, 30, 31, 32, 33, 34, 35, 36, 37, 38, 39, 40, 41, 42, 43, 44, 45, 46, 47, 48, 49, 50, 51, 52, 53, 54, 55, 56, 57, 58, 59, 60, 61, 62, 63, 64, 65, 66, 67, 68, 69, 70, 71, 72, 73, 74, 75, 76, 77, 78, 79, 80, 81, 82, 83, 84, 85, 86, 87, 88, 89, 90, 91, 92, 93, 94, 95, 96, 97, 98, 99, 100, 101, 102, 103, 104, 105, 106, 107, 108, 109, 110, 111, 112, 113, 114, 115, 116, 117, 118, 119, 120, 121, 122, 123, 124, 125, 126, 127, 128, 129, 130, 131, 132, 133, 134, 135, 136, 137, 138, 139, 140, 141, 142, 143, 144, 145, 146, 147, 148, 149, 150, 151, 152, 153, 154, 155, 156, 157, 158, 159, 160, 161, 162, 163, 164, 165, 166, 167, 168, 169, 170, 171, 172, 173, 174, 175, 176, 177, 178, 179, 180, 181, 182, 183, 184, 185, 186, 187, 188, 189, 190, 191, 192, 193, 194, 195, 196, 197, 198, 199, 200, 201, 202, 203, 204, 205, 206, 207, 208, 209, 210, 211, 212, 213, 214, 215, 216, 217, 218, 219, 220, 221, 222, 223, 224, 225, 226, 227, 228, 229, 230, 231, 232, 233, 234, 235, 236, 237, 238, 239, 240, 241, 242, 243, 244, 245, 246, 247, 248, 249, 250, 251, 252, 253, 254, 255, 256, 257, 258, 259, 260, 261, 262, 263, 264, 265, 266, 267, 268, 269, 270, 271, 272, 273, 274, 275, 276, 277, 278, 279, 280, 281, 282, 283, 284, 285, 286, 287, 288, 289, 290, 291, 292, 293, 294, 295, 296, 297, 298, 299, 300, 301, 302, 303, 304, 305, 306, 307, 308, 309, 310, 311, 312, 313, 314, 315, 316, 317, 318, 319, 320, 321, 322, 323, 324, 325, 326, 327, 328, 329, 330, 331, 332, 333, 334, 335, 336, 337, 338, 339, 340, 341, 342, 343, 344, 345, 346, 347, 348, 349, 350, 351, 352, 353, 354, 355, 356, 357, 358, 359, 360, 361, 362, 363, 364, 365, 366, 367, 368, 369, 370, 371, 372, 373, 374, 375, 376, 377, 378, 379, 380, 381, 382, 383, 384, 385, 386, 387, 388, 389, 390, 391, 392, 393, 394, 395, 396, 397, 398, 399, 400, 401, 402, 403, 404, 405, 406, 407, 408, 409, 410, 411, 412, 413, 414, 415, 416, 417, 418, 419, 420, 421, 422, 423, 424, 425, 426, 427, 428, 429, 430, 431, 432, 433, 434, 435, 436, 437, 438, 439, 440, 441, 442, 443, 444, 445, 446, 447, 448, 449, 450, 451, 452, 453, 454, 455, 456, 457, 458, 459, 460, 461, 462, 463, 464, 465, 466, 467, 468, 469, 470, 471, 472, 473, 474, 475, 476, 477, 478, 479, 480, 481, 482, 483, 484, 485, 486, 487, 488, 489, 490, 491, 492, 493, 494, 495, 496, 497, 498, 499, 500, 501, 502, 503, 504, 505, 506, 507, 508, 509, 510, 511, 512, 513, 514, 515, 516, 517, 518, 519, 520, 521, 522, 523, 524, 525, 526, 527, 528, 529, 530, 531, 532, 533, 534, 535, 536, 537, 538, 539, 540, 541, 542, 543, 544, 545, 546, 547, 548, 549, 550, 551, 552, 553, 554, 555, 556, 557, 558, 559, 560, 561, 562, 563, 564, 565, 566, 567, 568, 569, 570, 571, 572, 573, 574, 575, 576, 577, 578, 579, 580, 581, 582, 583, 584, 585, 586, 587, 588, 589, 590, 591, 592, 593, 594, 595, 596, 597, 598, 599, 600, 601, 602, 603, 604, 605, 606, 607, 608, 609, 610, 611, 612, 613, 614, 615, 616, 617, 618, 619, 620, 621, 622, 623, 624, 625, 626, 627, 628, 629, 630, 631, 632, 633, 634, 635, 636, 637, 638, 639, 640, 641, 642, 643, 644, 645, 646, 647, 648, 649, 650, 651, 652, 653, 654, 655, 656, 657, 658, 659, 660, 661, 662, 663, 664, 665, 666, 667, 668, 669, 670, 671, 672, 673, 674, 675, 676, 677, 678, 679, 680, 681, 682, 683, 684, 685, 686, 687, 688, 689, 690, 691, 692, 693, 694, 695, 696, 697, 698, 699, 700, 701, 702, 703, 704, 705, 706, 707, 708, 709, 710, 711, 712, 713, 714, 715, 716, 717, 718, 719, 720, 721, 722, 723, 724, 725, 726, 727, 728, 729, 730, 731, 732, 733, 734, 735, 736, 737, 738, 739, 740, 741, 742, 743, 744, 745, 746, 747, 748, 749, 750, 751, 752, 753, 754, 755, 756, 757, 758, 759, 760, 761, 762, 763, 764, 765, 766, 767, 768, 769, 770, 771, 772, 773, 774, 775, 776, 777, 778, 779, 780, 781, 782, 783, 784, 785, 786, 787, 788, 789, 790, 791, 792, 793, 794, 795, 796, 797, 798, 799, 800, 801, 802, 803, 804, 805, 806, 807, 808, 809, 810, 811, 812, 813, 814, 815, 816, 817, 818, 819, 820, 821, 822, 823, 824, 825, 826, 827, 828, 829, 830, 831, 832, 833, 834, 835, 836, 837, 838, 839, 840, 841, 842, 843, 844, 845, 846, 847, 848, 849, 850, 851, 852, 853, 854, 855, 856, 857, 858, 859, 860, 861, 862, 863, 864, 865, 866, 867, 868, 869, 870, 871, 872, 873, 874, 875, 876, 877, 878, 879, 880, 881, 882, 883, 884, 885, 886, 887, 888, 889, 890, 891, 892, 893, 894, 895, 896, 897, 898, 899, 900, 901, 902, 903, 904, 905, 906, 907, 908, 909, 910, 911, 912, 913, 914],
      "AcquisitionTime": ["135035.585000", "135036.045000", "135036.505000", "135036.965000", "135037.425000", "135037.885000", "135038.345000", "135038.805000", "135039.265000", "135039.725000", "135040.185000", "135040.645000", "135041.105000", "135041.565000", "135042.025000", "135042.485000", "135042.945000", "135043.405000", "135043.865000", "135044.325000", "135044.785000", "135045.245000", "135045.705000", "135046.165000", "135046.625000", "135047.085000", "135047.545000", "135048.005000", "135048.465000", "135048.925000", "135049.385000", "135049.845000", "135050.305000", "135050.765000", "135051.225000", "135051.685000", "135052.145000", "135052.605000", "135053.065000", "135053.525000", "135053.985000", "135054.445000", "135054.905000", "135055.365000", "135055.825000", "135056.285000", "135056.745000", "135057.205000", "135057.665000", "135058.125000", "135058.585000", "135059.045000", "135059.505000", "135059.965000", "135100.425000", "135100.885000", "135101.345000", "135101.805000", "135102.265000", "135102.725000", "135103.185000", "135103.645000", "135104.105000", "135104.565000", "135105.025000", "135105.485000", "135105.945000", "135106.405000", "135106.865000", "135107.325000", "135107.785000", "135108.245000", "135108.705000", "135109.165000", "135109.625000", "135110.085000", "135110.545000", "135111.005000", "135111.465000", "135111.925000", "135112.385000", "135112.845000", "135113.305000", "135113.765000", "135114.225000", "135114.685000", "135115.145000", "135115.605000", "135116.065000", "135116.525000", "135116.985000", "135117.445000", "135117.905000", "135118.365000", "135118.825000", "135119.285000", "135119.745000", "135120.205000", "135120.665000", "135121.125000", "135121.585000", "135122.045000", "135122.505000", "135122.965000", "135123.425000", "135123.885000", "135124.345000", "135124.805000", "135125.265000", "135125.725000", "135126.185000", "135126.645000", "135127.105000", "135127.565000", "135128.025000", "135128.485000", "135128.945000", "135129.405000", "135129.865000", "135130.325000", "135130.785000", "135131.245000", "135131.705000", "135132.165000", "135132.625000", "135133.085000", "135133.545000", "135134.005000", "135134.465000", "135134.925000", "135135.385000", "135135.845000", "135136.305000", "135136.765000", "135137.225000", "135137.685000", "135138.145000", "135138.605000", "135139.065000", "135139.525000", "135139.985000", "135140.445000", "135140.905000", "135141.365000", "135141.825000", "135142.285000", "135142.745000", "135143.205000", "135143.665000", "135144.125000", "135144.585000", "135145.045000", "135145.505000", "135145.965000", "135146.425000", "135146.885000", "135147.345000", "135147.805000", "135148.265000", "135148.725000", "135149.185000", "135149.645000", "135150.105000", "135150.565000", "135151.025000", "135151.485000", "135151.945000", "135152.405000", "135152.865000", "135153.325000", "135153.785000", "135154.245000", "135154.705000", "135155.165000", "135155.625000", "135156.085000", "135156.545000", "135157.005000", "135157.465000", "135157.925000", "135158.385000", "135158.845000", "135159.305000", "135159.765000", "135200.225000", "135200.685000", "135201.145000", "135201.605000", "135202.065000", "135202.525000", "135202.985000", "135203.445000", "135203.905000", "135204.365000", "135204.825000", "135205.285000", "135205.745000", "135206.205000", "135206.665000", "135207.125000", "135207.585000", "135208.045000", "135208.505000", "135208.965000", "135209.425000", "135209.885000", "135210.345000", "135210.805000", "135211.265000", "135211.725000", "135212.185000", "135212.645000", "135213.105000", "135213.565000", "135214.025000", "135214.485000", "135214.945000", "135215.405000", "135215.865000", "135216.325000", "135216.785000", "135217.245000", "135217.705000", "135218.165000", "135218.625000", "135219.085000", "135219.545000", "135220.005000", "135220.465000", "135220.925000", "135221.385000", "135221.845000", "135222.305000", "135222.765000", "135223.225000", "135223.685000", "135224.145000", "135224.605000", "135225.065000", "135225.525000", "135225.985000", "135226.445000", "135226.905000", "135227.365000", "135227.825000", "135228.285000", "135228.745000", "135229.205000", "135229.665000", "135230.125000", "135230.585000", "135231.045000", "135231.505000", "135231.965000", "135232.425000", "135232.885000", "135233.345000", "135233.805000", "135234.265000", "135234.725000", "135235.185000", "135235.645000", "135236.105000", "135236.565000", "135237.025000", "135237.485000", "135237.945000", "135238.405000", "135238.865000", "135239.325000", "135239.785000", "135240.245000", "135240.705000", "135241.165000", "135241.625000", "135242.085000", "135242.545000", "135243.005000", "135243.465000", "135243.925000", "135244.385000", "135244.845000", "135245.305000", "135245.765000", "135246.225000", "135246.685000", "135247.145000", "135247.605000", "135248.065000", "135248.525000", "135248.985000", "135249.445000", "135249.905000", "135250.365000", "135250.825000", "135251.285000", "135251.745000", "135252.205000", "135252.665000", "135253.125000", "135253.585000", "135254.045000", "135254.505000", "135254.965000", "135255.425000", "135255.885000", "135256.345000", "135256.805000", "135257.265000", "135257.725000", "135258.185000", "135258.645000", "135259.105000", "135259.565000", "135300.025000", "135300.485000", "135300.945000", "135301.405000", "135301.865000", "135302.325000", "135302.785000", "135303.245000", "135303.705000", "135304.165000", "135304.625000", "135305.085000", "135305.545000", "135306.005000", "135306.465000", "135306.925000", "135307.385000", "135307.845000", "135308.305000", "135308.765000", "135309.225000", "135309.685000", "135310.145000", "135310.605000", "135311.065000", "135311.525000", "135311.985000", "135312.445000", "135312.905000", "135313.365000", "135313.825000", "135314.285000", "135314.745000", "135315.205000", "135315.665000", "135316.125000", "135316.585000", "135317.045000", "135317.505000", "135317.965000", "135318.425000", "135318.885000", "135319.345000", "135319.805000", "135320.265000", "135320.725000", "135321.185000", "135321.645000", "135322.105000", "135322.565000", "135323.025000", "135323.485000", "135323.945000", "135324.405000", "135324.865000", "135325.325000", "135325.785000", "135326.245000", "135326.705000", "135327.165000", "135327.625000", "135328.085000", "135328.545000", "135329.005000", "135329.465000", "135329.925000", "135330.385000", "135330.845000", "135331.305000", "135331.765000", "135332.225000", "135332.685000", "135333.145000", "135333.605000", "135334.065000", "135334.525000", "135334.985000", "135335.445000", "135335.905000", "135336.365000", "135336.825000", "135337.285000", "135337.745000", "135338.205000", "135338.665000", "135339.125000", "135339.585000", "135340.045000", "135340.505000", "135340.965000", "135341.425000", "135341.885000", "135342.345000", "135342.805000", "135343.265000", "135343.725000", "135344.185000", "135344.645000", "135345.105000", "135345.565000", "135346.025000", "135346.485000", "135346.945000", "135347.405000", "135347.865000", "135348.325000", "135348.785000", "135349.245000", "135349.705000", "135350.165000", "135350.625000", "135351.085000", "135351.545000", "135352.005000", "135352.465000", "135352.925000", "135353.385000", "135353.845000", "135354.305000", "135354.765000", "135355.225000", "135355.685000", "135356.145000", "135356.605000", "135357.065000", "135357.525000", "135357.985000", "135358.445000", "135358.905000", "135359.365000", "135359.825000", "135400.285000", "135400.745000", "135401.205000", "135401.665000", "135402.125000", "135402.585000", "135403.045000", "135403.505000", "135403.965000", "135404.425000", "135404.885000", "135405.345000", "135405.805000", "135406.265000", "135406.725000", "135407.185000", "135407.645000", "135408.105000", "135408.565000", "135409.025000", "135409.485000", "135409.945000", "135410.405000", "135410.865000", "135411.325000", "135411.785000", "135412.245000", "135412.705000", "135413.165000", "135413.625000", "135414.085000", "135414.545000", "135415.005000", "135415.465000", "135415.925000", "135416.385000", "135416.845000", "135417.305000", "135417.765000", "135418.225000", "135418.685000", "135419.145000", "135419.605000", "135420.065000", "135420.525000", "135420.985000", "135421.445000", "135421.905000", "135422.365000", "135422.825000", "135423.285000", "135423.745000", "135424.205000", "135424.665000", "135425.125000", "135425.585000", "135426.045000", "135426.505000", "135426.965000", "135427.425000", "135427.885000", "135428.345000", "135428.805000", "135429.265000", "135429.725000", "135430.185000", "135430.645000", "135431.105000", "135431.565000", "135432.025000", "135432.485000", "135432.945000", "135433.405000", "135433.865000", "135434.325000", "135434.785000", "135435.245000", "135435.705000", "135436.165000", "135436.625000", "135437.085000", "135437.545000", "135438.005000", "135438.465000", "135438.925000", "135439.385000", "135439.845000", "135440.305000", "135440.765000", "135441.225000", "135441.685000", "135442.145000", "135442.605000", "135443.065000", "135443.525000", "135443.985000", "135444.445000", "135444.905000", "135445.365000", "135445.825000", "135446.285000", "135446.745000", "135447.205000", "135447.665000", "135448.125000", "135448.585000", "135449.045000", "135449.505000", "135449.965000", "135450.425000", "135450.885000", "135451.345000", "135451.805000", "135452.265000", "135452.725000", "135453.185000", "135453.645000", "135454.105000", "135454.565000", "135455.025000", "135455.485000", "135455.945000", "135456.405000", "135456.865000", "135457.325000", "135457.785000", "135458.245000", "135458.705000", "135459.165000", "135459.625000", "135500.085000", "135500.545000", "135501.005000", "135501.465000", "135501.925000", "135502.385000", "135502.845000", "135503.305000", "135503.765000", "135504.225000", "135504.685000", "135505.145000", "135505.605000", "135506.065000", "135506.525000", "135506.985000", "135507.445000", "135507.905000", "135508.365000", "135508.825000", "135509.285000", "135509.745000", "135510.205000", "135510.665000", "135511.125000", "135511.585000", "135512.045000", "135512.505000", "135512.965000", "135513.425000", "135513.885000", "135514.345000", "135514.805000", "135515.265000", "135515.725000", "135516.185000", "135516.645000", "135517.105000", "135517.565000", "135518.025000", "135518.485000", "135518.945000", "135519.405000", "135519.865000", "135520.325000", "135520.785000", "135521.245000", "135521.705000", "135522.165000", "135522.625000", "135523.085000", "135523.545000", "135524.005000", "135524.465000", "135524.925000", "135525.385000", "135525.845000", "135526.305000", "135526.765000", "135527.225000", "135527.685000", "135528.145000", "135528.605000", "135529.065000", "135529.525000", "135529.985000", "135530.445000", "135530.905000", "135531.365000", "135531.825000", "135532.285000", "135532.745000", "135533.205000", "135533.665000", "135534.125000", "135534.585000", "135535.045000", "135535.505000", "135535.965000", "135536.425000", "135536.885000", "135537.345000", "135537.805000", "135538.265000", "135538.725000", "135539.185000", "135539.645000", "135540.105000", "135540.565000", "135541.025000", "135541.485000", "135541.945000", "135542.405000", "135542.865000", "135543.325000", "135543.785000", "135544.245000", "135544.705000", "135545.165000", "135545.625000", "135546.085000", "135546.545000", "135547.005000", "135547.465000", "135547.925000", "135548.385000", "135548.845000", "135549.305000", "135549.765000", "135550.225000", "135550.685000", "135551.145000", "135551.605000", "135552.065000", "135552.525000", "135552.985000", "135553.445000", "135553.905000", "135554.365000", "135554.825000", "135555.285000", "135555.745000", "135556.205000", "135556.665000", "135557.125000", "135557.585000", "135558.045000", "135558.505000", "135558.965000", "135559.425000", "135559.885000", "135600.345000", "135600.805000", "135601.265000", "135601.725000", "135602.185000", "135602.645000", "135603.105000", "135603.565000", "135604.025000", "135604.485000", "135604.945000", "135605.405000", "135605.865000", "135606.325000", "135606.785000", "135607.245000", "135607.705000", "135608.165000", "135608.625000", "135609.085000", "135609.545000", "135610.005000", "135610.465000", "135610.925000", "135611.385000", "135611.845000", "135612.305000", "135612.765000", "135613.225000", "135613.685000", "135614.145000", "135614.605000", "135615.065000", "135615.525000", "135615.985000", "135616.445000", "135616.905000", "135617.365000", "135617.825000", "135618.285000", "135618.745000", "135619.205000", "135619.665000", "135620.125000", "135620.585000", "135621.045000", "135621.505000", "135621.965000", "135622.425000", "135622.885000", "135623.345000", "135623.805000", "135624.265000", "135624.725000", "135625.185000", "135625.645000", "135626.105000", "135626.565000", "135627.025000", "135627.485000", "135627.945000", "135628.405000", "135628.865000", "135629.325000", "135629.785000", "135630.245000", "135630.705000", "135631.165000", "135631.625000", "135632.085000", "135632.545000", "135633.005000", "135633.465000", "135633.925000", "135634.385000", "135634.845000", "135635.305000", "135635.765000", "135636.225000", "135636.685000", "135637.145000", "135637.605000", "135638.065000", "135638.525000", "135638.985000", "135639.445000", "135639.905000", "135640.365000", "135640.825000", "135641.285000", "135641.745000", "135642.205000", "135642.665000", "135643.125000", "135643.585000", "135644.045000", "135644.505000", "135644.965000", "135645.425000", "135645.885000", "135646.345000", "135646.805000", "135647.265000", "135647.725000", "135648.185000", "135648.645000", "135649.105000", "135649.565000", "135650.025000", "135650.485000", "135650.945000", "135651.405000", "135651.865000", "135652.325000", "135652.785000", "135653.245000", "135653.705000", "135654.165000", "135654.625000", "135655.085000", "135655.545000", "135656.005000", "135656.465000", "135656.925000", "135657.385000", "135657.845000", "135658.305000", "135658.765000", "135659.225000", "135659.685000", "135700.145000", "135700.605000", "135701.065000", "135701.525000", "135701.985000", "135702.445000", "135702.905000", "135703.365000", "135703.825000", "135704.285000", "135704.745000", "135705.205000", "135705.665000", "135706.125000", "135706.585000", "135707.045000", "135707.505000", "135707.965000", "135708.425000", "135708.885000", "135709.345000", "135709.805000", "135710.265000", "135710.725000", "135711.185000", "135711.645000", "135712.105000", "135712.565000", "135713.025000", "135713.485000", "135713.945000", "135714.405000", "135714.865000", "135715.325000", "135715.785000", "135716.245000", "135716.705000", "135717.165000", "135717.625000", "135718.085000", "135718.545000", "135719.005000", "135719.465000", "135719.925000", "135720.385000", "135720.845000", "135721.305000", "135721.765000", "135722.225000", "135722.685000", "135723.145000", "135723.605000", "135724.065000", "135724.525000", "135724.985000", "135725.445000", "135725.905000", "135726.365000", "135726.825000", "135727.285000", "135727.745000", "135728.205000", "135728.665000", "135729.125000", "135729.585000", "135730.045000", "135730.505000", "135730.965000", "135731.425000", "135731.885000", "135732.345000", "135732.805000", "135733.265000", "135733.725000", "135734.185000", "135734.645000", "135735.105000", "135735.565000"],
