{
  "AcquisitionMatrixPE": 82,
  "AcquisitionNumber": 1,
  "AcquisitionTime": "13:13:22.252500",
  "BandwidthPerPixelPhaseEncode": 24.888,
  "BaseResolution": 82,
  "BodyPartExamined": "BRAIN",
  "ConsistencyInfo": "N4_VE11E_LATEST_20181129",
  "ConversionSoftware": "dcm2niix",
  "ConversionSoftwareVersion": "v1.0.20201102",
  "DerivedVendorReportedEchoSpacing": 0.00049,
  "DeviceSerialNumber": "66112",
  "DwellTime": 2e-06,
  "EchoTime": 0.0272,
  "EchoTrainLength": 82,
  "EffectiveEchoSpacing": 0.00049,
  "FlipAngle": 44,
  "ImageComments": "Unaliased MB8/PE3",
  "ImageOrientationPatientDICOM": [0.999037, 0.0298197, 0.0321938, -0.0310469, 0.998783, 0.0383168],
  "ImageType": [
    "ORIGINAL",
    "PRIMARY",
    "M",
    "MB",
    "ND",
    "NORM",
    "MOSAIC"
],
  "ImagingFrequency": 123.252,
  "InPlanePhaseEncodingDirectionDICOM": "COL",
  "InstitutionAddress": "Maynard 3,Hanover,NH,US,03755",
  "InstitutionName": "dartmouth_brain_imaging_center",
  "InstitutionalDepartmentName": "Department",
  "MRAcquisitionType": "2D",
  "MagneticFieldStrength": 3,
  "Manufacturer": "Siemens",
  "ManufacturersModelName": "Prisma",
  "Modality": "MR",
  "MultibandAccelerationFactor": 8,
  "PartialFourier": 1,
  "PatientPosition": "HFS",
  "PercentPhaseFOV": 100,
  "PercentSampling": 100,
  "PhaseEncodingDirection": "j-",
  "PhaseEncodingSteps": 82,
  "PhaseResolution": 1,
  "PixelBandwidth": 3050,
  "ProcedureStepDescription": "Wager_Wager^1076_spacetop",
  "ProtocolName": "func_run-01_task-narratives_acq-ap-mb8",
  "PulseSequenceDetails": "%CustomerSeq%\\cmrr_mbep2d_bold",
  "ReceiveCoilActiveElements": "HEA;HEP",
  "ReceiveCoilName": "Head_32",
  "ReconMatrixPE": 82,
  "RepetitionTime": 0.46,
  "SAR": 0.123141,
  "ScanOptions": "FS",
  "ScanningSequence": "EP",
  "SequenceName": "epfid2d1_82",
  "SequenceVariant": "SK\\SS",
  "SeriesDescription": "func_run-01_task-narratives_acq-ap-mb8",
  "SeriesNumber": 10,
  "ShimSetting": [4142, -7767, -7252, 475, -57, -101, 4, 35],
  "SliceThickness": 2.7,
  "SliceTiming": [0, 0.2525, 0.0625, 0.315, 0.125, 0.3775, 0.1875, 0, 0.2525, 0.0625, 0.315, 0.125, 0.3775, 0.1875, 0, 0.2525, 0.0625, 0.315, 0.125, 0.3775, 0.1875, 0, 0.2525, 0.0625, 0.315, 0.125, 0.3775, 0.1875, 0, 0.2525, 0.0625, 0.315, 0.125, 0.3775, 0.1875, 0, 0.2525, 0.0625, 0.315, 0.125, 0.3775, 0.1875, 0, 0.2525, 0.0625, 0.315, 0.125, 0.3775, 0.1875, 0, 0.2525, 0.0625, 0.315, 0.125, 0.3775, 0.1875],
  "SoftwareVersions": "syngo MR E11",
  "SpacingBetweenSlices": 2.7,
  "StationName": "AWP66112",
  "TaskName": "narratives",
  "TotalReadoutTime": 0.03969,
  "TxRefAmp": 269.146,
  "WipMemBlock": "3ca98ff4-bfa0-4fbe-b47f-b4129368ae40||Sequence: R016 ve11e/master r/434b28f1; Aug  7 2019 18:53:46 by eja",
  "dcmmeta_affine": [
    [-2.680342435836792, -0.08329656720161438, 0.08373238891363144, 118.11659240722656],
    [-0.08000411838293076, 2.6796624660491943, 0.10605449229478836, -94.88450622558594],
    [0.08637352287769318, -0.10280126333236694, 2.6966166496276855, -43.06901168823242],
    [0.0, 0.0, 0.0, 1.0]
],
  "dcmmeta_reorient_transform": [
    [0.0, -1.0, 0.0, 81.0],
    [1.0, 0.0, 0.0, 0.0],
    [0.0, 0.0, 1.0, 0.0],
    [0.0, 0.0, 0.0, 1.0]
],
  "dcmmeta_shape": [82, 82, 56, 967],
  "dcmmeta_slice_dim": 2,
  "dcmmeta_version": 0.6,
  "global": {
    "const": {
      "AccessionNumber": "A003899",
      "AcquisitionMatrix": [82, 0, 0, 82],
      "AngioFlag": "N",
      "BitsAllocated": 16,
      "BitsStored": 16,
      "BodyPartExamined": "BRAIN",
      "Columns": 656,
      "EchoNumbers": 1,
      "EchoTime": 27.2,
      "EchoTrainLength": 82,
      "FlipAngle": 44.0,
      "HighBit": 15,
      "ImageOrientationPatient": [0.99903670901785, 0.02981971579724, 0.03219376623751, -0.0310469020279, 0.99878321474184, 0.03831683473899],
      "ImagePositionPatient": [-856.72173697234, -914.19241861635, -105.68907795832],
      "ImageType": [
        "ORIGINAL",
        "PRIMARY",
        "M",
        "MB",
        "ND",
        "NORM",
        "MOSAIC"
],
      "ImagedNucleus": "1H",
      "ImagingFrequency": 123.252158,
      "InPlanePhaseEncodingDirection": "COL",
      "MRAcquisitionType": "2D",
      "MagneticFieldStrength": 3.0,
      "Manufacturer": "SIEMENS",
      "ManufacturerModelName": "Prisma",
      "Modality": "MR",
      "NumberOfAverages": 1.0,
      "NumberOfPhaseEncodingSteps": 82,
      "PercentPhaseFieldOfView": 100.0,
      "PercentSampling": 100.0,
      "PerformedProcedureStepStartTime": "124447.648000",
      "PhotometricInterpretation": "MONOCHROME2",
      "PixelBandwidth": 3050.0,
      "PixelRepresentation": 0,
      "PixelSpacing": [2.6829268932343, 2.6829268932343],
      "ProtocolName": "func_run-01_task-narratives_acq-ap-mb8",
      "RepetitionTime": 460.0,
      "Rows": 656,
      "SAR": 0.12314079752806,
      "SamplesPerPixel": 1,
      "ScanOptions": "FS",
      "ScanningSequence": "EP",
      "SequenceName": "epfid2d1_82",
      "SequenceVariant": [
        "SK",
        "SS"
],
      "SeriesDescription": "func_run-01_task-narratives_acq-ap-mb8",
      "SeriesNumber": 10,
      "SeriesTime": "131332.805000",
      "SliceLocation": -43.07902097202,
      "SliceThickness": 2.7000000476837,
      "SmallestImagePixelValue": 0,
      "SoftwareVersions": "syngo MR E11",
      "SpacingBetweenSlices": 2.7000000644077,
      "SpecificCharacterSet": "ISO_IR 100",
      "StudyID": "2",
      "StudyTime": "124447.571000",
      "TransmitCoilName": "Body",
      "VariableFlipAngleFlag": "N",
      "WindowCenterWidthExplanation": "Algo1"
    },
    "slices": {}
  },
  "time": {
    "samples": {
      "AcquisitionNumber": [1, 2, 3, 4, 5, 6, 7, 8, 9, 10, 11, 12, 13, 14, 15, 16, 17, 18, 19, 20, 21, 22, 23, 24, 25, 26, 27, 28, 29, 30, 31, 32, 33, 34, 35, 36, 37, 38, 39, 40, 41, 42, 43, 44, 45, 46, 47, 48, 49, 50, 51, 52, 53, 54, 55, 56, 57, 58, 59, 60, 61, 62, 63, 64, 65, 66, 67, 68, 69, 70, 71, 72, 73, 74, 75, 76, 77, 78, 79, 80, 81, 82, 83, 84, 85, 86, 87, 88, 89, 90, 91, 92, 93, 94, 95, 96, 97, 98, 99, 100, 101, 102, 103, 104, 105, 106, 107, 108, 109, 110, 111, 112, 113, 114, 115, 116, 117, 118, 119, 120, 121, 122, 123, 124, 125, 126, 127, 128, 129, 130, 131, 132, 133, 134, 135, 136, 137, 138, 139, 140, 141, 142, 143, 144, 145, 146, 147, 148, 149, 150, 151, 152, 153, 154, 155, 156, 157, 158, 159, 160, 161, 162, 163, 164, 165, 166, 167, 168, 169, 170, 171, 172, 173, 174, 175, 176, 177, 178, 179, 180, 181, 182, 183, 184, 185, 186, 187, 188, 189, 190, 191, 192, 193, 194, 195, 196, 197, 198, 199, 200, 201, 202, 203, 204, 205, 206, 207, 208, 209, 210, 211, 212, 213, 214, 215, 216, 217, 218, 219, 220, 221, 222, 223, 224, 225, 226, 227, 228, 229, 230, 231, 232, 233, 234, 235, 236, 237, 238, 239, 240, 241, 242, 243, 244, 245, 246, 247, 248, 249, 250, 251, 252, 253, 254, 255, 256, 257, 258, 259, 260, 261, 262, 263, 264, 265, 266, 267, 268, 269, 270, 271, 272, 273, 274, 275, 276, 277, 278, 279, 280, 281, 282, 283, 284, 285, 286, 287, 288, 289, 290, 291, 292, 293, 294, 295, 296, 297, 298, 299, 300, 301, 302, 303, 304, 305, 306, 307, 308, 309, 310, 311, 312, 313, 314, 315, 316, 317, 318, 319, 320, 321, 322, 323, 324, 325, 326, 327, 328, 329, 330, 331, 332, 333, 334, 335, 336, 337, 338, 339, 340, 341, 342, 343, 344, 345, 346, 347, 348, 349, 350, 351, 352, 353, 354, 355, 356, 357, 358, 359, 360, 361, 362, 363, 364, 365, 366, 367, 368, 369, 370, 371, 372, 373, 374, 375, 376, 377, 378, 379, 380, 381, 382, 383, 384, 385, 386, 387, 388, 389, 390, 391, 392, 393, 394, 395, 396, 397, 398, 399, 400, 401, 402, 403, 404, 405, 406, 407, 408, 409, 410, 411, 412, 413, 414, 415, 416, 417, 418, 419, 420, 421, 422, 423, 424, 425, 426, 427, 428, 429, 430, 431, 432, 433, 434, 435, 436, 437, 438, 439, 440, 441, 442, 443, 444, 445, 446, 447, 448, 449, 450, 451, 452, 453, 454, 455, 456, 457, 458, 459, 460, 461, 462, 463, 464, 465, 466, 467, 468, 469, 470, 471, 472, 473, 474, 475, 476, 477, 478, 479, 480, 481, 482, 483, 484, 485, 486, 487, 488, 489, 490, 491, 492, 493, 494, 495, 496, 497, 498, 499, 500, 501, 502, 503, 504, 505, 506, 507, 508, 509, 510, 511, 512, 513, 514, 515, 516, 517, 518, 519, 520, 521, 522, 523, 524, 525, 526, 527, 528, 529, 530, 531, 532, 533, 534, 535, 536, 537, 538, 539, 540, 541, 542, 543, 544, 545, 546, 547, 548, 549, 550, 551, 552, 553, 554, 555, 556, 557, 558, 559, 560, 561, 562, 563, 564, 565, 566, 567, 568, 569, 570, 571, 572, 573, 574, 575, 576, 577, 578, 579, 580, 581, 582, 583, 584, 585, 586, 587, 588, 589, 590, 591, 592, 593, 594, 595, 596, 597, 598, 599, 600, 601, 602, 603, 604, 605, 606, 607, 608, 609, 610, 611, 612, 613, 614, 615, 616, 617, 618, 619, 620, 621, 622, 623, 624, 625, 626, 627, 628, 629, 630, 631, 632, 633, 634, 635, 636, 637, 638, 639, 640, 641, 642, 643, 644, 645, 646, 647, 648, 649, 650, 651, 652, 653, 654, 655, 656, 657, 658, 659, 660, 661, 662, 663, 664, 665, 666, 667, 668, 669, 670, 671, 672, 673, 674, 675, 676, 677, 678, 679, 680, 681, 682, 683, 684, 685, 686, 687, 688, 689, 690, 691, 692, 693, 694, 695, 696, 697, 698, 699, 700, 701, 702, 703, 704, 705, 706, 707, 708, 709, 710, 711, 712, 713, 714, 715, 716, 717, 718, 719, 720, 721, 722, 723, 724, 725, 726, 727, 728, 729, 730, 731, 732, 733, 734, 735, 736, 737, 738, 739, 740, 741, 742, 743, 744, 745, 746, 747, 748, 749, 750, 751, 752, 753, 754, 755, 756, 757, 758, 759, 760, 761, 762, 763, 764, 765, 766, 767, 768, 769, 770, 771, 772, 773, 774, 775, 776, 777, 778, 779, 780, 781, 782, 783, 784, 785, 786, 787, 788, 789, 790, 791, 792, 793, 794, 795, 796, 797, 798, 799, 800, 801, 802, 803, 804, 805, 806, 807, 808, 809, 810, 811, 812, 813, 814, 815, 816, 817, 818, 819, 820, 821, 822, 823, 824, 825, 826, 827, 828, 829, 830, 831, 832, 833, 834, 835, 836, 837, 838, 839, 840, 841, 842, 843, 844, 845, 846, 847, 848, 849, 850, 851, 852, 853, 854, 855, 856, 857, 858, 859, 860, 861, 862, 863, 864, 865, 866, 867, 868, 869, 870, 871, 872, 873, 874, 875, 876, 877, 878, 879, 880, 881, 882, 883, 884, 885, 886, 887, 888, 889, 890, 891, 892, 893, 894, 895, 896, 897, 898, 899, 900, 901, 902, 903, 904, 905, 906, 907, 908, 909, 910, 911, 912, 913, 914, 915, 916, 917, 918, 919, 920, 921, 922, 923, 924, 925, 926, 927, 928, 929, 930, 931, 932, 933, 934, 935, 936, 937, 938, 939, 940, 941, 942, 943, 944, 945, 946, 947, 948, 949, 950, 951, 952, 953, 954, 955, 956, 957, 958, 959, 960, 961, 962, 963, 964, 965, 966, 967],
      "AcquisitionTime": ["131322.252500", "131322.712500", "131323.172500", "131323.632500", "131324.092500", "131324.552500", "131325.012500", "131325.472500", "131325.932500", "131326.392500", "131326.852500", "131327.312500", "131327.772500", "131328.232500", "131328.692500", "131329.152500", "131329.612500", "131330.072500", "131330.532500", "131330.992500", "131331.452500", "131331.912500", "131332.372500", "131332.832500", "131333.292500", "131333.752500", "131334.212500", "131334.672500", "131335.132500", "131335.592500", "131336.052500", "131336.512500", "131336.972500", "131337.432500", "131337.892500", "131338.352500", "131338.812500", "131339.272500", "131339.732500", "131340.192500", "131340.652500", "131341.112500", "131341.572500", "131342.032500", "131342.492500", "131342.952500", "131343.412500", "131343.872500", "131344.332500", "131344.792500", "131345.252500", "131345.712500", "131346.172500", "131346.632500", "131347.092500", "131347.552500", "131348.012500", "131348.472500", "131348.932500", "131349.392500", "131349.852500", "131350.312500", "131350.772500", "131351.232500", "131351.692500", "131352.152500", "131352.612500", "131353.072500", "131353.532500", "131353.992500", "131354.452500", "131354.912500", "131355.372500", "131355.832500", "131356.292500", "131356.752500", "131357.212500", "131357.672500", "131358.132500", "131358.592500", "131359.052500", "131359.512500", "131359.972500", "131400.432500", "131400.892500", "131401.352500", "131401.812500", "131402.272500", "131402.732500", "131403.192500", "131403.652500", "131404.112500", "131404.572500", "131405.032500", "131405.492500", "131405.952500", "131406.412500", "131406.872500", "131407.332500", "131407.792500", "131408.252500", "131408.712500", "131409.172500", "131409.632500", "131410.092500", "131410.552500", "131411.012500", "131411.472500", "131411.932500", "131412.392500", "131412.852500", "131413.312500", "131413.772500", "131414.232500", "131414.692500", "131415.152500", "131415.612500", "131416.072500", "131416.532500", "131416.992500", "131417.452500", "131417.912500", "131418.372500", "131418.832500", "131419.292500", "131419.752500", "131420.212500", "131420.672500", "131421.132500", "131421.592500", "131422.052500", "131422.512500", "131422.972500", "131423.432500", "131423.892500", "131424.352500", "131424.812500", "131425.272500", "131425.732500", "131426.192500", "131426.652500", "131427.112500", "131427.572500", "131428.032500", "131428.492500", "131428.952500", "131429.412500", "131429.872500", "131430.332500", "131430.792500", "131431.252500", "131431.712500", "131432.172500", "131432.632500", "131433.092500", "131433.552500", "131434.012500", "131434.472500", "131434.932500", "131435.392500", "131435.852500", "131436.312500", "131436.772500", "131437.232500", "131437.692500", "131438.152500", "131438.612500", "131439.072500", "131439.532500", "131439.992500", "131440.452500", "131440.912500", "131441.372500", "131441.832500", "131442.292500", "131442.752500", "131443.212500", "131443.672500", "131444.132500", "131444.592500", "131445.052500", "131445.512500", "131445.972500", "131446.432500", "131446.892500", "131447.352500", "131447.812500", "131448.272500", "131448.732500", "131449.192500", "131449.652500", "131450.112500", "131450.572500", "131451.032500", "131451.492500", "131451.952500", "131452.412500", "131452.872500", "131453.332500", "131453.792500", "131454.252500", "131454.712500", "131455.172500", "131455.632500", "131456.092500", "131456.552500", "131457.012500", "131457.472500", "131457.932500", "131458.392500", "131458.852500", "131459.312500", "131459.772500", "131500.232500", "131500.692500", "131501.152500", "131501.612500", "131502.072500", "131502.532500", "131502.992500", "131503.452500", "131503.912500", "131504.372500", "131504.832500", "131505.292500", "131505.752500", "131506.212500", "131506.672500", "131507.132500", "131507.592500", "131508.052500", "131508.512500", "131508.972500", "131509.432500", "131509.892500", "131510.352500", "131510.812500", "131511.272500", "131511.732500", "131512.192500", "131512.652500", "131513.112500", "131513.572500", "131514.032500", "131514.492500", "131514.952500", "131515.412500", "131515.872500", "131516.332500", "131516.792500", "131517.252500", "131517.712500", "131518.172500", "131518.632500", "131519.092500", "131519.552500", "131520.012500", "131520.472500", "131520.932500", "131521.392500", "131521.852500", "131522.312500", "131522.772500", "131523.232500", "131523.692500", "131524.152500", "131524.612500", "131525.072500", "131525.532500", "131525.992500", "131526.452500", "131526.912500", "131527.372500", "131527.832500", "131528.292500", "131528.752500", "131529.212500", "131529.672500", "131530.132500", "131530.592500", "131531.052500", "131531.512500", "131531.972500", "131532.432500", "131532.892500", "131533.352500", "131533.812500", "131534.272500", "131534.732500", "131535.192500", "131535.652500", "131536.112500", "131536.572500", "131537.032500", "131537.492500", "131537.952500", "131538.412500", "131538.872500", "131539.332500", "131539.792500", "131540.252500", "131540.712500", "131541.172500", "131541.632500", "131542.092500", "131542.552500", "131543.012500", "131543.472500", "131543.932500", "131544.392500", "131544.852500", "131545.312500", "131545.772500", "131546.232500", "131546.692500", "131547.152500", "131547.612500", "131548.072500", "131548.532500", "131548.992500", "131549.452500", "131549.912500", "131550.372500", "131550.832500", "131551.292500", "131551.752500", "131552.212500", "131552.672500", "131553.132500", "131553.592500", "131554.052500", "131554.512500", "131554.972500", "131555.432500", "131555.892500", "131556.352500", "131556.812500", "131557.272500", "131557.732500", "131558.192500", "131558.652500", "131559.112500", "131559.572500", "131600.032500", "131600.492500", "131600.952500", "131601.412500", "131601.872500", "131602.332500", "131602.792500", "131603.252500", "131603.712500", "131604.172500", "131604.632500", "131605.092500", "131605.552500", "131606.012500", "131606.472500", "131606.932500", "131607.392500", "131607.852500", "131608.312500", "131608.772500", "131609.232500", "131609.692500", "131610.152500", "131610.612500", "131611.072500", "131611.532500", "131611.992500", "131612.452500", "131612.912500", "131613.372500", "131613.832500", "131614.292500", "131614.752500", "131615.212500", "131615.672500", "131616.132500", "131616.592500", "131617.052500", "131617.512500", "131617.972500", "131618.432500", "131618.892500", "131619.352500", "131619.812500", "131620.272500", "131620.732500", "131621.192500", "131621.652500", "131622.112500", "131622.572500", "131623.032500", "131623.492500", "131623.952500", "131624.412500", "131624.872500", "131625.332500", "131625.792500", "131626.252500", "131626.712500", "131627.172500", "131627.632500", "131628.092500", "131628.552500", "131629.012500", "131629.472500", "131629.932500", "131630.392500", "131630.852500", "131631.312500", "131631.772500", "131632.232500", "131632.692500", "131633.152500", "131633.612500", "131634.072500", "131634.532500", "131634.992500", "131635.452500", "131635.912500", "131636.372500", "131636.832500", "131637.292500", "131637.752500", "131638.212500", "131638.672500", "131639.132500", "131639.592500", "131640.052500", "131640.512500", "131640.972500", "131641.432500", "131641.892500", "131642.352500", "131642.812500", "131643.272500", "131643.732500", "131644.192500", "131644.652500", "131645.112500", "131645.572500", "131646.032500", "131646.492500", "131646.952500", "131647.412500", "131647.872500", "131648.332500", "131648.792500", "131649.252500", "131649.712500", "131650.172500", "131650.632500", "131651.092500", "131651.552500", "131652.012500", "131652.472500", "131652.932500", "131653.392500", "131653.852500", "131654.312500", "131654.772500", "131655.232500", "131655.692500", "131656.152500", "131656.612500", "131657.072500", "131657.532500", "131657.992500", "131658.452500", "131658.912500", "131659.372500", "131659.832500", "131700.292500", "131700.752500", "131701.212500", "131701.672500", "131702.132500", "131702.592500", "131703.052500", "131703.512500", "131703.972500", "131704.432500", "131704.892500", "131705.352500", "131705.812500", "131706.272500", "131706.732500", "131707.192500", "131707.652500", "131708.112500", "131708.572500", "131709.032500", "131709.492500", "131709.952500", "131710.412500", "131710.872500", "131711.332500", "131711.792500", "131712.252500", "131712.712500", "131713.172500", "131713.632500", "131714.092500", "131714.552500", "131715.012500", "131715.472500", "131715.932500", "131716.392500", "131716.852500", "131717.312500", "131717.772500", "131718.232500", "131718.692500", "131719.152500", "131719.612500", "131720.072500", "131720.532500", "131720.992500", "131721.452500", "131721.912500", "131722.372500", "131722.832500", "131723.292500", "131723.752500", "131724.212500", "131724.672500", "131725.132500", "131725.592500", "131726.052500", "131726.512500", "131726.972500", "131727.432500", "131727.892500", "131728.352500", "131728.812500", "131729.272500", "131729.732500", "131730.192500", "131730.652500", "131731.112500", "131731.572500", "131732.032500", "131732.492500", "131732.952500", "131733.412500", "131733.872500", "131734.332500", "131734.792500", "131735.252500", "131735.712500", "131736.172500", "131736.632500", "131737.092500", "131737.552500", "131738.012500", "131738.472500", "131738.932500", "131739.392500", "131739.852500", "131740.312500", "131740.772500", "131741.232500", "131741.692500", "131742.152500", "131742.612500", "131743.072500", "131743.532500", "131743.992500", "131744.452500", "131744.912500", "131745.372500", "131745.832500", "131746.292500", "131746.752500", "131747.212500", "131747.672500", "131748.132500", "131748.592500", "131749.052500", "131749.512500", "131749.972500", "131750.432500", "131750.892500", "131751.352500", "131751.812500", "131752.272500", "131752.732500", "131753.192500", "131753.652500", "131754.112500", "131754.572500", "131755.032500", "131755.492500", "131755.952500", "131756.412500", "131756.872500", "131757.332500", "131757.792500", "131758.252500", "131758.712500", "131759.172500", "131759.632500", "131800.092500", "131800.552500", "131801.012500", "131801.472500", "131801.932500", "131802.392500", "131802.852500", "131803.312500", "131803.772500", "131804.232500", "131804.692500", "131805.152500", "131805.612500", "131806.072500", "131806.532500", "131806.992500", "131807.452500", "131807.912500", "131808.372500", "131808.832500", "131809.292500", "131809.752500", "131810.212500", "131810.672500", "131811.132500", "131811.592500", "131812.052500", "131812.512500", "131812.972500", "131813.432500", "131813.892500", "131814.352500", "131814.812500", "131815.272500", "131815.732500", "131816.192500", "131816.652500", "131817.112500", "131817.572500", "131818.032500", "131818.492500", "131818.952500", "131819.412500", "131819.872500", "131820.332500", "131820.792500", "131821.252500", "131821.712500", "131822.172500", "131822.632500", "131823.092500", "131823.552500", "131824.012500", "131824.472500", "131824.932500", "131825.392500", "131825.852500", "131826.312500", "131826.772500", "131827.232500", "131827.692500", "131828.152500", "131828.612500", "131829.072500", "131829.532500", "131829.992500", "131830.452500", "131830.912500", "131831.372500", "131831.832500", "131832.292500", "131832.752500", "131833.212500", "131833.672500", "131834.132500", "131834.592500", "131835.052500", "131835.512500", "131835.972500", "131836.432500", "131836.892500", "131837.352500", "131837.812500", "131838.272500", "131838.732500", "131839.192500", "131839.652500", "131840.112500", "131840.572500", "131841.032500", "131841.492500", "131841.952500", "131842.412500", "131842.872500", "131843.332500", "131843.792500", "131844.252500", "131844.712500", "131845.172500", "131845.632500", "131846.092500", "131846.552500", "131847.012500", "131847.472500", "131847.932500", "131848.392500", "131848.852500", "131849.312500", "131849.772500", "131850.232500", "131850.692500", "131851.152500", "131851.612500", "131852.072500", "131852.532500", "131852.992500", "131853.452500", "131853.912500", "131854.372500", "131854.832500", "131855.292500", "131855.752500", "131856.212500", "131856.672500", "131857.132500", "131857.592500", "131858.052500", "131858.512500", "131858.972500", "131859.432500", "131859.892500", "131900.352500", "131900.812500", "131901.272500", "131901.732500", "131902.192500", "131902.652500", "131903.112500", "131903.572500", "131904.032500", "131904.492500", "131904.952500", "131905.412500", "131905.872500", "131906.332500", "131906.792500", "131907.252500", "131907.712500", "131908.172500", "131908.632500", "131909.092500", "131909.552500", "131910.012500", "131910.472500", "131910.932500", "131911.392500", "131911.852500", "131912.312500", "131912.772500", "131913.232500", "131913.692500", "131914.152500", "131914.612500", "131915.072500", "131915.532500", "131915.992500", "131916.452500", "131916.912500", "131917.372500", "131917.832500", "131918.292500", "131918.752500", "131919.212500", "131919.672500", "131920.132500", "131920.592500", "131921.052500", "131921.512500", "131921.972500", "131922.432500", "131922.892500", "131923.352500", "131923.812500", "131924.272500", "131924.732500", "131925.192500", "131925.652500", "131926.112500", "131926.572500", "131927.032500", "131927.492500", "131927.952500", "131928.412500", "131928.872500", "131929.332500", "131929.792500", "131930.252500", "131930.712500", "131931.172500", "131931.632500", "131932.092500", "131932.552500", "131933.012500", "131933.472500", "131933.932500", "131934.392500", "131934.852500", "131935.312500", "131935.772500", "131936.232500", "131936.692500", "131937.152500", "131937.612500", "131938.072500", "131938.532500", "131938.992500", "131939.452500", "131939.912500", "131940.372500", "131940.832500", "131941.292500", "131941.752500", "131942.212500", "131942.672500", "131943.132500", "131943.592500", "131944.052500", "131944.512500", "131944.972500", "131945.432500", "131945.892500", "131946.352500", "131946.812500", "131947.272500", "131947.732500", "131948.192500", "131948.652500", "131949.112500", "131949.572500", "131950.032500", "131950.492500", "131950.952500", "131951.412500", "131951.872500", "131952.332500", "131952.792500", "131953.252500", "131953.712500", "131954.172500", "131954.632500", "131955.092500", "131955.552500", "131956.012500", "131956.472500", "131956.932500", "131957.392500", "131957.852500", "131958.312500", "131958.772500", "131959.232500", "131959.692500", "132000.152500", "132000.612500", "132001.072500", "132001.532500", "132001.992500", "132002.452500", "132002.912500", "132003.372500", "132003.832500", "132004.292500", "132004.752500", "132005.212500", "132005.672500", "132006.132500", "132006.592500", "132007.052500", "132007.512500", "132007.972500", "132008.432500", "132008.892500", "132009.352500", "132009.812500", "132010.272500", "132010.732500", "132011.192500", "132011.652500", "132012.112500", "132012.572500", "132013.032500", "132013.492500", "132013.952500", "132014.412500", "132014.872500", "132015.332500", "132015.792500", "132016.252500", "132016.712500", "132017.172500", "132017.632500", "132018.092500", "132018.552500", "132019.012500", "132019.472500", "132019.932500", "132020.392500", "132020.852500", "132021.312500", "132021.772500", "132022.232500", "132022.692500", "132023.152500", "132023.612500", "132024.072500", "132024.532500", "132024.992500", "132025.452500", "132025.912500", "132026.372500", "132026.832500", "132027.292500", "132027.752500", "132028.212500", "132028.672500", "132029.132500", "132029.592500", "132030.052500", "132030.512500", "132030.972500", "132031.432500", "132031.892500", "132032.352500", "132032.812500", "132033.272500", "132033.732500", "132034.192500", "132034.652500", "132035.112500", "132035.572500", "132036.032500", "132036.492500", "132036.952500", "132037.412500", "132037.872500", "132038.332500", "132038.792500", "132039.252500", "132039.712500", "132040.172500", "132040.632500", "132041.092500", "132041.552500", "132042.012500", "132042.472500", "132042.932500", "132043.392500", "132043.852500", "132044.312500", "132044.772500", "132045.232500", "132045.692500", "132046.152500", "132046.612500"],
