{
  "AcquisitionMatrixPE": 82,
  "AcquisitionNumber": 1,
  "AcquisitionTime": "13:57:57.945000",
  "BandwidthPerPixelPhaseEncode": 24.888,
  "BaseResolution": 82,
  "BodyPartExamined": "BRAIN",
  "ConsistencyInfo": "N4_VE11E_LATEST_20181129",
  "ConversionSoftware": "dcm2niix",
  "ConversionSoftwareVersion": "v1.0.20201102",
  "DerivedVendorReportedEchoSpacing": 0.00049,
  "DeviceSerialNumber": "66112",
  "DwellTime": 2e-06,
  "EchoTime": 0.0272,
  "EchoTrainLength": 82,
  "EffectiveEchoSpacing": 0.00049,
  "FlipAngle": 44,
  "ImageComments": "Unaliased MB8/PE3",
  "ImageOrientationPatientDICOM": [0.999037, 0.0298197, 0.0321938, -0.0310469, 0.998783, 0.0383168],
  "ImageType": [
    "ORIGINAL",
    "PRIMARY",
    "M",
    "MB",
    "ND",
    "NORM",
    "MOSAIC"
],
  "ImagingFrequency": 123.252,
  "InPlanePhaseEncodingDirectionDICOM": "COL",
  "InstitutionAddress": "Maynard 3,Hanover,NH,US,03755",
  "InstitutionName": "dartmouth_brain_imaging_center",
  "InstitutionalDepartmentName": "Department",
  "MRAcquisitionType": "2D",
  "MagneticFieldStrength": 3,
  "Manufacturer": "Siemens",
  "ManufacturersModelName": "Prisma",
  "Modality": "MR",
  "MultibandAccelerationFactor": 8,
  "PartialFourier": 1,
  "PatientPosition": "HFS",
  "PercentPhaseFOV": 100,
  "PercentSampling": 100,
  "PhaseEncodingDirection": "j-",
  "PhaseEncodingSteps": 82,
  "PhaseResolution": 1,
  "PixelBandwidth": 3050,
  "ProcedureStepDescription": "Wager_Wager^1076_spacetop",
  "ProtocolName": "func_run-02_task-faces_acq-ap-mb8",
  "PulseSequenceDetails": "%CustomerSeq%\\cmrr_mbep2d_bold",
  "ReceiveCoilActiveElements": "HEA;HEP",
  "ReceiveCoilName": "Head_32",
  "ReconMatrixPE": 82,
  "RepetitionTime": 0.46,
  "SAR": 0.123101,
  "ScanOptions": "FS",
  "ScanningSequence": "EP",
  "SequenceName": "epfid2d1_82",
  "SequenceVariant": "SK\\SS",
  "SeriesDescription": "func_run-02_task-faces_acq-ap-mb8",
  "SeriesNumber": 20,
  "ShimSetting": [4142, -7767, -7252, 475, -57, -101, 4, 35],
  "SliceThickness": 2.7,
  "SliceTiming": [0, 0.2525, 0.065, 0.315, 0.1275, 0.3775, 0.19, 0, 0.2525, 0.065, 0.315, 0.1275, 0.3775, 0.19, 0, 0.2525, 0.065, 0.315, 0.1275, 0.3775, 0.19, 0, 0.2525, 0.065, 0.315, 0.1275, 0.3775, 0.19, 0, 0.2525, 0.065, 0.315, 0.1275, 0.3775, 0.19, 0, 0.2525, 0.065, 0.315, 0.1275, 0.3775, 0.19, 0, 0.2525, 0.065, 0.315, 0.1275, 0.3775, 0.19, 0, 0.2525, 0.065, 0.315, 0.1275, 0.3775, 0.19],
  "SoftwareVersions": "syngo MR E11",
  "SpacingBetweenSlices": 2.7,
  "StationName": "AWP66112",
  "TaskName": "faces",
  "TotalReadoutTime": 0.03969,
  "TxRefAmp": 269.146,
  "WipMemBlock": "7aa32ba3-cac3-4a05-97e6-76fd1b940b17||Sequence: R016 ve11e/master r/434b28f1; Aug  7 2019 18:53:46 by eja",
  "dcmmeta_affine": [
    [-2.680342435836792, -0.08329656720161438, 0.08373238891363144, 118.11659240722656],
    [-0.08000411838293076, 2.6796624660491943, 0.10605449229478836, -94.88450622558594],
    [0.08637352287769318, -0.10280126333236694, 2.6966166496276855, -43.06901168823242],
    [0.0, 0.0, 0.0, 1.0]
],
  "dcmmeta_reorient_transform": [
    [0.0, -1.0, 0.0, 81.0],
    [1.0, 0.0, 0.0, 0.0],
    [0.0, 0.0, 1.0, 0.0],
    [0.0, 0.0, 0.0, 1.0]
],
  "dcmmeta_shape": [82, 82, 56, 914],
  "dcmmeta_slice_dim": 2,
  "dcmmeta_version": 0.6,
  "global": {
    "const": {
      "AccessionNumber": "A003899",
      "AcquisitionMatrix": [82, 0, 0, 82],
      "AngioFlag": "N",
      "BitsAllocated": 16,
      "BitsStored": 16,
      "BodyPartExamined": "BRAIN",
      "Columns": 656,
      "EchoNumbers": 1,
      "EchoTime": 27.2,
      "EchoTrainLength": 82,
      "FlipAngle": 44.0,
      "HighBit": 15,
      "ImageOrientationPatient": [0.99903670901785, 0.02981971579724, 0.03219376623751, -0.0310469020279, 0.99878321474184, 0.03831683473899],
      "ImagePositionPatient": [-856.72173697234, -914.19241861635, -105.68907795832],
      "ImageType": [
        "ORIGINAL",
        "PRIMARY",
        "M",
        "MB",
        "ND",
        "NORM",
        "MOSAIC"
],
      "ImagedNucleus": "1H",
      "ImagingFrequency": 123.252172,
      "InPlanePhaseEncodingDirection": "COL",
      "MRAcquisitionType": "2D",
      "MagneticFieldStrength": 3.0,
      "Manufacturer": "SIEMENS",
      "ManufacturerModelName": "Prisma",
      "Modality": "MR",
      "NumberOfAverages": 1.0,
      "NumberOfPhaseEncodingSteps": 82,
      "PercentPhaseFieldOfView": 100.0,
      "PercentSampling": 100.0,
      "PerformedProcedureStepStartTime": "124447.648000",
      "PhotometricInterpretation": "MONOCHROME2",
      "PixelBandwidth": 3050.0,
      "PixelRepresentation": 0,
      "PixelSpacing": [2.6829268932343, 2.6829268932343],
      "ProtocolName": "func_run-02_task-faces_acq-ap-mb8",
      "RepetitionTime": 460.0,
      "Rows": 656,
      "SAR": 0.12310075703756,
      "SamplesPerPixel": 1,
      "ScanOptions": "FS",
      "ScanningSequence": "EP",
      "SequenceName": "epfid2d1_82",
      "SequenceVariant": [
        "SK",
        "SS"
],
      "SeriesDescription": "func_run-02_task-faces_acq-ap-mb8",
      "SeriesNumber": 20,
      "SeriesTime": "135812.734000",
      "SliceLocation": -43.07902097202,
      "SliceThickness": 2.7000000476837,
      "SmallestImagePixelValue": 0,
      "SoftwareVersions": "syngo MR E11",
      "SpacingBetweenSlices": 2.7000000644077,
      "SpecificCharacterSet": "ISO_IR 100",
      "StudyID": "2",
      "StudyTime": "124447.571000",
      "TransmitCoilName": "Body",
      "VariableFlipAngleFlag": "N",
      "WindowCenterWidthExplanation": "Algo1"
    },
    "slices": {}
  },
  "time": {
    "samples": {
      "AcquisitionNumber": [1, 2, 3, 4, 5, 6, 7, 8, 9, 10, 11, 12, 13, 14, 15, 16, 17, 18, 19, 20, 21, 22, 23, 24, 25, 26, 27, 28, 29, 30, 31, 32, 33, 34, 35, 36, 37, 38, 39, 40, 41, 42, 43, 44, 45, 46, 47, 48, 49, 50, 51, 52, 53, 54, 55, 56, 57, 58, 59, 60, 61, 62, 63, 64, 65, 66, 67, 68, 69, 70, 71, 72, 73, 74, 75, 76, 77, 78, 79, 80, 81, 82, 83, 84, 85, 86, 87, 88, 89, 90, 91, 92, 93, 94, 95, 96, 97, 98, 99, 100, 101, 102, 103, 104, 105, 106, 107, 108, 109, 110, 111, 112, 113, 114, 115, 116, 117, 118, 119, 120, 121, 122, 123, 124, 125, 126, 127, 128, 129, 130, 131, 132, 133, 134, 135, 136, 137, 138, 139, 140, 141, 142, 143, 144, 145, 146, 147, 148, 149, 150, 151, 152, 153, 154, 155, 156, 157, 158, 159, 160, 161, 162, 163, 164, 165, 166, 167, 168, 169, 170, 171, 172, 173, 174, 175, 176, 177, 178, 179, 180, 181, 182, 183, 184, 185, 186, 187, 188, 189, 190, 191, 192, 193, 194, 195, 196, 197, 198, 199, 200, 201, 202, 203, 204, 205, 206, 207, 208, 209, 210, 211, 212, 213, 214, 215, 216, 217, 218, 219, 220, 221, 222, 223, 224, 225, 226, 227, 228, 229, 230, 231, 232, 233, 234, 235, 236, 237, 238, 239, 240, 241, 242, 243, 244, 245, 246, 247, 248, 249, 250, 251, 252, 253, 254, 255, 256, 257, 258, 259, 260, 261, 262, 263, 264, 265, 266, 267, 268, 269, 270, 271, 272, 273, 274, 275, 276, 277, 278, 279, 280, 281, 282, 283, 284, 285, 286, 287, 288, 289, 290, 291, 292, 293, 294, 295, 296, 297, 298, 299, 300, 301, 302, 303, 304, 305, 306, 307, 308, 309, 310, 311, 312, 313, 314, 315, 316, 317, 318, 319, 320, 321, 322, 323, 324, 325, 326, 327, 328, 329, 330, 331, 332, 333, 334, 335, 336, 337, 338, 339, 340, 341, 342, 343, 344, 345, 346, 347, 348, 349, 350, 351, 352, 353, 354, 355, 356, 357, 358, 359, 360, 361, 362, 363, 364, 365, 366, 367, 368, 369, 370, 371, 372, 373, 374, 375, 376, 377, 378, 379, 380, 381, 382, 383, 384, 385, 386, 387, 388, 389, 390, 391, 392, 393, 394, 395, 396, 397, 398, 399, 400, 401, 402, 403, 404, 405, 406, 407, 408, 409, 410, 411, 412, 413, 414, 415, 416, 417, 418, 419, 420, 421, 422, 423, 424, 425, 426, 427, 428, 429, 430, 431, 432, 433, 434, 435, 436, 437, 438, 439, 440, 441, 442, 443, 444, 445, 446, 447, 448, 449, 450, 451, 452, 453, 454, 455, 456, 457, 458, 459, 460, 461, 462, 463, 464, 465, 466, 467, 468, 469, 470, 471, 472, 473, 474, 475, 476, 477, 478, 479, 480, 481, 482, 483, 484, 485, 486, 487, 488, 489, 490, 491, 492, 493, 494, 495, 496, 497, 498, 499, 500, 501, 502, 503, 504, 505, 506, 507, 508, 509, 510, 511, 512, 513, 514, 515, 516, 517, 518, 519, 520, 521, 522, 523, 524, 525, 526, 527, 528, 529, 530, 531, 532, 533, 534, 535, 536, 537, 538, 539, 540, 541, 542, 543, 544, 545, 546, 547, 548, 549, 550, 551, 552, 553, 554, 555, 556, 557, 558, 559, 560, 561, 562, 563, 564, 565, 566, 567, 568, 569, 570, 571, 572, 573, 574, 575, 576, 577, 578, 579, 580, 581, 582, 583, 584, 585, 586, 587, 588, 589, 590, 591, 592, 593, 594, 595, 596, 597, 598, 599, 600, 601, 602, 603, 604, 605, 606, 607, 608, 609, 610, 611, 612, 613, 614, 615, 616, 617, 618, 619, 620, 621, 622, 623, 624, 625, 626, 627, 628, 629, 630, 631, 632, 633, 634, 635, 636, 637, 638, 639, 640, 641, 642, 643, 644, 645, 646, 647, 648, 649, 650, 651, 652, 653, 654, 655, 656, 657, 658, 659, 660, 661, 662, 663, 664, 665, 666, 667, 668, 669, 670, 671, 672, 673, 674, 675, 676, 677, 678, 679, 680, 681, 682, 683, 684, 685, 686, 687, 688, 689, 690, 691, 692, 693, 694, 695, 696, 697, 698, 699, 700, 701, 702, 703, 704, 705, 706, 707, 708, 709, 710, 711, 712, 713, 714, 715, 716, 717, 718, 719, 720, 721, 722, 723, 724, 725, 726, 727, 728, 729, 730, 731, 732, 733, 734, 735, 736, 737, 738, 739, 740, 741, 742, 743, 744, 745, 746, 747, 748, 749, 750, 751, 752, 753, 754, 755, 756, 757, 758, 759, 760, 761, 762, 763, 764, 765, 766, 767, 768, 769, 770, 771, 772, 773, 774, 775, 776, 777, 778, 779, 780, 781, 782, 783, 784, 785, 786, 787, 788, 789, 790, 791, 792, 793, 794, 795, 796, 797, 798, 799, 800, 801, 802, 803, 804, 805, 806, 807, 808, 809, 810, 811, 812, 813, 814, 815, 816, 817, 818, 819, 820, 821, 822, 823, 824, 825, 826, 827, 828, 829, 830, 831, 832, 833, 834, 835, 836, 837, 838, 839, 840, 841, 842, 843, 844, 845, 846, 847, 848, 849, 850, 851, 852, 853, 854, 855, 856, 857, 858, 859, 860, 861, 862, 863, 864, 865, 866, 867, 868, 869, 870, 871, 872, 873, 874, 875, 876, 877, 878, 879, 880, 881, 882, 883, 884, 885, 886, 887, 888, 889, 890, 891, 892, 893, 894, 895, 896, 897, 898, 899, 900, 901, 902, 903, 904, 905, 906, 907, 908, 909, 910, 911, 912, 913, 914],
      "AcquisitionTime": ["135757.945000", "135758.405000", "135758.865000", "135759.325000", "135759.785000", "135800.245000", "135800.705000", "135801.165000", "135801.625000", "135802.085000", "135802.545000", "135803.005000", "135803.465000", "135803.925000", "135804.385000", "135804.845000", "135805.305000", "135805.765000", "135806.225000", "135806.685000", "135807.145000", "135807.605000", "135808.065000", "135808.525000", "135808.985000", "135809.445000", "135809.905000", "135810.365000", "135810.825000", "135811.285000", "135811.745000", "135812.205000", "135812.665000", "135813.125000", "135813.585000", "135814.045000", "135814.505000", "135814.965000", "135815.425000", "135815.885000", "135816.345000", "135816.805000", "135817.265000", "135817.725000", "135818.185000", "135818.645000", "135819.105000", "135819.565000", "135820.025000", "135820.485000", "135820.945000", "135821.405000", "135821.865000", "135822.325000", "135822.785000", "135823.245000", "135823.705000", "135824.165000", "135824.625000", "135825.085000", "135825.545000", "135826.005000", "135826.465000", "135826.925000", "135827.385000", "135827.845000", "135828.305000", "135828.765000", "135829.225000", "135829.685000", "135830.145000", "135830.605000", "135831.065000", "135831.525000", "135831.985000", "135832.445000", "135832.905000", "135833.365000", "135833.825000", "135834.285000", "135834.745000", "135835.205000", "135835.665000", "135836.125000", "135836.585000", "135837.045000", "135837.505000", "135837.965000", "135838.425000", "135838.885000", "135839.345000", "135839.805000", "135840.265000", "135840.725000", "135841.185000", "135841.645000", "135842.105000", "135842.565000", "135843.025000", "135843.485000", "135843.945000", "135844.405000", "135844.865000", "135845.325000", "135845.785000", "135846.245000", "135846.705000", "135847.165000", "135847.625000", "135848.085000", "135848.545000", "135849.005000", "135849.465000", "135849.925000", "135850.385000", "135850.845000", "135851.305000", "135851.765000", "135852.225000", "135852.685000", "135853.145000", "135853.605000", "135854.065000", "135854.525000", "135854.985000", "135855.445000", "135855.905000", "135856.365000", "135856.825000", "135857.285000", "135857.745000", "135858.205000", "135858.665000", "135859.125000", "135859.585000", "135900.045000", "135900.505000", "135900.965000", "135901.425000", "135901.885000", "135902.345000", "135902.805000", "135903.265000", "135903.725000", "135904.185000", "135904.645000", "135905.105000", "135905.565000", "135906.025000", "135906.485000", "135906.945000", "135907.405000", "135907.865000", "135908.325000", "135908.785000", "135909.245000", "135909.705000", "135910.165000", "135910.625000", "135911.085000", "135911.545000", "135912.005000", "135912.465000", "135912.925000", "135913.385000", "135913.845000", "135914.305000", "135914.765000", "135915.225000", "135915.685000", "135916.145000", "135916.605000", "135917.065000", "135917.525000", "135917.985000", "135918.445000", "135918.905000", "135919.365000", "135919.825000", "135920.285000", "135920.745000", "135921.205000", "135921.665000", "135922.125000", "135922.585000", "135923.045000", "135923.505000", "135923.965000", "135924.425000", "135924.885000", "135925.345000", "135925.805000", "135926.265000", "135926.725000", "135927.185000", "135927.645000", "135928.105000", "135928.565000", "135929.025000", "135929.485000", "135929.945000", "135930.405000", "135930.865000", "135931.325000", "135931.785000", "135932.245000", "135932.705000", "135933.165000", "135933.625000", "135934.085000", "135934.545000", "135935.005000", "135935.465000", "135935.925000", "135936.385000", "135936.845000", "135937.305000", "135937.765000", "135938.225000", "135938.685000", "135939.145000", "135939.605000", "135940.065000", "135940.525000", "135940.985000", "135941.445000", "135941.905000", "135942.365000", "135942.825000", "135943.285000", "135943.745000", "135944.205000", "135944.665000", "135945.125000", "135945.585000", "135946.045000", "135946.505000", "135946.965000", "135947.425000", "135947.885000", "135948.345000", "135948.805000", "135949.265000", "135949.725000", "135950.185000", "135950.645000", "135951.105000", "135951.565000", "135952.025000", "135952.485000", "135952.945000", "135953.405000", "135953.865000", "135954.325000", "135954.785000", "135955.245000", "135955.705000", "135956.165000", "135956.625000", "135957.085000", "135957.545000", "135958.005000", "135958.465000", "135958.925000", "135959.385000", "135959.845000", "140000.305000", "140000.765000", "140001.225000", "140001.685000", "140002.145000", "140002.605000", "140003.065000", "140003.525000", "140003.985000", "140004.445000", "140004.905000", "140005.365000", "140005.825000", "140006.285000", "140006.745000", "140007.205000", "140007.665000", "140008.125000", "140008.585000", "140009.045000", "140009.505000", "140009.965000", "140010.425000", "140010.885000", "140011.345000", "140011.805000", "140012.265000", "140012.725000", "140013.185000", "140013.645000", "140014.105000", "140014.565000", "140015.025000", "140015.485000", "140015.945000", "140016.405000", "140016.865000", "140017.325000", "140017.785000", "140018.245000", "140018.705000", "140019.165000", "140019.625000", "140020.085000", "140020.545000", "140021.005000", "140021.465000", "140021.925000", "140022.385000", "140022.845000", "140023.305000", "140023.765000", "140024.225000", "140024.685000", "140025.145000", "140025.605000", "140026.065000", "140026.525000", "140026.985000", "140027.445000", "140027.905000", "140028.365000", "140028.825000", "140029.285000", "140029.745000", "140030.205000", "140030.665000", "140031.125000", "140031.585000", "140032.045000", "140032.505000", "140032.965000", "140033.425000", "140033.885000", "140034.345000", "140034.805000", "140035.265000", "140035.725000", "140036.185000", "140036.645000", "140037.105000", "140037.565000", "140038.025000", "140038.485000", "140038.945000", "140039.405000", "140039.865000", "140040.325000", "140040.785000", "140041.245000", "140041.705000", "140042.165000", "140042.625000", "140043.085000", "140043.545000", "140044.005000", "140044.465000", "140044.925000", "140045.385000", "140045.845000", "140046.305000", "140046.765000", "140047.225000", "140047.685000", "140048.145000", "140048.605000", "140049.065000", "140049.525000", "140049.985000", "140050.445000", "140050.905000", "140051.365000", "140051.825000", "140052.285000", "140052.745000", "140053.205000", "140053.665000", "140054.125000", "140054.585000", "140055.045000", "140055.505000", "140055.965000", "140056.425000", "140056.885000", "140057.345000", "140057.805000", "140058.265000", "140058.725000", "140059.185000", "140059.645000", "140100.105000", "140100.565000", "140101.025000", "140101.485000", "140101.945000", "140102.405000", "140102.865000", "140103.325000", "140103.785000", "140104.245000", "140104.705000", "140105.165000", "140105.625000", "140106.085000", "140106.545000", "140107.005000", "140107.465000", "140107.925000", "140108.385000", "140108.845000", "140109.305000", "140109.765000", "140110.225000", "140110.685000", "140111.145000", "140111.605000", "140112.065000", "140112.525000", "140112.985000", "140113.445000", "140113.905000", "140114.365000", "140114.825000", "140115.285000", "140115.745000", "140116.205000", "140116.665000", "140117.125000", "140117.585000", "140118.045000", "140118.505000", "140118.965000", "140119.425000", "140119.885000", "140120.345000", "140120.805000", "140121.265000", "140121.725000", "140122.185000", "140122.645000", "140123.105000", "140123.565000", "140124.025000", "140124.485000", "140124.945000", "140125.405000", "140125.865000", "140126.325000", "140126.785000", "140127.245000", "140127.705000", "140128.165000", "140128.625000", "140129.085000", "140129.545000", "140130.005000", "140130.465000", "140130.925000", "140131.385000", "140131.845000", "140132.305000", "140132.765000", "140133.225000", "140133.685000", "140134.145000", "140134.605000", "140135.065000", "140135.525000", "140135.985000", "140136.445000", "140136.905000", "140137.365000", "140137.825000", "140138.285000", "140138.745000", "140139.205000", "140139.665000", "140140.125000", "140140.585000", "140141.045000", "140141.505000", "140141.965000", "140142.425000", "140142.885000", "140143.345000", "140143.805000", "140144.265000", "140144.725000", "140145.185000", "140145.645000", "140146.105000", "140146.565000", "140147.025000", "140147.485000", "140147.945000", "140148.405000", "140148.865000", "140149.325000", "140149.785000", "140150.245000", "140150.705000", "140151.165000", "140151.625000", "140152.085000", "140152.545000", "140153.005000", "140153.465000", "140153.925000", "140154.385000", "140154.845000", "140155.305000", "140155.765000", "140156.225000", "140156.685000", "140157.145000", "140157.605000", "140158.065000", "140158.525000", "140158.985000", "140159.445000", "140159.905000", "140200.365000", "140200.825000", "140201.285000", "140201.745000", "140202.205000", "140202.665000", "140203.125000", "140203.585000", "140204.045000", "140204.505000", "140204.965000", "140205.425000", "140205.885000", "140206.345000", "140206.805000", "140207.265000", "140207.725000", "140208.185000", "140208.645000", "140209.105000", "140209.565000", "140210.025000", "140210.485000", "140210.945000", "140211.405000", "140211.865000", "140212.325000", "140212.785000", "140213.245000", "140213.705000", "140214.165000", "140214.625000", "140215.085000", "140215.545000", "140216.005000", "140216.465000", "140216.925000", "140217.385000", "140217.845000", "140218.305000", "140218.765000", "140219.225000", "140219.685000", "140220.145000", "140220.605000", "140221.065000", "140221.525000", "140221.985000", "140222.445000", "140222.905000", "140223.365000", "140223.825000", "140224.285000", "140224.745000", "140225.205000", "140225.665000", "140226.125000", "140226.585000", "140227.045000", "140227.505000", "140227.965000", "140228.425000", "140228.885000", "140229.345000", "140229.805000", "140230.265000", "140230.725000", "140231.185000", "140231.645000", "140232.105000", "140232.565000", "140233.025000", "140233.485000", "140233.945000", "140234.405000", "140234.865000", "140235.325000", "140235.785000", "140236.245000", "140236.705000", "140237.165000", "140237.625000", "140238.085000", "140238.545000", "140239.005000", "140239.465000", "140239.925000", "140240.385000", "140240.845000", "140241.305000", "140241.765000", "140242.225000", "140242.685000", "140243.145000", "140243.605000", "140244.065000", "140244.525000", "140244.985000", "140245.445000", "140245.905000", "140246.365000", "140246.825000", "140247.285000", "140247.745000", "140248.205000", "140248.665000", "140249.125000", "140249.585000", "140250.045000", "140250.505000", "140250.965000", "140251.425000", "140251.885000", "140252.345000", "140252.805000", "140253.265000", "140253.725000", "140254.185000", "140254.645000", "140255.105000", "140255.565000", "140256.025000", "140256.485000", "140256.945000", "140257.405000", "140257.865000", "140258.325000", "140258.785000", "140259.245000", "140259.705000", "140300.165000", "140300.625000", "140301.085000", "140301.545000", "140302.005000", "140302.465000", "140302.925000", "140303.385000", "140303.845000", "140304.305000", "140304.765000", "140305.225000", "140305.685000", "140306.145000", "140306.605000", "140307.065000", "140307.525000", "140307.985000", "140308.445000", "140308.905000", "140309.365000", "140309.825000", "140310.285000", "140310.745000", "140311.205000", "140311.665000", "140312.125000", "140312.585000", "140313.045000", "140313.505000", "140313.965000", "140314.425000", "140314.885000", "140315.345000", "140315.805000", "140316.265000", "140316.725000", "140317.185000", "140317.645000", "140318.105000", "140318.565000", "140319.025000", "140319.485000", "140319.945000", "140320.405000", "140320.865000", "140321.325000", "140321.785000", "140322.245000", "140322.705000", "140323.165000", "140323.625000", "140324.085000", "140324.545000", "140325.005000", "140325.465000", "140325.925000", "140326.385000", "140326.845000", "140327.305000", "140327.765000", "140328.225000", "140328.685000", "140329.145000", "140329.605000", "140330.065000", "140330.525000", "140330.985000", "140331.445000", "140331.905000", "140332.365000", "140332.825000", "140333.285000", "140333.745000", "140334.205000", "140334.665000", "140335.125000", "140335.585000", "140336.045000", "140336.505000", "140336.965000", "140337.425000", "140337.885000", "140338.345000", "140338.805000", "140339.265000", "140339.725000", "140340.185000", "140340.645000", "140341.105000", "140341.565000", "140342.025000", "140342.485000", "140342.945000", "140343.405000", "140343.865000", "140344.325000", "140344.785000", "140345.245000", "140345.705000", "140346.165000", "140346.625000", "140347.085000", "140347.545000", "140348.005000", "140348.465000", "140348.925000", "140349.385000", "140349.845000", "140350.305000", "140350.765000", "140351.225000", "140351.685000", "140352.145000", "140352.605000", "140353.065000", "140353.525000", "140353.985000", "140354.445000", "140354.905000", "140355.365000", "140355.825000", "140356.285000", "140356.745000", "140357.205000", "140357.665000", "140358.125000", "140358.585000", "140359.045000", "140359.505000", "140359.965000", "140400.425000", "140400.885000", "140401.345000", "140401.805000", "140402.265000", "140402.725000", "140403.185000", "140403.645000", "140404.105000", "140404.565000", "140405.025000", "140405.485000", "140405.945000", "140406.405000", "140406.865000", "140407.325000", "140407.785000", "140408.245000", "140408.705000", "140409.165000", "140409.625000", "140410.085000", "140410.545000", "140411.005000", "140411.465000", "140411.925000", "140412.385000", "140412.845000", "140413.305000", "140413.765000", "140414.225000", "140414.685000", "140415.145000", "140415.605000", "140416.065000", "140416.525000", "140416.985000", "140417.445000", "140417.905000", "140418.365000", "140418.825000", "140419.285000", "140419.745000", "140420.205000", "140420.665000", "140421.125000", "140421.585000", "140422.045000", "140422.505000", "140422.965000", "140423.425000", "140423.885000", "140424.345000", "140424.805000", "140425.265000", "140425.725000", "140426.185000", "140426.645000", "140427.105000", "140427.565000", "140428.025000", "140428.485000", "140428.945000", "140429.405000", "140429.865000", "140430.325000", "140430.785000", "140431.245000", "140431.705000", "140432.165000", "140432.625000", "140433.085000", "140433.545000", "140434.005000", "140434.465000", "140434.925000", "140435.385000", "140435.845000", "140436.305000", "140436.765000", "140437.225000", "140437.685000", "140438.145000", "140438.605000", "140439.065000", "140439.525000", "140439.985000", "140440.445000", "140440.905000", "140441.365000", "140441.825000", "140442.285000", "140442.745000", "140443.205000", "140443.665000", "140444.125000", "140444.585000", "140445.045000", "140445.505000", "140445.965000", "140446.425000", "140446.885000", "140447.345000", "140447.805000", "140448.265000", "140448.725000", "140449.185000", "140449.645000", "140450.105000", "140450.565000", "140451.025000", "140451.485000", "140451.945000", "140452.405000", "140452.865000", "140453.325000", "140453.785000", "140454.245000", "140454.705000", "140455.165000", "140455.625000", "140456.085000", "140456.545000", "140457.005000", "140457.465000", "140457.925000"],
