{
  "AcquisitionMatrixPE": 82,
  "AcquisitionNumber": 1,
  "AcquisitionTime": "15:31:3.480000",
  "BandwidthPerPixelPhaseEncode": 24.888,
  "BaseResolution": 82,
  "BodyPartExamined": "BRAIN",
  "ConsistencyInfo": "N4_VE11C_LATEST_20160120",
  "ConversionSoftware": "dcm2niix",
  "ConversionSoftwareVersion": "v1.0.20201102",
  "DerivedVendorReportedEchoSpacing": 0.00049,
  "DeviceSerialNumber": "66112",
  "DwellTime": 2e-06,
  "EchoTime": 0.0272,
  "EchoTrainLength": 82,
  "EffectiveEchoSpacing": 0.00049,
  "FlipAngle": 44,
  "ImageComments": "Unaliased MB8/PE3",
  "ImageOrientationPatientDICOM": [0.994463, -0.019767, 0.103215, 0.00468632, 0.989515, 0.144352],
  "ImageType": [
    "ORIGINAL",
    "PRIMARY",
    "M",
    "MB",
    "ND",
    "NORM",
    "MOSAIC"
],
  "ImagingFrequency": 123.252,
  "InPlanePhaseEncodingDirectionDICOM": "COL",
  "InstitutionAddress": "Maynard 3,Hanover,NH,US,03755",
  "InstitutionName": "Dartmouth College - PBS",
  "InstitutionalDepartmentName": "Department",
  "MRAcquisitionType": "2D",
  "MagneticFieldStrength": 3,
  "Manufacturer": "Siemens",
  "ManufacturersModelName": "Prisma",
  "Modality": "MR",
  "MultibandAccelerationFactor": 8,
  "PartialFourier": 1,
  "PatientPosition": "HFS",
  "PercentPhaseFOV": 100,
  "PercentSampling": 100,
  "PhaseEncodingDirection": "j-",
  "PhaseEncodingSteps": 82,
  "PhaseResolution": 1,
  "PixelBandwidth": 3050,
  "ProcedureStepDescription": "Wager_Wager^1076_spacetop",
  "ProtocolName": "func_run-01_task-narratives_acq-ap-mb8",
  "PulseSequenceDetails": "%CustomerSeq%\\cmrr_mbep2d_bold",
  "ReceiveCoilActiveElements": "HEA;HEP",
  "ReceiveCoilName": "Head_32",
  "ReconMatrixPE": 82,
  "RepetitionTime": 0.46,
  "SAR": 0.0972995,
  "ScanOptions": "FS",
  "ScanningSequence": "EP",
  "SequenceName": "epfid2d1_82",
  "SequenceVariant": "SK\\SS",
  "SeriesDescription": "func_run-01_task-narratives_acq-ap-mb8",
  "SeriesNumber": 8,
  "ShimSetting": [4161, -7760, -7297, 686, -51, -144, 138, 45],
  "SliceThickness": 2.7,
  "SliceTiming": [0, 0.2525, 0.0625, 0.315, 0.1275, 0.3775, 0.19, 0, 0.2525, 0.0625, 0.315, 0.1275, 0.3775, 0.19, 0, 0.2525, 0.0625, 0.315, 0.1275, 0.3775, 0.19, 0, 0.2525, 0.0625, 0.315, 0.1275, 0.3775, 0.19, 0, 0.2525, 0.0625, 0.315, 0.1275, 0.3775, 0.19, 0, 0.2525, 0.0625, 0.315, 0.1275, 0.3775, 0.19, 0, 0.2525, 0.0625, 0.315, 0.1275, 0.3775, 0.19, 0, 0.2525, 0.0625, 0.315, 0.1275, 0.3775, 0.19],
  "SoftwareVersions": "syngo MR E11",
  "SpacingBetweenSlices": 2.7,
  "StationName": "AWP66112",
  "TaskName": "narratives",
  "TotalReadoutTime": 0.03969,
  "TxRefAmp": 252.959,
  "WipMemBlock": "033ce16b-f985-440a-b327-c7b8ece110e7||Sequence: R016 ve11c/master r/e634e98; Dec 19 2017 11:00:25 by eja",
  "dcmmeta_affine": [
    [-2.6680705547332764, 0.0125730624422431, 0.28346341848373413, 105.33180236816406],
    [0.05303337424993515, 2.654797077178955, 0.386287122964859, -109.35382843017578],
    [0.2769189178943634, -0.3872867822647095, 2.657147169113159, -79.59841918945312],
    [0.0, 0.0, 0.0, 1.0]
],
  "dcmmeta_reorient_transform": [
    [0.0, -1.0, 0.0, 81.0],
    [1.0, 0.0, 0.0, 0.0],
    [0.0, 0.0, 1.0, 0.0],
    [0.0, 0.0, 0.0, 1.0]
],
  "dcmmeta_shape": [82, 82, 56, 967],
  "dcmmeta_slice_dim": 2,
  "dcmmeta_version": 0.6,
  "global": {
    "const": {
      "AccessionNumber": "A003818",
      "AcquisitionMatrix": [82, 0, 0, 82],
      "AngioFlag": "N",
      "BitsAllocated": 16,
      "BitsStored": 16,
      "BodyPartExamined": "BRAIN",
      "Columns": 656,
      "EchoNumbers": 1,
      "EchoTime": 27.2,
      "EchoTrainLength": 82,
      "FlipAngle": 44.0,
      "HighBit": 15,
      "ImageOrientationPatient": [0.994462610095, -0.0197669846007, 0.10321522873505, 0.00468632326663, 0.98951525555836, 0.14435233767251],
      "ImagePositionPatient": [-875.69492091756, -852.39092486718, -301.59567731691],
      "ImageType": [
        "ORIGINAL",
        "PRIMARY",
        "M",
        "MB",
        "ND",
        "NORM",
        "MOSAIC"
],
      "ImagedNucleus": "1H",
      "ImagingFrequency": 123.252229,
      "InPlanePhaseEncodingDirection": "COL",
      "MRAcquisitionType": "2D",
      "MagneticFieldStrength": 3.0,
      "Manufacturer": "SIEMENS",
      "ManufacturerModelName": "Prisma",
      "Modality": "MR",
      "NumberOfAverages": 1.0,
      "NumberOfPhaseEncodingSteps": 82,
      "PercentPhaseFieldOfView": 100.0,
      "PercentSampling": 100.0,
      "PerformedProcedureStepStartTime": "151853.828000",
      "PhotometricInterpretation": "MONOCHROME2",
      "PixelBandwidth": 3050.0,
      "PixelRepresentation": 0,
      "PixelSpacing": [2.6829268932343, 2.6829268932343],
      "ProtocolName": "func_run-01_task-narratives_acq-ap-mb8",
      "RepetitionTime": 460.0,
      "Rows": 656,
      "SAR": 0.09729945352472,
      "SamplesPerPixel": 1,
      "ScanOptions": "FS",
      "ScanningSequence": "EP",
      "SequenceName": "epfid2d1_82",
      "SequenceVariant": [
        "SK",
        "SS"
],
      "SeriesDescription": "func_run-01_task-narratives_acq-ap-mb8",
      "SeriesNumber": 8,
      "SeriesTime": "153118.235000",
      "SliceLocation": -82.921839533719,
      "SliceThickness": 2.7000000476837,
      "SmallestImagePixelValue": 0,
      "SoftwareVersions": "syngo MR E11",
      "SpacingBetweenSlices": 2.6999999687241,
      "SpecificCharacterSet": "ISO_IR 100",
      "StudyID": "2",
      "StudyTime": "151853.729000",
      "TransmitCoilName": "Body",
      "VariableFlipAngleFlag": "N",
      "WindowCenterWidthExplanation": "Algo1",
      "dBdt": 0.0},
    "slices": {}
  },
  "time": {
    "samples": {
      "AcquisitionNumber": [1, 2, 3, 4, 5, 6, 7, 8, 9, 10, 11, 12, 13, 14, 15, 16, 17, 18, 19, 20, 21, 22, 23, 24, 25, 26, 27, 28, 29, 30, 31, 32, 33, 34, 35, 36, 37, 38, 39, 40, 41, 42, 43, 44, 45, 46, 47, 48, 49, 50, 51, 52, 53, 54, 55, 56, 57, 58, 59, 60, 61, 62, 63, 64, 65, 66, 67, 68, 69, 70, 71, 72, 73, 74, 75, 76, 77, 78, 79, 80, 81, 82, 83, 84, 85, 86, 87, 88, 89, 90, 91, 92, 93, 94, 95, 96, 97, 98, 99, 100, 101, 102, 103, 104, 105, 106, 107, 108, 109, 110, 111, 112, 113, 114, 115, 116, 117, 118, 119, 120, 121, 122, 123, 124, 125, 126, 127, 128, 129, 130, 131, 132, 133, 134, 135, 136, 137, 138, 139, 140, 141, 142, 143, 144, 145, 146, 147, 148, 149, 150, 151, 152, 153, 154, 155, 156, 157, 158, 159, 160, 161, 162, 163, 164, 165, 166, 167, 168, 169, 170, 171, 172, 173, 174, 175, 176, 177, 178, 179, 180, 181, 182, 183, 184, 185, 186, 187, 188, 189, 190, 191, 192, 193, 194, 195, 196, 197, 198, 199, 200, 201, 202, 203, 204, 205, 206, 207, 208, 209, 210, 211, 212, 213, 214, 215, 216, 217, 218, 219, 220, 221, 222, 223, 224, 225, 226, 227, 228, 229, 230, 231, 232, 233, 234, 235, 236, 237, 238, 239, 240, 241, 242, 243, 244, 245, 246, 247, 248, 249, 250, 251, 252, 253, 254, 255, 256, 257, 258, 259, 260, 261, 262, 263, 264, 265, 266, 267, 268, 269, 270, 271, 272, 273, 274, 275, 276, 277, 278, 279, 280, 281, 282, 283, 284, 285, 286, 287, 288, 289, 290, 291, 292, 293, 294, 295, 296, 297, 298, 299, 300, 301, 302, 303, 304, 305, 306, 307, 308, 309, 310, 311, 312, 313, 314, 315, 316, 317, 318, 319, 320, 321, 322, 323, 324, 325, 326, 327, 328, 329, 330, 331, 332, 333, 334, 335, 336, 337, 338, 339, 340, 341, 342, 343, 344, 345, 346, 347, 348, 349, 350, 351, 352, 353, 354, 355, 356, 357, 358, 359, 360, 361, 362, 363, 364, 365, 366, 367, 368, 369, 370, 371, 372, 373, 374, 375, 376, 377, 378, 379, 380, 381, 382, 383, 384, 385, 386, 387, 388, 389, 390, 391, 392, 393, 394, 395, 396, 397, 398, 399, 400, 401, 402, 403, 404, 405, 406, 407, 408, 409, 410, 411, 412, 413, 414, 415, 416, 417, 418, 419, 420, 421, 422, 423, 424, 425, 426, 427, 428, 429, 430, 431, 432, 433, 434, 435, 436, 437, 438, 439, 440, 441, 442, 443, 444, 445, 446, 447, 448, 449, 450, 451, 452, 453, 454, 455, 456, 457, 458, 459, 460, 461, 462, 463, 464, 465, 466, 467, 468, 469, 470, 471, 472, 473, 474, 475, 476, 477, 478, 479, 480, 481, 482, 483, 484, 485, 486, 487, 488, 489, 490, 491, 492, 493, 494, 495, 496, 497, 498, 499, 500, 501, 502, 503, 504, 505, 506, 507, 508, 509, 510, 511, 512, 513, 514, 515, 516, 517, 518, 519, 520, 521, 522, 523, 524, 525, 526, 527, 528, 529, 530, 531, 532, 533, 534, 535, 536, 537, 538, 539, 540, 541, 542, 543, 544, 545, 546, 547, 548, 549, 550, 551, 552, 553, 554, 555, 556, 557, 558, 559, 560, 561, 562, 563, 564, 565, 566, 567, 568, 569, 570, 571, 572, 573, 574, 575, 576, 577, 578, 579, 580, 581, 582, 583, 584, 585, 586, 587, 588, 589, 590, 591, 592, 593, 594, 595, 596, 597, 598, 599, 600, 601, 602, 603, 604, 605, 606, 607, 608, 609, 610, 611, 612, 613, 614, 615, 616, 617, 618, 619, 620, 621, 622, 623, 624, 625, 626, 627, 628, 629, 630, 631, 632, 633, 634, 635, 636, 637, 638, 639, 640, 641, 642, 643, 644, 645, 646, 647, 648, 649, 650, 651, 652, 653, 654, 655, 656, 657, 658, 659, 660, 661, 662, 663, 664, 665, 666, 667, 668, 669, 670, 671, 672, 673, 674, 675, 676, 677, 678, 679, 680, 681, 682, 683, 684, 685, 686, 687, 688, 689, 690, 691, 692, 693, 694, 695, 696, 697, 698, 699, 700, 701, 702, 703, 704, 705, 706, 707, 708, 709, 710, 711, 712, 713, 714, 715, 716, 717, 718, 719, 720, 721, 722, 723, 724, 725, 726, 727, 728, 729, 730, 731, 732, 733, 734, 735, 736, 737, 738, 739, 740, 741, 742, 743, 744, 745, 746, 747, 748, 749, 750, 751, 752, 753, 754, 755, 756, 757, 758, 759, 760, 761, 762, 763, 764, 765, 766, 767, 768, 769, 770, 771, 772, 773, 774, 775, 776, 777, 778, 779, 780, 781, 782, 783, 784, 785, 786, 787, 788, 789, 790, 791, 792, 793, 794, 795, 796, 797, 798, 799, 800, 801, 802, 803, 804, 805, 806, 807, 808, 809, 810, 811, 812, 813, 814, 815, 816, 817, 818, 819, 820, 821, 822, 823, 824, 825, 826, 827, 828, 829, 830, 831, 832, 833, 834, 835, 836, 837, 838, 839, 840, 841, 842, 843, 844, 845, 846, 847, 848, 849, 850, 851, 852, 853, 854, 855, 856, 857, 858, 859, 860, 861, 862, 863, 864, 865, 866, 867, 868, 869, 870, 871, 872, 873, 874, 875, 876, 877, 878, 879, 880, 881, 882, 883, 884, 885, 886, 887, 888, 889, 890, 891, 892, 893, 894, 895, 896, 897, 898, 899, 900, 901, 902, 903, 904, 905, 906, 907, 908, 909, 910, 911, 912, 913, 914, 915, 916, 917, 918, 919, 920, 921, 922, 923, 924, 925, 926, 927, 928, 929, 930, 931, 932, 933, 934, 935, 936, 937, 938, 939, 940, 941, 942, 943, 944, 945, 946, 947, 948, 949, 950, 951, 952, 953, 954, 955, 956, 957, 958, 959, 960, 961, 962, 963, 964, 965, 966, 967],
      "AcquisitionTime": ["153103.480000", "153103.940000", "153104.400000", "153104.860000", "153105.320000", "153105.780000", "153106.240000", "153106.700000", "153107.160000", "153107.620000", "153108.080000", "153108.540000", "153109.000000", "153109.460000", "153109.920000", "153110.380000", "153110.840000", "153111.300000", "153111.760000", "153112.220000", "153112.680000", "153113.140000", "153113.600000", "153114.060000", "153114.520000", "153114.980000", "153115.440000", "153115.900000", "153116.360000", "153116.820000", "153117.280000", "153117.740000", "153118.200000", "153118.660000", "153119.120000", "153119.580000", "153120.040000", "153120.500000", "153120.960000", "153121.420000", "153121.880000", "153122.340000", "153122.800000", "153123.260000", "153123.720000", "153124.180000", "153124.640000", "153125.100000", "153125.560000", "153126.020000", "153126.480000", "153126.940000", "153127.400000", "153127.860000", "153128.320000", "153128.780000", "153129.240000", "153129.700000", "153130.160000", "153130.620000", "153131.080000", "153131.540000", "153132.000000", "153132.460000", "153132.920000", "153133.380000", "153133.840000", "153134.300000", "153134.760000", "153135.220000", "153135.680000", "153136.140000", "153136.600000", "153137.060000", "153137.520000", "153137.980000", "153138.440000", "153138.900000", "153139.360000", "153139.820000", "153140.280000", "153140.740000", "153141.200000", "153141.660000", "153142.120000", "153142.580000", "153143.040000", "153143.500000", "153143.960000", "153144.420000", "153144.880000", "153145.340000", "153145.800000", "153146.260000", "153146.720000", "153147.180000", "153147.640000", "153148.100000", "153148.560000", "153149.020000", "153149.480000", "153149.940000", "153150.400000", "153150.860000", "153151.320000", "153151.780000", "153152.240000", "153152.700000", "153153.160000", "153153.620000", "153154.080000", "153154.540000", "153155.000000", "153155.460000", "153155.920000", "153156.380000", "153156.840000", "153157.300000", "153157.760000", "153158.220000", "153158.680000", "153159.140000", "153159.600000", "153200.060000", "153200.520000", "153200.980000", "153201.440000", "153201.900000", "153202.360000", "153202.820000", "153203.280000", "153203.740000", "153204.200000", "153204.660000", "153205.120000", "153205.580000", "153206.040000", "153206.500000", "153206.960000", "153207.420000", "153207.880000", "153208.340000", "153208.800000", "153209.260000", "153209.720000", "153210.180000", "153210.640000", "153211.100000", "153211.560000", "153212.020000", "153212.480000", "153212.940000", "153213.400000", "153213.860000", "153214.320000", "153214.780000", "153215.240000", "153215.700000", "153216.160000", "153216.620000", "153217.080000", "153217.540000", "153218.000000", "153218.460000", "153218.920000", "153219.380000", "153219.840000", "153220.300000", "153220.760000", "153221.220000", "153221.680000", "153222.140000", "153222.600000", "153223.060000", "153223.520000", "153223.980000", "153224.440000", "153224.900000", "153225.360000", "153225.820000", "153226.280000", "153226.740000", "153227.200000", "153227.660000", "153228.120000", "153228.580000", "153229.040000", "153229.500000", "153229.960000", "153230.420000", "153230.880000", "153231.340000", "153231.800000", "153232.260000", "153232.720000", "153233.180000", "153233.640000", "153234.100000", "153234.560000", "153235.020000", "153235.480000", "153235.940000", "153236.400000", "153236.860000", "153237.320000", "153237.780000", "153238.240000", "153238.700000", "153239.160000", "153239.620000", "153240.080000", "153240.540000", "153241.000000", "153241.460000", "153241.920000", "153242.380000", "153242.840000", "153243.300000", "153243.760000", "153244.220000", "153244.680000", "153245.140000", "153245.600000", "153246.060000", "153246.520000", "153246.980000", "153247.440000", "153247.900000", "153248.360000", "153248.820000", "153249.280000", "153249.740000", "153250.200000", "153250.660000", "153251.120000", "153251.580000", "153252.040000", "153252.500000", "153252.960000", "153253.420000", "153253.880000", "153254.340000", "153254.800000", "153255.260000", "153255.720000", "153256.180000", "153256.640000", "153257.100000", "153257.560000", "153258.020000", "153258.480000", "153258.940000", "153259.400000", "153259.860000", "153300.320000", "153300.780000", "153301.240000", "153301.700000", "153302.160000", "153302.620000", "153303.080000", "153303.540000", "153304.000000", "153304.460000", "153304.920000", "153305.380000", "153305.840000", "153306.300000", "153306.760000", "153307.220000", "153307.680000", "153308.140000", "153308.600000", "153309.060000", "153309.520000", "153309.980000", "153310.440000", "153310.900000", "153311.360000", "153311.820000", "153312.280000", "153312.740000", "153313.200000", "153313.660000", "153314.120000", "153314.580000", "153315.040000", "153315.500000", "153315.960000", "153316.420000", "153316.880000", "153317.340000", "153317.800000", "153318.260000", "153318.720000", "153319.180000", "153319.640000", "153320.100000", "153320.560000", "153321.020000", "153321.480000", "153321.940000", "153322.400000", "153322.860000", "153323.320000", "153323.780000", "153324.240000", "153324.700000", "153325.160000", "153325.620000", "153326.080000", "153326.540000", "153327.000000", "153327.460000", "153327.920000", "153328.380000", "153328.840000", "153329.300000", "153329.760000", "153330.220000", "153330.680000", "153331.140000", "153331.600000", "153332.060000", "153332.520000", "153332.980000", "153333.440000", "153333.900000", "153334.360000", "153334.820000", "153335.280000", "153335.740000", "153336.200000", "153336.660000", "153337.120000", "153337.580000", "153338.040000", "153338.500000", "153338.960000", "153339.420000", "153339.880000", "153340.340000", "153340.800000", "153341.260000", "153341.720000", "153342.180000", "153342.640000", "153343.100000", "153343.560000", "153344.020000", "153344.480000", "153344.940000", "153345.400000", "153345.860000", "153346.320000", "153346.780000", "153347.240000", "153347.700000", "153348.160000", "153348.620000", "153349.080000", "153349.540000", "153350.000000", "153350.460000", "153350.920000", "153351.380000", "153351.840000", "153352.300000", "153352.760000", "153353.220000", "153353.680000", "153354.140000", "153354.600000", "153355.060000", "153355.520000", "153355.980000", "153356.440000", "153356.900000", "153357.360000", "153357.820000", "153358.280000", "153358.740000", "153359.200000", "153359.660000", "153400.120000", "153400.580000", "153401.040000", "153401.500000", "153401.960000", "153402.420000", "153402.880000", "153403.340000", "153403.800000", "153404.260000", "153404.720000", "153405.180000", "153405.640000", "153406.100000", "153406.560000", "153407.020000", "153407.480000", "153407.940000", "153408.400000", "153408.860000", "153409.320000", "153409.780000", "153410.240000", "153410.700000", "153411.160000", "153411.620000", "153412.080000", "153412.540000", "153413.000000", "153413.460000", "153413.920000", "153414.380000", "153414.840000", "153415.300000", "153415.760000", "153416.220000", "153416.680000", "153417.140000", "153417.600000", "153418.060000", "153418.520000", "153418.980000", "153419.440000", "153419.900000", "153420.360000", "153420.820000", "153421.280000", "153421.740000", "153422.200000", "153422.660000", "153423.120000", "153423.580000", "153424.040000", "153424.500000", "153424.960000", "153425.420000", "153425.880000", "153426.340000", "153426.800000", "153427.260000", "153427.720000", "153428.180000", "153428.640000", "153429.100000", "153429.560000", "153430.020000", "153430.480000", "153430.940000", "153431.400000", "153431.860000", "153432.320000", "153432.780000", "153433.240000", "153433.700000", "153434.160000", "153434.620000", "153435.080000", "153435.540000", "153436.000000", "153436.460000", "153436.920000", "153437.380000", "153437.840000", "153438.300000", "153438.760000", "153439.220000", "153439.680000", "153440.140000", "153440.600000", "153441.060000", "153441.520000", "153441.980000", "153442.440000", "153442.900000", "153443.360000", "153443.820000", "153444.280000", "153444.740000", "153445.200000", "153445.660000", "153446.120000", "153446.580000", "153447.040000", "153447.500000", "153447.960000", "153448.420000", "153448.880000", "153449.340000", "153449.800000", "153450.260000", "153450.720000", "153451.180000", "153451.640000", "153452.100000", "153452.560000", "153453.020000", "153453.480000", "153453.940000", "153454.400000", "153454.860000", "153455.320000", "153455.780000", "153456.240000", "153456.700000", "153457.160000", "153457.620000", "153458.080000", "153458.540000", "153459.000000", "153459.460000", "153459.920000", "153500.380000", "153500.840000", "153501.300000", "153501.760000", "153502.220000", "153502.680000", "153503.140000", "153503.600000", "153504.060000", "153504.520000", "153504.980000", "153505.440000", "153505.900000", "153506.360000", "153506.820000", "153507.280000", "153507.740000", "153508.200000", "153508.660000", "153509.120000", "153509.580000", "153510.040000", "153510.500000", "153510.960000", "153511.420000", "153511.880000", "153512.340000", "153512.800000", "153513.260000", "153513.720000", "153514.180000", "153514.640000", "153515.100000", "153515.560000", "153516.020000", "153516.480000", "153516.940000", "153517.400000", "153517.860000", "153518.320000", "153518.780000", "153519.240000", "153519.700000", "153520.160000", "153520.620000", "153521.080000", "153521.540000", "153522.000000", "153522.460000", "153522.920000", "153523.380000", "153523.840000", "153524.300000", "153524.760000", "153525.220000", "153525.680000", "153526.140000", "153526.600000", "153527.060000", "153527.520000", "153527.980000", "153528.440000", "153528.900000", "153529.360000", "153529.820000", "153530.280000", "153530.740000", "153531.200000", "153531.660000", "153532.120000", "153532.580000", "153533.040000", "153533.500000", "153533.960000", "153534.420000", "153534.880000", "153535.340000", "153535.800000", "153536.260000", "153536.720000", "153537.180000", "153537.640000", "153538.100000", "153538.560000", "153539.020000", "153539.480000", "153539.940000", "153540.400000", "153540.860000", "153541.320000", "153541.780000", "153542.240000", "153542.700000", "153543.160000", "153543.620000", "153544.080000", "153544.540000", "153545.000000", "153545.460000", "153545.920000", "153546.380000", "153546.840000", "153547.300000", "153547.760000", "153548.220000", "153548.680000", "153549.140000", "153549.600000", "153550.060000", "153550.520000", "153550.980000", "153551.440000", "153551.900000", "153552.360000", "153552.820000", "153553.280000", "153553.740000", "153554.200000", "153554.660000", "153555.120000", "153555.580000", "153556.040000", "153556.500000", "153556.960000", "153557.420000", "153557.880000", "153558.340000", "153558.800000", "153559.260000", "153559.720000", "153600.180000", "153600.640000", "153601.100000", "153601.560000", "153602.020000", "153602.480000", "153602.940000", "153603.400000", "153603.860000", "153604.320000", "153604.780000", "153605.240000", "153605.700000", "153606.160000", "153606.620000", "153607.080000", "153607.540000", "153608.000000", "153608.460000", "153608.920000", "153609.380000", "153609.840000", "153610.300000", "153610.760000", "153611.220000", "153611.680000", "153612.140000", "153612.600000", "153613.060000", "153613.520000", "153613.980000", "153614.440000", "153614.900000", "153615.360000", "153615.820000", "153616.280000", "153616.740000", "153617.200000", "153617.660000", "153618.120000", "153618.580000", "153619.040000", "153619.500000", "153619.960000", "153620.420000", "153620.880000", "153621.340000", "153621.800000", "153622.260000", "153622.720000", "153623.180000", "153623.640000", "153624.100000", "153624.560000", "153625.020000", "153625.480000", "153625.940000", "153626.400000", "153626.860000", "153627.320000", "153627.780000", "153628.240000", "153628.700000", "153629.160000", "153629.620000", "153630.080000", "153630.540000", "153631.000000", "153631.460000", "153631.920000", "153632.380000", "153632.840000", "153633.300000", "153633.760000", "153634.220000", "153634.680000", "153635.140000", "153635.600000", "153636.060000", "153636.520000", "153636.980000", "153637.440000", "153637.900000", "153638.360000", "153638.820000", "153639.280000", "153639.740000", "153640.200000", "153640.660000", "153641.120000", "153641.580000", "153642.040000", "153642.500000", "153642.960000", "153643.420000", "153643.880000", "153644.340000", "153644.800000", "153645.260000", "153645.720000", "153646.180000", "153646.640000", "153647.100000", "153647.560000", "153648.020000", "153648.480000", "153648.940000", "153649.400000", "153649.860000", "153650.320000", "153650.780000", "153651.240000", "153651.700000", "153652.160000", "153652.620000", "153653.080000", "153653.540000", "153654.000000", "153654.460000", "153654.920000", "153655.380000", "153655.840000", "153656.300000", "153656.760000", "153657.220000", "153657.680000", "153658.140000", "153658.600000", "153659.060000", "153659.520000", "153659.980000", "153700.440000", "153700.900000", "153701.360000", "153701.820000", "153702.280000", "153702.740000", "153703.200000", "153703.660000", "153704.120000", "153704.580000", "153705.040000", "153705.500000", "153705.960000", "153706.420000", "153706.880000", "153707.340000", "153707.800000", "153708.260000", "153708.720000", "153709.180000", "153709.640000", "153710.100000", "153710.560000", "153711.020000", "153711.480000", "153711.940000", "153712.400000", "153712.860000", "153713.320000", "153713.780000", "153714.240000", "153714.700000", "153715.160000", "153715.620000", "153716.080000", "153716.540000", "153717.000000", "153717.460000", "153717.920000", "153718.380000", "153718.840000", "153719.300000", "153719.760000", "153720.220000", "153720.680000", "153721.140000", "153721.600000", "153722.060000", "153722.520000", "153722.980000", "153723.440000", "153723.900000", "153724.360000", "153724.820000", "153725.280000", "153725.740000", "153726.200000", "153726.660000", "153727.120000", "153727.580000", "153728.040000", "153728.500000", "153728.960000", "153729.420000", "153729.880000", "153730.340000", "153730.800000", "153731.260000", "153731.720000", "153732.180000", "153732.640000", "153733.100000", "153733.560000", "153734.020000", "153734.480000", "153734.940000", "153735.400000", "153735.860000", "153736.320000", "153736.780000", "153737.240000", "153737.700000", "153738.160000", "153738.620000", "153739.080000", "153739.540000", "153740.000000", "153740.460000", "153740.920000", "153741.380000", "153741.840000", "153742.300000", "153742.760000", "153743.220000", "153743.680000", "153744.140000", "153744.600000", "153745.060000", "153745.520000", "153745.980000", "153746.440000", "153746.900000", "153747.360000", "153747.820000", "153748.280000", "153748.740000", "153749.200000", "153749.660000", "153750.120000", "153750.580000", "153751.040000", "153751.500000", "153751.960000", "153752.420000", "153752.880000", "153753.340000", "153753.800000", "153754.260000", "153754.720000", "153755.180000", "153755.640000", "153756.100000", "153756.560000", "153757.020000", "153757.480000", "153757.940000", "153758.400000", "153758.860000", "153759.320000", "153759.780000", "153800.240000", "153800.700000", "153801.160000", "153801.620000", "153802.080000", "153802.540000", "153803.000000", "153803.460000", "153803.920000", "153804.380000", "153804.840000", "153805.300000", "153805.760000", "153806.220000", "153806.680000", "153807.140000", "153807.600000", "153808.060000", "153808.520000", "153808.980000", "153809.440000", "153809.900000", "153810.360000", "153810.820000", "153811.280000", "153811.740000", "153812.200000", "153812.660000", "153813.120000", "153813.580000", "153814.040000", "153814.500000", "153814.960000", "153815.420000", "153815.880000", "153816.340000", "153816.800000", "153817.260000", "153817.720000", "153818.180000", "153818.640000", "153819.100000", "153819.560000", "153820.020000", "153820.480000", "153820.940000", "153821.400000", "153821.860000", "153822.320000", "153822.780000", "153823.240000", "153823.700000", "153824.160000", "153824.620000", "153825.080000", "153825.540000", "153826.000000", "153826.460000", "153826.920000", "153827.380000", "153827.840000"],
