{
  "AcquisitionMatrixPE": 82,
  "AcquisitionNumber": 1,
  "AcquisitionTime": "16:15:28.035000",
  "BandwidthPerPixelPhaseEncode": 24.888,
  "BaseResolution": 82,
  "BodyPartExamined": "BRAIN",
  "ConsistencyInfo": "N4_VE11C_LATEST_20160120",
  "ConversionSoftware": "dcm2niix",
  "ConversionSoftwareVersion": "v1.0.20201102",
  "DerivedVendorReportedEchoSpacing": 0.00049,
  "DeviceSerialNumber": "66112",
  "DwellTime": 2e-06,
  "EchoTime": 0.0272,
  "EchoTrainLength": 82,
  "EffectiveEchoSpacing": 0.00049,
  "FlipAngle": 44,
  "ImageComments": "Unaliased MB8/PE3",
  "ImageOrientationPatientDICOM": [0.994463, -0.019767, 0.103215, 0.00468632, 0.989515, 0.144352],
  "ImageType": [
    "ORIGINAL",
    "PRIMARY",
    "M",
    "MB",
    "ND",
    "NORM",
    "MOSAIC"
],
  "ImagingFrequency": 123.252,
  "InPlanePhaseEncodingDirectionDICOM": "COL",
  "InstitutionAddress": "Maynard 3,Hanover,NH,US,03755",
  "InstitutionName": "Dartmouth College - PBS",
  "InstitutionalDepartmentName": "Department",
  "MRAcquisitionType": "2D",
  "MagneticFieldStrength": 3,
  "Manufacturer": "Siemens",
  "ManufacturersModelName": "Prisma",
  "Modality": "MR",
  "MultibandAccelerationFactor": 8,
  "PartialFourier": 1,
  "PatientPosition": "HFS",
  "PercentPhaseFOV": 100,
  "PercentSampling": 100,
  "PhaseEncodingDirection": "j-",
  "PhaseEncodingSteps": 82,
  "PhaseResolution": 1,
  "PixelBandwidth": 3050,
  "ProcedureStepDescription": "Wager_Wager^1076_spacetop",
  "ProtocolName": "func_run-02_task-faces_acq-ap-mb8",
  "PulseSequenceDetails": "%CustomerSeq%\\cmrr_mbep2d_bold",
  "ReceiveCoilActiveElements": "HEA;HEP",
  "ReceiveCoilName": "Head_32",
  "ReconMatrixPE": 82,
  "RepetitionTime": 0.46,
  "SAR": 0.0972678,
  "ScanOptions": "FS",
  "ScanningSequence": "EP",
  "SequenceName": "epfid2d1_82",
  "SequenceVariant": "SK\\SS",
  "SeriesDescription": "func_run-02_task-faces_acq-ap-mb8",
  "SeriesNumber": 18,
  "ShimSetting": [4161, -7760, -7297, 686, -51, -144, 138, 45],
  "SliceThickness": 2.7,
  "SliceTiming": [0, 0.2525, 0.0625, 0.315, 0.125, 0.3775, 0.19, 0, 0.2525, 0.0625, 0.315, 0.125, 0.3775, 0.19, 0, 0.2525, 0.0625, 0.315, 0.125, 0.3775, 0.19, 0, 0.2525, 0.0625, 0.315, 0.125, 0.3775, 0.19, 0, 0.2525, 0.0625, 0.315, 0.125, 0.3775, 0.19, 0, 0.2525, 0.0625, 0.315, 0.125, 0.3775, 0.19, 0, 0.2525, 0.0625, 0.315, 0.125, 0.3775, 0.19, 0, 0.2525, 0.0625, 0.315, 0.125, 0.3775, 0.19],
  "SoftwareVersions": "syngo MR E11",
  "SpacingBetweenSlices": 2.7,
  "StationName": "AWP66112",
  "TaskName": "faces",
  "TotalReadoutTime": 0.03969,
  "TxRefAmp": 252.959,
  "WipMemBlock": "6e3c0e72-a258-48b8-b3fd-14365a8c412a||Sequence: R016 ve11c/master r/e634e98; Dec 19 2017 11:00:25 by eja",
  "dcmmeta_affine": [
    [-2.6680705547332764, 0.0125730624422431, 0.28346341848373413, 105.33180236816406],
    [0.05303337424993515, 2.654797077178955, 0.386287122964859, -109.35382843017578],
    [0.2769189178943634, -0.3872867822647095, 2.657147169113159, -79.59841918945312],
    [0.0, 0.0, 0.0, 1.0]
],
  "dcmmeta_reorient_transform": [
    [0.0, -1.0, 0.0, 81.0],
    [1.0, 0.0, 0.0, 0.0],
    [0.0, 0.0, 1.0, 0.0],
    [0.0, 0.0, 0.0, 1.0]
],
  "dcmmeta_shape": [82, 82, 56, 914],
  "dcmmeta_slice_dim": 2,
  "dcmmeta_version": 0.6,
  "global": {
    "const": {
      "AccessionNumber": "A003818",
      "AcquisitionMatrix": [82, 0, 0, 82],
      "AngioFlag": "N",
      "BitsAllocated": 16,
      "BitsStored": 16,
      "BodyPartExamined": "BRAIN",
      "Columns": 656,
      "EchoNumbers": 1,
      "EchoTime": 27.2,
      "EchoTrainLength": 82,
      "FlipAngle": 44.0,
      "HighBit": 15,
      "ImageOrientationPatient": [0.994462610095, -0.0197669846007, 0.10321522873505, 0.00468632326663, 0.98951525555836, 0.14435233767251],
      "ImagePositionPatient": [-875.69492091756, -852.39092486718, -301.59567731691],
      "ImageType": [
        "ORIGINAL",
        "PRIMARY",
        "M",
        "MB",
        "ND",
        "NORM",
        "MOSAIC"
],
      "ImagedNucleus": "1H",
      "ImagingFrequency": 123.252234,
      "InPlanePhaseEncodingDirection": "COL",
      "MRAcquisitionType": "2D",
      "MagneticFieldStrength": 3.0,
      "Manufacturer": "SIEMENS",
      "ManufacturerModelName": "Prisma",
      "Modality": "MR",
      "NumberOfAverages": 1.0,
      "NumberOfPhaseEncodingSteps": 82,
      "PercentPhaseFieldOfView": 100.0,
      "PercentSampling": 100.0,
      "PerformedProcedureStepStartTime": "151853.828000",
      "PhotometricInterpretation": "MONOCHROME2",
      "PixelBandwidth": 3050.0,
      "PixelRepresentation": 0,
      "PixelSpacing": [2.6829268932343, 2.6829268932343],
      "ProtocolName": "func_run-02_task-faces_acq-ap-mb8",
      "RepetitionTime": 460.0,
      "Rows": 656,
      "SAR": 0.09726782628664,
      "SamplesPerPixel": 1,
      "ScanOptions": "FS",
      "ScanningSequence": "EP",
      "SequenceName": "epfid2d1_82",
      "SequenceVariant": [
        "SK",
        "SS"
],
      "SeriesDescription": "func_run-02_task-faces_acq-ap-mb8",
      "SeriesNumber": 18,
      "SeriesTime": "161538.385000",
      "SliceLocation": -82.921839533719,
      "SliceThickness": 2.7000000476837,
      "SmallestImagePixelValue": 0,
      "SoftwareVersions": "syngo MR E11",
      "SpacingBetweenSlices": 2.6999999687241,
      "SpecificCharacterSet": "ISO_IR 100",
      "StudyID": "2",
      "StudyTime": "151853.729000",
      "TransmitCoilName": "Body",
      "VariableFlipAngleFlag": "N",
      "WindowCenterWidthExplanation": "Algo1",
      "dBdt": 0.0},
    "slices": {}
  },
  "time": {
    "samples": {
      "AcquisitionNumber": [1, 2, 3, 4, 5, 6, 7, 8, 9, 10, 11, 12, 13, 14, 15, 16, 17, 18, 19, 20, 21, 22, 23, 24, 25, 26, 27, 28, 29, 30, 31, 32, 33, 34, 35, 36, 37, 38, 39, 40, 41, 42, 43, 44, 45, 46, 47, 48, 49, 50, 51, 52, 53, 54, 55, 56, 57, 58, 59, 60, 61, 62, 63, 64, 65, 66, 67, 68, 69, 70, 71, 72, 73, 74, 75, 76, 77, 78, 79, 80, 81, 82, 83, 84, 85, 86, 87, 88, 89, 90, 91, 92, 93, 94, 95, 96, 97, 98, 99, 100, 101, 102, 103, 104, 105, 106, 107, 108, 109, 110, 111, 112, 113, 114, 115, 116, 117, 118, 119, 120, 121, 122, 123, 124, 125, 126, 127, 128, 129, 130, 131, 132, 133, 134, 135, 136, 137, 138, 139, 140, 141, 142, 143, 144, 145, 146, 147, 148, 149, 150, 151, 152, 153, 154, 155, 156, 157, 158, 159, 160, 161, 162, 163, 164, 165, 166, 167, 168, 169, 170, 171, 172, 173, 174, 175, 176, 177, 178, 179, 180, 181, 182, 183, 184, 185, 186, 187, 188, 189, 190, 191, 192, 193, 194, 195, 196, 197, 198, 199, 200, 201, 202, 203, 204, 205, 206, 207, 208, 209, 210, 211, 212, 213, 214, 215, 216, 217, 218, 219, 220, 221, 222, 223, 224, 225, 226, 227, 228, 229, 230, 231, 232, 233, 234, 235, 236, 237, 238, 239, 240, 241, 242, 243, 244, 245, 246, 247, 248, 249, 250, 251, 252, 253, 254, 255, 256, 257, 258, 259, 260, 261, 262, 263, 264, 265, 266, 267, 268, 269, 270, 271, 272, 273, 274, 275, 276, 277, 278, 279, 280, 281, 282, 283, 284, 285, 286, 287, 288, 289, 290, 291, 292, 293, 294, 295, 296, 297, 298, 299, 300, 301, 302, 303, 304, 305, 306, 307, 308, 309, 310, 311, 312, 313, 314, 315, 316, 317, 318, 319, 320, 321, 322, 323, 324, 325, 326, 327, 328, 329, 330, 331, 332, 333, 334, 335, 336, 337, 338, 339, 340, 341, 342, 343, 344, 345, 346, 347, 348, 349, 350, 351, 352, 353, 354, 355, 356, 357, 358, 359, 360, 361, 362, 363, 364, 365, 366, 367, 368, 369, 370, 371, 372, 373, 374, 375, 376, 377, 378, 379, 380, 381, 382, 383, 384, 385, 386, 387, 388, 389, 390, 391, 392, 393, 394, 395, 396, 397, 398, 399, 400, 401, 402, 403, 404, 405, 406, 407, 408, 409, 410, 411, 412, 413, 414, 415, 416, 417, 418, 419, 420, 421, 422, 423, 424, 425, 426, 427, 428, 429, 430, 431, 432, 433, 434, 435, 436, 437, 438, 439, 440, 441, 442, 443, 444, 445, 446, 447, 448, 449, 450, 451, 452, 453, 454, 455, 456, 457, 458, 459, 460, 461, 462, 463, 464, 465, 466, 467, 468, 469, 470, 471, 472, 473, 474, 475, 476, 477, 478, 479, 480, 481, 482, 483, 484, 485, 486, 487, 488, 489, 490, 491, 492, 493, 494, 495, 496, 497, 498, 499, 500, 501, 502, 503, 504, 505, 506, 507, 508, 509, 510, 511, 512, 513, 514, 515, 516, 517, 518, 519, 520, 521, 522, 523, 524, 525, 526, 527, 528, 529, 530, 531, 532, 533, 534, 535, 536, 537, 538, 539, 540, 541, 542, 543, 544, 545, 546, 547, 548, 549, 550, 551, 552, 553, 554, 555, 556, 557, 558, 559, 560, 561, 562, 563, 564, 565, 566, 567, 568, 569, 570, 571, 572, 573, 574, 575, 576, 577, 578, 579, 580, 581, 582, 583, 584, 585, 586, 587, 588, 589, 590, 591, 592, 593, 594, 595, 596, 597, 598, 599, 600, 601, 602, 603, 604, 605, 606, 607, 608, 609, 610, 611, 612, 613, 614, 615, 616, 617, 618, 619, 620, 621, 622, 623, 624, 625, 626, 627, 628, 629, 630, 631, 632, 633, 634, 635, 636, 637, 638, 639, 640, 641, 642, 643, 644, 645, 646, 647, 648, 649, 650, 651, 652, 653, 654, 655, 656, 657, 658, 659, 660, 661, 662, 663, 664, 665, 666, 667, 668, 669, 670, 671, 672, 673, 674, 675, 676, 677, 678, 679, 680, 681, 682, 683, 684, 685, 686, 687, 688, 689, 690, 691, 692, 693, 694, 695, 696, 697, 698, 699, 700, 701, 702, 703, 704, 705, 706, 707, 708, 709, 710, 711, 712, 713, 714, 715, 716, 717, 718, 719, 720, 721, 722, 723, 724, 725, 726, 727, 728, 729, 730, 731, 732, 733, 734, 735, 736, 737, 738, 739, 740, 741, 742, 743, 744, 745, 746, 747, 748, 749, 750, 751, 752, 753, 754, 755, 756, 757, 758, 759, 760, 761, 762, 763, 764, 765, 766, 767, 768, 769, 770, 771, 772, 773, 774, 775, 776, 777, 778, 779, 780, 781, 782, 783, 784, 785, 786, 787, 788, 789, 790, 791, 792, 793, 794, 795, 796, 797, 798, 799, 800, 801, 802, 803, 804, 805, 806, 807, 808, 809, 810, 811, 812, 813, 814, 815, 816, 817, 818, 819, 820, 821, 822, 823, 824, 825, 826, 827, 828, 829, 830, 831, 832, 833, 834, 835, 836, 837, 838, 839, 840, 841, 842, 843, 844, 845, 846, 847, 848, 849, 850, 851, 852, 853, 854, 855, 856, 857, 858, 859, 860, 861, 862, 863, 864, 865, 866, 867, 868, 869, 870, 871, 872, 873, 874, 875, 876, 877, 878, 879, 880, 881, 882, 883, 884, 885, 886, 887, 888, 889, 890, 891, 892, 893, 894, 895, 896, 897, 898, 899, 900, 901, 902, 903, 904, 905, 906, 907, 908, 909, 910, 911, 912, 913, 914],
      "AcquisitionTime": ["161528.035000", "161528.495000", "161528.955000", "161529.415000", "161529.875000", "161530.335000", "161530.795000", "161531.255000", "161531.715000", "161532.175000", "161532.635000", "161533.095000", "161533.555000", "161534.015000", "161534.475000", "161534.935000", "161535.395000", "161535.855000", "161536.315000", "161536.775000", "161537.235000", "161537.695000", "161538.155000", "161538.615000", "161539.075000", "161539.535000", "161539.995000", "161540.455000", "161540.915000", "161541.375000", "161541.835000", "161542.295000", "161542.755000", "161543.215000", "161543.675000", "161544.135000", "161544.595000", "161545.055000", "161545.515000", "161545.975000", "161546.435000", "161546.895000", "161547.355000", "161547.815000", "161548.275000", "161548.735000", "161549.195000", "161549.655000", "161550.115000", "161550.575000", "161551.035000", "161551.495000", "161551.955000", "161552.415000", "161552.875000", "161553.335000", "161553.795000", "161554.255000", "161554.715000", "161555.175000", "161555.635000", "161556.095000", "161556.555000", "161557.015000", "161557.475000", "161557.935000", "161558.395000", "161558.855000", "161559.315000", "161559.775000", "161600.235000", "161600.695000", "161601.155000", "161601.615000", "161602.075000", "161602.535000", "161602.995000", "161603.455000", "161603.915000", "161604.375000", "161604.835000", "161605.295000", "161605.755000", "161606.215000", "161606.675000", "161607.135000", "161607.595000", "161608.055000", "161608.515000", "161608.975000", "161609.435000", "161609.895000", "161610.355000", "161610.815000", "161611.275000", "161611.735000", "161612.195000", "161612.655000", "161613.115000", "161613.575000", "161614.035000", "161614.495000", "161614.955000", "161615.415000", "161615.875000", "161616.335000", "161616.795000", "161617.255000", "161617.715000", "161618.175000", "161618.635000", "161619.095000", "161619.555000", "161620.015000", "161620.475000", "161620.935000", "161621.395000", "161621.855000", "161622.315000", "161622.775000", "161623.235000", "161623.695000", "161624.155000", "161624.615000", "161625.075000", "161625.535000", "161625.995000", "161626.455000", "161626.915000", "161627.375000", "161627.835000", "161628.295000", "161628.755000", "161629.215000", "161629.675000", "161630.135000", "161630.595000", "161631.055000", "161631.515000", "161631.975000", "161632.435000", "161632.895000", "161633.355000", "161633.815000", "161634.275000", "161634.735000", "161635.195000", "161635.655000", "161636.115000", "161636.575000", "161637.035000", "161637.495000", "161637.955000", "161638.415000", "161638.875000", "161639.335000", "161639.795000", "161640.255000", "161640.715000", "161641.175000", "161641.635000", "161642.095000", "161642.555000", "161643.015000", "161643.475000", "161643.935000", "161644.395000", "161644.855000", "161645.315000", "161645.775000", "161646.235000", "161646.695000", "161647.155000", "161647.615000", "161648.075000", "161648.535000", "161648.995000", "161649.455000", "161649.915000", "161650.375000", "161650.835000", "161651.295000", "161651.755000", "161652.215000", "161652.675000", "161653.135000", "161653.595000", "161654.055000", "161654.515000", "161654.975000", "161655.435000", "161655.895000", "161656.355000", "161656.815000", "161657.275000", "161657.735000", "161658.195000", "161658.655000", "161659.115000", "161659.575000", "161700.035000", "161700.495000", "161700.955000", "161701.415000", "161701.875000", "161702.335000", "161702.795000", "161703.255000", "161703.715000", "161704.175000", "161704.635000", "161705.095000", "161705.555000", "161706.015000", "161706.475000", "161706.935000", "161707.395000", "161707.855000", "161708.315000", "161708.775000", "161709.235000", "161709.695000", "161710.155000", "161710.615000", "161711.075000", "161711.535000", "161711.995000", "161712.455000", "161712.915000", "161713.375000", "161713.835000", "161714.295000", "161714.755000", "161715.215000", "161715.675000", "161716.135000", "161716.595000", "161717.055000", "161717.515000", "161717.975000", "161718.435000", "161718.895000", "161719.355000", "161719.815000", "161720.275000", "161720.735000", "161721.195000", "161721.655000", "161722.115000", "161722.575000", "161723.035000", "161723.495000", "161723.955000", "161724.415000", "161724.875000", "161725.335000", "161725.795000", "161726.255000", "161726.715000", "161727.175000", "161727.635000", "161728.095000", "161728.555000", "161729.015000", "161729.475000", "161729.935000", "161730.395000", "161730.855000", "161731.315000", "161731.775000", "161732.235000", "161732.695000", "161733.155000", "161733.615000", "161734.075000", "161734.535000", "161734.995000", "161735.455000", "161735.915000", "161736.375000", "161736.835000", "161737.295000", "161737.755000", "161738.215000", "161738.675000", "161739.135000", "161739.595000", "161740.055000", "161740.515000", "161740.975000", "161741.435000", "161741.895000", "161742.355000", "161742.815000", "161743.275000", "161743.735000", "161744.195000", "161744.655000", "161745.115000", "161745.575000", "161746.035000", "161746.495000", "161746.955000", "161747.415000", "161747.875000", "161748.335000", "161748.795000", "161749.255000", "161749.715000", "161750.175000", "161750.635000", "161751.095000", "161751.555000", "161752.015000", "161752.475000", "161752.935000", "161753.395000", "161753.855000", "161754.315000", "161754.775000", "161755.235000", "161755.695000", "161756.155000", "161756.615000", "161757.075000", "161757.535000", "161757.995000", "161758.455000", "161758.915000", "161759.375000", "161759.835000", "161800.295000", "161800.755000", "161801.215000", "161801.675000", "161802.135000", "161802.595000", "161803.055000", "161803.515000", "161803.975000", "161804.435000", "161804.895000", "161805.355000", "161805.815000", "161806.275000", "161806.735000", "161807.195000", "161807.655000", "161808.115000", "161808.575000", "161809.035000", "161809.495000", "161809.955000", "161810.415000", "161810.875000", "161811.335000", "161811.795000", "161812.255000", "161812.715000", "161813.175000", "161813.635000", "161814.095000", "161814.555000", "161815.015000", "161815.475000", "161815.935000", "161816.395000", "161816.855000", "161817.315000", "161817.775000", "161818.235000", "161818.695000", "161819.155000", "161819.615000", "161820.075000", "161820.535000", "161820.995000", "161821.455000", "161821.915000", "161822.375000", "161822.835000", "161823.295000", "161823.755000", "161824.215000", "161824.675000", "161825.135000", "161825.595000", "161826.055000", "161826.515000", "161826.975000", "161827.435000", "161827.895000", "161828.355000", "161828.815000", "161829.275000", "161829.735000", "161830.195000", "161830.655000", "161831.115000", "161831.575000", "161832.035000", "161832.495000", "161832.955000", "161833.415000", "161833.875000", "161834.335000", "161834.795000", "161835.255000", "161835.715000", "161836.175000", "161836.635000", "161837.095000", "161837.555000", "161838.015000", "161838.475000", "161838.935000", "161839.395000", "161839.855000", "161840.315000", "161840.775000", "161841.235000", "161841.695000", "161842.155000", "161842.615000", "161843.075000", "161843.535000", "161843.995000", "161844.455000", "161844.915000", "161845.375000", "161845.835000", "161846.295000", "161846.755000", "161847.215000", "161847.675000", "161848.135000", "161848.595000", "161849.055000", "161849.515000", "161849.975000", "161850.435000", "161850.895000", "161851.355000", "161851.815000", "161852.275000", "161852.735000", "161853.195000", "161853.655000", "161854.115000", "161854.575000", "161855.035000", "161855.495000", "161855.955000", "161856.415000", "161856.875000", "161857.335000", "161857.795000", "161858.255000", "161858.715000", "161859.175000", "161859.635000", "161900.095000", "161900.555000", "161901.015000", "161901.475000", "161901.935000", "161902.395000", "161902.855000", "161903.315000", "161903.775000", "161904.235000", "161904.695000", "161905.155000", "161905.615000", "161906.075000", "161906.535000", "161906.995000", "161907.455000", "161907.915000", "161908.375000", "161908.835000", "161909.295000", "161909.755000", "161910.215000", "161910.675000", "161911.135000", "161911.595000", "161912.055000", "161912.515000", "161912.975000", "161913.435000", "161913.895000", "161914.355000", "161914.815000", "161915.275000", "161915.735000", "161916.195000", "161916.655000", "161917.115000", "161917.575000", "161918.035000", "161918.495000", "161918.955000", "161919.415000", "161919.875000", "161920.335000", "161920.795000", "161921.255000", "161921.715000", "161922.175000", "161922.635000", "161923.095000", "161923.555000", "161924.015000", "161924.475000", "161924.935000", "161925.395000", "161925.855000", "161926.315000", "161926.775000", "161927.235000", "161927.695000", "161928.155000", "161928.615000", "161929.075000", "161929.535000", "161929.995000", "161930.455000", "161930.915000", "161931.375000", "161931.835000", "161932.295000", "161932.755000", "161933.215000", "161933.675000", "161934.135000", "161934.595000", "161935.055000", "161935.515000", "161935.975000", "161936.435000", "161936.895000", "161937.355000", "161937.815000", "161938.275000", "161938.735000", "161939.195000", "161939.655000", "161940.115000", "161940.575000", "161941.035000", "161941.495000", "161941.955000", "161942.415000", "161942.875000", "161943.335000", "161943.795000", "161944.255000", "161944.715000", "161945.175000", "161945.635000", "161946.095000", "161946.555000", "161947.015000", "161947.475000", "161947.935000", "161948.395000", "161948.855000", "161949.315000", "161949.775000", "161950.235000", "161950.695000", "161951.155000", "161951.615000", "161952.075000", "161952.535000", "161952.995000", "161953.455000", "161953.915000", "161954.375000", "161954.835000", "161955.295000", "161955.755000", "161956.215000", "161956.675000", "161957.135000", "161957.595000", "161958.055000", "161958.515000", "161958.975000", "161959.435000", "161959.895000", "162000.355000", "162000.815000", "162001.275000", "162001.735000", "162002.195000", "162002.655000", "162003.115000", "162003.575000", "162004.035000", "162004.495000", "162004.955000", "162005.415000", "162005.875000", "162006.335000", "162006.795000", "162007.255000", "162007.715000", "162008.175000", "162008.635000", "162009.095000", "162009.555000", "162010.015000", "162010.475000", "162010.935000", "162011.395000", "162011.855000", "162012.315000", "162012.775000", "162013.235000", "162013.695000", "162014.155000", "162014.615000", "162015.075000", "162015.535000", "162015.995000", "162016.455000", "162016.915000", "162017.375000", "162017.835000", "162018.295000", "162018.755000", "162019.215000", "162019.675000", "162020.135000", "162020.595000", "162021.055000", "162021.515000", "162021.975000", "162022.435000", "162022.895000", "162023.355000", "162023.815000", "162024.275000", "162024.735000", "162025.195000", "162025.655000", "162026.115000", "162026.575000", "162027.035000", "162027.495000", "162027.955000", "162028.415000", "162028.875000", "162029.335000", "162029.795000", "162030.255000", "162030.715000", "162031.175000", "162031.635000", "162032.095000", "162032.555000", "162033.015000", "162033.475000", "162033.935000", "162034.395000", "162034.855000", "162035.315000", "162035.775000", "162036.235000", "162036.695000", "162037.155000", "162037.615000", "162038.075000", "162038.535000", "162038.995000", "162039.455000", "162039.915000", "162040.375000", "162040.835000", "162041.295000", "162041.755000", "162042.215000", "162042.675000", "162043.135000", "162043.595000", "162044.055000", "162044.515000", "162044.975000", "162045.435000", "162045.895000", "162046.355000", "162046.815000", "162047.275000", "162047.735000", "162048.195000", "162048.655000", "162049.115000", "162049.575000", "162050.035000", "162050.495000", "162050.955000", "162051.415000", "162051.875000", "162052.335000", "162052.795000", "162053.255000", "162053.715000", "162054.175000", "162054.635000", "162055.095000", "162055.555000", "162056.015000", "162056.475000", "162056.935000", "162057.395000", "162057.855000", "162058.315000", "162058.775000", "162059.235000", "162059.695000", "162100.155000", "162100.615000", "162101.075000", "162101.535000", "162101.995000", "162102.455000", "162102.915000", "162103.375000", "162103.835000", "162104.295000", "162104.755000", "162105.215000", "162105.675000", "162106.135000", "162106.595000", "162107.055000", "162107.515000", "162107.975000", "162108.435000", "162108.895000", "162109.355000", "162109.815000", "162110.275000", "162110.735000", "162111.195000", "162111.655000", "162112.115000", "162112.575000", "162113.035000", "162113.495000", "162113.955000", "162114.415000", "162114.875000", "162115.335000", "162115.795000", "162116.255000", "162116.715000", "162117.175000", "162117.635000", "162118.095000", "162118.555000", "162119.015000", "162119.475000", "162119.935000", "162120.395000", "162120.855000", "162121.315000", "162121.775000", "162122.235000", "162122.695000", "162123.155000", "162123.615000", "162124.075000", "162124.535000", "162124.995000", "162125.455000", "162125.915000", "162126.375000", "162126.835000", "162127.295000", "162127.755000", "162128.215000", "162128.675000", "162129.135000", "162129.595000", "162130.055000", "162130.515000", "162130.975000", "162131.435000", "162131.895000", "162132.355000", "162132.815000", "162133.275000", "162133.735000", "162134.195000", "162134.655000", "162135.115000", "162135.575000", "162136.035000", "162136.495000", "162136.955000", "162137.415000", "162137.875000", "162138.335000", "162138.795000", "162139.255000", "162139.715000", "162140.175000", "162140.635000", "162141.095000", "162141.555000", "162142.015000", "162142.475000", "162142.935000", "162143.395000", "162143.855000", "162144.315000", "162144.775000", "162145.235000", "162145.695000", "162146.155000", "162146.615000", "162147.075000", "162147.535000", "162147.995000", "162148.455000", "162148.915000", "162149.375000", "162149.835000", "162150.295000", "162150.755000", "162151.215000", "162151.675000", "162152.135000", "162152.595000", "162153.055000", "162153.515000", "162153.975000", "162154.435000", "162154.895000", "162155.355000", "162155.815000", "162156.275000", "162156.735000", "162157.195000", "162157.655000", "162158.115000", "162158.575000", "162159.035000", "162159.495000", "162159.955000", "162200.415000", "162200.875000", "162201.335000", "162201.795000", "162202.255000", "162202.715000", "162203.175000", "162203.635000", "162204.095000", "162204.555000", "162205.015000", "162205.475000", "162205.935000", "162206.395000", "162206.855000", "162207.315000", "162207.775000", "162208.235000", "162208.695000", "162209.155000", "162209.615000", "162210.075000", "162210.535000", "162210.995000", "162211.455000", "162211.915000", "162212.375000", "162212.835000", "162213.295000", "162213.755000", "162214.215000", "162214.675000", "162215.135000", "162215.595000", "162216.055000", "162216.515000", "162216.975000", "162217.435000", "162217.895000", "162218.355000", "162218.815000", "162219.275000", "162219.735000", "162220.195000", "162220.655000", "162221.115000", "162221.575000", "162222.035000", "162222.495000", "162222.955000", "162223.415000", "162223.875000", "162224.335000", "162224.795000", "162225.255000", "162225.715000", "162226.175000", "162226.635000", "162227.095000", "162227.555000", "162228.015000"],
