{
  "AcquisitionMatrixPE": 82,
  "AcquisitionNumber": 1,
  "AcquisitionTime": "16:32:55.115000",
  "BandwidthPerPixelPhaseEncode": 24.888,
  "BaseResolution": 82,
  "BodyPartExamined": "BRAIN",
  "ConsistencyInfo": "N4_VE11C_LATEST_20160120",
  "ConversionSoftware": "dcm2niix",
  "ConversionSoftwareVersion": "v1.0.20201102",
  "DerivedVendorReportedEchoSpacing": 0.00049,
  "DeviceSerialNumber": "66112",
  "DwellTime": 2e-06,
  "EchoTime": 0.0272,
  "EchoTrainLength": 82,
  "EffectiveEchoSpacing": 0.00049,
  "FlipAngle": 44,
  "ImageComments": "Unaliased MB8/PE3",
  "ImageOrientationPatientDICOM": [0.995701, -0.00557289, 0.0924619, -0.00521344, 0.993235, 0.116007],
  "ImageType": [
    "ORIGINAL",
    "PRIMARY",
    "M",
    "MB",
    "ND",
    "NORM",
    "MOSAIC"
],
  "ImagingFrequency": 123.252,
  "InPlanePhaseEncodingDirectionDICOM": "COL",
  "InstitutionAddress": "Maynard 3,Hanover,NH,US,03755",
  "InstitutionName": "Dartmouth College - PBS",
  "InstitutionalDepartmentName": "Department",
  "MRAcquisitionType": "2D",
  "MagneticFieldStrength": 3,
  "Manufacturer": "Siemens",
  "ManufacturersModelName": "Prisma",
  "Modality": "MR",
  "MultibandAccelerationFactor": 8,
  "PartialFourier": 1,
  "PatientPosition": "HFS",
  "PercentPhaseFOV": 100,
  "PercentSampling": 100,
  "PhaseEncodingDirection": "j-",
  "PhaseEncodingSteps": 82,
  "PhaseResolution": 1,
  "PixelBandwidth": 3050,
  "ProcedureStepDescription": "Wager_Wager^1076_spacetop",
  "ProtocolName": "func_run-01_task-alignvideo_acq-ap-mb8",
  "PulseSequenceDetails": "%CustomerSeq%\\cmrr_mbep2d_bold",
  "ReceiveCoilActiveElements": "HEA;HEP",
  "ReceiveCoilName": "Head_32",
  "ReconMatrixPE": 82,
  "RepetitionTime": 0.46,
  "SAR": 0.0972164,
  "ScanOptions": "FS",
  "ScanningSequence": "EP",
  "SequenceName": "epfid2d1_82",
  "SequenceVariant": "SK\\SS",
  "SeriesDescription": "func_run-01_task-alignvideo_acq-ap-mb8",
  "SeriesNumber": 28,
  "ShimSetting": [4159, -7761, -7297, 673, -54, -157, 138, 43],
  "SliceThickness": 2.7,
  "SliceTiming": [0, 0.2525, 0.0625, 0.315, 0.125, 0.3775, 0.19, 0, 0.2525, 0.0625, 0.315, 0.125, 0.3775, 0.19, 0, 0.2525, 0.0625, 0.315, 0.125, 0.3775, 0.19, 0, 0.2525, 0.0625, 0.315, 0.125, 0.3775, 0.19, 0, 0.2525, 0.0625, 0.315, 0.125, 0.3775, 0.19, 0, 0.2525, 0.0625, 0.315, 0.125, 0.3775, 0.19, 0, 0.2525, 0.0625, 0.315, 0.125, 0.3775, 0.19, 0, 0.2525, 0.0625, 0.315, 0.125, 0.3775, 0.19],
  "SoftwareVersions": "syngo MR E11",
  "SpacingBetweenSlices": 2.7,
  "StationName": "AWP66112",
  "TaskName": "alignvideo",
  "TotalReadoutTime": 0.03969,
  "TxRefAmp": 252.959,
  "WipMemBlock": "1ef6c315-3208-450f-9f28-681e13b3c920||Sequence: R016 ve11c/master r/e634e98; Dec 19 2017 11:00:25 by eja",
  "dcmmeta_affine": [
    [-2.6713919639587402, -0.013987290672957897, 0.24970372021198273, 106.53865814208984],
    [0.014951646327972412, 2.664776086807251, 0.31317338347435, -106.24771118164062],
    [0.24806851148605347, -0.3112379312515259, 2.6701254844665527, -86.15048217773438],
    [0.0, 0.0, 0.0, 1.0]
],
  "dcmmeta_reorient_transform": [
    [0.0, -1.0, 0.0, 81.0],
    [1.0, 0.0, 0.0, 0.0],
    [0.0, 0.0, 1.0, 0.0],
    [0.0, 0.0, 0.0, 1.0]
],
  "dcmmeta_shape": [82, 82, 56, 839],
  "dcmmeta_slice_dim": 2,
  "dcmmeta_version": 0.6,
  "global": {
    "const": {
      "AccessionNumber": "A003818",
      "AcquisitionMatrix": [82, 0, 0, 82],
      "AngioFlag": "N",
      "BitsAllocated": 16,
      "BitsStored": 16,
      "BodyPartExamined": "BRAIN",
      "Columns": 656,
      "EchoNumbers": 1,
      "EchoTime": 27.2,
      "EchoTrainLength": 82,
      "FlipAngle": 44.0,
      "HighBit": 15,
      "ImageOrientationPatient": [0.99570062804196, -0.0055728861539, 0.09246189624247, -0.0052134447215, 0.993234729768, 0.11600686004209],
      "ImagePositionPatient": [-868.08083355869, -870.09879414413, -271.88170149362],
      "ImageType": [
        "ORIGINAL",
        "PRIMARY",
        "M",
        "MB",
        "ND",
        "NORM",
        "MOSAIC"
],
      "ImagedNucleus": "1H",
      "ImagingFrequency": 123.252241,
      "InPlanePhaseEncodingDirection": "COL",
      "MRAcquisitionType": "2D",
      "MagneticFieldStrength": 3.0,
      "Manufacturer": "SIEMENS",
      "ManufacturerModelName": "Prisma",
      "Modality": "MR",
      "NumberOfAverages": 1.0,
      "NumberOfPhaseEncodingSteps": 82,
      "PercentPhaseFieldOfView": 100.0,
      "PercentSampling": 100.0,
      "PerformedProcedureStepStartTime": "151853.828000",
      "PhotometricInterpretation": "MONOCHROME2",
      "PixelBandwidth": 3050.0,
      "PixelRepresentation": 0,
      "PixelSpacing": [2.6829268932343, 2.6829268932343],
      "ProtocolName": "func_run-01_task-alignvideo_acq-ap-mb8",
      "RepetitionTime": 460.0,
      "Rows": 656,
      "SAR": 0.09721635507883,
      "SamplesPerPixel": 1,
      "ScanOptions": "FS",
      "ScanningSequence": "EP",
      "SequenceName": "epfid2d1_82",
      "SequenceVariant": [
        "SK",
        "SS"
],
      "SeriesDescription": "func_run-01_task-alignvideo_acq-ap-mb8",
      "SeriesNumber": 28,
      "SeriesTime": "163318.303000",
      "SliceLocation": -87.667950525759,
      "SliceThickness": 2.7000000476837,
      "SmallestImagePixelValue": 0,
      "SoftwareVersions": "syngo MR E11",
      "SpacingBetweenSlices": 2.6999999572606,
      "SpecificCharacterSet": "ISO_IR 100",
      "StudyID": "2",
      "StudyTime": "151853.729000",
      "TransmitCoilName": "Body",
      "VariableFlipAngleFlag": "N",
      "WindowCenterWidthExplanation": "Algo1",
      "dBdt": 0.0},
    "slices": {}
  },
  "time": {
    "samples": {
      "AcquisitionNumber": [1, 2, 3, 4, 5, 6, 7, 8, 9, 10, 11, 12, 13, 14, 15, 16, 17, 18, 19, 20, 21, 22, 23, 24, 25, 26, 27, 28, 29, 30, 31, 32, 33, 34, 35, 36, 37, 38, 39, 40, 41, 42, 43, 44, 45, 46, 47, 48, 49, 50, 51, 52, 53, 54, 55, 56, 57, 58, 59, 60, 61, 62, 63, 64, 65, 66, 67, 68, 69, 70, 71, 72, 73, 74, 75, 76, 77, 78, 79, 80, 81, 82, 83, 84, 85, 86, 87, 88, 89, 90, 91, 92, 93, 94, 95, 96, 97, 98, 99, 100, 101, 102, 103, 104, 105, 106, 107, 108, 109, 110, 111, 112, 113, 114, 115, 116, 117, 118, 119, 120, 121, 122, 123, 124, 125, 126, 127, 128, 129, 130, 131, 132, 133, 134, 135, 136, 137, 138, 139, 140, 141, 142, 143, 144, 145, 146, 147, 148, 149, 150, 151, 152, 153, 154, 155, 156, 157, 158, 159, 160, 161, 162, 163, 164, 165, 166, 167, 168, 169, 170, 171, 172, 173, 174, 175, 176, 177, 178, 179, 180, 181, 182, 183, 184, 185, 186, 187, 188, 189, 190, 191, 192, 193, 194, 195, 196, 197, 198, 199, 200, 201, 202, 203, 204, 205, 206, 207, 208, 209, 210, 211, 212, 213, 214, 215, 216, 217, 218, 219, 220, 221, 222, 223, 224, 225, 226, 227, 228, 229, 230, 231, 232, 233, 234, 235, 236, 237, 238, 239, 240, 241, 242, 243, 244, 245, 246, 247, 248, 249, 250, 251, 252, 253, 254, 255, 256, 257, 258, 259, 260, 261, 262, 263, 264, 265, 266, 267, 268, 269, 270, 271, 272, 273, 274, 275, 276, 277, 278, 279, 280, 281, 282, 283, 284, 285, 286, 287, 288, 289, 290, 291, 292, 293, 294, 295, 296, 297, 298, 299, 300, 301, 302, 303, 304, 305, 306, 307, 308, 309, 310, 311, 312, 313, 314, 315, 316, 317, 318, 319, 320, 321, 322, 323, 324, 325, 326, 327, 328, 329, 330, 331, 332, 333, 334, 335, 336, 337, 338, 339, 340, 341, 342, 343, 344, 345, 346, 347, 348, 349, 350, 351, 352, 353, 354, 355, 356, 357, 358, 359, 360, 361, 362, 363, 364, 365, 366, 367, 368, 369, 370, 371, 372, 373, 374, 375, 376, 377, 378, 379, 380, 381, 382, 383, 384, 385, 386, 387, 388, 389, 390, 391, 392, 393, 394, 395, 396, 397, 398, 399, 400, 401, 402, 403, 404, 405, 406, 407, 408, 409, 410, 411, 412, 413, 414, 415, 416, 417, 418, 419, 420, 421, 422, 423, 424, 425, 426, 427, 428, 429, 430, 431, 432, 433, 434, 435, 436, 437, 438, 439, 440, 441, 442, 443, 444, 445, 446, 447, 448, 449, 450, 451, 452, 453, 454, 455, 456, 457, 458, 459, 460, 461, 462, 463, 464, 465, 466, 467, 468, 469, 470, 471, 472, 473, 474, 475, 476, 477, 478, 479, 480, 481, 482, 483, 484, 485, 486, 487, 488, 489, 490, 491, 492, 493, 494, 495, 496, 497, 498, 499, 500, 501, 502, 503, 504, 505, 506, 507, 508, 509, 510, 511, 512, 513, 514, 515, 516, 517, 518, 519, 520, 521, 522, 523, 524, 525, 526, 527, 528, 529, 530, 531, 532, 533, 534, 535, 536, 537, 538, 539, 540, 541, 542, 543, 544, 545, 546, 547, 548, 549, 550, 551, 552, 553, 554, 555, 556, 557, 558, 559, 560, 561, 562, 563, 564, 565, 566, 567, 568, 569, 570, 571, 572, 573, 574, 575, 576, 577, 578, 579, 580, 581, 582, 583, 584, 585, 586, 587, 588, 589, 590, 591, 592, 593, 594, 595, 596, 597, 598, 599, 600, 601, 602, 603, 604, 605, 606, 607, 608, 609, 610, 611, 612, 613, 614, 615, 616, 617, 618, 619, 620, 621, 622, 623, 624, 625, 626, 627, 628, 629, 630, 631, 632, 633, 634, 635, 636, 637, 638, 639, 640, 641, 642, 643, 644, 645, 646, 647, 648, 649, 650, 651, 652, 653, 654, 655, 656, 657, 658, 659, 660, 661, 662, 663, 664, 665, 666, 667, 668, 669, 670, 671, 672, 673, 674, 675, 676, 677, 678, 679, 680, 681, 682, 683, 684, 685, 686, 687, 688, 689, 690, 691, 692, 693, 694, 695, 696, 697, 698, 699, 700, 701, 702, 703, 704, 705, 706, 707, 708, 709, 710, 711, 712, 713, 714, 715, 716, 717, 718, 719, 720, 721, 722, 723, 724, 725, 726, 727, 728, 729, 730, 731, 732, 733, 734, 735, 736, 737, 738, 739, 740, 741, 742, 743, 744, 745, 746, 747, 748, 749, 750, 751, 752, 753, 754, 755, 756, 757, 758, 759, 760, 761, 762, 763, 764, 765, 766, 767, 768, 769, 770, 771, 772, 773, 774, 775, 776, 777, 778, 779, 780, 781, 782, 783, 784, 785, 786, 787, 788, 789, 790, 791, 792, 793, 794, 795, 796, 797, 798, 799, 800, 801, 802, 803, 804, 805, 806, 807, 808, 809, 810, 811, 812, 813, 814, 815, 816, 817, 818, 819, 820, 821, 822, 823, 824, 825, 826, 827, 828, 829, 830, 831, 832, 833, 834, 835, 836, 837, 838, 839],
      "AcquisitionTime": ["163255.115000", "163255.575000", "163256.035000", "163256.495000", "163256.955000", "163257.415000", "163257.875000", "163258.335000", "163258.795000", "163259.255000", "163259.715000", "163300.175000", "163300.635000", "163301.095000", "163301.555000", "163302.015000", "163302.475000", "163302.935000", "163303.395000", "163303.855000", "163304.315000", "163304.775000", "163305.235000", "163305.695000", "163306.155000", "163306.615000", "163307.075000", "163307.535000", "163307.995000", "163308.455000", "163308.915000", "163309.375000", "163309.835000", "163310.295000", "163310.755000", "163311.215000", "163311.675000", "163312.135000", "163312.595000", "163313.055000", "163313.515000", "163313.975000", "163314.435000", "163314.895000", "163315.355000", "163315.815000", "163316.275000", "163316.735000", "163317.195000", "163317.655000", "163318.115000", "163318.575000", "163319.035000", "163319.495000", "163319.955000", "163320.415000", "163320.875000", "163321.335000", "163321.795000", "163322.255000", "163322.715000", "163323.175000", "163323.635000", "163324.095000", "163324.555000", "163325.015000", "163325.475000", "163325.935000", "163326.395000", "163326.855000", "163327.315000", "163327.775000", "163328.235000", "163328.695000", "163329.155000", "163329.615000", "163330.075000", "163330.535000", "163330.995000", "163331.455000", "163331.915000", "163332.375000", "163332.835000", "163333.295000", "163333.755000", "163334.215000", "163334.675000", "163335.135000", "163335.595000", "163336.055000", "163336.515000", "163336.975000", "163337.435000", "163337.895000", "163338.355000", "163338.815000", "163339.275000", "163339.735000", "163340.195000", "163340.655000", "163341.115000", "163341.575000", "163342.035000", "163342.495000", "163342.955000", "163343.415000", "163343.875000", "163344.335000", "163344.795000", "163345.255000", "163345.715000", "163346.175000", "163346.635000", "163347.095000", "163347.555000", "163348.015000", "163348.475000", "163348.935000", "163349.395000", "163349.855000", "163350.315000", "163350.775000", "163351.235000", "163351.695000", "163352.155000", "163352.615000", "163353.075000", "163353.535000", "163353.995000", "163354.455000", "163354.915000", "163355.375000", "163355.835000", "163356.295000", "163356.755000", "163357.215000", "163357.675000", "163358.135000", "163358.595000", "163359.055000", "163359.515000", "163359.975000", "163400.435000", "163400.895000", "163401.355000", "163401.815000", "163402.275000", "163402.735000", "163403.195000", "163403.655000", "163404.115000", "163404.575000", "163405.035000", "163405.495000", "163405.955000", "163406.415000", "163406.875000", "163407.335000", "163407.795000", "163408.255000", "163408.715000", "163409.175000", "163409.635000", "163410.095000", "163410.555000", "163411.015000", "163411.475000", "163411.935000", "163412.395000", "163412.855000", "163413.315000", "163413.775000", "163414.235000", "163414.695000", "163415.155000", "163415.615000", "163416.075000", "163416.535000", "163416.995000", "163417.455000", "163417.915000", "163418.375000", "163418.835000", "163419.295000", "163419.755000", "163420.215000", "163420.675000", "163421.135000", "163421.595000", "163422.055000", "163422.515000", "163422.975000", "163423.435000", "163423.895000", "163424.355000", "163424.815000", "163425.275000", "163425.735000", "163426.195000", "163426.655000", "163427.115000", "163427.575000", "163428.035000", "163428.495000", "163428.955000", "163429.415000", "163429.875000", "163430.335000", "163430.795000", "163431.255000", "163431.715000", "163432.175000", "163432.635000", "163433.095000", "163433.555000", "163434.015000", "163434.475000", "163434.935000", "163435.395000", "163435.855000", "163436.315000", "163436.775000", "163437.235000", "163437.695000", "163438.155000", "163438.615000", "163439.075000", "163439.535000", "163439.995000", "163440.455000", "163440.915000", "163441.375000", "163441.835000", "163442.295000", "163442.755000", "163443.215000", "163443.675000", "163444.135000", "163444.595000", "163445.055000", "163445.515000", "163445.975000", "163446.435000", "163446.895000", "163447.355000", "163447.815000", "163448.275000", "163448.735000", "163449.195000", "163449.655000", "163450.115000", "163450.575000", "163451.035000", "163451.495000", "163451.955000", "163452.415000", "163452.875000", "163453.335000", "163453.795000", "163454.255000", "163454.715000", "163455.175000", "163455.635000", "163456.095000", "163456.555000", "163457.015000", "163457.475000", "163457.935000", "163458.395000", "163458.855000", "163459.315000", "163459.775000", "163500.235000", "163500.695000", "163501.155000", "163501.615000", "163502.075000", "163502.535000", "163502.995000", "163503.455000", "163503.915000", "163504.375000", "163504.835000", "163505.295000", "163505.755000", "163506.215000", "163506.675000", "163507.135000", "163507.595000", "163508.055000", "163508.515000", "163508.975000", "163509.435000", "163509.895000", "163510.355000", "163510.815000", "163511.275000", "163511.735000", "163512.195000", "163512.655000", "163513.115000", "163513.575000", "163514.035000", "163514.495000", "163514.955000", "163515.415000", "163515.875000", "163516.335000", "163516.795000", "163517.255000", "163517.715000", "163518.175000", "163518.635000", "163519.095000", "163519.555000", "163520.015000", "163520.475000", "163520.935000", "163521.395000", "163521.855000", "163522.315000", "163522.775000", "163523.235000", "163523.695000", "163524.155000", "163524.615000", "163525.075000", "163525.535000", "163525.995000", "163526.455000", "163526.915000", "163527.375000", "163527.835000", "163528.295000", "163528.755000", "163529.215000", "163529.675000", "163530.135000", "163530.595000", "163531.055000", "163531.515000", "163531.975000", "163532.435000", "163532.895000", "163533.355000", "163533.815000", "163534.275000", "163534.735000", "163535.195000", "163535.655000", "163536.115000", "163536.575000", "163537.035000", "163537.495000", "163537.955000", "163538.415000", "163538.875000", "163539.335000", "163539.795000", "163540.255000", "163540.715000", "163541.175000", "163541.635000", "163542.095000", "163542.555000", "163543.015000", "163543.475000", "163543.935000", "163544.395000", "163544.855000", "163545.315000", "163545.775000", "163546.235000", "163546.695000", "163547.155000", "163547.615000", "163548.075000", "163548.535000", "163548.995000", "163549.455000", "163549.915000", "163550.375000", "163550.835000", "163551.295000", "163551.755000", "163552.215000", "163552.675000", "163553.135000", "163553.595000", "163554.055000", "163554.515000", "163554.975000", "163555.435000", "163555.895000", "163556.355000", "163556.815000", "163557.275000", "163557.735000", "163558.195000", "163558.655000", "163559.115000", "163559.575000", "163600.035000", "163600.495000", "163600.955000", "163601.415000", "163601.875000", "163602.335000", "163602.795000", "163603.255000", "163603.715000", "163604.175000", "163604.635000", "163605.095000", "163605.555000", "163606.015000", "163606.475000", "163606.935000", "163607.395000", "163607.855000", "163608.315000", "163608.775000", "163609.235000", "163609.695000", "163610.155000", "163610.615000", "163611.075000", "163611.535000", "163611.995000", "163612.455000", "163612.915000", "163613.375000", "163613.835000", "163614.295000", "163614.755000", "163615.215000", "163615.675000", "163616.135000", "163616.595000", "163617.055000", "163617.515000", "163617.975000", "163618.435000", "163618.895000", "163619.355000", "163619.815000", "163620.275000", "163620.735000", "163621.195000", "163621.655000", "163622.115000", "163622.575000", "163623.035000", "163623.495000", "163623.955000", "163624.415000", "163624.875000", "163625.335000", "163625.795000", "163626.255000", "163626.715000", "163627.175000", "163627.635000", "163628.095000", "163628.555000", "163629.015000", "163629.475000", "163629.935000", "163630.395000", "163630.855000", "163631.315000", "163631.775000", "163632.235000", "163632.695000", "163633.155000", "163633.615000", "163634.075000", "163634.535000", "163634.995000", "163635.455000", "163635.915000", "163636.375000", "163636.835000", "163637.295000", "163637.755000", "163638.215000", "163638.675000", "163639.135000", "163639.595000", "163640.055000", "163640.515000", "163640.975000", "163641.435000", "163641.895000", "163642.355000", "163642.815000", "163643.275000", "163643.735000", "163644.195000", "163644.655000", "163645.115000", "163645.575000", "163646.035000", "163646.495000", "163646.955000", "163647.415000", "163647.875000", "163648.335000", "163648.795000", "163649.255000", "163649.715000", "163650.175000", "163650.635000", "163651.095000", "163651.555000", "163652.015000", "163652.475000", "163652.935000", "163653.395000", "163653.855000", "163654.315000", "163654.775000", "163655.235000", "163655.695000", "163656.155000", "163656.615000", "163657.075000", "163657.535000", "163657.995000", "163658.455000", "163658.915000", "163659.375000", "163659.835000", "163700.295000", "163700.755000", "163701.215000", "163701.675000", "163702.135000", "163702.595000", "163703.055000", "163703.515000", "163703.975000", "163704.435000", "163704.895000", "163705.355000", "163705.815000", "163706.275000", "163706.735000", "163707.195000", "163707.655000", "163708.115000", "163708.575000", "163709.035000", "163709.495000", "163709.955000", "163710.415000", "163710.875000", "163711.335000", "163711.795000", "163712.255000", "163712.715000", "163713.175000", "163713.635000", "163714.095000", "163714.555000", "163715.015000", "163715.475000", "163715.935000", "163716.395000", "163716.855000", "163717.315000", "163717.775000", "163718.235000", "163718.695000", "163719.155000", "163719.615000", "163720.075000", "163720.535000", "163720.995000", "163721.455000", "163721.915000", "163722.375000", "163722.835000", "163723.295000", "163723.755000", "163724.215000", "163724.675000", "163725.135000", "163725.595000", "163726.055000", "163726.515000", "163726.975000", "163727.435000", "163727.895000", "163728.355000", "163728.815000", "163729.275000", "163729.735000", "163730.195000", "163730.655000", "163731.115000", "163731.575000", "163732.035000", "163732.495000", "163732.955000", "163733.415000", "163733.875000", "163734.335000", "163734.795000", "163735.255000", "163735.715000", "163736.175000", "163736.635000", "163737.095000", "163737.555000", "163738.015000", "163738.475000", "163738.935000", "163739.395000", "163739.855000", "163740.315000", "163740.775000", "163741.235000", "163741.695000", "163742.155000", "163742.615000", "163743.075000", "163743.535000", "163743.995000", "163744.455000", "163744.915000", "163745.375000", "163745.835000", "163746.295000", "163746.755000", "163747.215000", "163747.675000", "163748.135000", "163748.595000", "163749.055000", "163749.515000", "163749.975000", "163750.435000", "163750.895000", "163751.355000", "163751.815000", "163752.275000", "163752.735000", "163753.195000", "163753.655000", "163754.115000", "163754.575000", "163755.035000", "163755.495000", "163755.955000", "163756.415000", "163756.875000", "163757.335000", "163757.795000", "163758.255000", "163758.715000", "163759.175000", "163759.635000", "163800.095000", "163800.555000", "163801.015000", "163801.475000", "163801.935000", "163802.395000", "163802.855000", "163803.315000", "163803.775000", "163804.235000", "163804.695000", "163805.155000", "163805.615000", "163806.075000", "163806.535000", "163806.995000", "163807.455000", "163807.915000", "163808.375000", "163808.835000", "163809.295000", "163809.755000", "163810.215000", "163810.675000", "163811.135000", "163811.595000", "163812.055000", "163812.515000", "163812.975000", "163813.435000", "163813.895000", "163814.355000", "163814.815000", "163815.275000", "163815.735000", "163816.195000", "163816.655000", "163817.115000", "163817.575000", "163818.035000", "163818.495000", "163818.955000", "163819.415000", "163819.875000", "163820.335000", "163820.795000", "163821.255000", "163821.715000", "163822.175000", "163822.635000", "163823.095000", "163823.555000", "163824.015000", "163824.475000", "163824.935000", "163825.395000", "163825.855000", "163826.315000", "163826.775000", "163827.235000", "163827.695000", "163828.155000", "163828.615000", "163829.075000", "163829.535000", "163829.995000", "163830.455000", "163830.915000", "163831.375000", "163831.835000", "163832.295000", "163832.755000", "163833.215000", "163833.675000", "163834.135000", "163834.595000", "163835.055000", "163835.515000", "163835.975000", "163836.435000", "163836.895000", "163837.355000", "163837.815000", "163838.275000", "163838.735000", "163839.195000", "163839.655000", "163840.115000", "163840.575000", "163841.035000", "163841.495000", "163841.955000", "163842.415000", "163842.875000", "163843.335000", "163843.795000", "163844.255000", "163844.715000", "163845.175000", "163845.635000", "163846.095000", "163846.555000", "163847.015000", "163847.475000", "163847.935000", "163848.395000", "163848.855000", "163849.315000", "163849.775000", "163850.235000", "163850.695000", "163851.155000", "163851.615000", "163852.075000", "163852.535000", "163852.995000", "163853.455000", "163853.915000", "163854.375000", "163854.835000", "163855.295000", "163855.755000", "163856.215000", "163856.675000", "163857.135000", "163857.595000", "163858.055000", "163858.515000", "163858.975000", "163859.435000", "163859.895000", "163900.355000", "163900.815000", "163901.275000", "163901.735000", "163902.195000", "163902.655000", "163903.115000", "163903.575000", "163904.035000", "163904.495000", "163904.955000", "163905.415000", "163905.875000", "163906.335000", "163906.795000", "163907.255000", "163907.715000", "163908.175000", "163908.635000", "163909.095000", "163909.555000", "163910.015000", "163910.475000", "163910.935000", "163911.395000", "163911.855000", "163912.315000", "163912.775000", "163913.235000", "163913.695000", "163914.155000", "163914.615000", "163915.075000", "163915.535000", "163915.995000", "163916.455000", "163916.915000", "163917.375000", "163917.835000", "163918.295000", "163918.755000", "163919.215000", "163919.675000", "163920.135000", "163920.595000"],
