{
  "AcquisitionMatrixPE": 82,
  "AcquisitionNumber": 1,
  "AcquisitionTime": "11:31:0.992500",
  "BandwidthPerPixelPhaseEncode": 24.888,
  "BaseResolution": 82,
  "BodyPartExamined": "BRAIN",
  "ConsistencyInfo": "N4_VE11E_LATEST_20181129",
  "ConversionSoftware": "dcm2niix",
  "ConversionSoftwareVersion": "v1.0.20201102",
  "DerivedVendorReportedEchoSpacing": 0.00049,
  "DeviceSerialNumber": "66112",
  "DwellTime": 2e-06,
  "EchoTime": 0.0272,
  "EchoTrainLength": 82,
  "EffectiveEchoSpacing": 0.00049,
  "FlipAngle": 44,
  "ImageComments": "Unaliased MB8/PE3",
  "ImageOrientationPatientDICOM": [0.999036, 0.024484, -0.0364412, -0.0266841, 0.997771, -0.0611654],
  "ImageType": [
    "ORIGINAL",
    "PRIMARY",
    "M",
    "MB",
    "ND",
    "NORM",
    "MOSAIC"
],
  "ImagingFrequency": 123.252,
  "InPlanePhaseEncodingDirectionDICOM": "COL",
  "InstitutionAddress": "Maynard 3,Hanover,NH,US,03755",
  "InstitutionName": "Dartmouth College - PBS",
  "InstitutionalDepartmentName": "Department",
  "MRAcquisitionType": "2D",
  "MagneticFieldStrength": 3,
  "Manufacturer": "Siemens",
  "ManufacturersModelName": "Prisma",
  "Modality": "MR",
  "MultibandAccelerationFactor": 8,
  "PartialFourier": 1,
  "PatientPosition": "HFS",
  "PercentPhaseFOV": 100,
  "PercentSampling": 100,
  "PhaseEncodingDirection": "j-",
  "PhaseEncodingSteps": 82,
  "PhaseResolution": 1,
  "PixelBandwidth": 3050,
  "ProcedureStepDescription": "Wager_Wager^1076_spacetop",
  "ProtocolName": "func_run-04_task-social_acq-ap-mb8",
  "PulseSequenceDetails": "%CustomerSeq%\\cmrr_mbep2d_bold",
  "ReceiveCoilActiveElements": "HEA;HEP",
  "ReceiveCoilName": "Head_32",
  "ReconMatrixPE": 82,
  "RepetitionTime": 0.46,
  "SAR": 0.111362,
  "ScanOptions": "FS",
  "ScanningSequence": "EP",
  "SequenceName": "epfid2d1_82",
  "SequenceVariant": "SK\\SS",
  "SeriesDescription": "func_run-04_task-social_acq-ap-mb8",
  "SeriesNumber": 14,
  "ShimSetting": [4129, -7693, -7255, 563, -74, 63, -40, 93],
  "SliceThickness": 2.7,
  "SliceTiming": [0, 0.2525, 0.0625, 0.315, 0.125, 0.3775, 0.19, 0, 0.2525, 0.0625, 0.315, 0.125, 0.3775, 0.19, 0, 0.2525, 0.0625, 0.315, 0.125, 0.3775, 0.19, 0, 0.2525, 0.0625, 0.315, 0.125, 0.3775, 0.19, 0, 0.2525, 0.0625, 0.315, 0.125, 0.3775, 0.19, 0, 0.2525, 0.0625, 0.315, 0.125, 0.3775, 0.19, 0, 0.2525, 0.0625, 0.315, 0.125, 0.3775, 0.19, 0, 0.2525, 0.0625, 0.315, 0.125, 0.3775, 0.19],
  "SoftwareVersions": "syngo MR E11",
  "SpacingBetweenSlices": 2.7,
  "StationName": "AWP66112",
  "TaskName": "social",
  "TotalReadoutTime": 0.03969,
  "TxRefAmp": 258.552,
  "WipMemBlock": "b068b123-8d7d-4739-9739-68ce3f9f343d||Sequence: R016 ve11e/master r/434b28f1; Aug  7 2019 18:53:46 by eja",
  "dcmmeta_affine": [
    [-2.680340051651001, -0.07159159332513809, -0.09412847459316254, 118.36946868896484],
    [-0.06568890810012817, 2.6769464015960693, -0.1676127016544342, -88.16915893554688],
    [-0.09776908904314041, 0.16410216689109802, 2.693147897720337, -76.1519775390625],
    [0.0, 0.0, 0.0, 1.0]
],
  "dcmmeta_reorient_transform": [
    [0.0, -1.0, 0.0, 81.0],
    [1.0, 0.0, 0.0, 0.0],
    [0.0, 0.0, 1.0, 0.0],
    [0.0, 0.0, 0.0, 1.0]
],
  "dcmmeta_shape": [82, 82, 56, 872],
  "dcmmeta_slice_dim": 2,
  "dcmmeta_version": 0.6,
  "global": {
    "const": {
      "AccessionNumber": "A003936",
      "AcquisitionMatrix": [82, 0, 0, 82],
      "AngioFlag": "N",
      "BitsAllocated": 16,
      "BitsStored": 16,
      "BodyPartExamined": "BRAIN",
      "Columns": 656,
      "EchoNumbers": 1,
      "EchoTime": 27.2,
      "EchoTrainLength": 82,
      "FlipAngle": 44.0,
      "HighBit": 15,
      "ImageOrientationPatient": [0.99903582019504, 0.02448404754001, -0.0364412044709, -0.0266841373287, 0.99777089393815, -0.0611653498713],
      "ImagePositionPatient": [-861.28136541307, -915.7998240501, 12.297349580866],
      "ImageType": [
        "ORIGINAL",
        "PRIMARY",
        "M",
        "MB",
        "ND",
        "NORM",
        "MOSAIC"
],
      "ImagedNucleus": "1H",
      "ImagingFrequency": 123.252201,
      "InPlanePhaseEncodingDirection": "COL",
      "MRAcquisitionType": "2D",
      "MagneticFieldStrength": 3.0,
      "Manufacturer": "SIEMENS",
      "ManufacturerModelName": "Prisma",
      "Modality": "MR",
      "NumberOfAverages": 1.0,
      "NumberOfPhaseEncodingSteps": 82,
      "PercentPhaseFieldOfView": 100.0,
      "PercentSampling": 100.0,
      "PerformedProcedureStepStartTime": "105722.669000",
      "PhotometricInterpretation": "MONOCHROME2",
      "PixelBandwidth": 3050.0,
      "PixelRepresentation": 0,
      "PixelSpacing": [2.6829268932343, 2.6829268932343],
      "ProtocolName": "func_run-04_task-social_acq-ap-mb8",
      "RepetitionTime": 460.0,
      "Rows": 656,
      "SAR": 0.11136176960251,
      "SamplesPerPixel": 1,
      "ScanOptions": "FS",
      "ScanningSequence": "EP",
      "SequenceName": "epfid2d1_82",
      "SequenceVariant": [
        "SK",
        "SS"
],
      "SeriesDescription": "func_run-04_task-social_acq-ap-mb8",
      "SeriesNumber": 14,
      "SeriesTime": "113117.809000",
      "SliceLocation": -74.611925831905,
      "SliceThickness": 2.7000000476837,
      "SmallestImagePixelValue": 0,
      "SoftwareVersions": "syngo MR E11",
      "SpacingBetweenSlices": 2.700000034601,
      "SpecificCharacterSet": "ISO_IR 100",
      "StudyID": "4",
      "StudyTime": "105722.591000",
      "TransmitCoilName": "Body",
      "VariableFlipAngleFlag": "N",
      "WindowCenterWidthExplanation": "Algo1"
    },
    "slices": {}
  },
  "time": {
    "samples": {
      "AcquisitionNumber": [1, 2, 3, 4, 5, 6, 7, 8, 9, 10, 11, 12, 13, 14, 15, 16, 17, 18, 19, 20, 21, 22, 23, 24, 25, 26, 27, 28, 29, 30, 31, 32, 33, 34, 35, 36, 37, 38, 39, 40, 41, 42, 43, 44, 45, 46, 47, 48, 49, 50, 51, 52, 53, 54, 55, 56, 57, 58, 59, 60, 61, 62, 63, 64, 65, 66, 67, 68, 69, 70, 71, 72, 73, 74, 75, 76, 77, 78, 79, 80, 81, 82, 83, 84, 85, 86, 87, 88, 89, 90, 91, 92, 93, 94, 95, 96, 97, 98, 99, 100, 101, 102, 103, 104, 105, 106, 107, 108, 109, 110, 111, 112, 113, 114, 115, 116, 117, 118, 119, 120, 121, 122, 123, 124, 125, 126, 127, 128, 129, 130, 131, 132, 133, 134, 135, 136, 137, 138, 139, 140, 141, 142, 143, 144, 145, 146, 147, 148, 149, 150, 151, 152, 153, 154, 155, 156, 157, 158, 159, 160, 161, 162, 163, 164, 165, 166, 167, 168, 169, 170, 171, 172, 173, 174, 175, 176, 177, 178, 179, 180, 181, 182, 183, 184, 185, 186, 187, 188, 189, 190, 191, 192, 193, 194, 195, 196, 197, 198, 199, 200, 201, 202, 203, 204, 205, 206, 207, 208, 209, 210, 211, 212, 213, 214, 215, 216, 217, 218, 219, 220, 221, 222, 223, 224, 225, 226, 227, 228, 229, 230, 231, 232, 233, 234, 235, 236, 237, 238, 239, 240, 241, 242, 243, 244, 245, 246, 247, 248, 249, 250, 251, 252, 253, 254, 255, 256, 257, 258, 259, 260, 261, 262, 263, 264, 265, 266, 267, 268, 269, 270, 271, 272, 273, 274, 275, 276, 277, 278, 279, 280, 281, 282, 283, 284, 285, 286, 287, 288, 289, 290, 291, 292, 293, 294, 295, 296, 297, 298, 299, 300, 301, 302, 303, 304, 305, 306, 307, 308, 309, 310, 311, 312, 313, 314, 315, 316, 317, 318, 319, 320, 321, 322, 323, 324, 325, 326, 327, 328, 329, 330, 331, 332, 333, 334, 335, 336, 337, 338, 339, 340, 341, 342, 343, 344, 345, 346, 347, 348, 349, 350, 351, 352, 353, 354, 355, 356, 357, 358, 359, 360, 361, 362, 363, 364, 365, 366, 367, 368, 369, 370, 371, 372, 373, 374, 375, 376, 377, 378, 379, 380, 381, 382, 383, 384, 385, 386, 387, 388, 389, 390, 391, 392, 393, 394, 395, 396, 397, 398, 399, 400, 401, 402, 403, 404, 405, 406, 407, 408, 409, 410, 411, 412, 413, 414, 415, 416, 417, 418, 419, 420, 421, 422, 423, 424, 425, 426, 427, 428, 429, 430, 431, 432, 433, 434, 435, 436, 437, 438, 439, 440, 441, 442, 443, 444, 445, 446, 447, 448, 449, 450, 451, 452, 453, 454, 455, 456, 457, 458, 459, 460, 461, 462, 463, 464, 465, 466, 467, 468, 469, 470, 471, 472, 473, 474, 475, 476, 477, 478, 479, 480, 481, 482, 483, 484, 485, 486, 487, 488, 489, 490, 491, 492, 493, 494, 495, 496, 497, 498, 499, 500, 501, 502, 503, 504, 505, 506, 507, 508, 509, 510, 511, 512, 513, 514, 515, 516, 517, 518, 519, 520, 521, 522, 523, 524, 525, 526, 527, 528, 529, 530, 531, 532, 533, 534, 535, 536, 537, 538, 539, 540, 541, 542, 543, 544, 545, 546, 547, 548, 549, 550, 551, 552, 553, 554, 555, 556, 557, 558, 559, 560, 561, 562, 563, 564, 565, 566, 567, 568, 569, 570, 571, 572, 573, 574, 575, 576, 577, 578, 579, 580, 581, 582, 583, 584, 585, 586, 587, 588, 589, 590, 591, 592, 593, 594, 595, 596, 597, 598, 599, 600, 601, 602, 603, 604, 605, 606, 607, 608, 609, 610, 611, 612, 613, 614, 615, 616, 617, 618, 619, 620, 621, 622, 623, 624, 625, 626, 627, 628, 629, 630, 631, 632, 633, 634, 635, 636, 637, 638, 639, 640, 641, 642, 643, 644, 645, 646, 647, 648, 649, 650, 651, 652, 653, 654, 655, 656, 657, 658, 659, 660, 661, 662, 663, 664, 665, 666, 667, 668, 669, 670, 671, 672, 673, 674, 675, 676, 677, 678, 679, 680, 681, 682, 683, 684, 685, 686, 687, 688, 689, 690, 691, 692, 693, 694, 695, 696, 697, 698, 699, 700, 701, 702, 703, 704, 705, 706, 707, 708, 709, 710, 711, 712, 713, 714, 715, 716, 717, 718, 719, 720, 721, 722, 723, 724, 725, 726, 727, 728, 729, 730, 731, 732, 733, 734, 735, 736, 737, 738, 739, 740, 741, 742, 743, 744, 745, 746, 747, 748, 749, 750, 751, 752, 753, 754, 755, 756, 757, 758, 759, 760, 761, 762, 763, 764, 765, 766, 767, 768, 769, 770, 771, 772, 773, 774, 775, 776, 777, 778, 779, 780, 781, 782, 783, 784, 785, 786, 787, 788, 789, 790, 791, 792, 793, 794, 795, 796, 797, 798, 799, 800, 801, 802, 803, 804, 805, 806, 807, 808, 809, 810, 811, 812, 813, 814, 815, 816, 817, 818, 819, 820, 821, 822, 823, 824, 825, 826, 827, 828, 829, 830, 831, 832, 833, 834, 835, 836, 837, 838, 839, 840, 841, 842, 843, 844, 845, 846, 847, 848, 849, 850, 851, 852, 853, 854, 855, 856, 857, 858, 859, 860, 861, 862, 863, 864, 865, 866, 867, 868, 869, 870, 871, 872],
      "AcquisitionTime": ["113100.992500", "113101.452500", "113101.912500", "113102.372500", "113102.832500", "113103.292500", "113103.752500", "113104.212500", "113104.672500", "113105.132500", "113105.592500", "113106.052500", "113106.512500", "113106.972500", "113107.432500", "113107.892500", "113108.352500", "113108.812500", "113109.272500", "113109.732500", "113110.192500", "113110.652500", "113111.112500", "113111.572500", "113112.032500", "113112.492500", "113112.952500", "113113.412500", "113113.872500", "113114.332500", "113114.792500", "113115.252500", "113115.712500", "113116.172500", "113116.632500", "113117.092500", "113117.552500", "113118.012500", "113118.472500", "113118.932500", "113119.392500", "113119.852500", "113120.312500", "113120.772500", "113121.232500", "113121.692500", "113122.152500", "113122.612500", "113123.072500", "113123.532500", "113123.992500", "113124.452500", "113124.912500", "113125.372500", "113125.832500", "113126.292500", "113126.752500", "113127.212500", "113127.672500", "113128.132500", "113128.592500", "113129.052500", "113129.512500", "113129.972500", "113130.432500", "113130.892500", "113131.352500", "113131.812500", "113132.272500", "113132.732500", "113133.192500", "113133.652500", "113134.112500", "113134.572500", "113135.032500", "113135.492500", "113135.952500", "113136.412500", "113136.872500", "113137.332500", "113137.792500", "113138.252500", "113138.712500", "113139.172500", "113139.632500", "113140.092500", "113140.552500", "113141.012500", "113141.472500", "113141.932500", "113142.392500", "113142.852500", "113143.312500", "113143.772500", "113144.232500", "113144.692500", "113145.152500", "113145.612500", "113146.072500", "113146.532500", "113146.992500", "113147.452500", "113147.912500", "113148.372500", "113148.832500", "113149.292500", "113149.752500", "113150.212500", "113150.672500", "113151.132500", "113151.592500", "113152.052500", "113152.512500", "113152.972500", "113153.432500", "113153.892500", "113154.352500", "113154.812500", "113155.272500", "113155.732500", "113156.192500", "113156.652500", "113157.112500", "113157.572500", "113158.032500", "113158.492500", "113158.952500", "113159.412500", "113159.872500", "113200.332500", "113200.792500", "113201.252500", "113201.712500", "113202.172500", "113202.632500", "113203.092500", "113203.552500", "113204.012500", "113204.472500", "113204.932500", "113205.392500", "113205.852500", "113206.312500", "113206.772500", "113207.232500", "113207.692500", "113208.152500", "113208.612500", "113209.072500", "113209.532500", "113209.992500", "113210.452500", "113210.912500", "113211.372500", "113211.832500", "113212.292500", "113212.752500", "113213.212500", "113213.672500", "113214.132500", "113214.592500", "113215.052500", "113215.512500", "113215.972500", "113216.432500", "113216.892500", "113217.352500", "113217.812500", "113218.272500", "113218.732500", "113219.192500", "113219.652500", "113220.112500", "113220.572500", "113221.032500", "113221.492500", "113221.952500", "113222.412500", "113222.872500", "113223.332500", "113223.792500", "113224.252500", "113224.712500", "113225.172500", "113225.632500", "113226.092500", "113226.552500", "113227.012500", "113227.472500", "113227.932500", "113228.392500", "113228.852500", "113229.312500", "113229.772500", "113230.232500", "113230.692500", "113231.152500", "113231.612500", "113232.072500", "113232.532500", "113232.992500", "113233.452500", "113233.912500", "113234.372500", "113234.832500", "113235.292500", "113235.752500", "113236.212500", "113236.672500", "113237.132500", "113237.592500", "113238.052500", "113238.512500", "113238.972500", "113239.432500", "113239.892500", "113240.352500", "113240.812500", "113241.272500", "113241.732500", "113242.192500", "113242.652500", "113243.112500", "113243.572500", "113244.032500", "113244.492500", "113244.952500", "113245.412500", "113245.872500", "113246.332500", "113246.792500", "113247.252500", "113247.712500", "113248.172500", "113248.632500", "113249.092500", "113249.552500", "113250.012500", "113250.472500", "113250.932500", "113251.392500", "113251.852500", "113252.312500", "113252.772500", "113253.232500", "113253.692500", "113254.152500", "113254.612500", "113255.072500", "113255.532500", "113255.992500", "113256.452500", "113256.912500", "113257.372500", "113257.832500", "113258.292500", "113258.752500", "113259.212500", "113259.672500", "113300.132500", "113300.592500", "113301.052500", "113301.512500", "113301.972500", "113302.432500", "113302.892500", "113303.352500", "113303.812500", "113304.272500", "113304.732500", "113305.192500", "113305.652500", "113306.112500", "113306.572500", "113307.032500", "113307.492500", "113307.952500", "113308.412500", "113308.872500", "113309.332500", "113309.792500", "113310.252500", "113310.712500", "113311.172500", "113311.632500", "113312.092500", "113312.552500", "113313.012500", "113313.472500", "113313.932500", "113314.392500", "113314.852500", "113315.312500", "113315.772500", "113316.232500", "113316.692500", "113317.152500", "113317.612500", "113318.072500", "113318.532500", "113318.992500", "113319.452500", "113319.912500", "113320.372500", "113320.832500", "113321.292500", "113321.752500", "113322.212500", "113322.672500", "113323.132500", "113323.592500", "113324.052500", "113324.512500", "113324.972500", "113325.432500", "113325.892500", "113326.352500", "113326.812500", "113327.272500", "113327.732500", "113328.192500", "113328.652500", "113329.112500", "113329.572500", "113330.032500", "113330.492500", "113330.952500", "113331.412500", "113331.872500", "113332.332500", "113332.792500", "113333.252500", "113333.712500", "113334.172500", "113334.632500", "113335.092500", "113335.552500", "113336.012500", "113336.472500", "113336.932500", "113337.392500", "113337.852500", "113338.312500", "113338.772500", "113339.232500", "113339.692500", "113340.152500", "113340.612500", "113341.072500", "113341.532500", "113341.992500", "113342.452500", "113342.912500", "113343.372500", "113343.832500", "113344.292500", "113344.752500", "113345.212500", "113345.672500", "113346.132500", "113346.592500", "113347.052500", "113347.512500", "113347.972500", "113348.432500", "113348.892500", "113349.352500", "113349.812500", "113350.272500", "113350.732500", "113351.192500", "113351.652500", "113352.112500", "113352.572500", "113353.032500", "113353.492500", "113353.952500", "113354.412500", "113354.872500", "113355.332500", "113355.792500", "113356.252500", "113356.712500", "113357.172500", "113357.632500", "113358.092500", "113358.552500", "113359.012500", "113359.472500", "113359.932500", "113400.392500", "113400.852500", "113401.312500", "113401.772500", "113402.232500", "113402.692500", "113403.152500", "113403.612500", "113404.072500", "113404.532500", "113404.992500", "113405.452500", "113405.912500", "113406.372500", "113406.832500", "113407.292500", "113407.752500", "113408.212500", "113408.672500", "113409.132500", "113409.592500", "113410.052500", "113410.512500", "113410.972500", "113411.432500", "113411.892500", "113412.352500", "113412.812500", "113413.272500", "113413.732500", "113414.192500", "113414.652500", "113415.112500", "113415.572500", "113416.032500", "113416.492500", "113416.952500", "113417.412500", "113417.872500", "113418.332500", "113418.792500", "113419.252500", "113419.712500", "113420.172500", "113420.632500", "113421.092500", "113421.552500", "113422.012500", "113422.472500", "113422.932500", "113423.392500", "113423.852500", "113424.312500", "113424.772500", "113425.232500", "113425.692500", "113426.152500", "113426.612500", "113427.072500", "113427.532500", "113427.992500", "113428.452500", "113428.912500", "113429.372500", "113429.832500", "113430.292500", "113430.752500", "113431.212500", "113431.672500", "113432.132500", "113432.592500", "113433.052500", "113433.512500", "113433.972500", "113434.432500", "113434.892500", "113435.352500", "113435.812500", "113436.272500", "113436.732500", "113437.192500", "113437.652500", "113438.112500", "113438.572500", "113439.032500", "113439.492500", "113439.952500", "113440.412500", "113440.872500", "113441.332500", "113441.792500", "113442.252500", "113442.712500", "113443.172500", "113443.632500", "113444.092500", "113444.552500", "113445.012500", "113445.472500", "113445.932500", "113446.392500", "113446.852500", "113447.312500", "113447.772500", "113448.232500", "113448.692500", "113449.152500", "113449.612500", "113450.072500", "113450.532500", "113450.992500", "113451.452500", "113451.912500", "113452.372500", "113452.832500", "113453.292500", "113453.752500", "113454.212500", "113454.672500", "113455.132500", "113455.592500", "113456.052500", "113456.512500", "113456.972500", "113457.432500", "113457.892500", "113458.352500", "113458.812500", "113459.272500", "113459.732500", "113500.192500", "113500.652500", "113501.112500", "113501.572500", "113502.032500", "113502.492500", "113502.952500", "113503.412500", "113503.872500", "113504.332500", "113504.792500", "113505.252500", "113505.712500", "113506.172500", "113506.632500", "113507.092500", "113507.552500", "113508.012500", "113508.472500", "113508.932500", "113509.392500", "113509.852500", "113510.312500", "113510.772500", "113511.232500", "113511.692500", "113512.152500", "113512.612500", "113513.072500", "113513.532500", "113513.992500", "113514.452500", "113514.912500", "113515.372500", "113515.832500", "113516.292500", "113516.752500", "113517.212500", "113517.672500", "113518.132500", "113518.592500", "113519.052500", "113519.512500", "113519.972500", "113520.432500", "113520.892500", "113521.352500", "113521.812500", "113522.272500", "113522.732500", "113523.192500", "113523.652500", "113524.112500", "113524.572500", "113525.032500", "113525.492500", "113525.952500", "113526.412500", "113526.872500", "113527.332500", "113527.792500", "113528.252500", "113528.712500", "113529.172500", "113529.632500", "113530.092500", "113530.552500", "113531.012500", "113531.472500", "113531.932500", "113532.392500", "113532.852500", "113533.312500", "113533.772500", "113534.232500", "113534.692500", "113535.152500", "113535.612500", "113536.072500", "113536.532500", "113536.992500", "113537.452500", "113537.912500", "113538.372500", "113538.832500", "113539.292500", "113539.752500", "113540.212500", "113540.672500", "113541.132500", "113541.592500", "113542.052500", "113542.512500", "113542.972500", "113543.432500", "113543.892500", "113544.352500", "113544.812500", "113545.272500", "113545.732500", "113546.192500", "113546.652500", "113547.112500", "113547.572500", "113548.032500", "113548.492500", "113548.952500", "113549.412500", "113549.872500", "113550.332500", "113550.792500", "113551.252500", "113551.712500", "113552.172500", "113552.632500", "113553.092500", "113553.552500", "113554.012500", "113554.472500", "113554.932500", "113555.392500", "113555.852500", "113556.312500", "113556.772500", "113557.232500", "113557.692500", "113558.152500", "113558.612500", "113559.072500", "113559.532500", "113559.992500", "113600.452500", "113600.912500", "113601.372500", "113601.832500", "113602.292500", "113602.752500", "113603.212500", "113603.672500", "113604.132500", "113604.592500", "113605.052500", "113605.512500", "113605.972500", "113606.432500", "113606.892500", "113607.352500", "113607.812500", "113608.272500", "113608.732500", "113609.192500", "113609.652500", "113610.112500", "113610.572500", "113611.032500", "113611.492500", "113611.952500", "113612.412500", "113612.872500", "113613.332500", "113613.792500", "113614.252500", "113614.712500", "113615.172500", "113615.632500", "113616.092500", "113616.552500", "113617.012500", "113617.472500", "113617.932500", "113618.392500", "113618.852500", "113619.312500", "113619.772500", "113620.232500", "113620.692500", "113621.152500", "113621.612500", "113622.072500", "113622.532500", "113622.992500", "113623.452500", "113623.912500", "113624.372500", "113624.832500", "113625.292500", "113625.752500", "113626.212500", "113626.672500", "113627.132500", "113627.592500", "113628.052500", "113628.512500", "113628.972500", "113629.432500", "113629.892500", "113630.352500", "113630.812500", "113631.272500", "113631.732500", "113632.192500", "113632.652500", "113633.112500", "113633.572500", "113634.032500", "113634.492500", "113634.952500", "113635.412500", "113635.872500", "113636.332500", "113636.792500", "113637.252500", "113637.712500", "113638.172500", "113638.632500", "113639.092500", "113639.552500", "113640.012500", "113640.472500", "113640.932500", "113641.392500", "113641.852500", "113642.312500", "113642.772500", "113643.232500", "113643.692500", "113644.152500", "113644.612500", "113645.072500", "113645.532500", "113645.992500", "113646.452500", "113646.912500", "113647.372500", "113647.832500", "113648.292500", "113648.752500", "113649.212500", "113649.672500", "113650.132500", "113650.592500", "113651.052500", "113651.512500", "113651.972500", "113652.432500", "113652.892500", "113653.352500", "113653.812500", "113654.272500", "113654.732500", "113655.192500", "113655.652500", "113656.112500", "113656.572500", "113657.032500", "113657.492500", "113657.952500", "113658.412500", "113658.872500", "113659.332500", "113659.792500", "113700.252500", "113700.712500", "113701.172500", "113701.632500", "113702.092500", "113702.552500", "113703.012500", "113703.472500", "113703.932500", "113704.392500", "113704.852500", "113705.312500", "113705.772500", "113706.232500", "113706.692500", "113707.152500", "113707.612500", "113708.072500", "113708.532500", "113708.992500", "113709.452500", "113709.912500", "113710.372500", "113710.832500", "113711.292500", "113711.752500", "113712.212500", "113712.672500", "113713.132500", "113713.592500", "113714.052500", "113714.512500", "113714.972500", "113715.432500", "113715.892500", "113716.352500", "113716.812500", "113717.272500", "113717.732500", "113718.192500", "113718.652500", "113719.112500", "113719.572500", "113720.032500", "113720.492500", "113720.952500", "113721.412500", "113721.872500", "113722.332500", "113722.792500", "113723.252500", "113723.712500", "113724.172500", "113724.632500", "113725.092500", "113725.552500", "113726.012500", "113726.472500", "113726.932500", "113727.392500", "113727.852500", "113728.312500", "113728.772500", "113729.232500", "113729.692500", "113730.152500", "113730.612500", "113731.072500", "113731.532500", "113731.992500", "113732.452500", "113732.912500", "113733.372500", "113733.832500", "113734.292500", "113734.752500", "113735.212500", "113735.672500", "113736.132500", "113736.592500", "113737.052500", "113737.512500", "113737.972500", "113738.432500", "113738.892500", "113739.352500", "113739.812500", "113740.272500", "113740.732500", "113741.192500", "113741.652500"],
