{
  "AcquisitionMatrixPE": 82,
  "AcquisitionNumber": 1,
  "AcquisitionTime": "11:14:47.845000",
  "BandwidthPerPixelPhaseEncode": 24.888,
  "BaseResolution": 82,
  "BodyPartExamined": "BRAIN",
  "ConsistencyInfo": "N4_VE11E_LATEST_20181129",
  "ConversionSoftware": "dcm2niix",
  "ConversionSoftwareVersion": "v1.0.20201102",
  "DerivedVendorReportedEchoSpacing": 0.00049,
  "DeviceSerialNumber": "66112",
  "DwellTime": 2e-06,
  "EchoTime": 0.0272,
  "EchoTrainLength": 82,
  "EffectiveEchoSpacing": 0.00049,
  "FlipAngle": 44,
  "ImageComments": "Unaliased MB8/PE3",
  "ImageOrientationPatientDICOM": [0.999036, 0.024484, -0.0364412, -0.0266841, 0.997771, -0.0611654],
  "ImageType": [
    "ORIGINAL",
    "PRIMARY",
    "M",
    "MB",
    "ND",
    "NORM",
    "MOSAIC"
],
  "ImagingFrequency": 123.252,
  "InPlanePhaseEncodingDirectionDICOM": "COL",
  "InstitutionAddress": "Maynard 3,Hanover,NH,US,03755",
  "InstitutionName": "Dartmouth College - PBS",
  "InstitutionalDepartmentName": "Department",
  "MRAcquisitionType": "2D",
  "MagneticFieldStrength": 3,
  "Manufacturer": "Siemens",
  "ManufacturersModelName": "Prisma",
  "Modality": "MR",
  "MultibandAccelerationFactor": 8,
  "PartialFourier": 1,
  "PatientPosition": "HFS",
  "PercentPhaseFOV": 100,
  "PercentSampling": 100,
  "PhaseEncodingDirection": "j-",
  "PhaseEncodingSteps": 82,
  "PhaseResolution": 1,
  "PixelBandwidth": 3050,
  "ProcedureStepDescription": "Wager_Wager^1076_spacetop",
  "ProtocolName": "func_run-02_task-social_acq-ap-mb8",
  "PulseSequenceDetails": "%CustomerSeq%\\cmrr_mbep2d_bold",
  "ReceiveCoilActiveElements": "HEA;HEP",
  "ReceiveCoilName": "Head_32",
  "ReconMatrixPE": 82,
  "RepetitionTime": 0.46,
  "SAR": 0.111362,
  "ScanOptions": "FS",
  "ScanningSequence": "EP",
  "SequenceName": "epfid2d1_82",
  "SequenceVariant": "SK\\SS",
  "SeriesDescription": "func_run-02_task-social_acq-ap-mb8",
  "SeriesNumber": 10,
  "ShimSetting": [4129, -7693, -7255, 563, -74, 63, -40, 93],
  "SliceThickness": 2.7,
  "SliceTiming": [0, 0.25, 0.0625, 0.3125, 0.125, 0.375, 0.1875, 0, 0.25, 0.0625, 0.3125, 0.125, 0.375, 0.1875, 0, 0.25, 0.0625, 0.3125, 0.125, 0.375, 0.1875, 0, 0.25, 0.0625, 0.3125, 0.125, 0.375, 0.1875, 0, 0.25, 0.0625, 0.3125, 0.125, 0.375, 0.1875, 0, 0.25, 0.0625, 0.3125, 0.125, 0.375, 0.1875, 0, 0.25, 0.0625, 0.3125, 0.125, 0.375, 0.1875, 0, 0.25, 0.0625, 0.3125, 0.125, 0.375, 0.1875],
  "SoftwareVersions": "syngo MR E11",
  "SpacingBetweenSlices": 2.7,
  "StationName": "AWP66112",
  "TaskName": "social",
  "TotalReadoutTime": 0.03969,
  "TxRefAmp": 258.552,
  "WipMemBlock": "b3cc8e07-8bb0-475d-b075-748708b05691||Sequence: R016 ve11e/master r/434b28f1; Aug  7 2019 18:53:46 by eja",
  "dcmmeta_affine": [
    [-2.680340051651001, -0.07159159332513809, -0.09412847459316254, 118.36946868896484],
    [-0.06568890810012817, 2.6769464015960693, -0.1676127016544342, -88.16915893554688],
    [-0.09776908904314041, 0.16410216689109802, 2.693147897720337, -76.1519775390625],
    [0.0, 0.0, 0.0, 1.0]
],
  "dcmmeta_reorient_transform": [
    [0.0, -1.0, 0.0, 81.0],
    [1.0, 0.0, 0.0, 0.0],
    [0.0, 0.0, 1.0, 0.0],
    [0.0, 0.0, 0.0, 1.0]
],
  "dcmmeta_shape": [82, 82, 56, 872],
  "dcmmeta_slice_dim": 2,
  "dcmmeta_version": 0.6,
  "global": {
    "const": {
      "AccessionNumber": "A003936",
      "AcquisitionMatrix": [82, 0, 0, 82],
      "AngioFlag": "N",
      "BitsAllocated": 16,
      "BitsStored": 16,
      "BodyPartExamined": "BRAIN",
      "Columns": 656,
      "EchoNumbers": 1,
      "EchoTime": 27.2,
      "EchoTrainLength": 82,
      "FlipAngle": 44.0,
      "HighBit": 15,
      "ImageOrientationPatient": [0.99903582019504, 0.02448404754001, -0.0364412044709, -0.0266841373287, 0.99777089393815, -0.0611653498713],
      "ImagePositionPatient": [-861.28136541307, -915.7998240501, 12.297349580866],
      "ImageType": [
        "ORIGINAL",
        "PRIMARY",
        "M",
        "MB",
        "ND",
        "NORM",
        "MOSAIC"
],
      "ImagedNucleus": "1H",
      "ImagingFrequency": 123.252196,
      "InPlanePhaseEncodingDirection": "COL",
      "MRAcquisitionType": "2D",
      "MagneticFieldStrength": 3.0,
      "Manufacturer": "SIEMENS",
      "ManufacturerModelName": "Prisma",
      "Modality": "MR",
      "NumberOfAverages": 1.0,
      "NumberOfPhaseEncodingSteps": 82,
      "PercentPhaseFieldOfView": 100.0,
      "PercentSampling": 100.0,
      "PerformedProcedureStepStartTime": "105722.669000",
      "PhotometricInterpretation": "MONOCHROME2",
      "PixelBandwidth": 3050.0,
      "PixelRepresentation": 0,
      "PixelSpacing": [2.6829268932343, 2.6829268932343],
      "ProtocolName": "func_run-02_task-social_acq-ap-mb8",
      "RepetitionTime": 460.0,
      "Rows": 656,
      "SAR": 0.11136176960251,
      "SamplesPerPixel": 1,
      "ScanOptions": "FS",
      "ScanningSequence": "EP",
      "SequenceName": "epfid2d1_82",
      "SequenceVariant": [
        "SK",
        "SS"
],
      "SeriesDescription": "func_run-02_task-social_acq-ap-mb8",
      "SeriesNumber": 10,
      "SeriesTime": "111457.895000",
      "SliceLocation": -74.611925831905,
      "SliceThickness": 2.7000000476837,
      "SmallestImagePixelValue": 0,
      "SoftwareVersions": "syngo MR E11",
      "SpacingBetweenSlices": 2.700000034601,
      "SpecificCharacterSet": "ISO_IR 100",
      "StudyID": "4",
      "StudyTime": "105722.591000",
      "TransmitCoilName": "Body",
      "VariableFlipAngleFlag": "N",
      "WindowCenterWidthExplanation": "Algo1"
    },
    "slices": {}
  },
  "time": {
    "samples": {
      "AcquisitionNumber": [1, 2, 3, 4, 5, 6, 7, 8, 9, 10, 11, 12, 13, 14, 15, 16, 17, 18, 19, 20, 21, 22, 23, 24, 25, 26, 27, 28, 29, 30, 31, 32, 33, 34, 35, 36, 37, 38, 39, 40, 41, 42, 43, 44, 45, 46, 47, 48, 49, 50, 51, 52, 53, 54, 55, 56, 57, 58, 59, 60, 61, 62, 63, 64, 65, 66, 67, 68, 69, 70, 71, 72, 73, 74, 75, 76, 77, 78, 79, 80, 81, 82, 83, 84, 85, 86, 87, 88, 89, 90, 91, 92, 93, 94, 95, 96, 97, 98, 99, 100, 101, 102, 103, 104, 105, 106, 107, 108, 109, 110, 111, 112, 113, 114, 115, 116, 117, 118, 119, 120, 121, 122, 123, 124, 125, 126, 127, 128, 129, 130, 131, 132, 133, 134, 135, 136, 137, 138, 139, 140, 141, 142, 143, 144, 145, 146, 147, 148, 149, 150, 151, 152, 153, 154, 155, 156, 157, 158, 159, 160, 161, 162, 163, 164, 165, 166, 167, 168, 169, 170, 171, 172, 173, 174, 175, 176, 177, 178, 179, 180, 181, 182, 183, 184, 185, 186, 187, 188, 189, 190, 191, 192, 193, 194, 195, 196, 197, 198, 199, 200, 201, 202, 203, 204, 205, 206, 207, 208, 209, 210, 211, 212, 213, 214, 215, 216, 217, 218, 219, 220, 221, 222, 223, 224, 225, 226, 227, 228, 229, 230, 231, 232, 233, 234, 235, 236, 237, 238, 239, 240, 241, 242, 243, 244, 245, 246, 247, 248, 249, 250, 251, 252, 253, 254, 255, 256, 257, 258, 259, 260, 261, 262, 263, 264, 265, 266, 267, 268, 269, 270, 271, 272, 273, 274, 275, 276, 277, 278, 279, 280, 281, 282, 283, 284, 285, 286, 287, 288, 289, 290, 291, 292, 293, 294, 295, 296, 297, 298, 299, 300, 301, 302, 303, 304, 305, 306, 307, 308, 309, 310, 311, 312, 313, 314, 315, 316, 317, 318, 319, 320, 321, 322, 323, 324, 325, 326, 327, 328, 329, 330, 331, 332, 333, 334, 335, 336, 337, 338, 339, 340, 341, 342, 343, 344, 345, 346, 347, 348, 349, 350, 351, 352, 353, 354, 355, 356, 357, 358, 359, 360, 361, 362, 363, 364, 365, 366, 367, 368, 369, 370, 371, 372, 373, 374, 375, 376, 377, 378, 379, 380, 381, 382, 383, 384, 385, 386, 387, 388, 389, 390, 391, 392, 393, 394, 395, 396, 397, 398, 399, 400, 401, 402, 403, 404, 405, 406, 407, 408, 409, 410, 411, 412, 413, 414, 415, 416, 417, 418, 419, 420, 421, 422, 423, 424, 425, 426, 427, 428, 429, 430, 431, 432, 433, 434, 435, 436, 437, 438, 439, 440, 441, 442, 443, 444, 445, 446, 447, 448, 449, 450, 451, 452, 453, 454, 455, 456, 457, 458, 459, 460, 461, 462, 463, 464, 465, 466, 467, 468, 469, 470, 471, 472, 473, 474, 475, 476, 477, 478, 479, 480, 481, 482, 483, 484, 485, 486, 487, 488, 489, 490, 491, 492, 493, 494, 495, 496, 497, 498, 499, 500, 501, 502, 503, 504, 505, 506, 507, 508, 509, 510, 511, 512, 513, 514, 515, 516, 517, 518, 519, 520, 521, 522, 523, 524, 525, 526, 527, 528, 529, 530, 531, 532, 533, 534, 535, 536, 537, 538, 539, 540, 541, 542, 543, 544, 545, 546, 547, 548, 549, 550, 551, 552, 553, 554, 555, 556, 557, 558, 559, 560, 561, 562, 563, 564, 565, 566, 567, 568, 569, 570, 571, 572, 573, 574, 575, 576, 577, 578, 579, 580, 581, 582, 583, 584, 585, 586, 587, 588, 589, 590, 591, 592, 593, 594, 595, 596, 597, 598, 599, 600, 601, 602, 603, 604, 605, 606, 607, 608, 609, 610, 611, 612, 613, 614, 615, 616, 617, 618, 619, 620, 621, 622, 623, 624, 625, 626, 627, 628, 629, 630, 631, 632, 633, 634, 635, 636, 637, 638, 639, 640, 641, 642, 643, 644, 645, 646, 647, 648, 649, 650, 651, 652, 653, 654, 655, 656, 657, 658, 659, 660, 661, 662, 663, 664, 665, 666, 667, 668, 669, 670, 671, 672, 673, 674, 675, 676, 677, 678, 679, 680, 681, 682, 683, 684, 685, 686, 687, 688, 689, 690, 691, 692, 693, 694, 695, 696, 697, 698, 699, 700, 701, 702, 703, 704, 705, 706, 707, 708, 709, 710, 711, 712, 713, 714, 715, 716, 717, 718, 719, 720, 721, 722, 723, 724, 725, 726, 727, 728, 729, 730, 731, 732, 733, 734, 735, 736, 737, 738, 739, 740, 741, 742, 743, 744, 745, 746, 747, 748, 749, 750, 751, 752, 753, 754, 755, 756, 757, 758, 759, 760, 761, 762, 763, 764, 765, 766, 767, 768, 769, 770, 771, 772, 773, 774, 775, 776, 777, 778, 779, 780, 781, 782, 783, 784, 785, 786, 787, 788, 789, 790, 791, 792, 793, 794, 795, 796, 797, 798, 799, 800, 801, 802, 803, 804, 805, 806, 807, 808, 809, 810, 811, 812, 813, 814, 815, 816, 817, 818, 819, 820, 821, 822, 823, 824, 825, 826, 827, 828, 829, 830, 831, 832, 833, 834, 835, 836, 837, 838, 839, 840, 841, 842, 843, 844, 845, 846, 847, 848, 849, 850, 851, 852, 853, 854, 855, 856, 857, 858, 859, 860, 861, 862, 863, 864, 865, 866, 867, 868, 869, 870, 871, 872],
      "AcquisitionTime": ["111447.845000", "111448.305000", "111448.765000", "111449.225000", "111449.685000", "111450.145000", "111450.605000", "111451.065000", "111451.525000", "111451.985000", "111452.445000", "111452.905000", "111453.365000", "111453.825000", "111454.285000", "111454.745000", "111455.205000", "111455.665000", "111456.125000", "111456.585000", "111457.045000", "111457.505000", "111457.965000", "111458.425000", "111458.885000", "111459.345000", "111459.805000", "111500.265000", "111500.725000", "111501.185000", "111501.645000", "111502.105000", "111502.565000", "111503.025000", "111503.485000", "111503.945000", "111504.405000", "111504.865000", "111505.325000", "111505.785000", "111506.245000", "111506.705000", "111507.165000", "111507.625000", "111508.085000", "111508.545000", "111509.005000", "111509.465000", "111509.925000", "111510.385000", "111510.845000", "111511.305000", "111511.765000", "111512.225000", "111512.685000", "111513.145000", "111513.605000", "111514.065000", "111514.525000", "111514.985000", "111515.445000", "111515.905000", "111516.365000", "111516.825000", "111517.285000", "111517.745000", "111518.205000", "111518.665000", "111519.125000", "111519.585000", "111520.045000", "111520.505000", "111520.965000", "111521.425000", "111521.885000", "111522.345000", "111522.805000", "111523.265000", "111523.725000", "111524.185000", "111524.645000", "111525.105000", "111525.565000", "111526.025000", "111526.485000", "111526.945000", "111527.405000", "111527.865000", "111528.325000", "111528.785000", "111529.245000", "111529.705000", "111530.165000", "111530.625000", "111531.085000", "111531.545000", "111532.005000", "111532.465000", "111532.925000", "111533.385000", "111533.845000", "111534.305000", "111534.765000", "111535.225000", "111535.685000", "111536.145000", "111536.605000", "111537.065000", "111537.525000", "111537.985000", "111538.445000", "111538.905000", "111539.365000", "111539.825000", "111540.285000", "111540.745000", "111541.205000", "111541.665000", "111542.125000", "111542.585000", "111543.045000", "111543.505000", "111543.965000", "111544.425000", "111544.885000", "111545.345000", "111545.805000", "111546.265000", "111546.725000", "111547.185000", "111547.645000", "111548.105000", "111548.565000", "111549.025000", "111549.485000", "111549.945000", "111550.405000", "111550.865000", "111551.325000", "111551.785000", "111552.245000", "111552.705000", "111553.165000", "111553.625000", "111554.085000", "111554.545000", "111555.005000", "111555.465000", "111555.925000", "111556.385000", "111556.845000", "111557.305000", "111557.765000", "111558.225000", "111558.685000", "111559.145000", "111559.605000", "111600.065000", "111600.525000", "111600.985000", "111601.445000", "111601.905000", "111602.365000", "111602.825000", "111603.285000", "111603.745000", "111604.205000", "111604.665000", "111605.125000", "111605.585000", "111606.045000", "111606.505000", "111606.965000", "111607.425000", "111607.885000", "111608.345000", "111608.805000", "111609.265000", "111609.725000", "111610.185000", "111610.645000", "111611.105000", "111611.565000", "111612.025000", "111612.485000", "111612.945000", "111613.405000", "111613.865000", "111614.325000", "111614.785000", "111615.245000", "111615.705000", "111616.165000", "111616.625000", "111617.085000", "111617.545000", "111618.005000", "111618.465000", "111618.925000", "111619.385000", "111619.845000", "111620.305000", "111620.765000", "111621.225000", "111621.685000", "111622.145000", "111622.605000", "111623.065000", "111623.525000", "111623.985000", "111624.445000", "111624.905000", "111625.365000", "111625.825000", "111626.285000", "111626.745000", "111627.205000", "111627.665000", "111628.125000", "111628.585000", "111629.045000", "111629.505000", "111629.965000", "111630.425000", "111630.885000", "111631.345000", "111631.805000", "111632.265000", "111632.725000", "111633.185000", "111633.645000", "111634.105000", "111634.565000", "111635.025000", "111635.485000", "111635.945000", "111636.405000", "111636.865000", "111637.325000", "111637.785000", "111638.245000", "111638.705000", "111639.165000", "111639.625000", "111640.085000", "111640.545000", "111641.005000", "111641.465000", "111641.925000", "111642.385000", "111642.845000", "111643.305000", "111643.765000", "111644.225000", "111644.685000", "111645.145000", "111645.605000", "111646.065000", "111646.525000", "111646.985000", "111647.445000", "111647.905000", "111648.365000", "111648.825000", "111649.285000", "111649.745000", "111650.205000", "111650.665000", "111651.125000", "111651.585000", "111652.045000", "111652.505000", "111652.965000", "111653.425000", "111653.885000", "111654.345000", "111654.805000", "111655.265000", "111655.725000", "111656.185000", "111656.645000", "111657.105000", "111657.565000", "111658.025000", "111658.485000", "111658.945000", "111659.405000", "111659.865000", "111700.325000", "111700.785000", "111701.245000", "111701.705000", "111702.165000", "111702.625000", "111703.085000", "111703.545000", "111704.005000", "111704.465000", "111704.925000", "111705.385000", "111705.845000", "111706.305000", "111706.765000", "111707.225000", "111707.685000", "111708.145000", "111708.605000", "111709.065000", "111709.525000", "111709.985000", "111710.445000", "111710.905000", "111711.365000", "111711.825000", "111712.285000", "111712.745000", "111713.205000", "111713.665000", "111714.125000", "111714.585000", "111715.045000", "111715.505000", "111715.965000", "111716.425000", "111716.885000", "111717.345000", "111717.805000", "111718.265000", "111718.725000", "111719.185000", "111719.645000", "111720.105000", "111720.565000", "111721.025000", "111721.485000", "111721.945000", "111722.405000", "111722.865000", "111723.325000", "111723.785000", "111724.245000", "111724.705000", "111725.165000", "111725.625000", "111726.085000", "111726.545000", "111727.005000", "111727.465000", "111727.925000", "111728.385000", "111728.845000", "111729.305000", "111729.765000", "111730.225000", "111730.685000", "111731.145000", "111731.605000", "111732.065000", "111732.525000", "111732.985000", "111733.445000", "111733.905000", "111734.365000", "111734.825000", "111735.285000", "111735.745000", "111736.205000", "111736.665000", "111737.125000", "111737.585000", "111738.045000", "111738.505000", "111738.965000", "111739.425000", "111739.885000", "111740.345000", "111740.805000", "111741.265000", "111741.725000", "111742.185000", "111742.645000", "111743.105000", "111743.565000", "111744.025000", "111744.485000", "111744.945000", "111745.405000", "111745.865000", "111746.325000", "111746.785000", "111747.245000", "111747.705000", "111748.165000", "111748.625000", "111749.085000", "111749.545000", "111750.005000", "111750.465000", "111750.925000", "111751.385000", "111751.845000", "111752.305000", "111752.765000", "111753.225000", "111753.685000", "111754.145000", "111754.605000", "111755.065000", "111755.525000", "111755.985000", "111756.445000", "111756.905000", "111757.365000", "111757.825000", "111758.285000", "111758.745000", "111759.205000", "111759.665000", "111800.125000", "111800.585000", "111801.045000", "111801.505000", "111801.965000", "111802.425000", "111802.885000", "111803.345000", "111803.805000", "111804.265000", "111804.725000", "111805.185000", "111805.645000", "111806.105000", "111806.565000", "111807.025000", "111807.485000", "111807.945000", "111808.405000", "111808.865000", "111809.325000", "111809.785000", "111810.245000", "111810.705000", "111811.165000", "111811.625000", "111812.085000", "111812.545000", "111813.005000", "111813.465000", "111813.925000", "111814.385000", "111814.845000", "111815.305000", "111815.765000", "111816.225000", "111816.685000", "111817.145000", "111817.605000", "111818.065000", "111818.525000", "111818.985000", "111819.445000", "111819.905000", "111820.365000", "111820.825000", "111821.285000", "111821.745000", "111822.205000", "111822.665000", "111823.125000", "111823.585000", "111824.045000", "111824.505000", "111824.965000", "111825.425000", "111825.885000", "111826.345000", "111826.805000", "111827.265000", "111827.725000", "111828.185000", "111828.645000", "111829.105000", "111829.565000", "111830.025000", "111830.485000", "111830.945000", "111831.405000", "111831.865000", "111832.325000", "111832.785000", "111833.245000", "111833.705000", "111834.165000", "111834.625000", "111835.085000", "111835.545000", "111836.005000", "111836.465000", "111836.925000", "111837.385000", "111837.845000", "111838.305000", "111838.765000", "111839.225000", "111839.685000", "111840.145000", "111840.605000", "111841.065000", "111841.525000", "111841.985000", "111842.445000", "111842.905000", "111843.365000", "111843.825000", "111844.285000", "111844.745000", "111845.205000", "111845.665000", "111846.125000", "111846.585000", "111847.045000", "111847.505000", "111847.965000", "111848.425000", "111848.885000", "111849.345000", "111849.805000", "111850.265000", "111850.725000", "111851.185000", "111851.645000", "111852.105000", "111852.565000", "111853.025000", "111853.485000", "111853.945000", "111854.405000", "111854.865000", "111855.325000", "111855.785000", "111856.245000", "111856.705000", "111857.165000", "111857.625000", "111858.085000", "111858.545000", "111859.005000", "111859.465000", "111859.925000", "111900.385000", "111900.845000", "111901.305000", "111901.765000", "111902.225000", "111902.685000", "111903.145000", "111903.605000", "111904.065000", "111904.525000", "111904.985000", "111905.445000", "111905.905000", "111906.365000", "111906.825000", "111907.285000", "111907.745000", "111908.205000", "111908.665000", "111909.125000", "111909.585000", "111910.045000", "111910.505000", "111910.965000", "111911.425000", "111911.885000", "111912.345000", "111912.805000", "111913.265000", "111913.725000", "111914.185000", "111914.645000", "111915.105000", "111915.565000", "111916.025000", "111916.485000", "111916.945000", "111917.405000", "111917.865000", "111918.325000", "111918.785000", "111919.245000", "111919.705000", "111920.165000", "111920.625000", "111921.085000", "111921.545000", "111922.005000", "111922.465000", "111922.925000", "111923.385000", "111923.845000", "111924.305000", "111924.765000", "111925.225000", "111925.685000", "111926.145000", "111926.605000", "111927.065000", "111927.525000", "111927.985000", "111928.445000", "111928.905000", "111929.365000", "111929.825000", "111930.285000", "111930.745000", "111931.205000", "111931.665000", "111932.125000", "111932.585000", "111933.045000", "111933.505000", "111933.965000", "111934.425000", "111934.885000", "111935.345000", "111935.805000", "111936.265000", "111936.725000", "111937.185000", "111937.645000", "111938.105000", "111938.565000", "111939.025000", "111939.485000", "111939.945000", "111940.405000", "111940.865000", "111941.325000", "111941.785000", "111942.245000", "111942.705000", "111943.165000", "111943.625000", "111944.085000", "111944.545000", "111945.005000", "111945.465000", "111945.925000", "111946.385000", "111946.845000", "111947.305000", "111947.765000", "111948.225000", "111948.685000", "111949.145000", "111949.605000", "111950.065000", "111950.525000", "111950.985000", "111951.445000", "111951.905000", "111952.365000", "111952.825000", "111953.285000", "111953.745000", "111954.205000", "111954.665000", "111955.125000", "111955.585000", "111956.045000", "111956.505000", "111956.965000", "111957.425000", "111957.885000", "111958.345000", "111958.805000", "111959.265000", "111959.725000", "112000.185000", "112000.645000", "112001.105000", "112001.565000", "112002.025000", "112002.485000", "112002.945000", "112003.405000", "112003.865000", "112004.325000", "112004.785000", "112005.245000", "112005.705000", "112006.165000", "112006.625000", "112007.085000", "112007.545000", "112008.005000", "112008.465000", "112008.925000", "112009.385000", "112009.845000", "112010.305000", "112010.765000", "112011.225000", "112011.685000", "112012.145000", "112012.605000", "112013.065000", "112013.525000", "112013.985000", "112014.445000", "112014.905000", "112015.365000", "112015.825000", "112016.285000", "112016.745000", "112017.205000", "112017.665000", "112018.125000", "112018.585000", "112019.045000", "112019.505000", "112019.965000", "112020.425000", "112020.885000", "112021.345000", "112021.805000", "112022.265000", "112022.725000", "112023.185000", "112023.645000", "112024.105000", "112024.565000", "112025.025000", "112025.485000", "112025.945000", "112026.405000", "112026.865000", "112027.325000", "112027.785000", "112028.245000", "112028.705000", "112029.165000", "112029.625000", "112030.085000", "112030.545000", "112031.005000", "112031.465000", "112031.925000", "112032.385000", "112032.845000", "112033.305000", "112033.765000", "112034.225000", "112034.685000", "112035.145000", "112035.605000", "112036.065000", "112036.525000", "112036.985000", "112037.445000", "112037.905000", "112038.365000", "112038.825000", "112039.285000", "112039.745000", "112040.205000", "112040.665000", "112041.125000", "112041.585000", "112042.045000", "112042.505000", "112042.965000", "112043.425000", "112043.885000", "112044.345000", "112044.805000", "112045.265000", "112045.725000", "112046.185000", "112046.645000", "112047.105000", "112047.565000", "112048.025000", "112048.485000", "112048.945000", "112049.405000", "112049.865000", "112050.325000", "112050.785000", "112051.245000", "112051.705000", "112052.165000", "112052.625000", "112053.085000", "112053.545000", "112054.005000", "112054.465000", "112054.925000", "112055.385000", "112055.845000", "112056.305000", "112056.765000", "112057.225000", "112057.685000", "112058.145000", "112058.605000", "112059.065000", "112059.525000", "112059.985000", "112100.445000", "112100.905000", "112101.365000", "112101.825000", "112102.285000", "112102.745000", "112103.205000", "112103.665000", "112104.125000", "112104.585000", "112105.045000", "112105.505000", "112105.965000", "112106.425000", "112106.885000", "112107.345000", "112107.805000", "112108.265000", "112108.725000", "112109.185000", "112109.645000", "112110.105000", "112110.565000", "112111.025000", "112111.485000", "112111.945000", "112112.405000", "112112.865000", "112113.325000", "112113.785000", "112114.245000", "112114.705000", "112115.165000", "112115.625000", "112116.085000", "112116.545000", "112117.005000", "112117.465000", "112117.925000", "112118.385000", "112118.845000", "112119.305000", "112119.765000", "112120.225000", "112120.685000", "112121.145000", "112121.605000", "112122.065000", "112122.525000", "112122.985000", "112123.445000", "112123.905000", "112124.365000", "112124.825000", "112125.285000", "112125.745000", "112126.205000", "112126.665000", "112127.125000", "112127.585000", "112128.045000", "112128.505000"],
