{
  "AcquisitionMatrixPE": 82,
  "AcquisitionNumber": 1,
  "AcquisitionTime": "12:29:46.215000",
  "BandwidthPerPixelPhaseEncode": 24.888,
  "BaseResolution": 82,
  "BodyPartExamined": "BRAIN",
  "ConsistencyInfo": "N4_VE11E_LATEST_20181129",
  "ConversionSoftware": "dcm2niix",
  "ConversionSoftwareVersion": "v1.0.20201102",
  "DerivedVendorReportedEchoSpacing": 0.00049,
  "DeviceSerialNumber": "66112",
  "DwellTime": 2e-06,
  "EchoTime": 0.0272,
  "EchoTrainLength": 82,
  "EffectiveEchoSpacing": 0.00049,
  "FlipAngle": 44,
  "ImageComments": "Unaliased MB8/PE3",
  "ImageOrientationPatientDICOM": [0.998763, 0.000372362, -0.0497289, -0.00400931, 0.99732, -0.0730558],
  "ImageType": [
    "ORIGINAL",
    "PRIMARY",
    "M",
    "MB",
    "ND",
    "NORM",
    "MOSAIC"
],
  "ImagingFrequency": 123.252,
  "InPlanePhaseEncodingDirectionDICOM": "COL",
  "InstitutionAddress": "Maynard 3,Hanover,NH,US,03755",
  "InstitutionName": "Dartmouth College - PBS",
  "InstitutionalDepartmentName": "Department",
  "MRAcquisitionType": "2D",
  "MagneticFieldStrength": 3,
  "Manufacturer": "Siemens",
  "ManufacturersModelName": "Prisma",
  "Modality": "MR",
  "MultibandAccelerationFactor": 8,
  "PartialFourier": 1,
  "PatientPosition": "HFS",
  "PercentPhaseFOV": 100,
  "PercentSampling": 100,
  "PhaseEncodingDirection": "j-",
  "PhaseEncodingSteps": 82,
  "PhaseResolution": 1,
  "PixelBandwidth": 3050,
  "ProcedureStepDescription": "Wager_Wager^1076_spacetop",
  "ProtocolName": "func_run-03_task-alignvideo_acq-ap-mb8",
  "PulseSequenceDetails": "%CustomerSeq%\\cmrr_mbep2d_bold",
  "ReceiveCoilActiveElements": "HEA;HEP",
  "ReceiveCoilName": "Head_32",
  "ReconMatrixPE": 82,
  "RepetitionTime": 0.46,
  "SAR": 0.111487,
  "ScanOptions": "FS",
  "ScanningSequence": "EP",
  "SequenceName": "epfid2d1_82",
  "SequenceVariant": "SK\\SS",
  "SeriesDescription": "func_run-03_task-alignvideo_acq-ap-mb8",
  "SeriesNumber": 32,
  "ShimSetting": [4129, -7693, -7254, 567, -78, 66, -42, 92],
  "SliceThickness": 2.7,
  "SliceTiming": [0, 0.25, 0.0625, 0.315, 0.125, 0.3775, 0.1875, 0, 0.25, 0.0625, 0.315, 0.125, 0.3775, 0.1875, 0, 0.25, 0.0625, 0.315, 0.125, 0.3775, 0.1875, 0, 0.25, 0.0625, 0.315, 0.125, 0.3775, 0.1875, 0, 0.25, 0.0625, 0.315, 0.125, 0.3775, 0.1875, 0, 0.25, 0.0625, 0.315, 0.125, 0.3775, 0.1875, 0, 0.25, 0.0625, 0.315, 0.125, 0.3775, 0.1875, 0, 0.25, 0.0625, 0.315, 0.125, 0.3775, 0.1875],
  "SoftwareVersions": "syngo MR E11",
  "SpacingBetweenSlices": 2.7,
  "StationName": "AWP66112",
  "TaskName": "alignvideo",
  "TotalReadoutTime": 0.03969,
  "TxRefAmp": 258.552,
  "WipMemBlock": "bf50b850-5154-4c43-8336-2a9d98d88798||Sequence: R016 ve11e/master r/434b28f1; Aug  7 2019 18:53:46 by eja",
  "dcmmeta_affine": [
    [-2.6796071529388428, -0.01075669378042221, -0.13383477926254272, 117.75032806396484],
    [-0.0009990191319957376, 2.67573618888855, -0.19754503667354584, -90.2593994140625],
    [-0.13341906666755676, 0.1960034817457199, 2.6894357204437256, -75.2578125],
    [0.0, 0.0, 0.0, 1.0]
],
  "dcmmeta_reorient_transform": [
    [0.0, -1.0, 0.0, 81.0],
    [1.0, 0.0, 0.0, 0.0],
    [0.0, 0.0, 1.0, 0.0],
    [0.0, 0.0, 0.0, 1.0]
],
  "dcmmeta_shape": [82, 82, 56, 1065],
  "dcmmeta_slice_dim": 2,
  "dcmmeta_version": 0.6,
  "global": {
    "const": {
      "AccessionNumber": "A003936",
      "AcquisitionMatrix": [82, 0, 0, 82],
      "AngioFlag": "N",
      "BitsAllocated": 16,
      "BitsStored": 16,
      "BodyPartExamined": "BRAIN",
      "Columns": 656,
      "EchoNumbers": 1,
      "EchoTime": 27.2,
      "EchoTrainLength": 82,
      "FlipAngle": 44.0,
      "HighBit": 15,
      "ImageOrientationPatient": [0.99876268219511, 0.00037236166923, -0.0497289251967, -0.0040093129604, 0.99731979292289, -0.073055842024],
      "ImagePositionPatient": [-882.83914491218, -894.69820289572, 35.162742200569],
      "ImageType": [
        "ORIGINAL",
        "PRIMARY",
        "M",
        "MB",
        "ND",
        "NORM",
        "MOSAIC"
],
      "ImagedNucleus": "1H",
      "ImagingFrequency": 123.252213,
      "InPlanePhaseEncodingDirection": "COL",
      "MRAcquisitionType": "2D",
      "MagneticFieldStrength": 3.0,
      "Manufacturer": "SIEMENS",
      "ManufacturerModelName": "Prisma",
      "Modality": "MR",
      "NumberOfAverages": 1.0,
      "NumberOfPhaseEncodingSteps": 82,
      "PercentPhaseFieldOfView": 100.0,
      "PercentSampling": 100.0,
      "PerformedProcedureStepStartTime": "105722.669000",
      "PhotometricInterpretation": "MONOCHROME2",
      "PixelBandwidth": 3050.0,
      "PixelRepresentation": 0,
      "PixelSpacing": [2.6829268932343, 2.6829268932343],
      "ProtocolName": "func_run-03_task-alignvideo_acq-ap-mb8",
      "RepetitionTime": 460.0,
      "Rows": 656,
      "SAR": 0.11148739936983,
      "SamplesPerPixel": 1,
      "ScanOptions": "FS",
      "ScanningSequence": "EP",
      "SequenceName": "epfid2d1_82",
      "SequenceVariant": [
        "SK",
        "SS"
],
      "SeriesDescription": "func_run-03_task-alignvideo_acq-ap-mb8",
      "SeriesNumber": 32,
      "SeriesTime": "122957.802000",
      "SliceLocation": -74.196236921959,
      "SliceThickness": 2.7000000476837,
      "SmallestImagePixelValue": 0,
      "SoftwareVersions": "syngo MR E11",
      "SpacingBetweenSlices": 2.6999999796268,
      "SpecificCharacterSet": "ISO_IR 100",
      "StudyID": "4",
      "StudyTime": "105722.591000",
      "TransmitCoilName": "Body",
      "VariableFlipAngleFlag": "N",
      "WindowCenterWidthExplanation": "Algo1"
    },
    "slices": {}
  },
  "time": {
    "samples": {
      "AcquisitionNumber": [1, 2, 3, 4, 5, 6, 7, 8, 9, 10, 11, 12, 13, 14, 15, 16, 17, 18, 19, 20, 21, 22, 23, 24, 25, 26, 27, 28, 29, 30, 31, 32, 33, 34, 35, 36, 37, 38, 39, 40, 41, 42, 43, 44, 45, 46, 47, 48, 49, 50, 51, 52, 53, 54, 55, 56, 57, 58, 59, 60, 61, 62, 63, 64, 65, 66, 67, 68, 69, 70, 71, 72, 73, 74, 75, 76, 77, 78, 79, 80, 81, 82, 83, 84, 85, 86, 87, 88, 89, 90, 91, 92, 93, 94, 95, 96, 97, 98, 99, 100, 101, 102, 103, 104, 105, 106, 107, 108, 109, 110, 111, 112, 113, 114, 115, 116, 117, 118, 119, 120, 121, 122, 123, 124, 125, 126, 127, 128, 129, 130, 131, 132, 133, 134, 135, 136, 137, 138, 139, 140, 141, 142, 143, 144, 145, 146, 147, 148, 149, 150, 151, 152, 153, 154, 155, 156, 157, 158, 159, 160, 161, 162, 163, 164, 165, 166, 167, 168, 169, 170, 171, 172, 173, 174, 175, 176, 177, 178, 179, 180, 181, 182, 183, 184, 185, 186, 187, 188, 189, 190, 191, 192, 193, 194, 195, 196, 197, 198, 199, 200, 201, 202, 203, 204, 205, 206, 207, 208, 209, 210, 211, 212, 213, 214, 215, 216, 217, 218, 219, 220, 221, 222, 223, 224, 225, 226, 227, 228, 229, 230, 231, 232, 233, 234, 235, 236, 237, 238, 239, 240, 241, 242, 243, 244, 245, 246, 247, 248, 249, 250, 251, 252, 253, 254, 255, 256, 257, 258, 259, 260, 261, 262, 263, 264, 265, 266, 267, 268, 269, 270, 271, 272, 273, 274, 275, 276, 277, 278, 279, 280, 281, 282, 283, 284, 285, 286, 287, 288, 289, 290, 291, 292, 293, 294, 295, 296, 297, 298, 299, 300, 301, 302, 303, 304, 305, 306, 307, 308, 309, 310, 311, 312, 313, 314, 315, 316, 317, 318, 319, 320, 321, 322, 323, 324, 325, 326, 327, 328, 329, 330, 331, 332, 333, 334, 335, 336, 337, 338, 339, 340, 341, 342, 343, 344, 345, 346, 347, 348, 349, 350, 351, 352, 353, 354, 355, 356, 357, 358, 359, 360, 361, 362, 363, 364, 365, 366, 367, 368, 369, 370, 371, 372, 373, 374, 375, 376, 377, 378, 379, 380, 381, 382, 383, 384, 385, 386, 387, 388, 389, 390, 391, 392, 393, 394, 395, 396, 397, 398, 399, 400, 401, 402, 403, 404, 405, 406, 407, 408, 409, 410, 411, 412, 413, 414, 415, 416, 417, 418, 419, 420, 421, 422, 423, 424, 425, 426, 427, 428, 429, 430, 431, 432, 433, 434, 435, 436, 437, 438, 439, 440, 441, 442, 443, 444, 445, 446, 447, 448, 449, 450, 451, 452, 453, 454, 455, 456, 457, 458, 459, 460, 461, 462, 463, 464, 465, 466, 467, 468, 469, 470, 471, 472, 473, 474, 475, 476, 477, 478, 479, 480, 481, 482, 483, 484, 485, 486, 487, 488, 489, 490, 491, 492, 493, 494, 495, 496, 497, 498, 499, 500, 501, 502, 503, 504, 505, 506, 507, 508, 509, 510, 511, 512, 513, 514, 515, 516, 517, 518, 519, 520, 521, 522, 523, 524, 525, 526, 527, 528, 529, 530, 531, 532, 533, 534, 535, 536, 537, 538, 539, 540, 541, 542, 543, 544, 545, 546, 547, 548, 549, 550, 551, 552, 553, 554, 555, 556, 557, 558, 559, 560, 561, 562, 563, 564, 565, 566, 567, 568, 569, 570, 571, 572, 573, 574, 575, 576, 577, 578, 579, 580, 581, 582, 583, 584, 585, 586, 587, 588, 589, 590, 591, 592, 593, 594, 595, 596, 597, 598, 599, 600, 601, 602, 603, 604, 605, 606, 607, 608, 609, 610, 611, 612, 613, 614, 615, 616, 617, 618, 619, 620, 621, 622, 623, 624, 625, 626, 627, 628, 629, 630, 631, 632, 633, 634, 635, 636, 637, 638, 639, 640, 641, 642, 643, 644, 645, 646, 647, 648, 649, 650, 651, 652, 653, 654, 655, 656, 657, 658, 659, 660, 661, 662, 663, 664, 665, 666, 667, 668, 669, 670, 671, 672, 673, 674, 675, 676, 677, 678, 679, 680, 681, 682, 683, 684, 685, 686, 687, 688, 689, 690, 691, 692, 693, 694, 695, 696, 697, 698, 699, 700, 701, 702, 703, 704, 705, 706, 707, 708, 709, 710, 711, 712, 713, 714, 715, 716, 717, 718, 719, 720, 721, 722, 723, 724, 725, 726, 727, 728, 729, 730, 731, 732, 733, 734, 735, 736, 737, 738, 739, 740, 741, 742, 743, 744, 745, 746, 747, 748, 749, 750, 751, 752, 753, 754, 755, 756, 757, 758, 759, 760, 761, 762, 763, 764, 765, 766, 767, 768, 769, 770, 771, 772, 773, 774, 775, 776, 777, 778, 779, 780, 781, 782, 783, 784, 785, 786, 787, 788, 789, 790, 791, 792, 793, 794, 795, 796, 797, 798, 799, 800, 801, 802, 803, 804, 805, 806, 807, 808, 809, 810, 811, 812, 813, 814, 815, 816, 817, 818, 819, 820, 821, 822, 823, 824, 825, 826, 827, 828, 829, 830, 831, 832, 833, 834, 835, 836, 837, 838, 839, 840, 841, 842, 843, 844, 845, 846, 847, 848, 849, 850, 851, 852, 853, 854, 855, 856, 857, 858, 859, 860, 861, 862, 863, 864, 865, 866, 867, 868, 869, 870, 871, 872, 873, 874, 875, 876, 877, 878, 879, 880, 881, 882, 883, 884, 885, 886, 887, 888, 889, 890, 891, 892, 893, 894, 895, 896, 897, 898, 899, 900, 901, 902, 903, 904, 905, 906, 907, 908, 909, 910, 911, 912, 913, 914, 915, 916, 917, 918, 919, 920, 921, 922, 923, 924, 925, 926, 927, 928, 929, 930, 931, 932, 933, 934, 935, 936, 937, 938, 939, 940, 941, 942, 943, 944, 945, 946, 947, 948, 949, 950, 951, 952, 953, 954, 955, 956, 957, 958, 959, 960, 961, 962, 963, 964, 965, 966, 967, 968, 969, 970, 971, 972, 973, 974, 975, 976, 977, 978, 979, 980, 981, 982, 983, 984, 985, 986, 987, 988, 989, 990, 991, 992, 993, 994, 995, 996, 997, 998, 999, 1000, 1001, 1002, 1003, 1004, 1005, 1006, 1007, 1008, 1009, 1010, 1011, 1012, 1013, 1014, 1015, 1016, 1017, 1018, 1019, 1020, 1021, 1022, 1023, 1024, 1025, 1026, 1027, 1028, 1029, 1030, 1031, 1032, 1033, 1034, 1035, 1036, 1037, 1038, 1039, 1040, 1041, 1042, 1043, 1044, 1045, 1046, 1047, 1048, 1049, 1050, 1051, 1052, 1053, 1054, 1055, 1056, 1057, 1058, 1059, 1060, 1061, 1062, 1063, 1064, 1065],
      "AcquisitionTime": ["122946.215000", "122946.675000", "122947.135000", "122947.595000", "122948.055000", "122948.515000", "122948.975000", "122949.435000", "122949.895000", "122950.355000", "122950.815000", "122951.275000", "122951.735000", "122952.195000", "122952.655000", "122953.115000", "122953.575000", "122954.035000", "122954.495000", "122954.955000", "122955.415000", "122955.875000", "122956.335000", "122956.795000", "122957.255000", "122957.715000", "122958.175000", "122958.635000", "122959.095000", "122959.555000", "123000.015000", "123000.475000", "123000.935000", "123001.395000", "123001.855000", "123002.315000", "123002.775000", "123003.235000", "123003.695000", "123004.155000", "123004.615000", "123005.075000", "123005.535000", "123005.995000", "123006.455000", "123006.915000", "123007.375000", "123007.835000", "123008.295000", "123008.755000", "123009.215000", "123009.675000", "123010.135000", "123010.595000", "123011.055000", "123011.515000", "123011.975000", "123012.435000", "123012.895000", "123013.355000", "123013.815000", "123014.275000", "123014.735000", "123015.195000", "123015.655000", "123016.115000", "123016.575000", "123017.035000", "123017.495000", "123017.955000", "123018.415000", "123018.875000", "123019.335000", "123019.795000", "123020.255000", "123020.715000", "123021.175000", "123021.635000", "123022.095000", "123022.555000", "123023.015000", "123023.475000", "123023.935000", "123024.395000", "123024.855000", "123025.315000", "123025.775000", "123026.235000", "123026.695000", "123027.155000", "123027.615000", "123028.075000", "123028.535000", "123028.995000", "123029.455000", "123029.915000", "123030.375000", "123030.835000", "123031.295000", "123031.755000", "123032.215000", "123032.675000", "123033.135000", "123033.595000", "123034.055000", "123034.515000", "123034.975000", "123035.435000", "123035.895000", "123036.355000", "123036.815000", "123037.275000", "123037.735000", "123038.195000", "123038.655000", "123039.115000", "123039.575000", "123040.035000", "123040.495000", "123040.955000", "123041.415000", "123041.875000", "123042.335000", "123042.795000", "123043.255000", "123043.715000", "123044.175000", "123044.635000", "123045.095000", "123045.555000", "123046.015000", "123046.475000", "123046.935000", "123047.395000", "123047.855000", "123048.315000", "123048.775000", "123049.235000", "123049.695000", "123050.155000", "123050.615000", "123051.075000", "123051.535000", "123051.995000", "123052.455000", "123052.915000", "123053.375000", "123053.835000", "123054.295000", "123054.755000", "123055.215000", "123055.675000", "123056.135000", "123056.595000", "123057.055000", "123057.515000", "123057.975000", "123058.435000", "123058.895000", "123059.355000", "123059.815000", "123100.275000", "123100.735000", "123101.195000", "123101.655000", "123102.115000", "123102.575000", "123103.035000", "123103.495000", "123103.955000", "123104.415000", "123104.875000", "123105.335000", "123105.795000", "123106.255000", "123106.715000", "123107.175000", "123107.635000", "123108.095000", "123108.555000", "123109.015000", "123109.475000", "123109.935000", "123110.395000", "123110.855000", "123111.315000", "123111.775000", "123112.235000", "123112.695000", "123113.155000", "123113.615000", "123114.075000", "123114.535000", "123114.995000", "123115.455000", "123115.915000", "123116.375000", "123116.835000", "123117.295000", "123117.755000", "123118.215000", "123118.675000", "123119.135000", "123119.595000", "123120.055000", "123120.515000", "123120.975000", "123121.435000", "123121.895000", "123122.355000", "123122.815000", "123123.275000", "123123.735000", "123124.195000", "123124.655000", "123125.115000", "123125.575000", "123126.035000", "123126.495000", "123126.955000", "123127.415000", "123127.875000", "123128.335000", "123128.795000", "123129.255000", "123129.715000", "123130.175000", "123130.635000", "123131.095000", "123131.555000", "123132.015000", "123132.475000", "123132.935000", "123133.395000", "123133.855000", "123134.315000", "123134.775000", "123135.235000", "123135.695000", "123136.155000", "123136.615000", "123137.075000", "123137.535000", "123137.995000", "123138.455000", "123138.915000", "123139.375000", "123139.835000", "123140.295000", "123140.755000", "123141.215000", "123141.675000", "123142.135000", "123142.595000", "123143.055000", "123143.515000", "123143.975000", "123144.435000", "123144.895000", "123145.355000", "123145.815000", "123146.275000", "123146.735000", "123147.195000", "123147.655000", "123148.115000", "123148.575000", "123149.035000", "123149.495000", "123149.955000", "123150.415000", "123150.875000", "123151.335000", "123151.795000", "123152.255000", "123152.715000", "123153.175000", "123153.635000", "123154.095000", "123154.555000", "123155.015000", "123155.475000", "123155.935000", "123156.395000", "123156.855000", "123157.315000", "123157.775000", "123158.235000", "123158.695000", "123159.155000", "123159.615000", "123200.075000", "123200.535000", "123200.995000", "123201.455000", "123201.915000", "123202.375000", "123202.835000", "123203.295000", "123203.755000", "123204.215000", "123204.675000", "123205.135000", "123205.595000", "123206.055000", "123206.515000", "123206.975000", "123207.435000", "123207.895000", "123208.355000", "123208.815000", "123209.275000", "123209.735000", "123210.195000", "123210.655000", "123211.115000", "123211.575000", "123212.035000", "123212.495000", "123212.955000", "123213.415000", "123213.875000", "123214.335000", "123214.795000", "123215.255000", "123215.715000", "123216.175000", "123216.635000", "123217.095000", "123217.555000", "123218.015000", "123218.475000", "123218.935000", "123219.395000", "123219.855000", "123220.315000", "123220.775000", "123221.235000", "123221.695000", "123222.155000", "123222.615000", "123223.075000", "123223.535000", "123223.995000", "123224.455000", "123224.915000", "123225.375000", "123225.835000", "123226.295000", "123226.755000", "123227.215000", "123227.675000", "123228.135000", "123228.595000", "123229.055000", "123229.515000", "123229.975000", "123230.435000", "123230.895000", "123231.355000", "123231.815000", "123232.275000", "123232.735000", "123233.195000", "123233.655000", "123234.115000", "123234.575000", "123235.035000", "123235.495000", "123235.955000", "123236.415000", "123236.875000", "123237.335000", "123237.795000", "123238.255000", "123238.715000", "123239.175000", "123239.635000", "123240.095000", "123240.555000", "123241.015000", "123241.475000", "123241.935000", "123242.395000", "123242.855000", "123243.315000", "123243.775000", "123244.235000", "123244.695000", "123245.155000", "123245.615000", "123246.075000", "123246.535000", "123246.995000", "123247.455000", "123247.915000", "123248.375000", "123248.835000", "123249.295000", "123249.755000", "123250.215000", "123250.675000", "123251.135000", "123251.595000", "123252.055000", "123252.515000", "123252.975000", "123253.435000", "123253.895000", "123254.355000", "123254.815000", "123255.275000", "123255.735000", "123256.195000", "123256.655000", "123257.115000", "123257.575000", "123258.035000", "123258.495000", "123258.955000", "123259.415000", "123259.875000", "123300.335000", "123300.795000", "123301.255000", "123301.715000", "123302.175000", "123302.635000", "123303.095000", "123303.555000", "123304.015000", "123304.475000", "123304.935000", "123305.395000", "123305.855000", "123306.315000", "123306.775000", "123307.235000", "123307.695000", "123308.155000", "123308.615000", "123309.075000", "123309.535000", "123309.995000", "123310.455000", "123310.915000", "123311.375000", "123311.835000", "123312.295000", "123312.755000", "123313.215000", "123313.675000", "123314.135000", "123314.595000", "123315.055000", "123315.515000", "123315.975000", "123316.435000", "123316.895000", "123317.355000", "123317.815000", "123318.275000", "123318.735000", "123319.195000", "123319.655000", "123320.115000", "123320.575000", "123321.035000", "123321.495000", "123321.955000", "123322.415000", "123322.875000", "123323.335000", "123323.795000", "123324.255000", "123324.715000", "123325.175000", "123325.635000", "123326.095000", "123326.555000", "123327.015000", "123327.475000", "123327.935000", "123328.395000", "123328.855000", "123329.315000", "123329.775000", "123330.235000", "123330.695000", "123331.155000", "123331.615000", "123332.075000", "123332.535000", "123332.995000", "123333.455000", "123333.915000", "123334.375000", "123334.835000", "123335.295000", "123335.755000", "123336.215000", "123336.675000", "123337.135000", "123337.595000", "123338.055000", "123338.515000", "123338.975000", "123339.435000", "123339.895000", "123340.355000", "123340.815000", "123341.275000", "123341.735000", "123342.195000", "123342.655000", "123343.115000", "123343.575000", "123344.035000", "123344.495000", "123344.955000", "123345.415000", "123345.875000", "123346.335000", "123346.795000", "123347.255000", "123347.715000", "123348.175000", "123348.635000", "123349.095000", "123349.555000", "123350.015000", "123350.475000", "123350.935000", "123351.395000", "123351.855000", "123352.315000", "123352.775000", "123353.235000", "123353.695000", "123354.155000", "123354.615000", "123355.075000", "123355.535000", "123355.995000", "123356.455000", "123356.915000", "123357.375000", "123357.835000", "123358.295000", "123358.755000", "123359.215000", "123359.675000", "123400.135000", "123400.595000", "123401.055000", "123401.515000", "123401.975000", "123402.435000", "123402.895000", "123403.355000", "123403.815000", "123404.275000", "123404.735000", "123405.195000", "123405.655000", "123406.115000", "123406.575000", "123407.035000", "123407.495000", "123407.955000", "123408.415000", "123408.875000", "123409.335000", "123409.795000", "123410.255000", "123410.715000", "123411.175000", "123411.635000", "123412.095000", "123412.555000", "123413.015000", "123413.475000", "123413.935000", "123414.395000", "123414.855000", "123415.315000", "123415.775000", "123416.235000", "123416.695000", "123417.155000", "123417.615000", "123418.075000", "123418.535000", "123418.995000", "123419.455000", "123419.915000", "123420.375000", "123420.835000", "123421.295000", "123421.755000", "123422.215000", "123422.675000", "123423.135000", "123423.595000", "123424.055000", "123424.515000", "123424.975000", "123425.435000", "123425.895000", "123426.355000", "123426.815000", "123427.275000", "123427.735000", "123428.195000", "123428.655000", "123429.115000", "123429.575000", "123430.035000", "123430.495000", "123430.955000", "123431.415000", "123431.875000", "123432.335000", "123432.795000", "123433.255000", "123433.715000", "123434.175000", "123434.635000", "123435.095000", "123435.555000", "123436.015000", "123436.475000", "123436.935000", "123437.395000", "123437.855000", "123438.315000", "123438.775000", "123439.235000", "123439.695000", "123440.155000", "123440.615000", "123441.075000", "123441.535000", "123441.995000", "123442.455000", "123442.915000", "123443.375000", "123443.835000", "123444.295000", "123444.755000", "123445.215000", "123445.675000", "123446.135000", "123446.595000", "123447.055000", "123447.515000", "123447.975000", "123448.435000", "123448.895000", "123449.355000", "123449.815000", "123450.275000", "123450.735000", "123451.195000", "123451.655000", "123452.115000", "123452.575000", "123453.035000", "123453.495000", "123453.955000", "123454.415000", "123454.875000", "123455.335000", "123455.795000", "123456.255000", "123456.715000", "123457.175000", "123457.635000", "123458.095000", "123458.555000", "123459.015000", "123459.475000", "123459.935000", "123500.395000", "123500.855000", "123501.315000", "123501.775000", "123502.235000", "123502.695000", "123503.155000", "123503.615000", "123504.075000", "123504.535000", "123504.995000", "123505.455000", "123505.915000", "123506.375000", "123506.835000", "123507.295000", "123507.755000", "123508.215000", "123508.675000", "123509.135000", "123509.595000", "123510.055000", "123510.515000", "123510.975000", "123511.435000", "123511.895000", "123512.355000", "123512.815000", "123513.275000", "123513.735000", "123514.195000", "123514.655000", "123515.115000", "123515.575000", "123516.035000", "123516.495000", "123516.955000", "123517.415000", "123517.875000", "123518.335000", "123518.795000", "123519.255000", "123519.715000", "123520.175000", "123520.635000", "123521.095000", "123521.555000", "123522.015000", "123522.475000", "123522.935000", "123523.395000", "123523.855000", "123524.315000", "123524.775000", "123525.235000", "123525.695000", "123526.155000", "123526.615000", "123527.075000", "123527.535000", "123527.995000", "123528.455000", "123528.915000", "123529.375000", "123529.835000", "123530.295000", "123530.755000", "123531.215000", "123531.675000", "123532.135000", "123532.595000", "123533.055000", "123533.515000", "123533.975000", "123534.435000", "123534.895000", "123535.355000", "123535.815000", "123536.275000", "123536.735000", "123537.195000", "123537.655000", "123538.115000", "123538.575000", "123539.035000", "123539.495000", "123539.955000", "123540.415000", "123540.875000", "123541.335000", "123541.795000", "123542.255000", "123542.715000", "123543.175000", "123543.635000", "123544.095000", "123544.555000", "123545.015000", "123545.475000", "123545.935000", "123546.395000", "123546.855000", "123547.315000", "123547.775000", "123548.235000", "123548.695000", "123549.155000", "123549.615000", "123550.075000", "123550.535000", "123550.995000", "123551.455000", "123551.915000", "123552.375000", "123552.835000", "123553.295000", "123553.755000", "123554.215000", "123554.675000", "123555.135000", "123555.595000", "123556.055000", "123556.515000", "123556.975000", "123557.435000", "123557.895000", "123558.355000", "123558.815000", "123559.275000", "123559.735000", "123600.195000", "123600.655000", "123601.115000", "123601.575000", "123602.035000", "123602.495000", "123602.955000", "123603.415000", "123603.875000", "123604.335000", "123604.795000", "123605.255000", "123605.715000", "123606.175000", "123606.635000", "123607.095000", "123607.555000", "123608.015000", "123608.475000", "123608.935000", "123609.395000", "123609.855000", "123610.315000", "123610.775000", "123611.235000", "123611.695000", "123612.155000", "123612.615000", "123613.075000", "123613.535000", "123613.995000", "123614.455000", "123614.915000", "123615.375000", "123615.835000", "123616.295000", "123616.755000", "123617.215000", "123617.675000", "123618.135000", "123618.595000", "123619.055000", "123619.515000", "123619.975000", "123620.435000", "123620.895000", "123621.355000", "123621.815000", "123622.275000", "123622.735000", "123623.195000", "123623.655000", "123624.115000", "123624.575000", "123625.035000", "123625.495000", "123625.955000", "123626.415000", "123626.875000", "123627.335000", "123627.795000", "123628.255000", "123628.715000", "123629.175000", "123629.635000", "123630.095000", "123630.555000", "123631.015000", "123631.475000", "123631.935000", "123632.395000", "123632.855000", "123633.315000", "123633.775000", "123634.235000", "123634.695000", "123635.155000", "123635.615000", "123636.075000", "123636.535000", "123636.995000", "123637.455000", "123637.915000", "123638.375000", "123638.835000", "123639.295000", "123639.755000", "123640.215000", "123640.675000", "123641.135000", "123641.595000", "123642.055000", "123642.515000", "123642.975000", "123643.435000", "123643.895000", "123644.355000", "123644.815000", "123645.275000", "123645.735000", "123646.195000", "123646.655000", "123647.115000", "123647.575000", "123648.035000", "123648.495000", "123648.955000", "123649.415000", "123649.875000", "123650.335000", "123650.795000", "123651.255000", "123651.715000", "123652.175000", "123652.635000", "123653.095000", "123653.555000", "123654.015000", "123654.475000", "123654.935000", "123655.395000", "123655.855000", "123656.315000", "123656.775000", "123657.235000", "123657.695000", "123658.155000", "123658.615000", "123659.075000", "123659.535000", "123659.995000", "123700.455000", "123700.915000", "123701.375000", "123701.835000", "123702.295000", "123702.755000", "123703.215000", "123703.675000", "123704.135000", "123704.595000", "123705.055000", "123705.515000", "123705.975000", "123706.435000", "123706.895000", "123707.355000", "123707.815000", "123708.275000", "123708.735000", "123709.195000", "123709.655000", "123710.115000", "123710.575000", "123711.035000", "123711.495000", "123711.955000", "123712.415000", "123712.875000", "123713.335000", "123713.795000", "123714.255000", "123714.715000", "123715.175000", "123715.635000", "123716.095000", "123716.555000", "123717.015000", "123717.475000", "123717.935000", "123718.395000", "123718.855000", "123719.315000", "123719.775000", "123720.235000", "123720.695000", "123721.155000", "123721.615000", "123722.075000", "123722.535000", "123722.995000", "123723.455000", "123723.915000", "123724.375000", "123724.835000", "123725.295000", "123725.755000", "123726.215000", "123726.675000", "123727.135000", "123727.595000", "123728.055000", "123728.515000", "123728.975000", "123729.435000", "123729.895000", "123730.355000", "123730.815000", "123731.275000", "123731.735000", "123732.195000", "123732.655000", "123733.115000", "123733.575000", "123734.035000", "123734.495000", "123734.955000", "123735.415000", "123735.875000", "123736.335000", "123736.795000", "123737.255000", "123737.715000", "123738.175000", "123738.635000", "123739.095000", "123739.555000", "123740.015000", "123740.475000", "123740.935000", "123741.395000", "123741.855000", "123742.315000", "123742.775000", "123743.235000", "123743.695000", "123744.155000", "123744.615000", "123745.075000", "123745.535000", "123745.995000", "123746.455000", "123746.915000", "123747.375000", "123747.835000", "123748.295000", "123748.755000", "123749.215000", "123749.675000", "123750.135000", "123750.595000", "123751.055000", "123751.515000", "123751.975000", "123752.435000", "123752.895000", "123753.355000", "123753.815000", "123754.275000", "123754.735000", "123755.195000", "123755.655000"],
