{
  "AcquisitionMatrixPE": 82,
  "AcquisitionNumber": 1,
  "AcquisitionTime": "11:37:56.755000",
  "BandwidthPerPixelPhaseEncode": 24.888,
  "BaseResolution": 82,
  "BodyPartExamined": "BRAIN",
  "ConsistencyInfo": "N4_VE11E_LATEST_20181129",
  "ConversionSoftware": "dcm2niix",
  "ConversionSoftwareVersion": "v1.0.20201102",
  "DerivedVendorReportedEchoSpacing": 0.00049,
  "DeviceSerialNumber": "66112",
  "DwellTime": 2e-06,
  "EchoTime": 0.0272,
  "EchoTrainLength": 82,
  "EffectiveEchoSpacing": 0.00049,
  "FlipAngle": 44,
  "ImageComments": "Unaliased MB8/PE3",
  "ImageOrientationPatientDICOM": [0.999036, 0.024484, -0.0364412, -0.0266841, 0.997771, -0.0611654],
  "ImageType": [
    "ORIGINAL",
    "PRIMARY",
    "M",
    "MB",
    "ND",
    "NORM",
    "MOSAIC"
],
  "ImagingFrequency": 123.252,
  "InPlanePhaseEncodingDirectionDICOM": "COL",
  "InstitutionAddress": "Maynard 3,Hanover,NH,US,03755",
  "InstitutionName": "Dartmouth College - PBS",
  "InstitutionalDepartmentName": "Department",
  "MRAcquisitionType": "2D",
  "MagneticFieldStrength": 3,
  "Manufacturer": "Siemens",
  "ManufacturersModelName": "Prisma",
  "Modality": "MR",
  "MultibandAccelerationFactor": 8,
  "PartialFourier": 1,
  "PatientPosition": "HFS",
  "PercentPhaseFOV": 100,
  "PercentSampling": 100,
  "PhaseEncodingDirection": "j-",
  "PhaseEncodingSteps": 82,
  "PhaseResolution": 1,
  "PixelBandwidth": 3050,
  "ProcedureStepDescription": "Wager_Wager^1076_spacetop",
  "ProtocolName": "func_run-05_task-social_acq-ap-mb8",
  "PulseSequenceDetails": "%CustomerSeq%\\cmrr_mbep2d_bold",
  "ReceiveCoilActiveElements": "HEA;HEP",
  "ReceiveCoilName": "Head_32",
  "ReconMatrixPE": 82,
  "RepetitionTime": 0.46,
  "SAR": 0.111362,
  "ScanOptions": "FS",
  "ScanningSequence": "EP",
  "SequenceName": "epfid2d1_82",
  "SequenceVariant": "SK\\SS",
  "SeriesDescription": "func_run-05_task-social_acq-ap-mb8",
  "SeriesNumber": 16,
  "ShimSetting": [4129, -7693, -7255, 563, -74, 63, -40, 93],
  "SliceThickness": 2.7,
  "SliceTiming": [0, 0.2525, 0.0625, 0.315, 0.125, 0.3775, 0.1875, 0, 0.2525, 0.0625, 0.315, 0.125, 0.3775, 0.1875, 0, 0.2525, 0.0625, 0.315, 0.125, 0.3775, 0.1875, 0, 0.2525, 0.0625, 0.315, 0.125, 0.3775, 0.1875, 0, 0.2525, 0.0625, 0.315, 0.125, 0.3775, 0.1875, 0, 0.2525, 0.0625, 0.315, 0.125, 0.3775, 0.1875, 0, 0.2525, 0.0625, 0.315, 0.125, 0.3775, 0.1875, 0, 0.2525, 0.0625, 0.315, 0.125, 0.3775, 0.1875],
  "SoftwareVersions": "syngo MR E11",
  "SpacingBetweenSlices": 2.7,
  "StationName": "AWP66112",
  "TaskName": "social",
  "TotalReadoutTime": 0.03969,
  "TxRefAmp": 258.552,
  "WipMemBlock": "c5e60260-ca07-46b2-8d7f-4cba405e639c||Sequence: R016 ve11e/master r/434b28f1; Aug  7 2019 18:53:46 by eja",
  "dcmmeta_affine": [
    [-2.680340051651001, -0.07159159332513809, -0.09412847459316254, 118.36946868896484],
    [-0.06568890810012817, 2.6769464015960693, -0.1676127016544342, -88.16915893554688],
    [-0.09776908904314041, 0.16410216689109802, 2.693147897720337, -76.1519775390625],
    [0.0, 0.0, 0.0, 1.0]
],
  "dcmmeta_reorient_transform": [
    [0.0, -1.0, 0.0, 81.0],
    [1.0, 0.0, 0.0, 0.0],
    [0.0, 0.0, 1.0, 0.0],
    [0.0, 0.0, 0.0, 1.0]
],
  "dcmmeta_shape": [82, 82, 56, 872],
  "dcmmeta_slice_dim": 2,
  "dcmmeta_version": 0.6,
  "global": {
    "const": {
      "AccessionNumber": "A003936",
      "AcquisitionMatrix": [82, 0, 0, 82],
      "AngioFlag": "N",
      "BitsAllocated": 16,
      "BitsStored": 16,
      "BodyPartExamined": "BRAIN",
      "Columns": 656,
      "EchoNumbers": 1,
      "EchoTime": 27.2,
      "EchoTrainLength": 82,
      "FlipAngle": 44.0,
      "HighBit": 15,
      "ImageOrientationPatient": [0.99903582019504, 0.02448404754001, -0.0364412044709, -0.0266841373287, 0.99777089393815, -0.0611653498713],
      "ImagePositionPatient": [-861.28136541307, -915.7998240501, 12.297349580866],
      "ImageType": [
        "ORIGINAL",
        "PRIMARY",
        "M",
        "MB",
        "ND",
        "NORM",
        "MOSAIC"
],
      "ImagedNucleus": "1H",
      "ImagingFrequency": 123.252205,
      "InPlanePhaseEncodingDirection": "COL",
      "MRAcquisitionType": "2D",
      "MagneticFieldStrength": 3.0,
      "Manufacturer": "SIEMENS",
      "ManufacturerModelName": "Prisma",
      "Modality": "MR",
      "NumberOfAverages": 1.0,
      "NumberOfPhaseEncodingSteps": 82,
      "PercentPhaseFieldOfView": 100.0,
      "PercentSampling": 100.0,
      "PerformedProcedureStepStartTime": "105722.669000",
      "PhotometricInterpretation": "MONOCHROME2",
      "PixelBandwidth": 3050.0,
      "PixelRepresentation": 0,
      "PixelSpacing": [2.6829268932343, 2.6829268932343],
      "ProtocolName": "func_run-05_task-social_acq-ap-mb8",
      "RepetitionTime": 460.0,
      "Rows": 656,
      "SAR": 0.11136176960251,
      "SamplesPerPixel": 1,
      "ScanOptions": "FS",
      "ScanningSequence": "EP",
      "SequenceName": "epfid2d1_82",
      "SequenceVariant": [
        "SK",
        "SS"
],
      "SeriesDescription": "func_run-05_task-social_acq-ap-mb8",
      "SeriesNumber": 16,
      "SeriesTime": "113817.910000",
      "SliceLocation": -74.611925831905,
      "SliceThickness": 2.7000000476837,
      "SmallestImagePixelValue": 0,
      "SoftwareVersions": "syngo MR E11",
      "SpacingBetweenSlices": 2.700000034601,
      "SpecificCharacterSet": "ISO_IR 100",
      "StudyID": "4",
      "StudyTime": "105722.591000",
      "TransmitCoilName": "Body",
      "VariableFlipAngleFlag": "N",
      "WindowCenterWidthExplanation": "Algo1"
    },
    "slices": {}
  },
  "time": {
    "samples": {
      "AcquisitionNumber": [1, 2, 3, 4, 5, 6, 7, 8, 9, 10, 11, 12, 13, 14, 15, 16, 17, 18, 19, 20, 21, 22, 23, 24, 25, 26, 27, 28, 29, 30, 31, 32, 33, 34, 35, 36, 37, 38, 39, 40, 41, 42, 43, 44, 45, 46, 47, 48, 49, 50, 51, 52, 53, 54, 55, 56, 57, 58, 59, 60, 61, 62, 63, 64, 65, 66, 67, 68, 69, 70, 71, 72, 73, 74, 75, 76, 77, 78, 79, 80, 81, 82, 83, 84, 85, 86, 87, 88, 89, 90, 91, 92, 93, 94, 95, 96, 97, 98, 99, 100, 101, 102, 103, 104, 105, 106, 107, 108, 109, 110, 111, 112, 113, 114, 115, 116, 117, 118, 119, 120, 121, 122, 123, 124, 125, 126, 127, 128, 129, 130, 131, 132, 133, 134, 135, 136, 137, 138, 139, 140, 141, 142, 143, 144, 145, 146, 147, 148, 149, 150, 151, 152, 153, 154, 155, 156, 157, 158, 159, 160, 161, 162, 163, 164, 165, 166, 167, 168, 169, 170, 171, 172, 173, 174, 175, 176, 177, 178, 179, 180, 181, 182, 183, 184, 185, 186, 187, 188, 189, 190, 191, 192, 193, 194, 195, 196, 197, 198, 199, 200, 201, 202, 203, 204, 205, 206, 207, 208, 209, 210, 211, 212, 213, 214, 215, 216, 217, 218, 219, 220, 221, 222, 223, 224, 225, 226, 227, 228, 229, 230, 231, 232, 233, 234, 235, 236, 237, 238, 239, 240, 241, 242, 243, 244, 245, 246, 247, 248, 249, 250, 251, 252, 253, 254, 255, 256, 257, 258, 259, 260, 261, 262, 263, 264, 265, 266, 267, 268, 269, 270, 271, 272, 273, 274, 275, 276, 277, 278, 279, 280, 281, 282, 283, 284, 285, 286, 287, 288, 289, 290, 291, 292, 293, 294, 295, 296, 297, 298, 299, 300, 301, 302, 303, 304, 305, 306, 307, 308, 309, 310, 311, 312, 313, 314, 315, 316, 317, 318, 319, 320, 321, 322, 323, 324, 325, 326, 327, 328, 329, 330, 331, 332, 333, 334, 335, 336, 337, 338, 339, 340, 341, 342, 343, 344, 345, 346, 347, 348, 349, 350, 351, 352, 353, 354, 355, 356, 357, 358, 359, 360, 361, 362, 363, 364, 365, 366, 367, 368, 369, 370, 371, 372, 373, 374, 375, 376, 377, 378, 379, 380, 381, 382, 383, 384, 385, 386, 387, 388, 389, 390, 391, 392, 393, 394, 395, 396, 397, 398, 399, 400, 401, 402, 403, 404, 405, 406, 407, 408, 409, 410, 411, 412, 413, 414, 415, 416, 417, 418, 419, 420, 421, 422, 423, 424, 425, 426, 427, 428, 429, 430, 431, 432, 433, 434, 435, 436, 437, 438, 439, 440, 441, 442, 443, 444, 445, 446, 447, 448, 449, 450, 451, 452, 453, 454, 455, 456, 457, 458, 459, 460, 461, 462, 463, 464, 465, 466, 467, 468, 469, 470, 471, 472, 473, 474, 475, 476, 477, 478, 479, 480, 481, 482, 483, 484, 485, 486, 487, 488, 489, 490, 491, 492, 493, 494, 495, 496, 497, 498, 499, 500, 501, 502, 503, 504, 505, 506, 507, 508, 509, 510, 511, 512, 513, 514, 515, 516, 517, 518, 519, 520, 521, 522, 523, 524, 525, 526, 527, 528, 529, 530, 531, 532, 533, 534, 535, 536, 537, 538, 539, 540, 541, 542, 543, 544, 545, 546, 547, 548, 549, 550, 551, 552, 553, 554, 555, 556, 557, 558, 559, 560, 561, 562, 563, 564, 565, 566, 567, 568, 569, 570, 571, 572, 573, 574, 575, 576, 577, 578, 579, 580, 581, 582, 583, 584, 585, 586, 587, 588, 589, 590, 591, 592, 593, 594, 595, 596, 597, 598, 599, 600, 601, 602, 603, 604, 605, 606, 607, 608, 609, 610, 611, 612, 613, 614, 615, 616, 617, 618, 619, 620, 621, 622, 623, 624, 625, 626, 627, 628, 629, 630, 631, 632, 633, 634, 635, 636, 637, 638, 639, 640, 641, 642, 643, 644, 645, 646, 647, 648, 649, 650, 651, 652, 653, 654, 655, 656, 657, 658, 659, 660, 661, 662, 663, 664, 665, 666, 667, 668, 669, 670, 671, 672, 673, 674, 675, 676, 677, 678, 679, 680, 681, 682, 683, 684, 685, 686, 687, 688, 689, 690, 691, 692, 693, 694, 695, 696, 697, 698, 699, 700, 701, 702, 703, 704, 705, 706, 707, 708, 709, 710, 711, 712, 713, 714, 715, 716, 717, 718, 719, 720, 721, 722, 723, 724, 725, 726, 727, 728, 729, 730, 731, 732, 733, 734, 735, 736, 737, 738, 739, 740, 741, 742, 743, 744, 745, 746, 747, 748, 749, 750, 751, 752, 753, 754, 755, 756, 757, 758, 759, 760, 761, 762, 763, 764, 765, 766, 767, 768, 769, 770, 771, 772, 773, 774, 775, 776, 777, 778, 779, 780, 781, 782, 783, 784, 785, 786, 787, 788, 789, 790, 791, 792, 793, 794, 795, 796, 797, 798, 799, 800, 801, 802, 803, 804, 805, 806, 807, 808, 809, 810, 811, 812, 813, 814, 815, 816, 817, 818, 819, 820, 821, 822, 823, 824, 825, 826, 827, 828, 829, 830, 831, 832, 833, 834, 835, 836, 837, 838, 839, 840, 841, 842, 843, 844, 845, 846, 847, 848, 849, 850, 851, 852, 853, 854, 855, 856, 857, 858, 859, 860, 861, 862, 863, 864, 865, 866, 867, 868, 869, 870, 871, 872],
      "AcquisitionTime": ["113756.755000", "113757.215000", "113757.675000", "113758.135000", "113758.595000", "113759.055000", "113759.515000", "113759.975000", "113800.435000", "113800.895000", "113801.355000", "113801.815000", "113802.275000", "113802.735000", "113803.195000", "113803.655000", "113804.115000", "113804.575000", "113805.035000", "113805.495000", "113805.955000", "113806.415000", "113806.875000", "113807.335000", "113807.795000", "113808.255000", "113808.715000", "113809.175000", "113809.635000", "113810.095000", "113810.555000", "113811.015000", "113811.475000", "113811.935000", "113812.395000", "113812.855000", "113813.315000", "113813.775000", "113814.235000", "113814.695000", "113815.155000", "113815.615000", "113816.075000", "113816.535000", "113816.995000", "113817.455000", "113817.915000", "113818.375000", "113818.835000", "113819.295000", "113819.755000", "113820.215000", "113820.675000", "113821.135000", "113821.595000", "113822.055000", "113822.515000", "113822.975000", "113823.435000", "113823.895000", "113824.355000", "113824.815000", "113825.275000", "113825.735000", "113826.195000", "113826.655000", "113827.115000", "113827.575000", "113828.035000", "113828.495000", "113828.955000", "113829.415000", "113829.875000", "113830.335000", "113830.795000", "113831.255000", "113831.715000", "113832.175000", "113832.635000", "113833.095000", "113833.555000", "113834.015000", "113834.475000", "113834.935000", "113835.395000", "113835.855000", "113836.315000", "113836.775000", "113837.235000", "113837.695000", "113838.155000", "113838.615000", "113839.075000", "113839.535000", "113839.995000", "113840.455000", "113840.915000", "113841.375000", "113841.835000", "113842.295000", "113842.755000", "113843.215000", "113843.675000", "113844.135000", "113844.595000", "113845.055000", "113845.515000", "113845.975000", "113846.435000", "113846.895000", "113847.355000", "113847.815000", "113848.275000", "113848.735000", "113849.195000", "113849.655000", "113850.115000", "113850.575000", "113851.035000", "113851.495000", "113851.955000", "113852.415000", "113852.875000", "113853.335000", "113853.795000", "113854.255000", "113854.715000", "113855.175000", "113855.635000", "113856.095000", "113856.555000", "113857.015000", "113857.475000", "113857.935000", "113858.395000", "113858.855000", "113859.315000", "113859.775000", "113900.235000", "113900.695000", "113901.155000", "113901.615000", "113902.075000", "113902.535000", "113902.995000", "113903.455000", "113903.915000", "113904.375000", "113904.835000", "113905.295000", "113905.755000", "113906.215000", "113906.675000", "113907.135000", "113907.595000", "113908.055000", "113908.515000", "113908.975000", "113909.435000", "113909.895000", "113910.355000", "113910.815000", "113911.275000", "113911.735000", "113912.195000", "113912.655000", "113913.115000", "113913.575000", "113914.035000", "113914.495000", "113914.955000", "113915.415000", "113915.875000", "113916.335000", "113916.795000", "113917.255000", "113917.715000", "113918.175000", "113918.635000", "113919.095000", "113919.555000", "113920.015000", "113920.475000", "113920.935000", "113921.395000", "113921.855000", "113922.315000", "113922.775000", "113923.235000", "113923.695000", "113924.155000", "113924.615000", "113925.075000", "113925.535000", "113925.995000", "113926.455000", "113926.915000", "113927.375000", "113927.835000", "113928.295000", "113928.755000", "113929.215000", "113929.675000", "113930.135000", "113930.595000", "113931.055000", "113931.515000", "113931.975000", "113932.435000", "113932.895000", "113933.355000", "113933.815000", "113934.275000", "113934.735000", "113935.195000", "113935.655000", "113936.115000", "113936.575000", "113937.035000", "113937.495000", "113937.955000", "113938.415000", "113938.875000", "113939.335000", "113939.795000", "113940.255000", "113940.715000", "113941.175000", "113941.635000", "113942.095000", "113942.555000", "113943.015000", "113943.475000", "113943.935000", "113944.395000", "113944.855000", "113945.315000", "113945.775000", "113946.235000", "113946.695000", "113947.155000", "113947.615000", "113948.075000", "113948.535000", "113948.995000", "113949.455000", "113949.915000", "113950.375000", "113950.835000", "113951.295000", "113951.755000", "113952.215000", "113952.675000", "113953.135000", "113953.595000", "113954.055000", "113954.515000", "113954.975000", "113955.435000", "113955.895000", "113956.355000", "113956.815000", "113957.275000", "113957.735000", "113958.195000", "113958.655000", "113959.115000", "113959.575000", "114000.035000", "114000.495000", "114000.955000", "114001.415000", "114001.875000", "114002.335000", "114002.795000", "114003.255000", "114003.715000", "114004.175000", "114004.635000", "114005.095000", "114005.555000", "114006.015000", "114006.475000", "114006.935000", "114007.395000", "114007.855000", "114008.315000", "114008.775000", "114009.235000", "114009.695000", "114010.155000", "114010.615000", "114011.075000", "114011.535000", "114011.995000", "114012.455000", "114012.915000", "114013.375000", "114013.835000", "114014.295000", "114014.755000", "114015.215000", "114015.675000", "114016.135000", "114016.595000", "114017.055000", "114017.515000", "114017.975000", "114018.435000", "114018.895000", "114019.355000", "114019.815000", "114020.275000", "114020.735000", "114021.195000", "114021.655000", "114022.115000", "114022.575000", "114023.035000", "114023.495000", "114023.955000", "114024.415000", "114024.875000", "114025.335000", "114025.795000", "114026.255000", "114026.715000", "114027.175000", "114027.635000", "114028.095000", "114028.555000", "114029.015000", "114029.475000", "114029.935000", "114030.395000", "114030.855000", "114031.315000", "114031.775000", "114032.235000", "114032.695000", "114033.155000", "114033.615000", "114034.075000", "114034.535000", "114034.995000", "114035.455000", "114035.915000", "114036.375000", "114036.835000", "114037.295000", "114037.755000", "114038.215000", "114038.675000", "114039.135000", "114039.595000", "114040.055000", "114040.515000", "114040.975000", "114041.435000", "114041.895000", "114042.355000", "114042.815000", "114043.275000", "114043.735000", "114044.195000", "114044.655000", "114045.115000", "114045.575000", "114046.035000", "114046.495000", "114046.955000", "114047.415000", "114047.875000", "114048.335000", "114048.795000", "114049.255000", "114049.715000", "114050.175000", "114050.635000", "114051.095000", "114051.555000", "114052.015000", "114052.475000", "114052.935000", "114053.395000", "114053.855000", "114054.315000", "114054.775000", "114055.235000", "114055.695000", "114056.155000", "114056.615000", "114057.075000", "114057.535000", "114057.995000", "114058.455000", "114058.915000", "114059.375000", "114059.835000", "114100.295000", "114100.755000", "114101.215000", "114101.675000", "114102.135000", "114102.595000", "114103.055000", "114103.515000", "114103.975000", "114104.435000", "114104.895000", "114105.355000", "114105.815000", "114106.275000", "114106.735000", "114107.195000", "114107.655000", "114108.115000", "114108.575000", "114109.035000", "114109.495000", "114109.955000", "114110.415000", "114110.875000", "114111.335000", "114111.795000", "114112.255000", "114112.715000", "114113.175000", "114113.635000", "114114.095000", "114114.555000", "114115.015000", "114115.475000", "114115.935000", "114116.395000", "114116.855000", "114117.315000", "114117.775000", "114118.235000", "114118.695000", "114119.155000", "114119.615000", "114120.075000", "114120.535000", "114120.995000", "114121.455000", "114121.915000", "114122.375000", "114122.835000", "114123.295000", "114123.755000", "114124.215000", "114124.675000", "114125.135000", "114125.595000", "114126.055000", "114126.515000", "114126.975000", "114127.435000", "114127.895000", "114128.355000", "114128.815000", "114129.275000", "114129.735000", "114130.195000", "114130.655000", "114131.115000", "114131.575000", "114132.035000", "114132.495000", "114132.955000", "114133.415000", "114133.875000", "114134.335000", "114134.795000", "114135.255000", "114135.715000", "114136.175000", "114136.635000", "114137.095000", "114137.555000", "114138.015000", "114138.475000", "114138.935000", "114139.395000", "114139.855000", "114140.315000", "114140.775000", "114141.235000", "114141.695000", "114142.155000", "114142.615000", "114143.075000", "114143.535000", "114143.995000", "114144.455000", "114144.915000", "114145.375000", "114145.835000", "114146.295000", "114146.755000", "114147.215000", "114147.675000", "114148.135000", "114148.595000", "114149.055000", "114149.515000", "114149.975000", "114150.435000", "114150.895000", "114151.355000", "114151.815000", "114152.275000", "114152.735000", "114153.195000", "114153.655000", "114154.115000", "114154.575000", "114155.035000", "114155.495000", "114155.955000", "114156.415000", "114156.875000", "114157.335000", "114157.795000", "114158.255000", "114158.715000", "114159.175000", "114159.635000", "114200.095000", "114200.555000", "114201.015000", "114201.475000", "114201.935000", "114202.395000", "114202.855000", "114203.315000", "114203.775000", "114204.235000", "114204.695000", "114205.155000", "114205.615000", "114206.075000", "114206.535000", "114206.995000", "114207.455000", "114207.915000", "114208.375000", "114208.835000", "114209.295000", "114209.755000", "114210.215000", "114210.675000", "114211.135000", "114211.595000", "114212.055000", "114212.515000", "114212.975000", "114213.435000", "114213.895000", "114214.355000", "114214.815000", "114215.275000", "114215.735000", "114216.195000", "114216.655000", "114217.115000", "114217.575000", "114218.035000", "114218.495000", "114218.955000", "114219.415000", "114219.875000", "114220.335000", "114220.795000", "114221.255000", "114221.715000", "114222.175000", "114222.635000", "114223.095000", "114223.555000", "114224.015000", "114224.475000", "114224.935000", "114225.395000", "114225.855000", "114226.315000", "114226.775000", "114227.235000", "114227.695000", "114228.155000", "114228.615000", "114229.075000", "114229.535000", "114229.995000", "114230.455000", "114230.915000", "114231.375000", "114231.835000", "114232.295000", "114232.755000", "114233.215000", "114233.675000", "114234.135000", "114234.595000", "114235.055000", "114235.515000", "114235.975000", "114236.435000", "114236.895000", "114237.355000", "114237.815000", "114238.275000", "114238.735000", "114239.195000", "114239.655000", "114240.115000", "114240.575000", "114241.035000", "114241.495000", "114241.955000", "114242.415000", "114242.875000", "114243.335000", "114243.795000", "114244.255000", "114244.715000", "114245.175000", "114245.635000", "114246.095000", "114246.555000", "114247.015000", "114247.475000", "114247.935000", "114248.395000", "114248.855000", "114249.315000", "114249.775000", "114250.235000", "114250.695000", "114251.155000", "114251.615000", "114252.075000", "114252.535000", "114252.995000", "114253.455000", "114253.915000", "114254.375000", "114254.835000", "114255.295000", "114255.755000", "114256.215000", "114256.675000", "114257.135000", "114257.595000", "114258.055000", "114258.515000", "114258.975000", "114259.435000", "114259.895000", "114300.355000", "114300.815000", "114301.275000", "114301.735000", "114302.195000", "114302.655000", "114303.115000", "114303.575000", "114304.035000", "114304.495000", "114304.955000", "114305.415000", "114305.875000", "114306.335000", "114306.795000", "114307.255000", "114307.715000", "114308.175000", "114308.635000", "114309.095000", "114309.555000", "114310.015000", "114310.475000", "114310.935000", "114311.395000", "114311.855000", "114312.315000", "114312.775000", "114313.235000", "114313.695000", "114314.155000", "114314.615000", "114315.075000", "114315.535000", "114315.995000", "114316.455000", "114316.915000", "114317.375000", "114317.835000", "114318.295000", "114318.755000", "114319.215000", "114319.675000", "114320.135000", "114320.595000", "114321.055000", "114321.515000", "114321.975000", "114322.435000", "114322.895000", "114323.355000", "114323.815000", "114324.275000", "114324.735000", "114325.195000", "114325.655000", "114326.115000", "114326.575000", "114327.035000", "114327.495000", "114327.955000", "114328.415000", "114328.875000", "114329.335000", "114329.795000", "114330.255000", "114330.715000", "114331.175000", "114331.635000", "114332.095000", "114332.555000", "114333.015000", "114333.475000", "114333.935000", "114334.395000", "114334.855000", "114335.315000", "114335.775000", "114336.235000", "114336.695000", "114337.155000", "114337.615000", "114338.075000", "114338.535000", "114338.995000", "114339.455000", "114339.915000", "114340.375000", "114340.835000", "114341.295000", "114341.755000", "114342.215000", "114342.675000", "114343.135000", "114343.595000", "114344.055000", "114344.515000", "114344.975000", "114345.435000", "114345.895000", "114346.355000", "114346.815000", "114347.275000", "114347.735000", "114348.195000", "114348.655000", "114349.115000", "114349.575000", "114350.035000", "114350.495000", "114350.955000", "114351.415000", "114351.875000", "114352.335000", "114352.795000", "114353.255000", "114353.715000", "114354.175000", "114354.635000", "114355.095000", "114355.555000", "114356.015000", "114356.475000", "114356.935000", "114357.395000", "114357.855000", "114358.315000", "114358.775000", "114359.235000", "114359.695000", "114400.155000", "114400.615000", "114401.075000", "114401.535000", "114401.995000", "114402.455000", "114402.915000", "114403.375000", "114403.835000", "114404.295000", "114404.755000", "114405.215000", "114405.675000", "114406.135000", "114406.595000", "114407.055000", "114407.515000", "114407.975000", "114408.435000", "114408.895000", "114409.355000", "114409.815000", "114410.275000", "114410.735000", "114411.195000", "114411.655000", "114412.115000", "114412.575000", "114413.035000", "114413.495000", "114413.955000", "114414.415000", "114414.875000", "114415.335000", "114415.795000", "114416.255000", "114416.715000", "114417.175000", "114417.635000", "114418.095000", "114418.555000", "114419.015000", "114419.475000", "114419.935000", "114420.395000", "114420.855000", "114421.315000", "114421.775000", "114422.235000", "114422.695000", "114423.155000", "114423.615000", "114424.075000", "114424.535000", "114424.995000", "114425.455000", "114425.915000", "114426.375000", "114426.835000", "114427.295000", "114427.755000", "114428.215000", "114428.675000", "114429.135000", "114429.595000", "114430.055000", "114430.515000", "114430.975000", "114431.435000", "114431.895000", "114432.355000", "114432.815000", "114433.275000", "114433.735000", "114434.195000", "114434.655000", "114435.115000", "114435.575000", "114436.035000", "114436.495000", "114436.955000", "114437.415000"],
