{
  "AcquisitionMatrixPE": 82,
  "AcquisitionNumber": 1,
  "AcquisitionTime": "14:36:34.165000",
  "BandwidthPerPixelPhaseEncode": 24.888,
  "BaseResolution": 82,
  "BodyPartExamined": "BRAIN",
  "ConsistencyInfo": "N4_VE11C_LATEST_20160120",
  "ConversionSoftware": "dcm2niix",
  "ConversionSoftwareVersion": "v1.0.20201102",
  "DerivedVendorReportedEchoSpacing": 0.00049,
  "DeviceSerialNumber": "66112",
  "DwellTime": 2e-06,
  "EchoTime": 0.0272,
  "EchoTrainLength": 82,
  "EffectiveEchoSpacing": 0.00049,
  "FlipAngle": 44,
  "ImageComments": "Unaliased MB8/PE3",
  "ImageOrientationPatientDICOM": [0.999843, -0.0135547, 0.01137, 0.0116925, 0.988568, 0.150322],
  "ImageType": [
    "ORIGINAL",
    "PRIMARY",
    "M",
    "MB",
    "ND",
    "NORM",
    "MOSAIC"
],
  "ImagingFrequency": 123.252,
  "InPlanePhaseEncodingDirectionDICOM": "COL",
  "InstitutionAddress": "Maynard 3,Hanover,NH,US,03755",
  "InstitutionName": "Dartmouth College - PBS",
  "InstitutionalDepartmentName": "Department",
  "MRAcquisitionType": "2D",
  "MagneticFieldStrength": 3,
  "Manufacturer": "Siemens",
  "ManufacturersModelName": "Prisma",
  "Modality": "MR",
  "MultibandAccelerationFactor": 8,
  "PartialFourier": 1,
  "PatientPosition": "HFS",
  "PercentPhaseFOV": 100,
  "PercentSampling": 100,
  "PhaseEncodingDirection": "j-",
  "PhaseEncodingSteps": 82,
  "PhaseResolution": 1,
  "PixelBandwidth": 3050,
  "ProcedureStepDescription": "Wager_Wager^1076_spacetop",
  "ProtocolName": "func_run-01_task-narratives_acq-ap-mb8",
  "PulseSequenceDetails": "%CustomerSeq%\\cmrr_mbep2d_bold",
  "ReceiveCoilActiveElements": "HEA;HEP",
  "ReceiveCoilName": "Head_32",
  "ReconMatrixPE": 82,
  "RepetitionTime": 0.46,
  "SAR": 0.103561,
  "ScanOptions": "FS",
  "ScanningSequence": "EP",
  "SequenceName": "epfid2d1_82",
  "SequenceVariant": "SK\\SS",
  "SeriesDescription": "func_run-01_task-narratives_acq-ap-mb8",
  "SeriesNumber": 8,
  "ShimSetting": [4163, -7798, -7208, 494, -3, -280, 76, 81],
  "SliceThickness": 2.7,
  "SliceTiming": [0, 0.25, 0.0625, 0.3125, 0.125, 0.375, 0.1875, 0, 0.25, 0.0625, 0.3125, 0.125, 0.375, 0.1875, 0, 0.25, 0.0625, 0.3125, 0.125, 0.375, 0.1875, 0, 0.25, 0.0625, 0.3125, 0.125, 0.375, 0.1875, 0, 0.25, 0.0625, 0.3125, 0.125, 0.375, 0.1875, 0, 0.25, 0.0625, 0.3125, 0.125, 0.375, 0.1875, 0, 0.25, 0.0625, 0.3125, 0.125, 0.375, 0.1875, 0, 0.25, 0.0625, 0.3125, 0.125, 0.375, 0.1875],
  "SoftwareVersions": "syngo MR E11",
  "SpacingBetweenSlices": 2.7,
  "StationName": "AWP66112",
  "TaskName": "narratives",
  "TotalReadoutTime": 0.03969,
  "TxRefAmp": 252.287,
  "WipMemBlock": "233edaa8-667f-4065-b646-d0abc099a40f||Sequence: R016 ve11c/master r/e634e98; Dec 19 2017 11:00:25 by eja",
  "dcmmeta_affine": [
    [-2.682507038116455, 0.031370002776384354, 0.035849373787641525, 109.00860595703125],
    [0.036366358399391174, 2.6522557735443115, 0.40544572472572327, -108.23371124267578],
    [0.030504770576953888, -0.40330174565315247, 2.6691436767578125, -23.998306274414062],
    [0.0, 0.0, 0.0, 1.0]
],
  "dcmmeta_reorient_transform": [
    [0.0, -1.0, 0.0, 81.0],
    [1.0, 0.0, 0.0, 0.0],
    [0.0, 0.0, 1.0, 0.0],
    [0.0, 0.0, 0.0, 1.0]
],
  "dcmmeta_shape": [82, 82, 56, 967],
  "dcmmeta_slice_dim": 2,
  "dcmmeta_version": 0.6,
  "global": {
    "const": {
      "AccessionNumber": "A003607",
      "AcquisitionMatrix": [82, 0, 0, 82],
      "AngioFlag": "N",
      "BitsAllocated": 16,
      "BitsStored": 16,
      "BodyPartExamined": "BRAIN",
      "Columns": 656,
      "EchoNumbers": 1,
      "EchoTime": 27.2,
      "EchoTrainLength": 82,
      "FlipAngle": 44.0,
      "HighBit": 15,
      "ImageOrientationPatient": [0.99984348437515, -0.0135547326123, 0.01136995938295, 0.01169245510691, 0.98856801248585, 0.15032155927662],
      "ImagePositionPatient": [-890.43226523397, -857.35924330917, -181.16822044639],
      "ImageType": [
        "ORIGINAL",
        "PRIMARY",
        "M",
        "MB",
        "ND",
        "NORM",
        "MOSAIC"
],
      "ImagedNucleus": "1H",
      "ImagingFrequency": 123.252102,
      "InPlanePhaseEncodingDirection": "COL",
      "MRAcquisitionType": "2D",
      "MagneticFieldStrength": 3.0,
      "Manufacturer": "SIEMENS",
      "ManufacturerModelName": "Prisma",
      "Modality": "MR",
      "NumberOfAverages": 1.0,
      "NumberOfPhaseEncodingSteps": 82,
      "PercentPhaseFieldOfView": 100.0,
      "PercentSampling": 100.0,
      "PerformedProcedureStepStartTime": "141844.588000",
      "PhotometricInterpretation": "MONOCHROME2",
      "PixelBandwidth": 3050.0,
      "PixelRepresentation": 0,
      "PixelSpacing": [2.6829268932343, 2.6829268932343],
      "ProtocolName": "func_run-01_task-narratives_acq-ap-mb8",
      "RepetitionTime": 460.0,
      "Rows": 656,
      "SAR": 0.10356060801944,
      "SamplesPerPixel": 1,
      "ScanOptions": "FS",
      "ScanningSequence": "EP",
      "SequenceName": "epfid2d1_82",
      "SequenceVariant": [
        "SK",
        "SS"
],
      "SeriesDescription": "func_run-01_task-narratives_acq-ap-mb8",
      "SeriesNumber": 8,
      "SeriesTime": "143644.027000",
      "SliceLocation": -38.529606187111,
      "SliceThickness": 2.7000000476837,
      "SmallestImagePixelValue": 0,
      "SoftwareVersions": "syngo MR E11",
      "SpacingBetweenSlices": 2.6999999575822,
      "SpecificCharacterSet": "ISO_IR 100",
      "StudyID": "1",
      "StudyTime": "141844.147000",
      "TransmitCoilName": "Body",
      "VariableFlipAngleFlag": "N",
      "WindowCenterWidthExplanation": "Algo1",
      "dBdt": 0.0},
    "slices": {}
  },
  "time": {
    "samples": {
      "AcquisitionNumber": [1, 2, 3, 4, 5, 6, 7, 8, 9, 10, 11, 12, 13, 14, 15, 16, 17, 18, 19, 20, 21, 22, 23, 24, 25, 26, 27, 28, 29, 30, 31, 32, 33, 34, 35, 36, 37, 38, 39, 40, 41, 42, 43, 44, 45, 46, 47, 48, 49, 50, 51, 52, 53, 54, 55, 56, 57, 58, 59, 60, 61, 62, 63, 64, 65, 66, 67, 68, 69, 70, 71, 72, 73, 74, 75, 76, 77, 78, 79, 80, 81, 82, 83, 84, 85, 86, 87, 88, 89, 90, 91, 92, 93, 94, 95, 96, 97, 98, 99, 100, 101, 102, 103, 104, 105, 106, 107, 108, 109, 110, 111, 112, 113, 114, 115, 116, 117, 118, 119, 120, 121, 122, 123, 124, 125, 126, 127, 128, 129, 130, 131, 132, 133, 134, 135, 136, 137, 138, 139, 140, 141, 142, 143, 144, 145, 146, 147, 148, 149, 150, 151, 152, 153, 154, 155, 156, 157, 158, 159, 160, 161, 162, 163, 164, 165, 166, 167, 168, 169, 170, 171, 172, 173, 174, 175, 176, 177, 178, 179, 180, 181, 182, 183, 184, 185, 186, 187, 188, 189, 190, 191, 192, 193, 194, 195, 196, 197, 198, 199, 200, 201, 202, 203, 204, 205, 206, 207, 208, 209, 210, 211, 212, 213, 214, 215, 216, 217, 218, 219, 220, 221, 222, 223, 224, 225, 226, 227, 228, 229, 230, 231, 232, 233, 234, 235, 236, 237, 238, 239, 240, 241, 242, 243, 244, 245, 246, 247, 248, 249, 250, 251, 252, 253, 254, 255, 256, 257, 258, 259, 260, 261, 262, 263, 264, 265, 266, 267, 268, 269, 270, 271, 272, 273, 274, 275, 276, 277, 278, 279, 280, 281, 282, 283, 284, 285, 286, 287, 288, 289, 290, 291, 292, 293, 294, 295, 296, 297, 298, 299, 300, 301, 302, 303, 304, 305, 306, 307, 308, 309, 310, 311, 312, 313, 314, 315, 316, 317, 318, 319, 320, 321, 322, 323, 324, 325, 326, 327, 328, 329, 330, 331, 332, 333, 334, 335, 336, 337, 338, 339, 340, 341, 342, 343, 344, 345, 346, 347, 348, 349, 350, 351, 352, 353, 354, 355, 356, 357, 358, 359, 360, 361, 362, 363, 364, 365, 366, 367, 368, 369, 370, 371, 372, 373, 374, 375, 376, 377, 378, 379, 380, 381, 382, 383, 384, 385, 386, 387, 388, 389, 390, 391, 392, 393, 394, 395, 396, 397, 398, 399, 400, 401, 402, 403, 404, 405, 406, 407, 408, 409, 410, 411, 412, 413, 414, 415, 416, 417, 418, 419, 420, 421, 422, 423, 424, 425, 426, 427, 428, 429, 430, 431, 432, 433, 434, 435, 436, 437, 438, 439, 440, 441, 442, 443, 444, 445, 446, 447, 448, 449, 450, 451, 452, 453, 454, 455, 456, 457, 458, 459, 460, 461, 462, 463, 464, 465, 466, 467, 468, 469, 470, 471, 472, 473, 474, 475, 476, 477, 478, 479, 480, 481, 482, 483, 484, 485, 486, 487, 488, 489, 490, 491, 492, 493, 494, 495, 496, 497, 498, 499, 500, 501, 502, 503, 504, 505, 506, 507, 508, 509, 510, 511, 512, 513, 514, 515, 516, 517, 518, 519, 520, 521, 522, 523, 524, 525, 526, 527, 528, 529, 530, 531, 532, 533, 534, 535, 536, 537, 538, 539, 540, 541, 542, 543, 544, 545, 546, 547, 548, 549, 550, 551, 552, 553, 554, 555, 556, 557, 558, 559, 560, 561, 562, 563, 564, 565, 566, 567, 568, 569, 570, 571, 572, 573, 574, 575, 576, 577, 578, 579, 580, 581, 582, 583, 584, 585, 586, 587, 588, 589, 590, 591, 592, 593, 594, 595, 596, 597, 598, 599, 600, 601, 602, 603, 604, 605, 606, 607, 608, 609, 610, 611, 612, 613, 614, 615, 616, 617, 618, 619, 620, 621, 622, 623, 624, 625, 626, 627, 628, 629, 630, 631, 632, 633, 634, 635, 636, 637, 638, 639, 640, 641, 642, 643, 644, 645, 646, 647, 648, 649, 650, 651, 652, 653, 654, 655, 656, 657, 658, 659, 660, 661, 662, 663, 664, 665, 666, 667, 668, 669, 670, 671, 672, 673, 674, 675, 676, 677, 678, 679, 680, 681, 682, 683, 684, 685, 686, 687, 688, 689, 690, 691, 692, 693, 694, 695, 696, 697, 698, 699, 700, 701, 702, 703, 704, 705, 706, 707, 708, 709, 710, 711, 712, 713, 714, 715, 716, 717, 718, 719, 720, 721, 722, 723, 724, 725, 726, 727, 728, 729, 730, 731, 732, 733, 734, 735, 736, 737, 738, 739, 740, 741, 742, 743, 744, 745, 746, 747, 748, 749, 750, 751, 752, 753, 754, 755, 756, 757, 758, 759, 760, 761, 762, 763, 764, 765, 766, 767, 768, 769, 770, 771, 772, 773, 774, 775, 776, 777, 778, 779, 780, 781, 782, 783, 784, 785, 786, 787, 788, 789, 790, 791, 792, 793, 794, 795, 796, 797, 798, 799, 800, 801, 802, 803, 804, 805, 806, 807, 808, 809, 810, 811, 812, 813, 814, 815, 816, 817, 818, 819, 820, 821, 822, 823, 824, 825, 826, 827, 828, 829, 830, 831, 832, 833, 834, 835, 836, 837, 838, 839, 840, 841, 842, 843, 844, 845, 846, 847, 848, 849, 850, 851, 852, 853, 854, 855, 856, 857, 858, 859, 860, 861, 862, 863, 864, 865, 866, 867, 868, 869, 870, 871, 872, 873, 874, 875, 876, 877, 878, 879, 880, 881, 882, 883, 884, 885, 886, 887, 888, 889, 890, 891, 892, 893, 894, 895, 896, 897, 898, 899, 900, 901, 902, 903, 904, 905, 906, 907, 908, 909, 910, 911, 912, 913, 914, 915, 916, 917, 918, 919, 920, 921, 922, 923, 924, 925, 926, 927, 928, 929, 930, 931, 932, 933, 934, 935, 936, 937, 938, 939, 940, 941, 942, 943, 944, 945, 946, 947, 948, 949, 950, 951, 952, 953, 954, 955, 956, 957, 958, 959, 960, 961, 962, 963, 964, 965, 966, 967],
      "AcquisitionTime": ["143634.165000", "143634.625000", "143635.085000", "143635.545000", "143636.005000", "143636.465000", "143636.925000", "143637.385000", "143637.845000", "143638.305000", "143638.765000", "143639.225000", "143639.685000", "143640.145000", "143640.605000", "143641.065000", "143641.525000", "143641.985000", "143642.445000", "143642.905000", "143643.365000", "143643.825000", "143644.285000", "143644.745000", "143645.205000", "143645.665000", "143646.125000", "143646.585000", "143647.045000", "143647.505000", "143647.965000", "143648.425000", "143648.885000", "143649.345000", "143649.805000", "143650.265000", "143650.725000", "143651.185000", "143651.645000", "143652.105000", "143652.565000", "143653.025000", "143653.485000", "143653.945000", "143654.405000", "143654.865000", "143655.325000", "143655.785000", "143656.245000", "143656.705000", "143657.165000", "143657.625000", "143658.085000", "143658.545000", "143659.005000", "143659.465000", "143659.925000", "143700.385000", "143700.845000", "143701.305000", "143701.765000", "143702.225000", "143702.685000", "143703.145000", "143703.605000", "143704.065000", "143704.525000", "143704.985000", "143705.445000", "143705.905000", "143706.365000", "143706.825000", "143707.285000", "143707.745000", "143708.205000", "143708.665000", "143709.125000", "143709.585000", "143710.045000", "143710.505000", "143710.965000", "143711.425000", "143711.885000", "143712.345000", "143712.805000", "143713.265000", "143713.725000", "143714.185000", "143714.645000", "143715.105000", "143715.565000", "143716.025000", "143716.485000", "143716.945000", "143717.405000", "143717.865000", "143718.325000", "143718.785000", "143719.245000", "143719.705000", "143720.165000", "143720.625000", "143721.085000", "143721.545000", "143722.005000", "143722.465000", "143722.925000", "143723.385000", "143723.845000", "143724.305000", "143724.765000", "143725.225000", "143725.685000", "143726.145000", "143726.605000", "143727.065000", "143727.525000", "143727.985000", "143728.445000", "143728.905000", "143729.365000", "143729.825000", "143730.285000", "143730.745000", "143731.205000", "143731.665000", "143732.125000", "143732.585000", "143733.045000", "143733.505000", "143733.965000", "143734.425000", "143734.885000", "143735.345000", "143735.805000", "143736.265000", "143736.725000", "143737.185000", "143737.645000", "143738.105000", "143738.565000", "143739.025000", "143739.485000", "143739.945000", "143740.405000", "143740.865000", "143741.325000", "143741.785000", "143742.245000", "143742.705000", "143743.165000", "143743.625000", "143744.085000", "143744.545000", "143745.005000", "143745.465000", "143745.925000", "143746.385000", "143746.845000", "143747.305000", "143747.765000", "143748.225000", "143748.685000", "143749.145000", "143749.605000", "143750.065000", "143750.525000", "143750.985000", "143751.445000", "143751.905000", "143752.365000", "143752.825000", "143753.285000", "143753.745000", "143754.205000", "143754.665000", "143755.125000", "143755.585000", "143756.045000", "143756.505000", "143756.965000", "143757.425000", "143757.885000", "143758.345000", "143758.805000", "143759.265000", "143759.725000", "143800.185000", "143800.645000", "143801.105000", "143801.565000", "143802.025000", "143802.485000", "143802.945000", "143803.405000", "143803.865000", "143804.325000", "143804.785000", "143805.245000", "143805.705000", "143806.165000", "143806.625000", "143807.085000", "143807.545000", "143808.005000", "143808.465000", "143808.925000", "143809.385000", "143809.845000", "143810.305000", "143810.765000", "143811.225000", "143811.685000", "143812.145000", "143812.605000", "143813.065000", "143813.525000", "143813.985000", "143814.445000", "143814.905000", "143815.365000", "143815.825000", "143816.285000", "143816.745000", "143817.205000", "143817.665000", "143818.125000", "143818.585000", "143819.045000", "143819.505000", "143819.965000", "143820.425000", "143820.885000", "143821.345000", "143821.805000", "143822.265000", "143822.725000", "143823.185000", "143823.645000", "143824.105000", "143824.565000", "143825.025000", "143825.485000", "143825.945000", "143826.405000", "143826.865000", "143827.325000", "143827.785000", "143828.245000", "143828.705000", "143829.165000", "143829.625000", "143830.085000", "143830.545000", "143831.005000", "143831.465000", "143831.925000", "143832.385000", "143832.845000", "143833.305000", "143833.765000", "143834.225000", "143834.685000", "143835.145000", "143835.605000", "143836.065000", "143836.525000", "143836.985000", "143837.445000", "143837.905000", "143838.365000", "143838.825000", "143839.285000", "143839.745000", "143840.205000", "143840.665000", "143841.125000", "143841.585000", "143842.045000", "143842.505000", "143842.965000", "143843.425000", "143843.885000", "143844.345000", "143844.805000", "143845.265000", "143845.725000", "143846.185000", "143846.645000", "143847.105000", "143847.565000", "143848.025000", "143848.485000", "143848.945000", "143849.405000", "143849.865000", "143850.325000", "143850.785000", "143851.245000", "143851.705000", "143852.165000", "143852.625000", "143853.085000", "143853.545000", "143854.005000", "143854.465000", "143854.925000", "143855.385000", "143855.845000", "143856.305000", "143856.765000", "143857.225000", "143857.685000", "143858.145000", "143858.605000", "143859.065000", "143859.525000", "143859.985000", "143900.445000", "143900.905000", "143901.365000", "143901.825000", "143902.285000", "143902.745000", "143903.205000", "143903.665000", "143904.125000", "143904.585000", "143905.045000", "143905.505000", "143905.965000", "143906.425000", "143906.885000", "143907.345000", "143907.805000", "143908.265000", "143908.725000", "143909.185000", "143909.645000", "143910.105000", "143910.565000", "143911.025000", "143911.485000", "143911.945000", "143912.405000", "143912.865000", "143913.325000", "143913.785000", "143914.245000", "143914.705000", "143915.165000", "143915.625000", "143916.085000", "143916.545000", "143917.005000", "143917.465000", "143917.925000", "143918.385000", "143918.845000", "143919.305000", "143919.765000", "143920.225000", "143920.685000", "143921.145000", "143921.605000", "143922.065000", "143922.525000", "143922.985000", "143923.445000", "143923.905000", "143924.365000", "143924.825000", "143925.285000", "143925.745000", "143926.205000", "143926.665000", "143927.125000", "143927.585000", "143928.045000", "143928.505000", "143928.965000", "143929.425000", "143929.885000", "143930.345000", "143930.805000", "143931.265000", "143931.725000", "143932.185000", "143932.645000", "143933.105000", "143933.565000", "143934.025000", "143934.485000", "143934.945000", "143935.405000", "143935.865000", "143936.325000", "143936.785000", "143937.245000", "143937.705000", "143938.165000", "143938.625000", "143939.085000", "143939.545000", "143940.005000", "143940.465000", "143940.925000", "143941.385000", "143941.845000", "143942.305000", "143942.765000", "143943.225000", "143943.685000", "143944.145000", "143944.605000", "143945.065000", "143945.525000", "143945.985000", "143946.445000", "143946.905000", "143947.365000", "143947.825000", "143948.285000", "143948.745000", "143949.205000", "143949.665000", "143950.125000", "143950.585000", "143951.045000", "143951.505000", "143951.965000", "143952.425000", "143952.885000", "143953.345000", "143953.805000", "143954.265000", "143954.725000", "143955.185000", "143955.645000", "143956.105000", "143956.565000", "143957.025000", "143957.485000", "143957.945000", "143958.405000", "143958.865000", "143959.325000", "143959.785000", "144000.245000", "144000.705000", "144001.165000", "144001.625000", "144002.085000", "144002.545000", "144003.005000", "144003.465000", "144003.925000", "144004.385000", "144004.845000", "144005.305000", "144005.765000", "144006.225000", "144006.685000", "144007.145000", "144007.605000", "144008.065000", "144008.525000", "144008.985000", "144009.445000", "144009.905000", "144010.365000", "144010.825000", "144011.285000", "144011.745000", "144012.205000", "144012.665000", "144013.125000", "144013.585000", "144014.045000", "144014.505000", "144014.965000", "144015.425000", "144015.885000", "144016.345000", "144016.805000", "144017.265000", "144017.725000", "144018.185000", "144018.645000", "144019.105000", "144019.565000", "144020.025000", "144020.485000", "144020.945000", "144021.405000", "144021.865000", "144022.325000", "144022.785000", "144023.245000", "144023.705000", "144024.165000", "144024.625000", "144025.085000", "144025.545000", "144026.005000", "144026.465000", "144026.925000", "144027.385000", "144027.845000", "144028.305000", "144028.765000", "144029.225000", "144029.685000", "144030.145000", "144030.605000", "144031.065000", "144031.525000", "144031.985000", "144032.445000", "144032.905000", "144033.365000", "144033.825000", "144034.285000", "144034.745000", "144035.205000", "144035.665000", "144036.125000", "144036.585000", "144037.045000", "144037.505000", "144037.965000", "144038.425000", "144038.885000", "144039.345000", "144039.805000", "144040.265000", "144040.725000", "144041.185000", "144041.645000", "144042.105000", "144042.565000", "144043.025000", "144043.485000", "144043.945000", "144044.405000", "144044.865000", "144045.325000", "144045.785000", "144046.245000", "144046.705000", "144047.165000", "144047.625000", "144048.085000", "144048.545000", "144049.005000", "144049.465000", "144049.925000", "144050.385000", "144050.845000", "144051.305000", "144051.765000", "144052.225000", "144052.685000", "144053.145000", "144053.605000", "144054.065000", "144054.525000", "144054.985000", "144055.445000", "144055.905000", "144056.365000", "144056.825000", "144057.285000", "144057.745000", "144058.205000", "144058.665000", "144059.125000", "144059.585000", "144100.045000", "144100.505000", "144100.965000", "144101.425000", "144101.885000", "144102.345000", "144102.805000", "144103.265000", "144103.725000", "144104.185000", "144104.645000", "144105.105000", "144105.565000", "144106.025000", "144106.485000", "144106.945000", "144107.405000", "144107.865000", "144108.325000", "144108.785000", "144109.245000", "144109.705000", "144110.165000", "144110.625000", "144111.085000", "144111.545000", "144112.005000", "144112.465000", "144112.925000", "144113.385000", "144113.845000", "144114.305000", "144114.765000", "144115.225000", "144115.685000", "144116.145000", "144116.605000", "144117.065000", "144117.525000", "144117.985000", "144118.445000", "144118.905000", "144119.365000", "144119.825000", "144120.285000", "144120.745000", "144121.205000", "144121.665000", "144122.125000", "144122.585000", "144123.045000", "144123.505000", "144123.965000", "144124.425000", "144124.885000", "144125.345000", "144125.805000", "144126.265000", "144126.725000", "144127.185000", "144127.645000", "144128.105000", "144128.565000", "144129.025000", "144129.485000", "144129.945000", "144130.405000", "144130.865000", "144131.325000", "144131.785000", "144132.245000", "144132.705000", "144133.165000", "144133.625000", "144134.085000", "144134.545000", "144135.005000", "144135.465000", "144135.925000", "144136.385000", "144136.845000", "144137.305000", "144137.765000", "144138.225000", "144138.685000", "144139.145000", "144139.605000", "144140.065000", "144140.525000", "144140.985000", "144141.445000", "144141.905000", "144142.365000", "144142.825000", "144143.285000", "144143.745000", "144144.205000", "144144.665000", "144145.125000", "144145.585000", "144146.045000", "144146.505000", "144146.965000", "144147.425000", "144147.885000", "144148.345000", "144148.805000", "144149.265000", "144149.725000", "144150.185000", "144150.645000", "144151.105000", "144151.565000", "144152.025000", "144152.485000", "144152.945000", "144153.405000", "144153.865000", "144154.325000", "144154.785000", "144155.245000", "144155.705000", "144156.165000", "144156.625000", "144157.085000", "144157.545000", "144158.005000", "144158.465000", "144158.925000", "144159.385000", "144159.845000", "144200.305000", "144200.765000", "144201.225000", "144201.685000", "144202.145000", "144202.605000", "144203.065000", "144203.525000", "144203.985000", "144204.445000", "144204.905000", "144205.365000", "144205.825000", "144206.285000", "144206.745000", "144207.205000", "144207.665000", "144208.125000", "144208.585000", "144209.045000", "144209.505000", "144209.965000", "144210.425000", "144210.885000", "144211.345000", "144211.805000", "144212.265000", "144212.725000", "144213.185000", "144213.645000", "144214.105000", "144214.565000", "144215.025000", "144215.485000", "144215.945000", "144216.405000", "144216.865000", "144217.325000", "144217.785000", "144218.245000", "144218.705000", "144219.165000", "144219.625000", "144220.085000", "144220.545000", "144221.005000", "144221.465000", "144221.925000", "144222.385000", "144222.845000", "144223.305000", "144223.765000", "144224.225000", "144224.685000", "144225.145000", "144225.605000", "144226.065000", "144226.525000", "144226.985000", "144227.445000", "144227.905000", "144228.365000", "144228.825000", "144229.285000", "144229.745000", "144230.205000", "144230.665000", "144231.125000", "144231.585000", "144232.045000", "144232.505000", "144232.965000", "144233.425000", "144233.885000", "144234.345000", "144234.805000", "144235.265000", "144235.725000", "144236.185000", "144236.645000", "144237.105000", "144237.565000", "144238.025000", "144238.485000", "144238.945000", "144239.405000", "144239.865000", "144240.325000", "144240.785000", "144241.245000", "144241.705000", "144242.165000", "144242.625000", "144243.085000", "144243.545000", "144244.005000", "144244.465000", "144244.925000", "144245.385000", "144245.845000", "144246.305000", "144246.765000", "144247.225000", "144247.685000", "144248.145000", "144248.605000", "144249.065000", "144249.525000", "144249.985000", "144250.445000", "144250.905000", "144251.365000", "144251.825000", "144252.285000", "144252.745000", "144253.205000", "144253.665000", "144254.125000", "144254.585000", "144255.045000", "144255.505000", "144255.965000", "144256.425000", "144256.885000", "144257.345000", "144257.805000", "144258.265000", "144258.725000", "144259.185000", "144259.645000", "144300.105000", "144300.565000", "144301.025000", "144301.485000", "144301.945000", "144302.405000", "144302.865000", "144303.325000", "144303.785000", "144304.245000", "144304.705000", "144305.165000", "144305.625000", "144306.085000", "144306.545000", "144307.005000", "144307.465000", "144307.925000", "144308.385000", "144308.845000", "144309.305000", "144309.765000", "144310.225000", "144310.685000", "144311.145000", "144311.605000", "144312.065000", "144312.525000", "144312.985000", "144313.445000", "144313.905000", "144314.365000", "144314.825000", "144315.285000", "144315.745000", "144316.205000", "144316.665000", "144317.125000", "144317.585000", "144318.045000", "144318.505000", "144318.965000", "144319.425000", "144319.885000", "144320.345000", "144320.805000", "144321.265000", "144321.725000", "144322.185000", "144322.645000", "144323.105000", "144323.565000", "144324.025000", "144324.485000", "144324.945000", "144325.405000", "144325.865000", "144326.325000", "144326.785000", "144327.245000", "144327.705000", "144328.165000", "144328.625000", "144329.085000", "144329.545000", "144330.005000", "144330.465000", "144330.925000", "144331.385000", "144331.845000", "144332.305000", "144332.765000", "144333.225000", "144333.685000", "144334.145000", "144334.605000", "144335.065000", "144335.525000", "144335.985000", "144336.445000", "144336.905000", "144337.365000", "144337.825000", "144338.285000", "144338.745000", "144339.205000", "144339.665000", "144340.125000", "144340.585000", "144341.045000", "144341.505000", "144341.965000", "144342.425000", "144342.885000", "144343.345000", "144343.805000", "144344.265000", "144344.725000", "144345.185000", "144345.645000", "144346.105000", "144346.565000", "144347.025000", "144347.485000", "144347.945000", "144348.405000", "144348.865000", "144349.325000", "144349.785000", "144350.245000", "144350.705000", "144351.165000", "144351.625000", "144352.085000", "144352.545000", "144353.005000", "144353.465000", "144353.925000", "144354.385000", "144354.845000", "144355.305000", "144355.765000", "144356.225000", "144356.685000", "144357.145000", "144357.605000", "144358.065000", "144358.525000"],
