{
  "AcquisitionMatrixPE": 82,
  "AcquisitionNumber": 1,
  "AcquisitionTime": "18:29:19.862500",
  "BandwidthPerPixelPhaseEncode": 24.888,
  "BaseResolution": 82,
  "BodyPartExamined": "BRAIN",
  "ConsistencyInfo": "N4_VE11E_LATEST_20181129",
  "ConversionSoftware": "dcm2niix",
  "ConversionSoftwareVersion": "v1.0.20201102",
  "DerivedVendorReportedEchoSpacing": 0.00049,
  "DeviceSerialNumber": "66112",
  "DwellTime": 2e-06,
  "EchoTime": 0.0272,
  "EchoTrainLength": 82,
  "EffectiveEchoSpacing": 0.00049,
  "FlipAngle": 44,
  "ImageComments": "Unaliased MB8/PE3",
  "ImageOrientationPatientDICOM": [0.998514, 0.0494063, 0.023001, -0.0490101, 0.998645, -0.017481],
  "ImageType": [
    "ORIGINAL",
    "PRIMARY",
    "M",
    "MB",
    "ND",
    "NORM",
    "MOSAIC"
],
  "ImagingFrequency": 123.252,
  "InPlanePhaseEncodingDirectionDICOM": "COL",
  "InstitutionAddress": "Maynard 3,Hanover,NH,US,03755",
  "InstitutionName": "Dartmouth College - PBS",
  "InstitutionalDepartmentName": "Department",
  "MRAcquisitionType": "2D",
  "MagneticFieldStrength": 3,
  "Manufacturer": "Siemens",
  "ManufacturersModelName": "Prisma",
  "Modality": "MR",
  "MultibandAccelerationFactor": 8,
  "PartialFourier": 1,
  "PatientPosition": "HFS",
  "PercentPhaseFOV": 100,
  "PercentSampling": 100,
  "PhaseEncodingDirection": "j-",
  "PhaseEncodingSteps": 82,
  "PhaseResolution": 1,
  "PixelBandwidth": 3050,
  "ProcedureStepDescription": "Wager_Wager^1076_spacetop",
  "ProtocolName": "func_run-02_task-social_acq-ap-mb8",
  "PulseSequenceDetails": "%CustomerSeq%\\cmrr_mbep2d_bold",
  "ReceiveCoilActiveElements": "HEA;HEP",
  "ReceiveCoilName": "Head_32",
  "ReconMatrixPE": 82,
  "RepetitionTime": 0.46,
  "SAR": 0.0819193,
  "ScanOptions": "FS",
  "ScanningSequence": "EP",
  "SequenceName": "epfid2d1_82",
  "SequenceVariant": "SK\\SS",
  "SeriesDescription": "func_run-02_task-social_acq-ap-mb8",
  "SeriesNumber": 10,
  "ShimSetting": [4163, -7760, -7257, 565, -56, -201, 30, 32],
  "SliceThickness": 2.7,
  "SliceTiming": [0, 0.2525, 0.0625, 0.315, 0.1275, 0.3775, 0.19, 0, 0.2525, 0.0625, 0.315, 0.1275, 0.3775, 0.19, 0, 0.2525, 0.0625, 0.315, 0.1275, 0.3775, 0.19, 0, 0.2525, 0.0625, 0.315, 0.1275, 0.3775, 0.19, 0, 0.2525, 0.0625, 0.315, 0.1275, 0.3775, 0.19, 0, 0.2525, 0.0625, 0.315, 0.1275, 0.3775, 0.19, 0, 0.2525, 0.0625, 0.315, 0.1275, 0.3775, 0.19, 0, 0.2525, 0.0625, 0.315, 0.1275, 0.3775, 0.19],
  "SoftwareVersions": "syngo MR E11",
  "SpacingBetweenSlices": 2.7,
  "StationName": "AWP66112",
  "TaskName": "social",
  "TotalReadoutTime": 0.03969,
  "TxRefAmp": 236.312,
  "WipMemBlock": "e0263888-16f7-4739-9b27-7ad5174ba62a||Sequence: R016 ve11e/master r/434b28f1; Aug  7 2019 18:53:46 by eja",
  "dcmmeta_affine": [
    [-2.6789398193359375, -0.13149060308933258, 0.06435053795576096, 114.88883972167969],
    [-0.13255353271961212, 2.6792922019958496, -0.04408496990799904, -81.69515991210938],
    [0.06171005591750145, 0.046900320798158646, 2.6988730430603027, -61.98900604248047],
    [0.0, 0.0, 0.0, 1.0]
],
  "dcmmeta_reorient_transform": [
    [0.0, -1.0, 0.0, 81.0],
    [1.0, 0.0, 0.0, 0.0],
    [0.0, 0.0, 1.0, 0.0],
    [0.0, 0.0, 0.0, 1.0]
],
  "dcmmeta_shape": [82, 82, 56, 872],
  "dcmmeta_slice_dim": 2,
  "dcmmeta_version": 0.6,
  "global": {
    "const": {
      "AccessionNumber": "A003938",
      "AcquisitionMatrix": [82, 0, 0, 82],
      "AngioFlag": "N",
      "BitsAllocated": 16,
      "BitsStored": 16,
      "BodyPartExamined": "BRAIN",
      "Columns": 656,
      "EchoNumbers": 1,
      "EchoTime": 27.2,
      "EchoTrainLength": 82,
      "FlipAngle": 44.0,
      "HighBit": 15,
      "ImageOrientationPatient": [0.99851388037629, 0.04940631303626, 0.02300102015237, -0.0490101353801, 0.99864529252786, -0.017481028058],
      "ImagePositionPatient": [-835.35600497554, -942.32727639238, -62.440475086357],
      "ImageType": [
        "ORIGINAL",
        "PRIMARY",
        "M",
        "MB",
        "ND",
        "NORM",
        "MOSAIC"
],
      "ImagedNucleus": "1H",
      "ImagingFrequency": 123.252188,
      "InPlanePhaseEncodingDirection": "COL",
      "MRAcquisitionType": "2D",
      "MagneticFieldStrength": 3.0,
      "Manufacturer": "SIEMENS",
      "ManufacturerModelName": "Prisma",
      "Modality": "MR",
      "NumberOfAverages": 1.0,
      "NumberOfPhaseEncodingSteps": 82,
      "PercentPhaseFieldOfView": 100.0,
      "PercentSampling": 100.0,
      "PerformedProcedureStepStartTime": "181201.269000",
      "PhotometricInterpretation": "MONOCHROME2",
      "PixelBandwidth": 3050.0,
      "PixelRepresentation": 0,
      "PixelSpacing": [2.6829268932343, 2.6829268932343],
      "ProtocolName": "func_run-02_task-social_acq-ap-mb8",
      "RepetitionTime": 460.0,
      "Rows": 656,
      "SAR": 0.08191933589088,
      "SamplesPerPixel": 1,
      "ScanOptions": "FS",
      "ScanningSequence": "EP",
      "SequenceName": "epfid2d1_82",
      "SequenceVariant": [
        "SK",
        "SS"
],
      "SeriesDescription": "func_run-02_task-social_acq-ap-mb8",
      "SeriesNumber": 10,
      "SeriesTime": "182937.977000",
      "SliceLocation": -57.891026058833,
      "SliceThickness": 2.7000000476837,
      "SmallestImagePixelValue": 0,
      "SoftwareVersions": "syngo MR E11",
      "SpacingBetweenSlices": 2.6999999898074,
      "SpecificCharacterSet": "ISO_IR 100",
      "StudyID": "1",
      "StudyTime": "181201.198000",
      "TransmitCoilName": "Body",
      "VariableFlipAngleFlag": "N",
      "WindowCenterWidthExplanation": "Algo1"
    },
    "slices": {}
  },
  "time": {
    "samples": {
      "AcquisitionNumber": [1, 2, 3, 4, 5, 6, 7, 8, 9, 10, 11, 12, 13, 14, 15, 16, 17, 18, 19, 20, 21, 22, 23, 24, 25, 26, 27, 28, 29, 30, 31, 32, 33, 34, 35, 36, 37, 38, 39, 40, 41, 42, 43, 44, 45, 46, 47, 48, 49, 50, 51, 52, 53, 54, 55, 56, 57, 58, 59, 60, 61, 62, 63, 64, 65, 66, 67, 68, 69, 70, 71, 72, 73, 74, 75, 76, 77, 78, 79, 80, 81, 82, 83, 84, 85, 86, 87, 88, 89, 90, 91, 92, 93, 94, 95, 96, 97, 98, 99, 100, 101, 102, 103, 104, 105, 106, 107, 108, 109, 110, 111, 112, 113, 114, 115, 116, 117, 118, 119, 120, 121, 122, 123, 124, 125, 126, 127, 128, 129, 130, 131, 132, 133, 134, 135, 136, 137, 138, 139, 140, 141, 142, 143, 144, 145, 146, 147, 148, 149, 150, 151, 152, 153, 154, 155, 156, 157, 158, 159, 160, 161, 162, 163, 164, 165, 166, 167, 168, 169, 170, 171, 172, 173, 174, 175, 176, 177, 178, 179, 180, 181, 182, 183, 184, 185, 186, 187, 188, 189, 190, 191, 192, 193, 194, 195, 196, 197, 198, 199, 200, 201, 202, 203, 204, 205, 206, 207, 208, 209, 210, 211, 212, 213, 214, 215, 216, 217, 218, 219, 220, 221, 222, 223, 224, 225, 226, 227, 228, 229, 230, 231, 232, 233, 234, 235, 236, 237, 238, 239, 240, 241, 242, 243, 244, 245, 246, 247, 248, 249, 250, 251, 252, 253, 254, 255, 256, 257, 258, 259, 260, 261, 262, 263, 264, 265, 266, 267, 268, 269, 270, 271, 272, 273, 274, 275, 276, 277, 278, 279, 280, 281, 282, 283, 284, 285, 286, 287, 288, 289, 290, 291, 292, 293, 294, 295, 296, 297, 298, 299, 300, 301, 302, 303, 304, 305, 306, 307, 308, 309, 310, 311, 312, 313, 314, 315, 316, 317, 318, 319, 320, 321, 322, 323, 324, 325, 326, 327, 328, 329, 330, 331, 332, 333, 334, 335, 336, 337, 338, 339, 340, 341, 342, 343, 344, 345, 346, 347, 348, 349, 350, 351, 352, 353, 354, 355, 356, 357, 358, 359, 360, 361, 362, 363, 364, 365, 366, 367, 368, 369, 370, 371, 372, 373, 374, 375, 376, 377, 378, 379, 380, 381, 382, 383, 384, 385, 386, 387, 388, 389, 390, 391, 392, 393, 394, 395, 396, 397, 398, 399, 400, 401, 402, 403, 404, 405, 406, 407, 408, 409, 410, 411, 412, 413, 414, 415, 416, 417, 418, 419, 420, 421, 422, 423, 424, 425, 426, 427, 428, 429, 430, 431, 432, 433, 434, 435, 436, 437, 438, 439, 440, 441, 442, 443, 444, 445, 446, 447, 448, 449, 450, 451, 452, 453, 454, 455, 456, 457, 458, 459, 460, 461, 462, 463, 464, 465, 466, 467, 468, 469, 470, 471, 472, 473, 474, 475, 476, 477, 478, 479, 480, 481, 482, 483, 484, 485, 486, 487, 488, 489, 490, 491, 492, 493, 494, 495, 496, 497, 498, 499, 500, 501, 502, 503, 504, 505, 506, 507, 508, 509, 510, 511, 512, 513, 514, 515, 516, 517, 518, 519, 520, 521, 522, 523, 524, 525, 526, 527, 528, 529, 530, 531, 532, 533, 534, 535, 536, 537, 538, 539, 540, 541, 542, 543, 544, 545, 546, 547, 548, 549, 550, 551, 552, 553, 554, 555, 556, 557, 558, 559, 560, 561, 562, 563, 564, 565, 566, 567, 568, 569, 570, 571, 572, 573, 574, 575, 576, 577, 578, 579, 580, 581, 582, 583, 584, 585, 586, 587, 588, 589, 590, 591, 592, 593, 594, 595, 596, 597, 598, 599, 600, 601, 602, 603, 604, 605, 606, 607, 608, 609, 610, 611, 612, 613, 614, 615, 616, 617, 618, 619, 620, 621, 622, 623, 624, 625, 626, 627, 628, 629, 630, 631, 632, 633, 634, 635, 636, 637, 638, 639, 640, 641, 642, 643, 644, 645, 646, 647, 648, 649, 650, 651, 652, 653, 654, 655, 656, 657, 658, 659, 660, 661, 662, 663, 664, 665, 666, 667, 668, 669, 670, 671, 672, 673, 674, 675, 676, 677, 678, 679, 680, 681, 682, 683, 684, 685, 686, 687, 688, 689, 690, 691, 692, 693, 694, 695, 696, 697, 698, 699, 700, 701, 702, 703, 704, 705, 706, 707, 708, 709, 710, 711, 712, 713, 714, 715, 716, 717, 718, 719, 720, 721, 722, 723, 724, 725, 726, 727, 728, 729, 730, 731, 732, 733, 734, 735, 736, 737, 738, 739, 740, 741, 742, 743, 744, 745, 746, 747, 748, 749, 750, 751, 752, 753, 754, 755, 756, 757, 758, 759, 760, 761, 762, 763, 764, 765, 766, 767, 768, 769, 770, 771, 772, 773, 774, 775, 776, 777, 778, 779, 780, 781, 782, 783, 784, 785, 786, 787, 788, 789, 790, 791, 792, 793, 794, 795, 796, 797, 798, 799, 800, 801, 802, 803, 804, 805, 806, 807, 808, 809, 810, 811, 812, 813, 814, 815, 816, 817, 818, 819, 820, 821, 822, 823, 824, 825, 826, 827, 828, 829, 830, 831, 832, 833, 834, 835, 836, 837, 838, 839, 840, 841, 842, 843, 844, 845, 846, 847, 848, 849, 850, 851, 852, 853, 854, 855, 856, 857, 858, 859, 860, 861, 862, 863, 864, 865, 866, 867, 868, 869, 870, 871, 872],
      "AcquisitionTime": ["182919.862500", "182920.322500", "182920.782500", "182921.242500", "182921.702500", "182922.162500", "182922.622500", "182923.082500", "182923.542500", "182924.002500", "182924.462500", "182924.922500", "182925.382500", "182925.842500", "182926.302500", "182926.762500", "182927.222500", "182927.682500", "182928.142500", "182928.602500", "182929.062500", "182929.522500", "182929.982500", "182930.442500", "182930.902500", "182931.362500", "182931.822500", "182932.282500", "182932.742500", "182933.202500", "182933.662500", "182934.122500", "182934.582500", "182935.042500", "182935.502500", "182935.962500", "182936.422500", "182936.882500", "182937.342500", "182937.802500", "182938.262500", "182938.722500", "182939.182500", "182939.642500", "182940.102500", "182940.562500", "182941.022500", "182941.482500", "182941.942500", "182942.402500", "182942.862500", "182943.322500", "182943.782500", "182944.242500", "182944.702500", "182945.162500", "182945.622500", "182946.082500", "182946.542500", "182947.002500", "182947.462500", "182947.922500", "182948.382500", "182948.842500", "182949.302500", "182949.762500", "182950.222500", "182950.682500", "182951.142500", "182951.602500", "182952.062500", "182952.522500", "182952.982500", "182953.442500", "182953.902500", "182954.362500", "182954.822500", "182955.282500", "182955.742500", "182956.202500", "182956.662500", "182957.122500", "182957.582500", "182958.042500", "182958.502500", "182958.962500", "182959.422500", "182959.882500", "183000.342500", "183000.802500", "183001.262500", "183001.722500", "183002.182500", "183002.642500", "183003.102500", "183003.562500", "183004.022500", "183004.482500", "183004.942500", "183005.402500", "183005.862500", "183006.322500", "183006.782500", "183007.242500", "183007.702500", "183008.162500", "183008.622500", "183009.082500", "183009.542500", "183010.002500", "183010.462500", "183010.922500", "183011.382500", "183011.842500", "183012.302500", "183012.762500", "183013.222500", "183013.682500", "183014.142500", "183014.602500", "183015.062500", "183015.522500", "183015.982500", "183016.442500", "183016.902500", "183017.362500", "183017.822500", "183018.282500", "183018.742500", "183019.202500", "183019.662500", "183020.122500", "183020.582500", "183021.042500", "183021.502500", "183021.962500", "183022.422500", "183022.882500", "183023.342500", "183023.802500", "183024.262500", "183024.722500", "183025.182500", "183025.642500", "183026.102500", "183026.562500", "183027.022500", "183027.482500", "183027.942500", "183028.402500", "183028.862500", "183029.322500", "183029.782500", "183030.242500", "183030.702500", "183031.162500", "183031.622500", "183032.082500", "183032.542500", "183033.002500", "183033.462500", "183033.922500", "183034.382500", "183034.842500", "183035.302500", "183035.762500", "183036.222500", "183036.682500", "183037.142500", "183037.602500", "183038.062500", "183038.522500", "183038.982500", "183039.442500", "183039.902500", "183040.362500", "183040.822500", "183041.282500", "183041.742500", "183042.202500", "183042.662500", "183043.122500", "183043.582500", "183044.042500", "183044.502500", "183044.962500", "183045.422500", "183045.882500", "183046.342500", "183046.802500", "183047.262500", "183047.722500", "183048.182500", "183048.642500", "183049.102500", "183049.562500", "183050.022500", "183050.482500", "183050.942500", "183051.402500", "183051.862500", "183052.322500", "183052.782500", "183053.242500", "183053.702500", "183054.162500", "183054.622500", "183055.082500", "183055.542500", "183056.002500", "183056.462500", "183056.922500", "183057.382500", "183057.842500", "183058.302500", "183058.762500", "183059.222500", "183059.682500", "183100.142500", "183100.602500", "183101.062500", "183101.522500", "183101.982500", "183102.442500", "183102.902500", "183103.362500", "183103.822500", "183104.282500", "183104.742500", "183105.202500", "183105.662500", "183106.122500", "183106.582500", "183107.042500", "183107.502500", "183107.962500", "183108.422500", "183108.882500", "183109.342500", "183109.802500", "183110.262500", "183110.722500", "183111.182500", "183111.642500", "183112.102500", "183112.562500", "183113.022500", "183113.482500", "183113.942500", "183114.402500", "183114.862500", "183115.322500", "183115.782500", "183116.242500", "183116.702500", "183117.162500", "183117.622500", "183118.082500", "183118.542500", "183119.002500", "183119.462500", "183119.922500", "183120.382500", "183120.842500", "183121.302500", "183121.762500", "183122.222500", "183122.682500", "183123.142500", "183123.602500", "183124.062500", "183124.522500", "183124.982500", "183125.442500", "183125.902500", "183126.362500", "183126.822500", "183127.282500", "183127.742500", "183128.202500", "183128.662500", "183129.122500", "183129.582500", "183130.042500", "183130.502500", "183130.962500", "183131.422500", "183131.882500", "183132.342500", "183132.802500", "183133.262500", "183133.722500", "183134.182500", "183134.642500", "183135.102500", "183135.562500", "183136.022500", "183136.482500", "183136.942500", "183137.402500", "183137.862500", "183138.322500", "183138.782500", "183139.242500", "183139.702500", "183140.162500", "183140.622500", "183141.082500", "183141.542500", "183142.002500", "183142.462500", "183142.922500", "183143.382500", "183143.842500", "183144.302500", "183144.762500", "183145.222500", "183145.682500", "183146.142500", "183146.602500", "183147.062500", "183147.522500", "183147.982500", "183148.442500", "183148.902500", "183149.362500", "183149.822500", "183150.282500", "183150.742500", "183151.202500", "183151.662500", "183152.122500", "183152.582500", "183153.042500", "183153.502500", "183153.962500", "183154.422500", "183154.882500", "183155.342500", "183155.802500", "183156.262500", "183156.722500", "183157.182500", "183157.642500", "183158.102500", "183158.562500", "183159.022500", "183159.482500", "183159.942500", "183200.402500", "183200.862500", "183201.322500", "183201.782500", "183202.242500", "183202.702500", "183203.162500", "183203.622500", "183204.082500", "183204.542500", "183205.002500", "183205.462500", "183205.922500", "183206.382500", "183206.842500", "183207.302500", "183207.762500", "183208.222500", "183208.682500", "183209.142500", "183209.602500", "183210.062500", "183210.522500", "183210.982500", "183211.442500", "183211.902500", "183212.362500", "183212.822500", "183213.282500", "183213.742500", "183214.202500", "183214.662500", "183215.122500", "183215.582500", "183216.042500", "183216.502500", "183216.962500", "183217.422500", "183217.882500", "183218.342500", "183218.802500", "183219.262500", "183219.722500", "183220.182500", "183220.642500", "183221.102500", "183221.562500", "183222.022500", "183222.482500", "183222.942500", "183223.402500", "183223.862500", "183224.322500", "183224.782500", "183225.242500", "183225.702500", "183226.162500", "183226.622500", "183227.082500", "183227.542500", "183228.002500", "183228.462500", "183228.922500", "183229.382500", "183229.842500", "183230.302500", "183230.762500", "183231.222500", "183231.682500", "183232.142500", "183232.602500", "183233.062500", "183233.522500", "183233.982500", "183234.442500", "183234.902500", "183235.362500", "183235.822500", "183236.282500", "183236.742500", "183237.202500", "183237.662500", "183238.122500", "183238.582500", "183239.042500", "183239.502500", "183239.962500", "183240.422500", "183240.882500", "183241.342500", "183241.802500", "183242.262500", "183242.722500", "183243.182500", "183243.642500", "183244.102500", "183244.562500", "183245.022500", "183245.482500", "183245.942500", "183246.402500", "183246.862500", "183247.322500", "183247.782500", "183248.242500", "183248.702500", "183249.162500", "183249.622500", "183250.082500", "183250.542500", "183251.002500", "183251.462500", "183251.922500", "183252.382500", "183252.842500", "183253.302500", "183253.762500", "183254.222500", "183254.682500", "183255.142500", "183255.602500", "183256.062500", "183256.522500", "183256.982500", "183257.442500", "183257.902500", "183258.362500", "183258.822500", "183259.282500", "183259.742500", "183300.202500", "183300.662500", "183301.122500", "183301.582500", "183302.042500", "183302.502500", "183302.962500", "183303.422500", "183303.882500", "183304.342500", "183304.802500", "183305.262500", "183305.722500", "183306.182500", "183306.642500", "183307.102500", "183307.562500", "183308.022500", "183308.482500", "183308.942500", "183309.402500", "183309.862500", "183310.322500", "183310.782500", "183311.242500", "183311.702500", "183312.162500", "183312.622500", "183313.082500", "183313.542500", "183314.002500", "183314.462500", "183314.922500", "183315.382500", "183315.842500", "183316.302500", "183316.762500", "183317.222500", "183317.682500", "183318.142500", "183318.602500", "183319.062500", "183319.522500", "183319.982500", "183320.442500", "183320.902500", "183321.362500", "183321.822500", "183322.282500", "183322.742500", "183323.202500", "183323.662500", "183324.122500", "183324.582500", "183325.042500", "183325.502500", "183325.962500", "183326.422500", "183326.882500", "183327.342500", "183327.802500", "183328.262500", "183328.722500", "183329.182500", "183329.642500", "183330.102500", "183330.562500", "183331.022500", "183331.482500", "183331.942500", "183332.402500", "183332.862500", "183333.322500", "183333.782500", "183334.242500", "183334.702500", "183335.162500", "183335.622500", "183336.082500", "183336.542500", "183337.002500", "183337.462500", "183337.922500", "183338.382500", "183338.842500", "183339.302500", "183339.762500", "183340.222500", "183340.682500", "183341.142500", "183341.602500", "183342.062500", "183342.522500", "183342.982500", "183343.442500", "183343.902500", "183344.362500", "183344.822500", "183345.282500", "183345.742500", "183346.202500", "183346.662500", "183347.122500", "183347.582500", "183348.042500", "183348.502500", "183348.962500", "183349.422500", "183349.882500", "183350.342500", "183350.802500", "183351.262500", "183351.722500", "183352.182500", "183352.642500", "183353.102500", "183353.562500", "183354.022500", "183354.482500", "183354.942500", "183355.402500", "183355.862500", "183356.322500", "183356.782500", "183357.242500", "183357.702500", "183358.162500", "183358.622500", "183359.082500", "183359.542500", "183400.002500", "183400.462500", "183400.922500", "183401.382500", "183401.842500", "183402.302500", "183402.762500", "183403.222500", "183403.682500", "183404.142500", "183404.602500", "183405.062500", "183405.522500", "183405.982500", "183406.442500", "183406.902500", "183407.362500", "183407.822500", "183408.282500", "183408.742500", "183409.202500", "183409.662500", "183410.122500", "183410.582500", "183411.042500", "183411.502500", "183411.962500", "183412.422500", "183412.882500", "183413.342500", "183413.802500", "183414.262500", "183414.722500", "183415.182500", "183415.642500", "183416.102500", "183416.562500", "183417.022500", "183417.482500", "183417.942500", "183418.402500", "183418.862500", "183419.322500", "183419.782500", "183420.242500", "183420.702500", "183421.162500", "183421.622500", "183422.082500", "183422.542500", "183423.002500", "183423.462500", "183423.922500", "183424.382500", "183424.842500", "183425.302500", "183425.762500", "183426.222500", "183426.682500", "183427.142500", "183427.602500", "183428.062500", "183428.522500", "183428.982500", "183429.442500", "183429.902500", "183430.362500", "183430.822500", "183431.282500", "183431.742500", "183432.202500", "183432.662500", "183433.122500", "183433.582500", "183434.042500", "183434.502500", "183434.962500", "183435.422500", "183435.882500", "183436.342500", "183436.802500", "183437.262500", "183437.722500", "183438.182500", "183438.642500", "183439.102500", "183439.562500", "183440.022500", "183440.482500", "183440.942500", "183441.402500", "183441.862500", "183442.322500", "183442.782500", "183443.242500", "183443.702500", "183444.162500", "183444.622500", "183445.082500", "183445.542500", "183446.002500", "183446.462500", "183446.922500", "183447.382500", "183447.842500", "183448.302500", "183448.762500", "183449.222500", "183449.682500", "183450.142500", "183450.602500", "183451.062500", "183451.522500", "183451.982500", "183452.442500", "183452.902500", "183453.362500", "183453.822500", "183454.282500", "183454.742500", "183455.202500", "183455.662500", "183456.122500", "183456.582500", "183457.042500", "183457.502500", "183457.962500", "183458.422500", "183458.882500", "183459.342500", "183459.802500", "183500.262500", "183500.722500", "183501.182500", "183501.642500", "183502.102500", "183502.562500", "183503.022500", "183503.482500", "183503.942500", "183504.402500", "183504.862500", "183505.322500", "183505.782500", "183506.242500", "183506.702500", "183507.162500", "183507.622500", "183508.082500", "183508.542500", "183509.002500", "183509.462500", "183509.922500", "183510.382500", "183510.842500", "183511.302500", "183511.762500", "183512.222500", "183512.682500", "183513.142500", "183513.602500", "183514.062500", "183514.522500", "183514.982500", "183515.442500", "183515.902500", "183516.362500", "183516.822500", "183517.282500", "183517.742500", "183518.202500", "183518.662500", "183519.122500", "183519.582500", "183520.042500", "183520.502500", "183520.962500", "183521.422500", "183521.882500", "183522.342500", "183522.802500", "183523.262500", "183523.722500", "183524.182500", "183524.642500", "183525.102500", "183525.562500", "183526.022500", "183526.482500", "183526.942500", "183527.402500", "183527.862500", "183528.322500", "183528.782500", "183529.242500", "183529.702500", "183530.162500", "183530.622500", "183531.082500", "183531.542500", "183532.002500", "183532.462500", "183532.922500", "183533.382500", "183533.842500", "183534.302500", "183534.762500", "183535.222500", "183535.682500", "183536.142500", "183536.602500", "183537.062500", "183537.522500", "183537.982500", "183538.442500", "183538.902500", "183539.362500", "183539.822500", "183540.282500", "183540.742500", "183541.202500", "183541.662500", "183542.122500", "183542.582500", "183543.042500", "183543.502500", "183543.962500", "183544.422500", "183544.882500", "183545.342500", "183545.802500", "183546.262500", "183546.722500", "183547.182500", "183547.642500", "183548.102500", "183548.562500", "183549.022500", "183549.482500", "183549.942500", "183550.402500", "183550.862500", "183551.322500", "183551.782500", "183552.242500", "183552.702500", "183553.162500", "183553.622500", "183554.082500", "183554.542500", "183555.002500", "183555.462500", "183555.922500", "183556.382500", "183556.842500", "183557.302500", "183557.762500", "183558.222500", "183558.682500", "183559.142500", "183559.602500", "183600.062500", "183600.522500"],
