{
  "AcquisitionMatrixPE": 82,
  "AcquisitionNumber": 1,
  "AcquisitionTime": "18:44:59.012500",
  "BandwidthPerPixelPhaseEncode": 24.888,
  "BaseResolution": 82,
  "BodyPartExamined": "BRAIN",
  "ConsistencyInfo": "N4_VE11E_LATEST_20181129",
  "ConversionSoftware": "dcm2niix",
  "ConversionSoftwareVersion": "v1.0.20201102",
  "DerivedVendorReportedEchoSpacing": 0.00049,
  "DeviceSerialNumber": "66112",
  "DwellTime": 2e-06,
  "EchoTime": 0.0272,
  "EchoTrainLength": 82,
  "EffectiveEchoSpacing": 0.00049,
  "FlipAngle": 44,
  "ImageComments": "Unaliased MB8/PE3",
  "ImageOrientationPatientDICOM": [0.998514, 0.0494063, 0.023001, -0.0490101, 0.998645, -0.017481],
  "ImageType": [
    "ORIGINAL",
    "PRIMARY",
    "M",
    "MB",
    "ND",
    "NORM",
    "MOSAIC"
],
  "ImagingFrequency": 123.252,
  "InPlanePhaseEncodingDirectionDICOM": "COL",
  "InstitutionAddress": "Maynard 3,Hanover,NH,US,03755",
  "InstitutionName": "Dartmouth College - PBS",
  "InstitutionalDepartmentName": "Department",
  "MRAcquisitionType": "2D",
  "MagneticFieldStrength": 3,
  "Manufacturer": "Siemens",
  "ManufacturersModelName": "Prisma",
  "Modality": "MR",
  "MultibandAccelerationFactor": 8,
  "PartialFourier": 1,
  "PatientPosition": "HFS",
  "PercentPhaseFOV": 100,
  "PercentSampling": 100,
  "PhaseEncodingDirection": "j-",
  "PhaseEncodingSteps": 82,
  "PhaseResolution": 1,
  "PixelBandwidth": 3050,
  "ProcedureStepDescription": "Wager_Wager^1076_spacetop",
  "ProtocolName": "func_run-04_task-social_acq-ap-mb8",
  "PulseSequenceDetails": "%CustomerSeq%\\cmrr_mbep2d_bold",
  "ReceiveCoilActiveElements": "HEA;HEP",
  "ReceiveCoilName": "Head_32",
  "ReconMatrixPE": 82,
  "RepetitionTime": 0.46,
  "SAR": 0.0819193,
  "ScanOptions": "FS",
  "ScanningSequence": "EP",
  "SequenceName": "epfid2d1_82",
  "SequenceVariant": "SK\\SS",
  "SeriesDescription": "func_run-04_task-social_acq-ap-mb8",
  "SeriesNumber": 14,
  "ShimSetting": [4163, -7760, -7257, 565, -56, -201, 30, 32],
  "SliceThickness": 2.7,
  "SliceTiming": [0, 0.2525, 0.0625, 0.315, 0.125, 0.3775, 0.19, 0, 0.2525, 0.0625, 0.315, 0.125, 0.3775, 0.19, 0, 0.2525, 0.0625, 0.315, 0.125, 0.3775, 0.19, 0, 0.2525, 0.0625, 0.315, 0.125, 0.3775, 0.19, 0, 0.2525, 0.0625, 0.315, 0.125, 0.3775, 0.19, 0, 0.2525, 0.0625, 0.315, 0.125, 0.3775, 0.19, 0, 0.2525, 0.0625, 0.315, 0.125, 0.3775, 0.19, 0, 0.2525, 0.0625, 0.315, 0.125, 0.3775, 0.19],
  "SoftwareVersions": "syngo MR E11",
  "SpacingBetweenSlices": 2.7,
  "StationName": "AWP66112",
  "TaskName": "social",
  "TotalReadoutTime": 0.03969,
  "TxRefAmp": 236.312,
  "WipMemBlock": "3e5cf6c5-416b-44be-bd31-36938e019dfe||Sequence: R016 ve11e/master r/434b28f1; Aug  7 2019 18:53:46 by eja",
  "dcmmeta_affine": [
    [-2.6789398193359375, -0.13149060308933258, 0.06435053795576096, 114.88883972167969],
    [-0.13255353271961212, 2.6792922019958496, -0.04408496990799904, -81.69515991210938],
    [0.06171005591750145, 0.046900320798158646, 2.6988730430603027, -61.98900604248047],
    [0.0, 0.0, 0.0, 1.0]
],
  "dcmmeta_reorient_transform": [
    [0.0, -1.0, 0.0, 81.0],
    [1.0, 0.0, 0.0, 0.0],
    [0.0, 0.0, 1.0, 0.0],
    [0.0, 0.0, 0.0, 1.0]
],
  "dcmmeta_shape": [82, 82, 56, 872],
  "dcmmeta_slice_dim": 2,
  "dcmmeta_version": 0.6,
  "global": {
    "const": {
      "AccessionNumber": "A003938",
      "AcquisitionMatrix": [82, 0, 0, 82],
      "AngioFlag": "N",
      "BitsAllocated": 16,
      "BitsStored": 16,
      "BodyPartExamined": "BRAIN",
      "Columns": 656,
      "EchoNumbers": 1,
      "EchoTime": 27.2,
      "EchoTrainLength": 82,
      "FlipAngle": 44.0,
      "HighBit": 15,
      "ImageOrientationPatient": [0.99851388037629, 0.04940631303626, 0.02300102015237, -0.0490101353801, 0.99864529252786, -0.017481028058],
      "ImagePositionPatient": [-835.35600497554, -942.32727639238, -62.440475086357],
      "ImageType": [
        "ORIGINAL",
        "PRIMARY",
        "M",
        "MB",
        "ND",
        "NORM",
        "MOSAIC"
],
      "ImagedNucleus": "1H",
      "ImagingFrequency": 123.252194,
      "InPlanePhaseEncodingDirection": "COL",
      "MRAcquisitionType": "2D",
      "MagneticFieldStrength": 3.0,
      "Manufacturer": "SIEMENS",
      "ManufacturerModelName": "Prisma",
      "Modality": "MR",
      "NumberOfAverages": 1.0,
      "NumberOfPhaseEncodingSteps": 82,
      "PercentPhaseFieldOfView": 100.0,
      "PercentSampling": 100.0,
      "PerformedProcedureStepStartTime": "181201.269000",
      "PhotometricInterpretation": "MONOCHROME2",
      "PixelBandwidth": 3050.0,
      "PixelRepresentation": 0,
      "PixelSpacing": [2.6829268932343, 2.6829268932343],
      "ProtocolName": "func_run-04_task-social_acq-ap-mb8",
      "RepetitionTime": 460.0,
      "Rows": 656,
      "SAR": 0.08191933589088,
      "SamplesPerPixel": 1,
      "ScanOptions": "FS",
      "ScanningSequence": "EP",
      "SequenceName": "epfid2d1_82",
      "SequenceVariant": [
        "SK",
        "SS"
],
      "SeriesDescription": "func_run-04_task-social_acq-ap-mb8",
      "SeriesNumber": 14,
      "SeriesTime": "184517.901000",
      "SliceLocation": -57.891026058833,
      "SliceThickness": 2.7000000476837,
      "SmallestImagePixelValue": 0,
      "SoftwareVersions": "syngo MR E11",
      "SpacingBetweenSlices": 2.6999999898074,
      "SpecificCharacterSet": "ISO_IR 100",
      "StudyID": "1",
      "StudyTime": "181201.198000",
      "TransmitCoilName": "Body",
      "VariableFlipAngleFlag": "N",
      "WindowCenterWidthExplanation": "Algo1"
    },
    "slices": {}
  },
  "time": {
    "samples": {
      "AcquisitionNumber": [1, 2, 3, 4, 5, 6, 7, 8, 9, 10, 11, 12, 13, 14, 15, 16, 17, 18, 19, 20, 21, 22, 23, 24, 25, 26, 27, 28, 29, 30, 31, 32, 33, 34, 35, 36, 37, 38, 39, 40, 41, 42, 43, 44, 45, 46, 47, 48, 49, 50, 51, 52, 53, 54, 55, 56, 57, 58, 59, 60, 61, 62, 63, 64, 65, 66, 67, 68, 69, 70, 71, 72, 73, 74, 75, 76, 77, 78, 79, 80, 81, 82, 83, 84, 85, 86, 87, 88, 89, 90, 91, 92, 93, 94, 95, 96, 97, 98, 99, 100, 101, 102, 103, 104, 105, 106, 107, 108, 109, 110, 111, 112, 113, 114, 115, 116, 117, 118, 119, 120, 121, 122, 123, 124, 125, 126, 127, 128, 129, 130, 131, 132, 133, 134, 135, 136, 137, 138, 139, 140, 141, 142, 143, 144, 145, 146, 147, 148, 149, 150, 151, 152, 153, 154, 155, 156, 157, 158, 159, 160, 161, 162, 163, 164, 165, 166, 167, 168, 169, 170, 171, 172, 173, 174, 175, 176, 177, 178, 179, 180, 181, 182, 183, 184, 185, 186, 187, 188, 189, 190, 191, 192, 193, 194, 195, 196, 197, 198, 199, 200, 201, 202, 203, 204, 205, 206, 207, 208, 209, 210, 211, 212, 213, 214, 215, 216, 217, 218, 219, 220, 221, 222, 223, 224, 225, 226, 227, 228, 229, 230, 231, 232, 233, 234, 235, 236, 237, 238, 239, 240, 241, 242, 243, 244, 245, 246, 247, 248, 249, 250, 251, 252, 253, 254, 255, 256, 257, 258, 259, 260, 261, 262, 263, 264, 265, 266, 267, 268, 269, 270, 271, 272, 273, 274, 275, 276, 277, 278, 279, 280, 281, 282, 283, 284, 285, 286, 287, 288, 289, 290, 291, 292, 293, 294, 295, 296, 297, 298, 299, 300, 301, 302, 303, 304, 305, 306, 307, 308, 309, 310, 311, 312, 313, 314, 315, 316, 317, 318, 319, 320, 321, 322, 323, 324, 325, 326, 327, 328, 329, 330, 331, 332, 333, 334, 335, 336, 337, 338, 339, 340, 341, 342, 343, 344, 345, 346, 347, 348, 349, 350, 351, 352, 353, 354, 355, 356, 357, 358, 359, 360, 361, 362, 363, 364, 365, 366, 367, 368, 369, 370, 371, 372, 373, 374, 375, 376, 377, 378, 379, 380, 381, 382, 383, 384, 385, 386, 387, 388, 389, 390, 391, 392, 393, 394, 395, 396, 397, 398, 399, 400, 401, 402, 403, 404, 405, 406, 407, 408, 409, 410, 411, 412, 413, 414, 415, 416, 417, 418, 419, 420, 421, 422, 423, 424, 425, 426, 427, 428, 429, 430, 431, 432, 433, 434, 435, 436, 437, 438, 439, 440, 441, 442, 443, 444, 445, 446, 447, 448, 449, 450, 451, 452, 453, 454, 455, 456, 457, 458, 459, 460, 461, 462, 463, 464, 465, 466, 467, 468, 469, 470, 471, 472, 473, 474, 475, 476, 477, 478, 479, 480, 481, 482, 483, 484, 485, 486, 487, 488, 489, 490, 491, 492, 493, 494, 495, 496, 497, 498, 499, 500, 501, 502, 503, 504, 505, 506, 507, 508, 509, 510, 511, 512, 513, 514, 515, 516, 517, 518, 519, 520, 521, 522, 523, 524, 525, 526, 527, 528, 529, 530, 531, 532, 533, 534, 535, 536, 537, 538, 539, 540, 541, 542, 543, 544, 545, 546, 547, 548, 549, 550, 551, 552, 553, 554, 555, 556, 557, 558, 559, 560, 561, 562, 563, 564, 565, 566, 567, 568, 569, 570, 571, 572, 573, 574, 575, 576, 577, 578, 579, 580, 581, 582, 583, 584, 585, 586, 587, 588, 589, 590, 591, 592, 593, 594, 595, 596, 597, 598, 599, 600, 601, 602, 603, 604, 605, 606, 607, 608, 609, 610, 611, 612, 613, 614, 615, 616, 617, 618, 619, 620, 621, 622, 623, 624, 625, 626, 627, 628, 629, 630, 631, 632, 633, 634, 635, 636, 637, 638, 639, 640, 641, 642, 643, 644, 645, 646, 647, 648, 649, 650, 651, 652, 653, 654, 655, 656, 657, 658, 659, 660, 661, 662, 663, 664, 665, 666, 667, 668, 669, 670, 671, 672, 673, 674, 675, 676, 677, 678, 679, 680, 681, 682, 683, 684, 685, 686, 687, 688, 689, 690, 691, 692, 693, 694, 695, 696, 697, 698, 699, 700, 701, 702, 703, 704, 705, 706, 707, 708, 709, 710, 711, 712, 713, 714, 715, 716, 717, 718, 719, 720, 721, 722, 723, 724, 725, 726, 727, 728, 729, 730, 731, 732, 733, 734, 735, 736, 737, 738, 739, 740, 741, 742, 743, 744, 745, 746, 747, 748, 749, 750, 751, 752, 753, 754, 755, 756, 757, 758, 759, 760, 761, 762, 763, 764, 765, 766, 767, 768, 769, 770, 771, 772, 773, 774, 775, 776, 777, 778, 779, 780, 781, 782, 783, 784, 785, 786, 787, 788, 789, 790, 791, 792, 793, 794, 795, 796, 797, 798, 799, 800, 801, 802, 803, 804, 805, 806, 807, 808, 809, 810, 811, 812, 813, 814, 815, 816, 817, 818, 819, 820, 821, 822, 823, 824, 825, 826, 827, 828, 829, 830, 831, 832, 833, 834, 835, 836, 837, 838, 839, 840, 841, 842, 843, 844, 845, 846, 847, 848, 849, 850, 851, 852, 853, 854, 855, 856, 857, 858, 859, 860, 861, 862, 863, 864, 865, 866, 867, 868, 869, 870, 871, 872],
      "AcquisitionTime": ["184459.012500", "184459.472500", "184459.932500", "184500.392500", "184500.852500", "184501.312500", "184501.772500", "184502.232500", "184502.692500", "184503.152500", "184503.612500", "184504.072500", "184504.532500", "184504.992500", "184505.452500", "184505.912500", "184506.372500", "184506.832500", "184507.292500", "184507.752500", "184508.212500", "184508.672500", "184509.132500", "184509.592500", "184510.052500", "184510.512500", "184510.972500", "184511.432500", "184511.892500", "184512.352500", "184512.812500", "184513.272500", "184513.732500", "184514.192500", "184514.652500", "184515.112500", "184515.572500", "184516.032500", "184516.492500", "184516.952500", "184517.412500", "184517.872500", "184518.332500", "184518.792500", "184519.252500", "184519.712500", "184520.172500", "184520.632500", "184521.092500", "184521.552500", "184522.012500", "184522.472500", "184522.932500", "184523.392500", "184523.852500", "184524.312500", "184524.772500", "184525.232500", "184525.692500", "184526.152500", "184526.612500", "184527.072500", "184527.532500", "184527.992500", "184528.452500", "184528.912500", "184529.372500", "184529.832500", "184530.292500", "184530.752500", "184531.212500", "184531.672500", "184532.132500", "184532.592500", "184533.052500", "184533.512500", "184533.972500", "184534.432500", "184534.892500", "184535.352500", "184535.812500", "184536.272500", "184536.732500", "184537.192500", "184537.652500", "184538.112500", "184538.572500", "184539.032500", "184539.492500", "184539.952500", "184540.412500", "184540.872500", "184541.332500", "184541.792500", "184542.252500", "184542.712500", "184543.172500", "184543.632500", "184544.092500", "184544.552500", "184545.012500", "184545.472500", "184545.932500", "184546.392500", "184546.852500", "184547.312500", "184547.772500", "184548.232500", "184548.692500", "184549.152500", "184549.612500", "184550.072500", "184550.532500", "184550.992500", "184551.452500", "184551.912500", "184552.372500", "184552.832500", "184553.292500", "184553.752500", "184554.212500", "184554.672500", "184555.132500", "184555.592500", "184556.052500", "184556.512500", "184556.972500", "184557.432500", "184557.892500", "184558.352500", "184558.812500", "184559.272500", "184559.732500", "184600.192500", "184600.652500", "184601.112500", "184601.572500", "184602.032500", "184602.492500", "184602.952500", "184603.412500", "184603.872500", "184604.332500", "184604.792500", "184605.252500", "184605.712500", "184606.172500", "184606.632500", "184607.092500", "184607.552500", "184608.012500", "184608.472500", "184608.932500", "184609.392500", "184609.852500", "184610.312500", "184610.772500", "184611.232500", "184611.692500", "184612.152500", "184612.612500", "184613.072500", "184613.532500", "184613.992500", "184614.452500", "184614.912500", "184615.372500", "184615.832500", "184616.292500", "184616.752500", "184617.212500", "184617.672500", "184618.132500", "184618.592500", "184619.052500", "184619.512500", "184619.972500", "184620.432500", "184620.892500", "184621.352500", "184621.812500", "184622.272500", "184622.732500", "184623.192500", "184623.652500", "184624.112500", "184624.572500", "184625.032500", "184625.492500", "184625.952500", "184626.412500", "184626.872500", "184627.332500", "184627.792500", "184628.252500", "184628.712500", "184629.172500", "184629.632500", "184630.092500", "184630.552500", "184631.012500", "184631.472500", "184631.932500", "184632.392500", "184632.852500", "184633.312500", "184633.772500", "184634.232500", "184634.692500", "184635.152500", "184635.612500", "184636.072500", "184636.532500", "184636.992500", "184637.452500", "184637.912500", "184638.372500", "184638.832500", "184639.292500", "184639.752500", "184640.212500", "184640.672500", "184641.132500", "184641.592500", "184642.052500", "184642.512500", "184642.972500", "184643.432500", "184643.892500", "184644.352500", "184644.812500", "184645.272500", "184645.732500", "184646.192500", "184646.652500", "184647.112500", "184647.572500", "184648.032500", "184648.492500", "184648.952500", "184649.412500", "184649.872500", "184650.332500", "184650.792500", "184651.252500", "184651.712500", "184652.172500", "184652.632500", "184653.092500", "184653.552500", "184654.012500", "184654.472500", "184654.932500", "184655.392500", "184655.852500", "184656.312500", "184656.772500", "184657.232500", "184657.692500", "184658.152500", "184658.612500", "184659.072500", "184659.532500", "184659.992500", "184700.452500", "184700.912500", "184701.372500", "184701.832500", "184702.292500", "184702.752500", "184703.212500", "184703.672500", "184704.132500", "184704.592500", "184705.052500", "184705.512500", "184705.972500", "184706.432500", "184706.892500", "184707.352500", "184707.812500", "184708.272500", "184708.732500", "184709.192500", "184709.652500", "184710.112500", "184710.572500", "184711.032500", "184711.492500", "184711.952500", "184712.412500", "184712.872500", "184713.332500", "184713.792500", "184714.252500", "184714.712500", "184715.172500", "184715.632500", "184716.092500", "184716.552500", "184717.012500", "184717.472500", "184717.932500", "184718.392500", "184718.852500", "184719.312500", "184719.772500", "184720.232500", "184720.692500", "184721.152500", "184721.612500", "184722.072500", "184722.532500", "184722.992500", "184723.452500", "184723.912500", "184724.372500", "184724.832500", "184725.292500", "184725.752500", "184726.212500", "184726.672500", "184727.132500", "184727.592500", "184728.052500", "184728.512500", "184728.972500", "184729.432500", "184729.892500", "184730.352500", "184730.812500", "184731.272500", "184731.732500", "184732.192500", "184732.652500", "184733.112500", "184733.572500", "184734.032500", "184734.492500", "184734.952500", "184735.412500", "184735.872500", "184736.332500", "184736.792500", "184737.252500", "184737.712500", "184738.172500", "184738.632500", "184739.092500", "184739.552500", "184740.012500", "184740.472500", "184740.932500", "184741.392500", "184741.852500", "184742.312500", "184742.772500", "184743.232500", "184743.692500", "184744.152500", "184744.612500", "184745.072500", "184745.532500", "184745.992500", "184746.452500", "184746.912500", "184747.372500", "184747.832500", "184748.292500", "184748.752500", "184749.212500", "184749.672500", "184750.132500", "184750.592500", "184751.052500", "184751.512500", "184751.972500", "184752.432500", "184752.892500", "184753.352500", "184753.812500", "184754.272500", "184754.732500", "184755.192500", "184755.652500", "184756.112500", "184756.572500", "184757.032500", "184757.492500", "184757.952500", "184758.412500", "184758.872500", "184759.332500", "184759.792500", "184800.252500", "184800.712500", "184801.172500", "184801.632500", "184802.092500", "184802.552500", "184803.012500", "184803.472500", "184803.932500", "184804.392500", "184804.852500", "184805.312500", "184805.772500", "184806.232500", "184806.692500", "184807.152500", "184807.612500", "184808.072500", "184808.532500", "184808.992500", "184809.452500", "184809.912500", "184810.372500", "184810.832500", "184811.292500", "184811.752500", "184812.212500", "184812.672500", "184813.132500", "184813.592500", "184814.052500", "184814.512500", "184814.972500", "184815.432500", "184815.892500", "184816.352500", "184816.812500", "184817.272500", "184817.732500", "184818.192500", "184818.652500", "184819.112500", "184819.572500", "184820.032500", "184820.492500", "184820.952500", "184821.412500", "184821.872500", "184822.332500", "184822.792500", "184823.252500", "184823.712500", "184824.172500", "184824.632500", "184825.092500", "184825.552500", "184826.012500", "184826.472500", "184826.932500", "184827.392500", "184827.852500", "184828.312500", "184828.772500", "184829.232500", "184829.692500", "184830.152500", "184830.612500", "184831.072500", "184831.532500", "184831.992500", "184832.452500", "184832.912500", "184833.372500", "184833.832500", "184834.292500", "184834.752500", "184835.212500", "184835.672500", "184836.132500", "184836.592500", "184837.052500", "184837.512500", "184837.972500", "184838.432500", "184838.892500", "184839.352500", "184839.812500", "184840.272500", "184840.732500", "184841.192500", "184841.652500", "184842.112500", "184842.572500", "184843.032500", "184843.492500", "184843.952500", "184844.412500", "184844.872500", "184845.332500", "184845.792500", "184846.252500", "184846.712500", "184847.172500", "184847.632500", "184848.092500", "184848.552500", "184849.012500", "184849.472500", "184849.932500", "184850.392500", "184850.852500", "184851.312500", "184851.772500", "184852.232500", "184852.692500", "184853.152500", "184853.612500", "184854.072500", "184854.532500", "184854.992500", "184855.452500", "184855.912500", "184856.372500", "184856.832500", "184857.292500", "184857.752500", "184858.212500", "184858.672500", "184859.132500", "184859.592500", "184900.052500", "184900.512500", "184900.972500", "184901.432500", "184901.892500", "184902.352500", "184902.812500", "184903.272500", "184903.732500", "184904.192500", "184904.652500", "184905.112500", "184905.572500", "184906.032500", "184906.492500", "184906.952500", "184907.412500", "184907.872500", "184908.332500", "184908.792500", "184909.252500", "184909.712500", "184910.172500", "184910.632500", "184911.092500", "184911.552500", "184912.012500", "184912.472500", "184912.932500", "184913.392500", "184913.852500", "184914.312500", "184914.772500", "184915.232500", "184915.692500", "184916.152500", "184916.612500", "184917.072500", "184917.532500", "184917.992500", "184918.452500", "184918.912500", "184919.372500", "184919.832500", "184920.292500", "184920.752500", "184921.212500", "184921.672500", "184922.132500", "184922.592500", "184923.052500", "184923.512500", "184923.972500", "184924.432500", "184924.892500", "184925.352500", "184925.812500", "184926.272500", "184926.732500", "184927.192500", "184927.652500", "184928.112500", "184928.572500", "184929.032500", "184929.492500", "184929.952500", "184930.412500", "184930.872500", "184931.332500", "184931.792500", "184932.252500", "184932.712500", "184933.172500", "184933.632500", "184934.092500", "184934.552500", "184935.012500", "184935.472500", "184935.932500", "184936.392500", "184936.852500", "184937.312500", "184937.772500", "184938.232500", "184938.692500", "184939.152500", "184939.612500", "184940.072500", "184940.532500", "184940.992500", "184941.452500", "184941.912500", "184942.372500", "184942.832500", "184943.292500", "184943.752500", "184944.212500", "184944.672500", "184945.132500", "184945.592500", "184946.052500", "184946.512500", "184946.972500", "184947.432500", "184947.892500", "184948.352500", "184948.812500", "184949.272500", "184949.732500", "184950.192500", "184950.652500", "184951.112500", "184951.572500", "184952.032500", "184952.492500", "184952.952500", "184953.412500", "184953.872500", "184954.332500", "184954.792500", "184955.252500", "184955.712500", "184956.172500", "184956.632500", "184957.092500", "184957.552500", "184958.012500", "184958.472500", "184958.932500", "184959.392500", "184959.852500", "185000.312500", "185000.772500", "185001.232500", "185001.692500", "185002.152500", "185002.612500", "185003.072500", "185003.532500", "185003.992500", "185004.452500", "185004.912500", "185005.372500", "185005.832500", "185006.292500", "185006.752500", "185007.212500", "185007.672500", "185008.132500", "185008.592500", "185009.052500", "185009.512500", "185009.972500", "185010.432500", "185010.892500", "185011.352500", "185011.812500", "185012.272500", "185012.732500", "185013.192500", "185013.652500", "185014.112500", "185014.572500", "185015.032500", "185015.492500", "185015.952500", "185016.412500", "185016.872500", "185017.332500", "185017.792500", "185018.252500", "185018.712500", "185019.172500", "185019.632500", "185020.092500", "185020.552500", "185021.012500", "185021.472500", "185021.932500", "185022.392500", "185022.852500", "185023.312500", "185023.772500", "185024.232500", "185024.692500", "185025.152500", "185025.612500", "185026.072500", "185026.532500", "185026.992500", "185027.452500", "185027.912500", "185028.372500", "185028.832500", "185029.292500", "185029.752500", "185030.212500", "185030.672500", "185031.132500", "185031.592500", "185032.052500", "185032.512500", "185032.972500", "185033.432500", "185033.892500", "185034.352500", "185034.812500", "185035.272500", "185035.732500", "185036.192500", "185036.652500", "185037.112500", "185037.572500", "185038.032500", "185038.492500", "185038.952500", "185039.412500", "185039.872500", "185040.332500", "185040.792500", "185041.252500", "185041.712500", "185042.172500", "185042.632500", "185043.092500", "185043.552500", "185044.012500", "185044.472500", "185044.932500", "185045.392500", "185045.852500", "185046.312500", "185046.772500", "185047.232500", "185047.692500", "185048.152500", "185048.612500", "185049.072500", "185049.532500", "185049.992500", "185050.452500", "185050.912500", "185051.372500", "185051.832500", "185052.292500", "185052.752500", "185053.212500", "185053.672500", "185054.132500", "185054.592500", "185055.052500", "185055.512500", "185055.972500", "185056.432500", "185056.892500", "185057.352500", "185057.812500", "185058.272500", "185058.732500", "185059.192500", "185059.652500", "185100.112500", "185100.572500", "185101.032500", "185101.492500", "185101.952500", "185102.412500", "185102.872500", "185103.332500", "185103.792500", "185104.252500", "185104.712500", "185105.172500", "185105.632500", "185106.092500", "185106.552500", "185107.012500", "185107.472500", "185107.932500", "185108.392500", "185108.852500", "185109.312500", "185109.772500", "185110.232500", "185110.692500", "185111.152500", "185111.612500", "185112.072500", "185112.532500", "185112.992500", "185113.452500", "185113.912500", "185114.372500", "185114.832500", "185115.292500", "185115.752500", "185116.212500", "185116.672500", "185117.132500", "185117.592500", "185118.052500", "185118.512500", "185118.972500", "185119.432500", "185119.892500", "185120.352500", "185120.812500", "185121.272500", "185121.732500", "185122.192500", "185122.652500", "185123.112500", "185123.572500", "185124.032500", "185124.492500", "185124.952500", "185125.412500", "185125.872500", "185126.332500", "185126.792500", "185127.252500", "185127.712500", "185128.172500", "185128.632500", "185129.092500", "185129.552500", "185130.012500", "185130.472500", "185130.932500", "185131.392500", "185131.852500", "185132.312500", "185132.772500", "185133.232500", "185133.692500", "185134.152500", "185134.612500", "185135.072500", "185135.532500", "185135.992500", "185136.452500", "185136.912500", "185137.372500", "185137.832500", "185138.292500", "185138.752500", "185139.212500", "185139.672500"],
