{
  "AcquisitionMatrixPE": 82,
  "AcquisitionNumber": 1,
  "AcquisitionTime": "18:52:22.340000",
  "BandwidthPerPixelPhaseEncode": 24.888,
  "BaseResolution": 82,
  "BodyPartExamined": "BRAIN",
  "ConsistencyInfo": "N4_VE11E_LATEST_20181129",
  "ConversionSoftware": "dcm2niix",
  "ConversionSoftwareVersion": "v1.0.20201102",
  "DerivedVendorReportedEchoSpacing": 0.00049,
  "DeviceSerialNumber": "66112",
  "DwellTime": 2e-06,
  "EchoTime": 0.0272,
  "EchoTrainLength": 82,
  "EffectiveEchoSpacing": 0.00049,
  "FlipAngle": 44,
  "ImageComments": "Unaliased MB8/PE3",
  "ImageOrientationPatientDICOM": [0.998514, 0.0494063, 0.023001, -0.0490101, 0.998645, -0.017481],
  "ImageType": [
    "ORIGINAL",
    "PRIMARY",
    "M",
    "MB",
    "ND",
    "NORM",
    "MOSAIC"
],
  "ImagingFrequency": 123.252,
  "InPlanePhaseEncodingDirectionDICOM": "COL",
  "InstitutionAddress": "Maynard 3,Hanover,NH,US,03755",
  "InstitutionName": "Dartmouth College - PBS",
  "InstitutionalDepartmentName": "Department",
  "MRAcquisitionType": "2D",
  "MagneticFieldStrength": 3,
  "Manufacturer": "Siemens",
  "ManufacturersModelName": "Prisma",
  "Modality": "MR",
  "MultibandAccelerationFactor": 8,
  "PartialFourier": 1,
  "PatientPosition": "HFS",
  "PercentPhaseFOV": 100,
  "PercentSampling": 100,
  "PhaseEncodingDirection": "j-",
  "PhaseEncodingSteps": 82,
  "PhaseResolution": 1,
  "PixelBandwidth": 3050,
  "ProcedureStepDescription": "Wager_Wager^1076_spacetop",
  "ProtocolName": "func_run-05_task-social_acq-ap-mb8",
  "PulseSequenceDetails": "%CustomerSeq%\\cmrr_mbep2d_bold",
  "ReceiveCoilActiveElements": "HEA;HEP",
  "ReceiveCoilName": "Head_32",
  "ReconMatrixPE": 82,
  "RepetitionTime": 0.46,
  "SAR": 0.0819193,
  "ScanOptions": "FS",
  "ScanningSequence": "EP",
  "SequenceName": "epfid2d1_82",
  "SequenceVariant": "SK\\SS",
  "SeriesDescription": "func_run-05_task-social_acq-ap-mb8",
  "SeriesNumber": 16,
  "ShimSetting": [4163, -7760, -7257, 565, -56, -201, 30, 32],
  "SliceThickness": 2.7,
  "SliceTiming": [0, 0.25, 0.0625, 0.315, 0.125, 0.3775, 0.1875, 0, 0.25, 0.0625, 0.315, 0.125, 0.3775, 0.1875, 0, 0.25, 0.0625, 0.315, 0.125, 0.3775, 0.1875, 0, 0.25, 0.0625, 0.315, 0.125, 0.3775, 0.1875, 0, 0.25, 0.0625, 0.315, 0.125, 0.3775, 0.1875, 0, 0.25, 0.0625, 0.315, 0.125, 0.3775, 0.1875, 0, 0.25, 0.0625, 0.315, 0.125, 0.3775, 0.1875, 0, 0.25, 0.0625, 0.315, 0.125, 0.3775, 0.1875],
  "SoftwareVersions": "syngo MR E11",
  "SpacingBetweenSlices": 2.7,
  "StationName": "AWP66112",
  "TaskName": "social",
  "TotalReadoutTime": 0.03969,
  "TxRefAmp": 236.312,
  "WipMemBlock": "beffa651-52e9-43bb-ac9a-2556b59a3e73||Sequence: R016 ve11e/master r/434b28f1; Aug  7 2019 18:53:46 by eja",
  "dcmmeta_affine": [
    [-2.6789398193359375, -0.13149060308933258, 0.06435053795576096, 114.88883972167969],
    [-0.13255353271961212, 2.6792922019958496, -0.04408496990799904, -81.69515991210938],
    [0.06171005591750145, 0.046900320798158646, 2.6988730430603027, -61.98900604248047],
    [0.0, 0.0, 0.0, 1.0]
],
  "dcmmeta_reorient_transform": [
    [0.0, -1.0, 0.0, 81.0],
    [1.0, 0.0, 0.0, 0.0],
    [0.0, 0.0, 1.0, 0.0],
    [0.0, 0.0, 0.0, 1.0]
],
  "dcmmeta_shape": [82, 82, 56, 872],
  "dcmmeta_slice_dim": 2,
  "dcmmeta_version": 0.6,
  "global": {
    "const": {
      "AccessionNumber": "A003938",
      "AcquisitionMatrix": [82, 0, 0, 82],
      "AngioFlag": "N",
      "BitsAllocated": 16,
      "BitsStored": 16,
      "BodyPartExamined": "BRAIN",
      "Columns": 656,
      "EchoNumbers": 1,
      "EchoTime": 27.2,
      "EchoTrainLength": 82,
      "FlipAngle": 44.0,
      "HighBit": 15,
      "ImageOrientationPatient": [0.99851388037629, 0.04940631303626, 0.02300102015237, -0.0490101353801, 0.99864529252786, -0.017481028058],
      "ImagePositionPatient": [-835.35600497554, -942.32727639238, -62.440475086357],
      "ImageType": [
        "ORIGINAL",
        "PRIMARY",
        "M",
        "MB",
        "ND",
        "NORM",
        "MOSAIC"
],
      "ImagedNucleus": "1H",
      "ImagingFrequency": 123.252195,
      "InPlanePhaseEncodingDirection": "COL",
      "MRAcquisitionType": "2D",
      "MagneticFieldStrength": 3.0,
      "Manufacturer": "SIEMENS",
      "ManufacturerModelName": "Prisma",
      "Modality": "MR",
      "NumberOfAverages": 1.0,
      "NumberOfPhaseEncodingSteps": 82,
      "PercentPhaseFieldOfView": 100.0,
      "PercentSampling": 100.0,
      "PerformedProcedureStepStartTime": "181201.269000",
      "PhotometricInterpretation": "MONOCHROME2",
      "PixelBandwidth": 3050.0,
      "PixelRepresentation": 0,
      "PixelSpacing": [2.6829268932343, 2.6829268932343],
      "ProtocolName": "func_run-05_task-social_acq-ap-mb8",
      "RepetitionTime": 460.0,
      "Rows": 656,
      "SAR": 0.08191933589088,
      "SamplesPerPixel": 1,
      "ScanOptions": "FS",
      "ScanningSequence": "EP",
      "SequenceName": "epfid2d1_82",
      "SequenceVariant": [
        "SK",
        "SS"
],
      "SeriesDescription": "func_run-05_task-social_acq-ap-mb8",
      "SeriesNumber": 16,
      "SeriesTime": "185237.981000",
      "SliceLocation": -57.891026058833,
      "SliceThickness": 2.7000000476837,
      "SmallestImagePixelValue": 0,
      "SoftwareVersions": "syngo MR E11",
      "SpacingBetweenSlices": 2.6999999898074,
      "SpecificCharacterSet": "ISO_IR 100",
      "StudyID": "1",
      "StudyTime": "181201.198000",
      "TransmitCoilName": "Body",
      "VariableFlipAngleFlag": "N",
      "WindowCenterWidthExplanation": "Algo1"
    },
    "slices": {}
  },
  "time": {
    "samples": {
      "AcquisitionNumber": [1, 2, 3, 4, 5, 6, 7, 8, 9, 10, 11, 12, 13, 14, 15, 16, 17, 18, 19, 20, 21, 22, 23, 24, 25, 26, 27, 28, 29, 30, 31, 32, 33, 34, 35, 36, 37, 38, 39, 40, 41, 42, 43, 44, 45, 46, 47, 48, 49, 50, 51, 52, 53, 54, 55, 56, 57, 58, 59, 60, 61, 62, 63, 64, 65, 66, 67, 68, 69, 70, 71, 72, 73, 74, 75, 76, 77, 78, 79, 80, 81, 82, 83, 84, 85, 86, 87, 88, 89, 90, 91, 92, 93, 94, 95, 96, 97, 98, 99, 100, 101, 102, 103, 104, 105, 106, 107, 108, 109, 110, 111, 112, 113, 114, 115, 116, 117, 118, 119, 120, 121, 122, 123, 124, 125, 126, 127, 128, 129, 130, 131, 132, 133, 134, 135, 136, 137, 138, 139, 140, 141, 142, 143, 144, 145, 146, 147, 148, 149, 150, 151, 152, 153, 154, 155, 156, 157, 158, 159, 160, 161, 162, 163, 164, 165, 166, 167, 168, 169, 170, 171, 172, 173, 174, 175, 176, 177, 178, 179, 180, 181, 182, 183, 184, 185, 186, 187, 188, 189, 190, 191, 192, 193, 194, 195, 196, 197, 198, 199, 200, 201, 202, 203, 204, 205, 206, 207, 208, 209, 210, 211, 212, 213, 214, 215, 216, 217, 218, 219, 220, 221, 222, 223, 224, 225, 226, 227, 228, 229, 230, 231, 232, 233, 234, 235, 236, 237, 238, 239, 240, 241, 242, 243, 244, 245, 246, 247, 248, 249, 250, 251, 252, 253, 254, 255, 256, 257, 258, 259, 260, 261, 262, 263, 264, 265, 266, 267, 268, 269, 270, 271, 272, 273, 274, 275, 276, 277, 278, 279, 280, 281, 282, 283, 284, 285, 286, 287, 288, 289, 290, 291, 292, 293, 294, 295, 296, 297, 298, 299, 300, 301, 302, 303, 304, 305, 306, 307, 308, 309, 310, 311, 312, 313, 314, 315, 316, 317, 318, 319, 320, 321, 322, 323, 324, 325, 326, 327, 328, 329, 330, 331, 332, 333, 334, 335, 336, 337, 338, 339, 340, 341, 342, 343, 344, 345, 346, 347, 348, 349, 350, 351, 352, 353, 354, 355, 356, 357, 358, 359, 360, 361, 362, 363, 364, 365, 366, 367, 368, 369, 370, 371, 372, 373, 374, 375, 376, 377, 378, 379, 380, 381, 382, 383, 384, 385, 386, 387, 388, 389, 390, 391, 392, 393, 394, 395, 396, 397, 398, 399, 400, 401, 402, 403, 404, 405, 406, 407, 408, 409, 410, 411, 412, 413, 414, 415, 416, 417, 418, 419, 420, 421, 422, 423, 424, 425, 426, 427, 428, 429, 430, 431, 432, 433, 434, 435, 436, 437, 438, 439, 440, 441, 442, 443, 444, 445, 446, 447, 448, 449, 450, 451, 452, 453, 454, 455, 456, 457, 458, 459, 460, 461, 462, 463, 464, 465, 466, 467, 468, 469, 470, 471, 472, 473, 474, 475, 476, 477, 478, 479, 480, 481, 482, 483, 484, 485, 486, 487, 488, 489, 490, 491, 492, 493, 494, 495, 496, 497, 498, 499, 500, 501, 502, 503, 504, 505, 506, 507, 508, 509, 510, 511, 512, 513, 514, 515, 516, 517, 518, 519, 520, 521, 522, 523, 524, 525, 526, 527, 528, 529, 530, 531, 532, 533, 534, 535, 536, 537, 538, 539, 540, 541, 542, 543, 544, 545, 546, 547, 548, 549, 550, 551, 552, 553, 554, 555, 556, 557, 558, 559, 560, 561, 562, 563, 564, 565, 566, 567, 568, 569, 570, 571, 572, 573, 574, 575, 576, 577, 578, 579, 580, 581, 582, 583, 584, 585, 586, 587, 588, 589, 590, 591, 592, 593, 594, 595, 596, 597, 598, 599, 600, 601, 602, 603, 604, 605, 606, 607, 608, 609, 610, 611, 612, 613, 614, 615, 616, 617, 618, 619, 620, 621, 622, 623, 624, 625, 626, 627, 628, 629, 630, 631, 632, 633, 634, 635, 636, 637, 638, 639, 640, 641, 642, 643, 644, 645, 646, 647, 648, 649, 650, 651, 652, 653, 654, 655, 656, 657, 658, 659, 660, 661, 662, 663, 664, 665, 666, 667, 668, 669, 670, 671, 672, 673, 674, 675, 676, 677, 678, 679, 680, 681, 682, 683, 684, 685, 686, 687, 688, 689, 690, 691, 692, 693, 694, 695, 696, 697, 698, 699, 700, 701, 702, 703, 704, 705, 706, 707, 708, 709, 710, 711, 712, 713, 714, 715, 716, 717, 718, 719, 720, 721, 722, 723, 724, 725, 726, 727, 728, 729, 730, 731, 732, 733, 734, 735, 736, 737, 738, 739, 740, 741, 742, 743, 744, 745, 746, 747, 748, 749, 750, 751, 752, 753, 754, 755, 756, 757, 758, 759, 760, 761, 762, 763, 764, 765, 766, 767, 768, 769, 770, 771, 772, 773, 774, 775, 776, 777, 778, 779, 780, 781, 782, 783, 784, 785, 786, 787, 788, 789, 790, 791, 792, 793, 794, 795, 796, 797, 798, 799, 800, 801, 802, 803, 804, 805, 806, 807, 808, 809, 810, 811, 812, 813, 814, 815, 816, 817, 818, 819, 820, 821, 822, 823, 824, 825, 826, 827, 828, 829, 830, 831, 832, 833, 834, 835, 836, 837, 838, 839, 840, 841, 842, 843, 844, 845, 846, 847, 848, 849, 850, 851, 852, 853, 854, 855, 856, 857, 858, 859, 860, 861, 862, 863, 864, 865, 866, 867, 868, 869, 870, 871, 872],
      "AcquisitionTime": ["185222.340000", "185222.800000", "185223.260000", "185223.720000", "185224.180000", "185224.640000", "185225.100000", "185225.560000", "185226.020000", "185226.480000", "185226.940000", "185227.400000", "185227.860000", "185228.320000", "185228.780000", "185229.240000", "185229.700000", "185230.160000", "185230.620000", "185231.080000", "185231.540000", "185232.000000", "185232.460000", "185232.920000", "185233.380000", "185233.840000", "185234.300000", "185234.760000", "185235.220000", "185235.680000", "185236.140000", "185236.600000", "185237.060000", "185237.520000", "185237.980000", "185238.440000", "185238.900000", "185239.360000", "185239.820000", "185240.280000", "185240.740000", "185241.200000", "185241.660000", "185242.120000", "185242.580000", "185243.040000", "185243.500000", "185243.960000", "185244.420000", "185244.880000", "185245.340000", "185245.800000", "185246.260000", "185246.720000", "185247.180000", "185247.640000", "185248.100000", "185248.560000", "185249.020000", "185249.480000", "185249.940000", "185250.400000", "185250.860000", "185251.320000", "185251.780000", "185252.240000", "185252.700000", "185253.160000", "185253.620000", "185254.080000", "185254.540000", "185255.000000", "185255.460000", "185255.920000", "185256.380000", "185256.840000", "185257.300000", "185257.760000", "185258.220000", "185258.680000", "185259.140000", "185259.600000", "185300.060000", "185300.520000", "185300.980000", "185301.440000", "185301.900000", "185302.360000", "185302.820000", "185303.280000", "185303.740000", "185304.200000", "185304.660000", "185305.120000", "185305.580000", "185306.040000", "185306.500000", "185306.960000", "185307.420000", "185307.880000", "185308.340000", "185308.800000", "185309.260000", "185309.720000", "185310.180000", "185310.640000", "185311.100000", "185311.560000", "185312.020000", "185312.480000", "185312.940000", "185313.400000", "185313.860000", "185314.320000", "185314.780000", "185315.240000", "185315.700000", "185316.160000", "185316.620000", "185317.080000", "185317.540000", "185318.000000", "185318.460000", "185318.920000", "185319.380000", "185319.840000", "185320.300000", "185320.760000", "185321.220000", "185321.680000", "185322.140000", "185322.600000", "185323.060000", "185323.520000", "185323.980000", "185324.440000", "185324.900000", "185325.360000", "185325.820000", "185326.280000", "185326.740000", "185327.200000", "185327.660000", "185328.120000", "185328.580000", "185329.040000", "185329.500000", "185329.960000", "185330.420000", "185330.880000", "185331.340000", "185331.800000", "185332.260000", "185332.720000", "185333.180000", "185333.640000", "185334.100000", "185334.560000", "185335.020000", "185335.480000", "185335.940000", "185336.400000", "185336.860000", "185337.320000", "185337.780000", "185338.240000", "185338.700000", "185339.160000", "185339.620000", "185340.080000", "185340.540000", "185341.000000", "185341.460000", "185341.920000", "185342.380000", "185342.840000", "185343.300000", "185343.760000", "185344.220000", "185344.680000", "185345.140000", "185345.600000", "185346.060000", "185346.520000", "185346.980000", "185347.440000", "185347.900000", "185348.360000", "185348.820000", "185349.280000", "185349.740000", "185350.200000", "185350.660000", "185351.120000", "185351.580000", "185352.040000", "185352.500000", "185352.960000", "185353.420000", "185353.880000", "185354.340000", "185354.800000", "185355.260000", "185355.720000", "185356.180000", "185356.640000", "185357.100000", "185357.560000", "185358.020000", "185358.480000", "185358.940000", "185359.400000", "185359.860000", "185400.320000", "185400.780000", "185401.240000", "185401.700000", "185402.160000", "185402.620000", "185403.080000", "185403.540000", "185404.000000", "185404.460000", "185404.920000", "185405.380000", "185405.840000", "185406.300000", "185406.760000", "185407.220000", "185407.680000", "185408.140000", "185408.600000", "185409.060000", "185409.520000", "185409.980000", "185410.440000", "185410.900000", "185411.360000", "185411.820000", "185412.280000", "185412.740000", "185413.200000", "185413.660000", "185414.120000", "185414.580000", "185415.040000", "185415.500000", "185415.960000", "185416.420000", "185416.880000", "185417.340000", "185417.800000", "185418.260000", "185418.720000", "185419.180000", "185419.640000", "185420.100000", "185420.560000", "185421.020000", "185421.480000", "185421.940000", "185422.400000", "185422.860000", "185423.320000", "185423.780000", "185424.240000", "185424.700000", "185425.160000", "185425.620000", "185426.080000", "185426.540000", "185427.000000", "185427.460000", "185427.920000", "185428.380000", "185428.840000", "185429.300000", "185429.760000", "185430.220000", "185430.680000", "185431.140000", "185431.600000", "185432.060000", "185432.520000", "185432.980000", "185433.440000", "185433.900000", "185434.360000", "185434.820000", "185435.280000", "185435.740000", "185436.200000", "185436.660000", "185437.120000", "185437.580000", "185438.040000", "185438.500000", "185438.960000", "185439.420000", "185439.880000", "185440.340000", "185440.800000", "185441.260000", "185441.720000", "185442.180000", "185442.640000", "185443.100000", "185443.560000", "185444.020000", "185444.480000", "185444.940000", "185445.400000", "185445.860000", "185446.320000", "185446.780000", "185447.240000", "185447.700000", "185448.160000", "185448.620000", "185449.080000", "185449.540000", "185450.000000", "185450.460000", "185450.920000", "185451.380000", "185451.840000", "185452.300000", "185452.760000", "185453.220000", "185453.680000", "185454.140000", "185454.600000", "185455.060000", "185455.520000", "185455.980000", "185456.440000", "185456.900000", "185457.360000", "185457.820000", "185458.280000", "185458.740000", "185459.200000", "185459.660000", "185500.120000", "185500.580000", "185501.040000", "185501.500000", "185501.960000", "185502.420000", "185502.880000", "185503.340000", "185503.800000", "185504.260000", "185504.720000", "185505.180000", "185505.640000", "185506.100000", "185506.560000", "185507.020000", "185507.480000", "185507.940000", "185508.400000", "185508.860000", "185509.320000", "185509.780000", "185510.240000", "185510.700000", "185511.160000", "185511.620000", "185512.080000", "185512.540000", "185513.000000", "185513.460000", "185513.920000", "185514.380000", "185514.840000", "185515.300000", "185515.760000", "185516.220000", "185516.680000", "185517.140000", "185517.600000", "185518.060000", "185518.520000", "185518.980000", "185519.440000", "185519.900000", "185520.360000", "185520.820000", "185521.280000", "185521.740000", "185522.200000", "185522.660000", "185523.120000", "185523.580000", "185524.040000", "185524.500000", "185524.960000", "185525.420000", "185525.880000", "185526.340000", "185526.800000", "185527.260000", "185527.720000", "185528.180000", "185528.640000", "185529.100000", "185529.560000", "185530.020000", "185530.480000", "185530.940000", "185531.400000", "185531.860000", "185532.320000", "185532.780000", "185533.240000", "185533.700000", "185534.160000", "185534.620000", "185535.080000", "185535.540000", "185536.000000", "185536.460000", "185536.920000", "185537.380000", "185537.840000", "185538.300000", "185538.760000", "185539.220000", "185539.680000", "185540.140000", "185540.600000", "185541.060000", "185541.520000", "185541.980000", "185542.440000", "185542.900000", "185543.360000", "185543.820000", "185544.280000", "185544.740000", "185545.200000", "185545.660000", "185546.120000", "185546.580000", "185547.040000", "185547.500000", "185547.960000", "185548.420000", "185548.880000", "185549.340000", "185549.800000", "185550.260000", "185550.720000", "185551.180000", "185551.640000", "185552.100000", "185552.560000", "185553.020000", "185553.480000", "185553.940000", "185554.400000", "185554.860000", "185555.320000", "185555.780000", "185556.240000", "185556.700000", "185557.160000", "185557.620000", "185558.080000", "185558.540000", "185559.000000", "185559.460000", "185559.920000", "185600.380000", "185600.840000", "185601.300000", "185601.760000", "185602.220000", "185602.680000", "185603.140000", "185603.600000", "185604.060000", "185604.520000", "185604.980000", "185605.440000", "185605.900000", "185606.360000", "185606.820000", "185607.280000", "185607.740000", "185608.200000", "185608.660000", "185609.120000", "185609.580000", "185610.040000", "185610.500000", "185610.960000", "185611.420000", "185611.880000", "185612.340000", "185612.800000", "185613.260000", "185613.720000", "185614.180000", "185614.640000", "185615.100000", "185615.560000", "185616.020000", "185616.480000", "185616.940000", "185617.400000", "185617.860000", "185618.320000", "185618.780000", "185619.240000", "185619.700000", "185620.160000", "185620.620000", "185621.080000", "185621.540000", "185622.000000", "185622.460000", "185622.920000", "185623.380000", "185623.840000", "185624.300000", "185624.760000", "185625.220000", "185625.680000", "185626.140000", "185626.600000", "185627.060000", "185627.520000", "185627.980000", "185628.440000", "185628.900000", "185629.360000", "185629.820000", "185630.280000", "185630.740000", "185631.200000", "185631.660000", "185632.120000", "185632.580000", "185633.040000", "185633.500000", "185633.960000", "185634.420000", "185634.880000", "185635.340000", "185635.800000", "185636.260000", "185636.720000", "185637.180000", "185637.640000", "185638.100000", "185638.560000", "185639.020000", "185639.480000", "185639.940000", "185640.400000", "185640.860000", "185641.320000", "185641.780000", "185642.240000", "185642.700000", "185643.160000", "185643.620000", "185644.080000", "185644.540000", "185645.000000", "185645.460000", "185645.920000", "185646.380000", "185646.840000", "185647.300000", "185647.760000", "185648.220000", "185648.680000", "185649.140000", "185649.600000", "185650.060000", "185650.520000", "185650.980000", "185651.440000", "185651.900000", "185652.360000", "185652.820000", "185653.280000", "185653.740000", "185654.200000", "185654.660000", "185655.120000", "185655.580000", "185656.040000", "185656.500000", "185656.960000", "185657.420000", "185657.880000", "185658.340000", "185658.800000", "185659.260000", "185659.720000", "185700.180000", "185700.640000", "185701.100000", "185701.560000", "185702.020000", "185702.480000", "185702.940000", "185703.400000", "185703.860000", "185704.320000", "185704.780000", "185705.240000", "185705.700000", "185706.160000", "185706.620000", "185707.080000", "185707.540000", "185708.000000", "185708.460000", "185708.920000", "185709.380000", "185709.840000", "185710.300000", "185710.760000", "185711.220000", "185711.680000", "185712.140000", "185712.600000", "185713.060000", "185713.520000", "185713.980000", "185714.440000", "185714.900000", "185715.360000", "185715.820000", "185716.280000", "185716.740000", "185717.200000", "185717.660000", "185718.120000", "185718.580000", "185719.040000", "185719.500000", "185719.960000", "185720.420000", "185720.880000", "185721.340000", "185721.800000", "185722.260000", "185722.720000", "185723.180000", "185723.640000", "185724.100000", "185724.560000", "185725.020000", "185725.480000", "185725.940000", "185726.400000", "185726.860000", "185727.320000", "185727.780000", "185728.240000", "185728.700000", "185729.160000", "185729.620000", "185730.080000", "185730.540000", "185731.000000", "185731.460000", "185731.920000", "185732.380000", "185732.840000", "185733.300000", "185733.760000", "185734.220000", "185734.680000", "185735.140000", "185735.600000", "185736.060000", "185736.520000", "185736.980000", "185737.440000", "185737.900000", "185738.360000", "185738.820000", "185739.280000", "185739.740000", "185740.200000", "185740.660000", "185741.120000", "185741.580000", "185742.040000", "185742.500000", "185742.960000", "185743.420000", "185743.880000", "185744.340000", "185744.800000", "185745.260000", "185745.720000", "185746.180000", "185746.640000", "185747.100000", "185747.560000", "185748.020000", "185748.480000", "185748.940000", "185749.400000", "185749.860000", "185750.320000", "185750.780000", "185751.240000", "185751.700000", "185752.160000", "185752.620000", "185753.080000", "185753.540000", "185754.000000", "185754.460000", "185754.920000", "185755.380000", "185755.840000", "185756.300000", "185756.760000", "185757.220000", "185757.680000", "185758.140000", "185758.600000", "185759.060000", "185759.520000", "185759.980000", "185800.440000", "185800.900000", "185801.360000", "185801.820000", "185802.280000", "185802.740000", "185803.200000", "185803.660000", "185804.120000", "185804.580000", "185805.040000", "185805.500000", "185805.960000", "185806.420000", "185806.880000", "185807.340000", "185807.800000", "185808.260000", "185808.720000", "185809.180000", "185809.640000", "185810.100000", "185810.560000", "185811.020000", "185811.480000", "185811.940000", "185812.400000", "185812.860000", "185813.320000", "185813.780000", "185814.240000", "185814.700000", "185815.160000", "185815.620000", "185816.080000", "185816.540000", "185817.000000", "185817.460000", "185817.920000", "185818.380000", "185818.840000", "185819.300000", "185819.760000", "185820.220000", "185820.680000", "185821.140000", "185821.600000", "185822.060000", "185822.520000", "185822.980000", "185823.440000", "185823.900000", "185824.360000", "185824.820000", "185825.280000", "185825.740000", "185826.200000", "185826.660000", "185827.120000", "185827.580000", "185828.040000", "185828.500000", "185828.960000", "185829.420000", "185829.880000", "185830.340000", "185830.800000", "185831.260000", "185831.720000", "185832.180000", "185832.640000", "185833.100000", "185833.560000", "185834.020000", "185834.480000", "185834.940000", "185835.400000", "185835.860000", "185836.320000", "185836.780000", "185837.240000", "185837.700000", "185838.160000", "185838.620000", "185839.080000", "185839.540000", "185840.000000", "185840.460000", "185840.920000", "185841.380000", "185841.840000", "185842.300000", "185842.760000", "185843.220000", "185843.680000", "185844.140000", "185844.600000", "185845.060000", "185845.520000", "185845.980000", "185846.440000", "185846.900000", "185847.360000", "185847.820000", "185848.280000", "185848.740000", "185849.200000", "185849.660000", "185850.120000", "185850.580000", "185851.040000", "185851.500000", "185851.960000", "185852.420000", "185852.880000", "185853.340000", "185853.800000", "185854.260000", "185854.720000", "185855.180000", "185855.640000", "185856.100000", "185856.560000", "185857.020000", "185857.480000", "185857.940000", "185858.400000", "185858.860000", "185859.320000", "185859.780000", "185900.240000", "185900.700000", "185901.160000", "185901.620000", "185902.080000", "185902.540000", "185903.000000"],
