{
  "AcquisitionMatrixPE": 82,
  "AcquisitionNumber": 1,
  "AcquisitionTime": "18:59:22.730000",
  "BandwidthPerPixelPhaseEncode": 24.888,
  "BaseResolution": 82,
  "BodyPartExamined": "BRAIN",
  "ConsistencyInfo": "N4_VE11E_LATEST_20181129",
  "ConversionSoftware": "dcm2niix",
  "ConversionSoftwareVersion": "v1.0.20201102",
  "DerivedVendorReportedEchoSpacing": 0.00049,
  "DeviceSerialNumber": "66112",
  "DwellTime": 2e-06,
  "EchoTime": 0.0272,
  "EchoTrainLength": 82,
  "EffectiveEchoSpacing": 0.00049,
  "FlipAngle": 44,
  "ImageComments": "Unaliased MB8/PE3",
  "ImageOrientationPatientDICOM": [0.998514, 0.0494063, 0.023001, -0.0490101, 0.998645, -0.017481],
  "ImageType": [
    "ORIGINAL",
    "PRIMARY",
    "M",
    "MB",
    "ND",
    "NORM",
    "MOSAIC"
],
  "ImagingFrequency": 123.252,
  "InPlanePhaseEncodingDirectionDICOM": "COL",
  "InstitutionAddress": "Maynard 3,Hanover,NH,US,03755",
  "InstitutionName": "Dartmouth College - PBS",
  "InstitutionalDepartmentName": "Department",
  "MRAcquisitionType": "2D",
  "MagneticFieldStrength": 3,
  "Manufacturer": "Siemens",
  "ManufacturersModelName": "Prisma",
  "Modality": "MR",
  "MultibandAccelerationFactor": 8,
  "PartialFourier": 1,
  "PatientPosition": "HFS",
  "PercentPhaseFOV": 100,
  "PercentSampling": 100,
  "PhaseEncodingDirection": "j-",
  "PhaseEncodingSteps": 82,
  "PhaseResolution": 1,
  "PixelBandwidth": 3050,
  "ProcedureStepDescription": "Wager_Wager^1076_spacetop",
  "ProtocolName": "func_run-06_task-social_acq-ap-mb8",
  "PulseSequenceDetails": "%CustomerSeq%\\cmrr_mbep2d_bold",
  "ReceiveCoilActiveElements": "HEA;HEP",
  "ReceiveCoilName": "Head_32",
  "ReconMatrixPE": 82,
  "RepetitionTime": 0.46,
  "SAR": 0.0819193,
  "ScanOptions": "FS",
  "ScanningSequence": "EP",
  "SequenceName": "epfid2d1_82",
  "SequenceVariant": "SK\\SS",
  "SeriesDescription": "func_run-06_task-social_acq-ap-mb8",
  "SeriesNumber": 18,
  "ShimSetting": [4163, -7760, -7257, 565, -56, -201, 30, 32],
  "SliceThickness": 2.7,
  "SliceTiming": [0, 0.25, 0.0625, 0.3125, 0.125, 0.375, 0.1875, 0, 0.25, 0.0625, 0.3125, 0.125, 0.375, 0.1875, 0, 0.25, 0.0625, 0.3125, 0.125, 0.375, 0.1875, 0, 0.25, 0.0625, 0.3125, 0.125, 0.375, 0.1875, 0, 0.25, 0.0625, 0.3125, 0.125, 0.375, 0.1875, 0, 0.25, 0.0625, 0.3125, 0.125, 0.375, 0.1875, 0, 0.25, 0.0625, 0.3125, 0.125, 0.375, 0.1875, 0, 0.25, 0.0625, 0.3125, 0.125, 0.375, 0.1875],
  "SoftwareVersions": "syngo MR E11",
  "SpacingBetweenSlices": 2.7,
  "StationName": "AWP66112",
  "TaskName": "social",
  "TotalReadoutTime": 0.03969,
  "TxRefAmp": 236.312,
  "WipMemBlock": "f00584e9-2801-424f-85ef-8e1470f73095||Sequence: R016 ve11e/master r/434b28f1; Aug  7 2019 18:53:46 by eja",
  "dcmmeta_affine": [
    [-2.6789398193359375, -0.13149060308933258, 0.06435053795576096, 114.88883972167969],
    [-0.13255353271961212, 2.6792922019958496, -0.04408496990799904, -81.69515991210938],
    [0.06171005591750145, 0.046900320798158646, 2.6988730430603027, -61.98900604248047],
    [0.0, 0.0, 0.0, 1.0]
],
  "dcmmeta_reorient_transform": [
    [0.0, -1.0, 0.0, 81.0],
    [1.0, 0.0, 0.0, 0.0],
    [0.0, 0.0, 1.0, 0.0],
    [0.0, 0.0, 0.0, 1.0]
],
  "dcmmeta_shape": [82, 82, 56, 872],
  "dcmmeta_slice_dim": 2,
  "dcmmeta_version": 0.6,
  "global": {
    "const": {
      "AccessionNumber": "A003938",
      "AcquisitionMatrix": [82, 0, 0, 82],
      "AngioFlag": "N",
      "BitsAllocated": 16,
      "BitsStored": 16,
      "BodyPartExamined": "BRAIN",
      "Columns": 656,
      "EchoNumbers": 1,
      "EchoTime": 27.2,
      "EchoTrainLength": 82,
      "FlipAngle": 44.0,
      "HighBit": 15,
      "ImageOrientationPatient": [0.99851388037629, 0.04940631303626, 0.02300102015237, -0.0490101353801, 0.99864529252786, -0.017481028058],
      "ImagePositionPatient": [-835.35600497554, -942.32727639238, -62.440475086357],
      "ImageType": [
        "ORIGINAL",
        "PRIMARY",
        "M",
        "MB",
        "ND",
        "NORM",
        "MOSAIC"
],
      "ImagedNucleus": "1H",
      "ImagingFrequency": 123.252196,
      "InPlanePhaseEncodingDirection": "COL",
      "MRAcquisitionType": "2D",
      "MagneticFieldStrength": 3.0,
      "Manufacturer": "SIEMENS",
      "ManufacturerModelName": "Prisma",
      "Modality": "MR",
      "NumberOfAverages": 1.0,
      "NumberOfPhaseEncodingSteps": 82,
      "PercentPhaseFieldOfView": 100.0,
      "PercentSampling": 100.0,
      "PerformedProcedureStepStartTime": "181201.269000",
      "PhotometricInterpretation": "MONOCHROME2",
      "PixelBandwidth": 3050.0,
      "PixelRepresentation": 0,
      "PixelSpacing": [2.6829268932343, 2.6829268932343],
      "ProtocolName": "func_run-06_task-social_acq-ap-mb8",
      "RepetitionTime": 460.0,
      "Rows": 656,
      "SAR": 0.08191933589088,
      "SamplesPerPixel": 1,
      "ScanOptions": "FS",
      "ScanningSequence": "EP",
      "SequenceName": "epfid2d1_82",
      "SequenceVariant": [
        "SK",
        "SS"
],
      "SeriesDescription": "func_run-06_task-social_acq-ap-mb8",
      "SeriesNumber": 18,
      "SeriesTime": "185937.840000",
      "SliceLocation": -57.891026058833,
      "SliceThickness": 2.7000000476837,
      "SmallestImagePixelValue": 0,
      "SoftwareVersions": "syngo MR E11",
      "SpacingBetweenSlices": 2.6999999898074,
      "SpecificCharacterSet": "ISO_IR 100",
      "StudyID": "1",
      "StudyTime": "181201.198000",
      "TransmitCoilName": "Body",
      "VariableFlipAngleFlag": "N",
      "WindowCenterWidthExplanation": "Algo1"
    },
    "slices": {}
  },
  "time": {
    "samples": {
      "AcquisitionNumber": [1, 2, 3, 4, 5, 6, 7, 8, 9, 10, 11, 12, 13, 14, 15, 16, 17, 18, 19, 20, 21, 22, 23, 24, 25, 26, 27, 28, 29, 30, 31, 32, 33, 34, 35, 36, 37, 38, 39, 40, 41, 42, 43, 44, 45, 46, 47, 48, 49, 50, 51, 52, 53, 54, 55, 56, 57, 58, 59, 60, 61, 62, 63, 64, 65, 66, 67, 68, 69, 70, 71, 72, 73, 74, 75, 76, 77, 78, 79, 80, 81, 82, 83, 84, 85, 86, 87, 88, 89, 90, 91, 92, 93, 94, 95, 96, 97, 98, 99, 100, 101, 102, 103, 104, 105, 106, 107, 108, 109, 110, 111, 112, 113, 114, 115, 116, 117, 118, 119, 120, 121, 122, 123, 124, 125, 126, 127, 128, 129, 130, 131, 132, 133, 134, 135, 136, 137, 138, 139, 140, 141, 142, 143, 144, 145, 146, 147, 148, 149, 150, 151, 152, 153, 154, 155, 156, 157, 158, 159, 160, 161, 162, 163, 164, 165, 166, 167, 168, 169, 170, 171, 172, 173, 174, 175, 176, 177, 178, 179, 180, 181, 182, 183, 184, 185, 186, 187, 188, 189, 190, 191, 192, 193, 194, 195, 196, 197, 198, 199, 200, 201, 202, 203, 204, 205, 206, 207, 208, 209, 210, 211, 212, 213, 214, 215, 216, 217, 218, 219, 220, 221, 222, 223, 224, 225, 226, 227, 228, 229, 230, 231, 232, 233, 234, 235, 236, 237, 238, 239, 240, 241, 242, 243, 244, 245, 246, 247, 248, 249, 250, 251, 252, 253, 254, 255, 256, 257, 258, 259, 260, 261, 262, 263, 264, 265, 266, 267, 268, 269, 270, 271, 272, 273, 274, 275, 276, 277, 278, 279, 280, 281, 282, 283, 284, 285, 286, 287, 288, 289, 290, 291, 292, 293, 294, 295, 296, 297, 298, 299, 300, 301, 302, 303, 304, 305, 306, 307, 308, 309, 310, 311, 312, 313, 314, 315, 316, 317, 318, 319, 320, 321, 322, 323, 324, 325, 326, 327, 328, 329, 330, 331, 332, 333, 334, 335, 336, 337, 338, 339, 340, 341, 342, 343, 344, 345, 346, 347, 348, 349, 350, 351, 352, 353, 354, 355, 356, 357, 358, 359, 360, 361, 362, 363, 364, 365, 366, 367, 368, 369, 370, 371, 372, 373, 374, 375, 376, 377, 378, 379, 380, 381, 382, 383, 384, 385, 386, 387, 388, 389, 390, 391, 392, 393, 394, 395, 396, 397, 398, 399, 400, 401, 402, 403, 404, 405, 406, 407, 408, 409, 410, 411, 412, 413, 414, 415, 416, 417, 418, 419, 420, 421, 422, 423, 424, 425, 426, 427, 428, 429, 430, 431, 432, 433, 434, 435, 436, 437, 438, 439, 440, 441, 442, 443, 444, 445, 446, 447, 448, 449, 450, 451, 452, 453, 454, 455, 456, 457, 458, 459, 460, 461, 462, 463, 464, 465, 466, 467, 468, 469, 470, 471, 472, 473, 474, 475, 476, 477, 478, 479, 480, 481, 482, 483, 484, 485, 486, 487, 488, 489, 490, 491, 492, 493, 494, 495, 496, 497, 498, 499, 500, 501, 502, 503, 504, 505, 506, 507, 508, 509, 510, 511, 512, 513, 514, 515, 516, 517, 518, 519, 520, 521, 522, 523, 524, 525, 526, 527, 528, 529, 530, 531, 532, 533, 534, 535, 536, 537, 538, 539, 540, 541, 542, 543, 544, 545, 546, 547, 548, 549, 550, 551, 552, 553, 554, 555, 556, 557, 558, 559, 560, 561, 562, 563, 564, 565, 566, 567, 568, 569, 570, 571, 572, 573, 574, 575, 576, 577, 578, 579, 580, 581, 582, 583, 584, 585, 586, 587, 588, 589, 590, 591, 592, 593, 594, 595, 596, 597, 598, 599, 600, 601, 602, 603, 604, 605, 606, 607, 608, 609, 610, 611, 612, 613, 614, 615, 616, 617, 618, 619, 620, 621, 622, 623, 624, 625, 626, 627, 628, 629, 630, 631, 632, 633, 634, 635, 636, 637, 638, 639, 640, 641, 642, 643, 644, 645, 646, 647, 648, 649, 650, 651, 652, 653, 654, 655, 656, 657, 658, 659, 660, 661, 662, 663, 664, 665, 666, 667, 668, 669, 670, 671, 672, 673, 674, 675, 676, 677, 678, 679, 680, 681, 682, 683, 684, 685, 686, 687, 688, 689, 690, 691, 692, 693, 694, 695, 696, 697, 698, 699, 700, 701, 702, 703, 704, 705, 706, 707, 708, 709, 710, 711, 712, 713, 714, 715, 716, 717, 718, 719, 720, 721, 722, 723, 724, 725, 726, 727, 728, 729, 730, 731, 732, 733, 734, 735, 736, 737, 738, 739, 740, 741, 742, 743, 744, 745, 746, 747, 748, 749, 750, 751, 752, 753, 754, 755, 756, 757, 758, 759, 760, 761, 762, 763, 764, 765, 766, 767, 768, 769, 770, 771, 772, 773, 774, 775, 776, 777, 778, 779, 780, 781, 782, 783, 784, 785, 786, 787, 788, 789, 790, 791, 792, 793, 794, 795, 796, 797, 798, 799, 800, 801, 802, 803, 804, 805, 806, 807, 808, 809, 810, 811, 812, 813, 814, 815, 816, 817, 818, 819, 820, 821, 822, 823, 824, 825, 826, 827, 828, 829, 830, 831, 832, 833, 834, 835, 836, 837, 838, 839, 840, 841, 842, 843, 844, 845, 846, 847, 848, 849, 850, 851, 852, 853, 854, 855, 856, 857, 858, 859, 860, 861, 862, 863, 864, 865, 866, 867, 868, 869, 870, 871, 872],
      "AcquisitionTime": ["185922.730000", "185923.190000", "185923.650000", "185924.110000", "185924.570000", "185925.030000", "185925.490000", "185925.950000", "185926.410000", "185926.870000", "185927.330000", "185927.790000", "185928.250000", "185928.710000", "185929.170000", "185929.630000", "185930.090000", "185930.550000", "185931.010000", "185931.470000", "185931.930000", "185932.390000", "185932.850000", "185933.310000", "185933.770000", "185934.230000", "185934.690000", "185935.150000", "185935.610000", "185936.070000", "185936.530000", "185936.990000", "185937.450000", "185937.910000", "185938.370000", "185938.830000", "185939.290000", "185939.750000", "185940.210000", "185940.670000", "185941.130000", "185941.590000", "185942.050000", "185942.510000", "185942.970000", "185943.430000", "185943.890000", "185944.350000", "185944.810000", "185945.270000", "185945.730000", "185946.190000", "185946.650000", "185947.110000", "185947.570000", "185948.030000", "185948.490000", "185948.950000", "185949.410000", "185949.870000", "185950.330000", "185950.790000", "185951.250000", "185951.710000", "185952.170000", "185952.630000", "185953.090000", "185953.550000", "185954.010000", "185954.470000", "185954.930000", "185955.390000", "185955.850000", "185956.310000", "185956.770000", "185957.230000", "185957.690000", "185958.150000", "185958.610000", "185959.070000", "185959.530000", "185959.990000", "190000.450000", "190000.910000", "190001.370000", "190001.830000", "190002.290000", "190002.750000", "190003.210000", "190003.670000", "190004.130000", "190004.590000", "190005.050000", "190005.510000", "190005.970000", "190006.430000", "190006.890000", "190007.350000", "190007.810000", "190008.270000", "190008.730000", "190009.190000", "190009.650000", "190010.110000", "190010.570000", "190011.030000", "190011.490000", "190011.950000", "190012.410000", "190012.870000", "190013.330000", "190013.790000", "190014.250000", "190014.710000", "190015.170000", "190015.630000", "190016.090000", "190016.550000", "190017.010000", "190017.470000", "190017.930000", "190018.390000", "190018.850000", "190019.310000", "190019.770000", "190020.230000", "190020.690000", "190021.150000", "190021.610000", "190022.070000", "190022.530000", "190022.990000", "190023.450000", "190023.910000", "190024.370000", "190024.830000", "190025.290000", "190025.750000", "190026.210000", "190026.670000", "190027.130000", "190027.590000", "190028.050000", "190028.510000", "190028.970000", "190029.430000", "190029.890000", "190030.350000", "190030.810000", "190031.270000", "190031.730000", "190032.190000", "190032.650000", "190033.110000", "190033.570000", "190034.030000", "190034.490000", "190034.950000", "190035.410000", "190035.870000", "190036.330000", "190036.790000", "190037.250000", "190037.710000", "190038.170000", "190038.630000", "190039.090000", "190039.550000", "190040.010000", "190040.470000", "190040.930000", "190041.390000", "190041.850000", "190042.310000", "190042.770000", "190043.230000", "190043.690000", "190044.150000", "190044.610000", "190045.070000", "190045.530000", "190045.990000", "190046.450000", "190046.910000", "190047.370000", "190047.830000", "190048.290000", "190048.750000", "190049.210000", "190049.670000", "190050.130000", "190050.590000", "190051.050000", "190051.510000", "190051.970000", "190052.430000", "190052.890000", "190053.350000", "190053.810000", "190054.270000", "190054.730000", "190055.190000", "190055.650000", "190056.110000", "190056.570000", "190057.030000", "190057.490000", "190057.950000", "190058.410000", "190058.870000", "190059.330000", "190059.790000", "190100.250000", "190100.710000", "190101.170000", "190101.630000", "190102.090000", "190102.550000", "190103.010000", "190103.470000", "190103.930000", "190104.390000", "190104.850000", "190105.310000", "190105.770000", "190106.230000", "190106.690000", "190107.150000", "190107.610000", "190108.070000", "190108.530000", "190108.990000", "190109.450000", "190109.910000", "190110.370000", "190110.830000", "190111.290000", "190111.750000", "190112.210000", "190112.670000", "190113.130000", "190113.590000", "190114.050000", "190114.510000", "190114.970000", "190115.430000", "190115.890000", "190116.350000", "190116.810000", "190117.270000", "190117.730000", "190118.190000", "190118.650000", "190119.110000", "190119.570000", "190120.030000", "190120.490000", "190120.950000", "190121.410000", "190121.870000", "190122.330000", "190122.790000", "190123.250000", "190123.710000", "190124.170000", "190124.630000", "190125.090000", "190125.550000", "190126.010000", "190126.470000", "190126.930000", "190127.390000", "190127.850000", "190128.310000", "190128.770000", "190129.230000", "190129.690000", "190130.150000", "190130.610000", "190131.070000", "190131.530000", "190131.990000", "190132.450000", "190132.910000", "190133.370000", "190133.830000", "190134.290000", "190134.750000", "190135.210000", "190135.670000", "190136.130000", "190136.590000", "190137.050000", "190137.510000", "190137.970000", "190138.430000", "190138.890000", "190139.350000", "190139.810000", "190140.270000", "190140.730000", "190141.190000", "190141.650000", "190142.110000", "190142.570000", "190143.030000", "190143.490000", "190143.950000", "190144.410000", "190144.870000", "190145.330000", "190145.790000", "190146.250000", "190146.710000", "190147.170000", "190147.630000", "190148.090000", "190148.550000", "190149.010000", "190149.470000", "190149.930000", "190150.390000", "190150.850000", "190151.310000", "190151.770000", "190152.230000", "190152.690000", "190153.150000", "190153.610000", "190154.070000", "190154.530000", "190154.990000", "190155.450000", "190155.910000", "190156.370000", "190156.830000", "190157.290000", "190157.750000", "190158.210000", "190158.670000", "190159.130000", "190159.590000", "190200.050000", "190200.510000", "190200.970000", "190201.430000", "190201.890000", "190202.350000", "190202.810000", "190203.270000", "190203.730000", "190204.190000", "190204.650000", "190205.110000", "190205.570000", "190206.030000", "190206.490000", "190206.950000", "190207.410000", "190207.870000", "190208.330000", "190208.790000", "190209.250000", "190209.710000", "190210.170000", "190210.630000", "190211.090000", "190211.550000", "190212.010000", "190212.470000", "190212.930000", "190213.390000", "190213.850000", "190214.310000", "190214.770000", "190215.230000", "190215.690000", "190216.150000", "190216.610000", "190217.070000", "190217.530000", "190217.990000", "190218.450000", "190218.910000", "190219.370000", "190219.830000", "190220.290000", "190220.750000", "190221.210000", "190221.670000", "190222.130000", "190222.590000", "190223.050000", "190223.510000", "190223.970000", "190224.430000", "190224.890000", "190225.350000", "190225.810000", "190226.270000", "190226.730000", "190227.190000", "190227.650000", "190228.110000", "190228.570000", "190229.030000", "190229.490000", "190229.950000", "190230.410000", "190230.870000", "190231.330000", "190231.790000", "190232.250000", "190232.710000", "190233.170000", "190233.630000", "190234.090000", "190234.550000", "190235.010000", "190235.470000", "190235.930000", "190236.390000", "190236.850000", "190237.310000", "190237.770000", "190238.230000", "190238.690000", "190239.150000", "190239.610000", "190240.070000", "190240.530000", "190240.990000", "190241.450000", "190241.910000", "190242.370000", "190242.830000", "190243.290000", "190243.750000", "190244.210000", "190244.670000", "190245.130000", "190245.590000", "190246.050000", "190246.510000", "190246.970000", "190247.430000", "190247.890000", "190248.350000", "190248.810000", "190249.270000", "190249.730000", "190250.190000", "190250.650000", "190251.110000", "190251.570000", "190252.030000", "190252.490000", "190252.950000", "190253.410000", "190253.870000", "190254.330000", "190254.790000", "190255.250000", "190255.710000", "190256.170000", "190256.630000", "190257.090000", "190257.550000", "190258.010000", "190258.470000", "190258.930000", "190259.390000", "190259.850000", "190300.310000", "190300.770000", "190301.230000", "190301.690000", "190302.150000", "190302.610000", "190303.070000", "190303.530000", "190303.990000", "190304.450000", "190304.910000", "190305.370000", "190305.830000", "190306.290000", "190306.750000", "190307.210000", "190307.670000", "190308.130000", "190308.590000", "190309.050000", "190309.510000", "190309.970000", "190310.430000", "190310.890000", "190311.350000", "190311.810000", "190312.270000", "190312.730000", "190313.190000", "190313.650000", "190314.110000", "190314.570000", "190315.030000", "190315.490000", "190315.950000", "190316.410000", "190316.870000", "190317.330000", "190317.790000", "190318.250000", "190318.710000", "190319.170000", "190319.630000", "190320.090000", "190320.550000", "190321.010000", "190321.470000", "190321.930000", "190322.390000", "190322.850000", "190323.310000", "190323.770000", "190324.230000", "190324.690000", "190325.150000", "190325.610000", "190326.070000", "190326.530000", "190326.990000", "190327.450000", "190327.910000", "190328.370000", "190328.830000", "190329.290000", "190329.750000", "190330.210000", "190330.670000", "190331.130000", "190331.590000", "190332.050000", "190332.510000", "190332.970000", "190333.430000", "190333.890000", "190334.350000", "190334.810000", "190335.270000", "190335.730000", "190336.190000", "190336.650000", "190337.110000", "190337.570000", "190338.030000", "190338.490000", "190338.950000", "190339.410000", "190339.870000", "190340.330000", "190340.790000", "190341.250000", "190341.710000", "190342.170000", "190342.630000", "190343.090000", "190343.550000", "190344.010000", "190344.470000", "190344.930000", "190345.390000", "190345.850000", "190346.310000", "190346.770000", "190347.230000", "190347.690000", "190348.150000", "190348.610000", "190349.070000", "190349.530000", "190349.990000", "190350.450000", "190350.910000", "190351.370000", "190351.830000", "190352.290000", "190352.750000", "190353.210000", "190353.670000", "190354.130000", "190354.590000", "190355.050000", "190355.510000", "190355.970000", "190356.430000", "190356.890000", "190357.350000", "190357.810000", "190358.270000", "190358.730000", "190359.190000", "190359.650000", "190400.110000", "190400.570000", "190401.030000", "190401.490000", "190401.950000", "190402.410000", "190402.870000", "190403.330000", "190403.790000", "190404.250000", "190404.710000", "190405.170000", "190405.630000", "190406.090000", "190406.550000", "190407.010000", "190407.470000", "190407.930000", "190408.390000", "190408.850000", "190409.310000", "190409.770000", "190410.230000", "190410.690000", "190411.150000", "190411.610000", "190412.070000", "190412.530000", "190412.990000", "190413.450000", "190413.910000", "190414.370000", "190414.830000", "190415.290000", "190415.750000", "190416.210000", "190416.670000", "190417.130000", "190417.590000", "190418.050000", "190418.510000", "190418.970000", "190419.430000", "190419.890000", "190420.350000", "190420.810000", "190421.270000", "190421.730000", "190422.190000", "190422.650000", "190423.110000", "190423.570000", "190424.030000", "190424.490000", "190424.950000", "190425.410000", "190425.870000", "190426.330000", "190426.790000", "190427.250000", "190427.710000", "190428.170000", "190428.630000", "190429.090000", "190429.550000", "190430.010000", "190430.470000", "190430.930000", "190431.390000", "190431.850000", "190432.310000", "190432.770000", "190433.230000", "190433.690000", "190434.150000", "190434.610000", "190435.070000", "190435.530000", "190435.990000", "190436.450000", "190436.910000", "190437.370000", "190437.830000", "190438.290000", "190438.750000", "190439.210000", "190439.670000", "190440.130000", "190440.590000", "190441.050000", "190441.510000", "190441.970000", "190442.430000", "190442.890000", "190443.350000", "190443.810000", "190444.270000", "190444.730000", "190445.190000", "190445.650000", "190446.110000", "190446.570000", "190447.030000", "190447.490000", "190447.950000", "190448.410000", "190448.870000", "190449.330000", "190449.790000", "190450.250000", "190450.710000", "190451.170000", "190451.630000", "190452.090000", "190452.550000", "190453.010000", "190453.470000", "190453.930000", "190454.390000", "190454.850000", "190455.310000", "190455.770000", "190456.230000", "190456.690000", "190457.150000", "190457.610000", "190458.070000", "190458.530000", "190458.990000", "190459.450000", "190459.910000", "190500.370000", "190500.830000", "190501.290000", "190501.750000", "190502.210000", "190502.670000", "190503.130000", "190503.590000", "190504.050000", "190504.510000", "190504.970000", "190505.430000", "190505.890000", "190506.350000", "190506.810000", "190507.270000", "190507.730000", "190508.190000", "190508.650000", "190509.110000", "190509.570000", "190510.030000", "190510.490000", "190510.950000", "190511.410000", "190511.870000", "190512.330000", "190512.790000", "190513.250000", "190513.710000", "190514.170000", "190514.630000", "190515.090000", "190515.550000", "190516.010000", "190516.470000", "190516.930000", "190517.390000", "190517.850000", "190518.310000", "190518.770000", "190519.230000", "190519.690000", "190520.150000", "190520.610000", "190521.070000", "190521.530000", "190521.990000", "190522.450000", "190522.910000", "190523.370000", "190523.830000", "190524.290000", "190524.750000", "190525.210000", "190525.670000", "190526.130000", "190526.590000", "190527.050000", "190527.510000", "190527.970000", "190528.430000", "190528.890000", "190529.350000", "190529.810000", "190530.270000", "190530.730000", "190531.190000", "190531.650000", "190532.110000", "190532.570000", "190533.030000", "190533.490000", "190533.950000", "190534.410000", "190534.870000", "190535.330000", "190535.790000", "190536.250000", "190536.710000", "190537.170000", "190537.630000", "190538.090000", "190538.550000", "190539.010000", "190539.470000", "190539.930000", "190540.390000", "190540.850000", "190541.310000", "190541.770000", "190542.230000", "190542.690000", "190543.150000", "190543.610000", "190544.070000", "190544.530000", "190544.990000", "190545.450000", "190545.910000", "190546.370000", "190546.830000", "190547.290000", "190547.750000", "190548.210000", "190548.670000", "190549.130000", "190549.590000", "190550.050000", "190550.510000", "190550.970000", "190551.430000", "190551.890000", "190552.350000", "190552.810000", "190553.270000", "190553.730000", "190554.190000", "190554.650000", "190555.110000", "190555.570000", "190556.030000", "190556.490000", "190556.950000", "190557.410000", "190557.870000", "190558.330000", "190558.790000", "190559.250000", "190559.710000", "190600.170000", "190600.630000", "190601.090000", "190601.550000", "190602.010000", "190602.470000", "190602.930000", "190603.390000"],
