{
  "AcquisitionMatrixPE": 82,
  "AcquisitionNumber": 1,
  "AcquisitionTime": "19:41:49.345000",
  "BandwidthPerPixelPhaseEncode": 24.888,
  "BaseResolution": 82,
  "BodyPartExamined": "BRAIN",
  "ConsistencyInfo": "N4_VE11E_LATEST_20181129",
  "ConversionSoftware": "dcm2niix",
  "ConversionSoftwareVersion": "v1.0.20201102",
  "DerivedVendorReportedEchoSpacing": 0.00049,
  "DeviceSerialNumber": "66112",
  "DwellTime": 2e-06,
  "EchoTime": 0.0272,
  "EchoTrainLength": 82,
  "EffectiveEchoSpacing": 0.00049,
  "FlipAngle": 44,
  "ImageComments": "Unaliased MB8/PE3",
  "ImageOrientationPatientDICOM": [0.998312, 0.0552393, 0.0179361, -0.0545909, 0.997901, -0.0348261],
  "ImageType": [
    "ORIGINAL",
    "PRIMARY",
    "M",
    "MB",
    "ND",
    "NORM",
    "MOSAIC"
],
  "ImagingFrequency": 123.252,
  "InPlanePhaseEncodingDirectionDICOM": "COL",
  "InstitutionAddress": "Maynard 3,Hanover,NH,US,03755",
  "InstitutionName": "Dartmouth College - PBS",
  "InstitutionalDepartmentName": "Department",
  "MRAcquisitionType": "2D",
  "MagneticFieldStrength": 3,
  "Manufacturer": "Siemens",
  "ManufacturersModelName": "Prisma",
  "Modality": "MR",
  "MultibandAccelerationFactor": 8,
  "PartialFourier": 1,
  "PatientPosition": "HFS",
  "PercentPhaseFOV": 100,
  "PercentSampling": 100,
  "PhaseEncodingDirection": "j-",
  "PhaseEncodingSteps": 82,
  "PhaseResolution": 1,
  "PixelBandwidth": 3050,
  "ProcedureStepDescription": "Wager_Wager^1076_spacetop",
  "ProtocolName": "func_run-03_task-alignvideo_acq-ap-mb8",
  "PulseSequenceDetails": "%CustomerSeq%\\cmrr_mbep2d_bold",
  "ReceiveCoilActiveElements": "HEA;HEP",
  "ReceiveCoilName": "Head_32",
  "ReconMatrixPE": 82,
  "RepetitionTime": 0.46,
  "SAR": 0.0820117,
  "ScanOptions": "FS",
  "ScanningSequence": "EP",
  "SequenceName": "epfid2d1_82",
  "SequenceVariant": "SK\\SS",
  "SeriesDescription": "func_run-03_task-alignvideo_acq-ap-mb8",
  "SeriesNumber": 32,
  "ShimSetting": [4163, -7759, -7255, 574, -60, -198, 29, 34],
  "SliceThickness": 2.7,
  "SliceTiming": [0, 0.2525, 0.0625, 0.315, 0.125, 0.3775, 0.1875, 0, 0.2525, 0.0625, 0.315, 0.125, 0.3775, 0.1875, 0, 0.2525, 0.0625, 0.315, 0.125, 0.3775, 0.1875, 0, 0.2525, 0.0625, 0.315, 0.125, 0.3775, 0.1875, 0, 0.2525, 0.0625, 0.315, 0.125, 0.3775, 0.1875, 0, 0.2525, 0.0625, 0.315, 0.125, 0.3775, 0.1875, 0, 0.2525, 0.0625, 0.315, 0.125, 0.3775, 0.1875, 0, 0.2525, 0.0625, 0.315, 0.125, 0.3775, 0.1875],
  "SoftwareVersions": "syngo MR E11",
  "SpacingBetweenSlices": 2.7,
  "StationName": "AWP66112",
  "TaskName": "alignvideo",
  "TotalReadoutTime": 0.03969,
  "TxRefAmp": 236.312,
  "WipMemBlock": "44d57a2a-6560-4e2f-a145-f6a34497c72b||Sequence: R016 ve11e/master r/434b28f1; Aug  7 2019 18:53:46 by eja",
  "dcmmeta_affine": [
    [-2.6783981323242188, -0.14646345376968384, 0.0535200759768486, 116.26176452636719],
    [-0.14820313453674316, 2.6772961616516113, -0.09122791886329651, -79.76221466064453],
    [0.04812131077051163, 0.09343575686216354, 2.697927474975586, -62.522743225097656],
    [0.0, 0.0, 0.0, 1.0]
],
  "dcmmeta_reorient_transform": [
    [0.0, -1.0, 0.0, 81.0],
    [1.0, 0.0, 0.0, 0.0],
    [0.0, 0.0, 1.0, 0.0],
    [0.0, 0.0, 0.0, 1.0]
],
  "dcmmeta_shape": [82, 82, 56, 1065],
  "dcmmeta_slice_dim": 2,
  "dcmmeta_version": 0.6,
  "global": {
    "const": {
      "AccessionNumber": "A003938",
      "AcquisitionMatrix": [82, 0, 0, 82],
      "AngioFlag": "N",
      "BitsAllocated": 16,
      "BitsStored": 16,
      "BodyPartExamined": "BRAIN",
      "Columns": 656,
      "EchoNumbers": 1,
      "EchoTime": 27.2,
      "EchoTrainLength": 82,
      "FlipAngle": 44.0,
      "HighBit": 15,
      "ImageOrientationPatient": [0.99831203013361, 0.05523935113518, 0.01793612490692, -0.0545909229508, 0.99790128628811, -0.0348260528329],
      "ImagePositionPatient": [-831.06349134917, -948.01708655609, -41.949202853466],
      "ImageType": [
        "ORIGINAL",
        "PRIMARY",
        "M",
        "MB",
        "ND",
        "NORM",
        "MOSAIC"
],
      "ImagedNucleus": "1H",
      "ImagingFrequency": 123.252201,
      "InPlanePhaseEncodingDirection": "COL",
      "MRAcquisitionType": "2D",
      "MagneticFieldStrength": 3.0,
      "Manufacturer": "SIEMENS",
      "ManufacturerModelName": "Prisma",
      "Modality": "MR",
      "NumberOfAverages": 1.0,
      "NumberOfPhaseEncodingSteps": 82,
      "PercentPhaseFieldOfView": 100.0,
      "PercentSampling": 100.0,
      "PerformedProcedureStepStartTime": "181201.269000",
      "PhotometricInterpretation": "MONOCHROME2",
      "PixelBandwidth": 3050.0,
      "PixelRepresentation": 0,
      "PixelSpacing": [2.6829268932343, 2.6829268932343],
      "ProtocolName": "func_run-03_task-alignvideo_acq-ap-mb8",
      "RepetitionTime": 460.0,
      "Rows": 656,
      "SAR": 0.08201174139102,
      "SamplesPerPixel": 1,
      "ScanOptions": "FS",
      "ScanningSequence": "EP",
      "SequenceName": "epfid2d1_82",
      "SequenceVariant": [
        "SK",
        "SS"
],
      "SeriesDescription": "func_run-03_task-alignvideo_acq-ap-mb8",
      "SeriesNumber": 32,
      "SeriesTime": "194217.894000",
      "SliceLocation": -57.475167972997,
      "SliceThickness": 2.7000000476837,
      "SmallestImagePixelValue": 0,
      "SoftwareVersions": "syngo MR E11",
      "SpacingBetweenSlices": 2.7000000276224,
      "SpecificCharacterSet": "ISO_IR 100",
      "StudyID": "1",
      "StudyTime": "181201.198000",
      "TransmitCoilName": "Body",
      "VariableFlipAngleFlag": "N",
      "WindowCenterWidthExplanation": "Algo1"
    },
    "slices": {}
  },
  "time": {
    "samples": {
      "AcquisitionNumber": [1, 2, 3, 4, 5, 6, 7, 8, 9, 10, 11, 12, 13, 14, 15, 16, 17, 18, 19, 20, 21, 22, 23, 24, 25, 26, 27, 28, 29, 30, 31, 32, 33, 34, 35, 36, 37, 38, 39, 40, 41, 42, 43, 44, 45, 46, 47, 48, 49, 50, 51, 52, 53, 54, 55, 56, 57, 58, 59, 60, 61, 62, 63, 64, 65, 66, 67, 68, 69, 70, 71, 72, 73, 74, 75, 76, 77, 78, 79, 80, 81, 82, 83, 84, 85, 86, 87, 88, 89, 90, 91, 92, 93, 94, 95, 96, 97, 98, 99, 100, 101, 102, 103, 104, 105, 106, 107, 108, 109, 110, 111, 112, 113, 114, 115, 116, 117, 118, 119, 120, 121, 122, 123, 124, 125, 126, 127, 128, 129, 130, 131, 132, 133, 134, 135, 136, 137, 138, 139, 140, 141, 142, 143, 144, 145, 146, 147, 148, 149, 150, 151, 152, 153, 154, 155, 156, 157, 158, 159, 160, 161, 162, 163, 164, 165, 166, 167, 168, 169, 170, 171, 172, 173, 174, 175, 176, 177, 178, 179, 180, 181, 182, 183, 184, 185, 186, 187, 188, 189, 190, 191, 192, 193, 194, 195, 196, 197, 198, 199, 200, 201, 202, 203, 204, 205, 206, 207, 208, 209, 210, 211, 212, 213, 214, 215, 216, 217, 218, 219, 220, 221, 222, 223, 224, 225, 226, 227, 228, 229, 230, 231, 232, 233, 234, 235, 236, 237, 238, 239, 240, 241, 242, 243, 244, 245, 246, 247, 248, 249, 250, 251, 252, 253, 254, 255, 256, 257, 258, 259, 260, 261, 262, 263, 264, 265, 266, 267, 268, 269, 270, 271, 272, 273, 274, 275, 276, 277, 278, 279, 280, 281, 282, 283, 284, 285, 286, 287, 288, 289, 290, 291, 292, 293, 294, 295, 296, 297, 298, 299, 300, 301, 302, 303, 304, 305, 306, 307, 308, 309, 310, 311, 312, 313, 314, 315, 316, 317, 318, 319, 320, 321, 322, 323, 324, 325, 326, 327, 328, 329, 330, 331, 332, 333, 334, 335, 336, 337, 338, 339, 340, 341, 342, 343, 344, 345, 346, 347, 348, 349, 350, 351, 352, 353, 354, 355, 356, 357, 358, 359, 360, 361, 362, 363, 364, 365, 366, 367, 368, 369, 370, 371, 372, 373, 374, 375, 376, 377, 378, 379, 380, 381, 382, 383, 384, 385, 386, 387, 388, 389, 390, 391, 392, 393, 394, 395, 396, 397, 398, 399, 400, 401, 402, 403, 404, 405, 406, 407, 408, 409, 410, 411, 412, 413, 414, 415, 416, 417, 418, 419, 420, 421, 422, 423, 424, 425, 426, 427, 428, 429, 430, 431, 432, 433, 434, 435, 436, 437, 438, 439, 440, 441, 442, 443, 444, 445, 446, 447, 448, 449, 450, 451, 452, 453, 454, 455, 456, 457, 458, 459, 460, 461, 462, 463, 464, 465, 466, 467, 468, 469, 470, 471, 472, 473, 474, 475, 476, 477, 478, 479, 480, 481, 482, 483, 484, 485, 486, 487, 488, 489, 490, 491, 492, 493, 494, 495, 496, 497, 498, 499, 500, 501, 502, 503, 504, 505, 506, 507, 508, 509, 510, 511, 512, 513, 514, 515, 516, 517, 518, 519, 520, 521, 522, 523, 524, 525, 526, 527, 528, 529, 530, 531, 532, 533, 534, 535, 536, 537, 538, 539, 540, 541, 542, 543, 544, 545, 546, 547, 548, 549, 550, 551, 552, 553, 554, 555, 556, 557, 558, 559, 560, 561, 562, 563, 564, 565, 566, 567, 568, 569, 570, 571, 572, 573, 574, 575, 576, 577, 578, 579, 580, 581, 582, 583, 584, 585, 586, 587, 588, 589, 590, 591, 592, 593, 594, 595, 596, 597, 598, 599, 600, 601, 602, 603, 604, 605, 606, 607, 608, 609, 610, 611, 612, 613, 614, 615, 616, 617, 618, 619, 620, 621, 622, 623, 624, 625, 626, 627, 628, 629, 630, 631, 632, 633, 634, 635, 636, 637, 638, 639, 640, 641, 642, 643, 644, 645, 646, 647, 648, 649, 650, 651, 652, 653, 654, 655, 656, 657, 658, 659, 660, 661, 662, 663, 664, 665, 666, 667, 668, 669, 670, 671, 672, 673, 674, 675, 676, 677, 678, 679, 680, 681, 682, 683, 684, 685, 686, 687, 688, 689, 690, 691, 692, 693, 694, 695, 696, 697, 698, 699, 700, 701, 702, 703, 704, 705, 706, 707, 708, 709, 710, 711, 712, 713, 714, 715, 716, 717, 718, 719, 720, 721, 722, 723, 724, 725, 726, 727, 728, 729, 730, 731, 732, 733, 734, 735, 736, 737, 738, 739, 740, 741, 742, 743, 744, 745, 746, 747, 748, 749, 750, 751, 752, 753, 754, 755, 756, 757, 758, 759, 760, 761, 762, 763, 764, 765, 766, 767, 768, 769, 770, 771, 772, 773, 774, 775, 776, 777, 778, 779, 780, 781, 782, 783, 784, 785, 786, 787, 788, 789, 790, 791, 792, 793, 794, 795, 796, 797, 798, 799, 800, 801, 802, 803, 804, 805, 806, 807, 808, 809, 810, 811, 812, 813, 814, 815, 816, 817, 818, 819, 820, 821, 822, 823, 824, 825, 826, 827, 828, 829, 830, 831, 832, 833, 834, 835, 836, 837, 838, 839, 840, 841, 842, 843, 844, 845, 846, 847, 848, 849, 850, 851, 852, 853, 854, 855, 856, 857, 858, 859, 860, 861, 862, 863, 864, 865, 866, 867, 868, 869, 870, 871, 872, 873, 874, 875, 876, 877, 878, 879, 880, 881, 882, 883, 884, 885, 886, 887, 888, 889, 890, 891, 892, 893, 894, 895, 896, 897, 898, 899, 900, 901, 902, 903, 904, 905, 906, 907, 908, 909, 910, 911, 912, 913, 914, 915, 916, 917, 918, 919, 920, 921, 922, 923, 924, 925, 926, 927, 928, 929, 930, 931, 932, 933, 934, 935, 936, 937, 938, 939, 940, 941, 942, 943, 944, 945, 946, 947, 948, 949, 950, 951, 952, 953, 954, 955, 956, 957, 958, 959, 960, 961, 962, 963, 964, 965, 966, 967, 968, 969, 970, 971, 972, 973, 974, 975, 976, 977, 978, 979, 980, 981, 982, 983, 984, 985, 986, 987, 988, 989, 990, 991, 992, 993, 994, 995, 996, 997, 998, 999, 1000, 1001, 1002, 1003, 1004, 1005, 1006, 1007, 1008, 1009, 1010, 1011, 1012, 1013, 1014, 1015, 1016, 1017, 1018, 1019, 1020, 1021, 1022, 1023, 1024, 1025, 1026, 1027, 1028, 1029, 1030, 1031, 1032, 1033, 1034, 1035, 1036, 1037, 1038, 1039, 1040, 1041, 1042, 1043, 1044, 1045, 1046, 1047, 1048, 1049, 1050, 1051, 1052, 1053, 1054, 1055, 1056, 1057, 1058, 1059, 1060, 1061, 1062, 1063, 1064, 1065],
      "AcquisitionTime": ["194149.345000", "194149.805000", "194150.265000", "194150.725000", "194151.185000", "194151.645000", "194152.105000", "194152.565000", "194153.025000", "194153.485000", "194153.945000", "194154.405000", "194154.865000", "194155.325000", "194155.785000", "194156.245000", "194156.705000", "194157.165000", "194157.625000", "194158.085000", "194158.545000", "194159.005000", "194159.465000", "194159.925000", "194200.385000", "194200.845000", "194201.305000", "194201.765000", "194202.225000", "194202.685000", "194203.145000", "194203.605000", "194204.065000", "194204.525000", "194204.985000", "194205.445000", "194205.905000", "194206.365000", "194206.825000", "194207.285000", "194207.745000", "194208.205000", "194208.665000", "194209.125000", "194209.585000", "194210.045000", "194210.505000", "194210.965000", "194211.425000", "194211.885000", "194212.345000", "194212.805000", "194213.265000", "194213.725000", "194214.185000", "194214.645000", "194215.105000", "194215.565000", "194216.025000", "194216.485000", "194216.945000", "194217.405000", "194217.865000", "194218.325000", "194218.785000", "194219.245000", "194219.705000", "194220.165000", "194220.625000", "194221.085000", "194221.545000", "194222.005000", "194222.465000", "194222.925000", "194223.385000", "194223.845000", "194224.305000", "194224.765000", "194225.225000", "194225.685000", "194226.145000", "194226.605000", "194227.065000", "194227.525000", "194227.985000", "194228.445000", "194228.905000", "194229.365000", "194229.825000", "194230.285000", "194230.745000", "194231.205000", "194231.665000", "194232.125000", "194232.585000", "194233.045000", "194233.505000", "194233.965000", "194234.425000", "194234.885000", "194235.345000", "194235.805000", "194236.265000", "194236.725000", "194237.185000", "194237.645000", "194238.105000", "194238.565000", "194239.025000", "194239.485000", "194239.945000", "194240.405000", "194240.865000", "194241.325000", "194241.785000", "194242.245000", "194242.705000", "194243.165000", "194243.625000", "194244.085000", "194244.545000", "194245.005000", "194245.465000", "194245.925000", "194246.385000", "194246.845000", "194247.305000", "194247.765000", "194248.225000", "194248.685000", "194249.145000", "194249.605000", "194250.065000", "194250.525000", "194250.985000", "194251.445000", "194251.905000", "194252.365000", "194252.825000", "194253.285000", "194253.745000", "194254.205000", "194254.665000", "194255.125000", "194255.585000", "194256.045000", "194256.505000", "194256.965000", "194257.425000", "194257.885000", "194258.345000", "194258.805000", "194259.265000", "194259.725000", "194300.185000", "194300.645000", "194301.105000", "194301.565000", "194302.025000", "194302.485000", "194302.945000", "194303.405000", "194303.865000", "194304.325000", "194304.785000", "194305.245000", "194305.705000", "194306.165000", "194306.625000", "194307.085000", "194307.545000", "194308.005000", "194308.465000", "194308.925000", "194309.385000", "194309.845000", "194310.305000", "194310.765000", "194311.225000", "194311.685000", "194312.145000", "194312.605000", "194313.065000", "194313.525000", "194313.985000", "194314.445000", "194314.905000", "194315.365000", "194315.825000", "194316.285000", "194316.745000", "194317.205000", "194317.665000", "194318.125000", "194318.585000", "194319.045000", "194319.505000", "194319.965000", "194320.425000", "194320.885000", "194321.345000", "194321.805000", "194322.265000", "194322.725000", "194323.185000", "194323.645000", "194324.105000", "194324.565000", "194325.025000", "194325.485000", "194325.945000", "194326.405000", "194326.865000", "194327.325000", "194327.785000", "194328.245000", "194328.705000", "194329.165000", "194329.625000", "194330.085000", "194330.545000", "194331.005000", "194331.465000", "194331.925000", "194332.385000", "194332.845000", "194333.305000", "194333.765000", "194334.225000", "194334.685000", "194335.145000", "194335.605000", "194336.065000", "194336.525000", "194336.985000", "194337.445000", "194337.905000", "194338.365000", "194338.825000", "194339.285000", "194339.745000", "194340.205000", "194340.665000", "194341.125000", "194341.585000", "194342.045000", "194342.505000", "194342.965000", "194343.425000", "194343.885000", "194344.345000", "194344.805000", "194345.265000", "194345.725000", "194346.185000", "194346.645000", "194347.105000", "194347.565000", "194348.025000", "194348.485000", "194348.945000", "194349.405000", "194349.865000", "194350.325000", "194350.785000", "194351.245000", "194351.705000", "194352.165000", "194352.625000", "194353.085000", "194353.545000", "194354.005000", "194354.465000", "194354.925000", "194355.385000", "194355.845000", "194356.305000", "194356.765000", "194357.225000", "194357.685000", "194358.145000", "194358.605000", "194359.065000", "194359.525000", "194359.985000", "194400.445000", "194400.905000", "194401.365000", "194401.825000", "194402.285000", "194402.745000", "194403.205000", "194403.665000", "194404.125000", "194404.585000", "194405.045000", "194405.505000", "194405.965000", "194406.425000", "194406.885000", "194407.345000", "194407.805000", "194408.265000", "194408.725000", "194409.185000", "194409.645000", "194410.105000", "194410.565000", "194411.025000", "194411.485000", "194411.945000", "194412.405000", "194412.865000", "194413.325000", "194413.785000", "194414.245000", "194414.705000", "194415.165000", "194415.625000", "194416.085000", "194416.545000", "194417.005000", "194417.465000", "194417.925000", "194418.385000", "194418.845000", "194419.305000", "194419.765000", "194420.225000", "194420.685000", "194421.145000", "194421.605000", "194422.065000", "194422.525000", "194422.985000", "194423.445000", "194423.905000", "194424.365000", "194424.825000", "194425.285000", "194425.745000", "194426.205000", "194426.665000", "194427.125000", "194427.585000", "194428.045000", "194428.505000", "194428.965000", "194429.425000", "194429.885000", "194430.345000", "194430.805000", "194431.265000", "194431.725000", "194432.185000", "194432.645000", "194433.105000", "194433.565000", "194434.025000", "194434.485000", "194434.945000", "194435.405000", "194435.865000", "194436.325000", "194436.785000", "194437.245000", "194437.705000", "194438.165000", "194438.625000", "194439.085000", "194439.545000", "194440.005000", "194440.465000", "194440.925000", "194441.385000", "194441.845000", "194442.305000", "194442.765000", "194443.225000", "194443.685000", "194444.145000", "194444.605000", "194445.065000", "194445.525000", "194445.985000", "194446.445000", "194446.905000", "194447.365000", "194447.825000", "194448.285000", "194448.745000", "194449.205000", "194449.665000", "194450.125000", "194450.585000", "194451.045000", "194451.505000", "194451.965000", "194452.425000", "194452.885000", "194453.345000", "194453.805000", "194454.265000", "194454.725000", "194455.185000", "194455.645000", "194456.105000", "194456.565000", "194457.025000", "194457.485000", "194457.945000", "194458.405000", "194458.865000", "194459.325000", "194459.785000", "194500.245000", "194500.705000", "194501.165000", "194501.625000", "194502.085000", "194502.545000", "194503.005000", "194503.465000", "194503.925000", "194504.385000", "194504.845000", "194505.305000", "194505.765000", "194506.225000", "194506.685000", "194507.145000", "194507.605000", "194508.065000", "194508.525000", "194508.985000", "194509.445000", "194509.905000", "194510.365000", "194510.825000", "194511.285000", "194511.745000", "194512.205000", "194512.665000", "194513.125000", "194513.585000", "194514.045000", "194514.505000", "194514.965000", "194515.425000", "194515.885000", "194516.345000", "194516.805000", "194517.265000", "194517.725000", "194518.185000", "194518.645000", "194519.105000", "194519.565000", "194520.025000", "194520.485000", "194520.945000", "194521.405000", "194521.865000", "194522.325000", "194522.785000", "194523.245000", "194523.705000", "194524.165000", "194524.625000", "194525.085000", "194525.545000", "194526.005000", "194526.465000", "194526.925000", "194527.385000", "194527.845000", "194528.305000", "194528.765000", "194529.225000", "194529.685000", "194530.145000", "194530.605000", "194531.065000", "194531.525000", "194531.985000", "194532.445000", "194532.905000", "194533.365000", "194533.825000", "194534.285000", "194534.745000", "194535.205000", "194535.665000", "194536.125000", "194536.585000", "194537.045000", "194537.505000", "194537.965000", "194538.425000", "194538.885000", "194539.345000", "194539.805000", "194540.265000", "194540.725000", "194541.185000", "194541.645000", "194542.105000", "194542.565000", "194543.025000", "194543.485000", "194543.945000", "194544.405000", "194544.865000", "194545.325000", "194545.785000", "194546.245000", "194546.705000", "194547.165000", "194547.625000", "194548.085000", "194548.545000", "194549.005000", "194549.465000", "194549.925000", "194550.385000", "194550.845000", "194551.305000", "194551.765000", "194552.225000", "194552.685000", "194553.145000", "194553.605000", "194554.065000", "194554.525000", "194554.985000", "194555.445000", "194555.905000", "194556.365000", "194556.825000", "194557.285000", "194557.745000", "194558.205000", "194558.665000", "194559.125000", "194559.585000", "194600.045000", "194600.505000", "194600.965000", "194601.425000", "194601.885000", "194602.345000", "194602.805000", "194603.265000", "194603.725000", "194604.185000", "194604.645000", "194605.105000", "194605.565000", "194606.025000", "194606.485000", "194606.945000", "194607.405000", "194607.865000", "194608.325000", "194608.785000", "194609.245000", "194609.705000", "194610.165000", "194610.625000", "194611.085000", "194611.545000", "194612.005000", "194612.465000", "194612.925000", "194613.385000", "194613.845000", "194614.305000", "194614.765000", "194615.225000", "194615.685000", "194616.145000", "194616.605000", "194617.065000", "194617.525000", "194617.985000", "194618.445000", "194618.905000", "194619.365000", "194619.825000", "194620.285000", "194620.745000", "194621.205000", "194621.665000", "194622.125000", "194622.585000", "194623.045000", "194623.505000", "194623.965000", "194624.425000", "194624.885000", "194625.345000", "194625.805000", "194626.265000", "194626.725000", "194627.185000", "194627.645000", "194628.105000", "194628.565000", "194629.025000", "194629.485000", "194629.945000", "194630.405000", "194630.865000", "194631.325000", "194631.785000", "194632.245000", "194632.705000", "194633.165000", "194633.625000", "194634.085000", "194634.545000", "194635.005000", "194635.465000", "194635.925000", "194636.385000", "194636.845000", "194637.305000", "194637.765000", "194638.225000", "194638.685000", "194639.145000", "194639.605000", "194640.065000", "194640.525000", "194640.985000", "194641.445000", "194641.905000", "194642.365000", "194642.825000", "194643.285000", "194643.745000", "194644.205000", "194644.665000", "194645.125000", "194645.585000", "194646.045000", "194646.505000", "194646.965000", "194647.425000", "194647.885000", "194648.345000", "194648.805000", "194649.265000", "194649.725000", "194650.185000", "194650.645000", "194651.105000", "194651.565000", "194652.025000", "194652.485000", "194652.945000", "194653.405000", "194653.865000", "194654.325000", "194654.785000", "194655.245000", "194655.705000", "194656.165000", "194656.625000", "194657.085000", "194657.545000", "194658.005000", "194658.465000", "194658.925000", "194659.385000", "194659.845000", "194700.305000", "194700.765000", "194701.225000", "194701.685000", "194702.145000", "194702.605000", "194703.065000", "194703.525000", "194703.985000", "194704.445000", "194704.905000", "194705.365000", "194705.825000", "194706.285000", "194706.745000", "194707.205000", "194707.665000", "194708.125000", "194708.585000", "194709.045000", "194709.505000", "194709.965000", "194710.425000", "194710.885000", "194711.345000", "194711.805000", "194712.265000", "194712.725000", "194713.185000", "194713.645000", "194714.105000", "194714.565000", "194715.025000", "194715.485000", "194715.945000", "194716.405000", "194716.865000", "194717.325000", "194717.785000", "194718.245000", "194718.705000", "194719.165000", "194719.625000", "194720.085000", "194720.545000", "194721.005000", "194721.465000", "194721.925000", "194722.385000", "194722.845000", "194723.305000", "194723.765000", "194724.225000", "194724.685000", "194725.145000", "194725.605000", "194726.065000", "194726.525000", "194726.985000", "194727.445000", "194727.905000", "194728.365000", "194728.825000", "194729.285000", "194729.745000", "194730.205000", "194730.665000", "194731.125000", "194731.585000", "194732.045000", "194732.505000", "194732.965000", "194733.425000", "194733.885000", "194734.345000", "194734.805000", "194735.265000", "194735.725000", "194736.185000", "194736.645000", "194737.105000", "194737.565000", "194738.025000", "194738.485000", "194738.945000", "194739.405000", "194739.865000", "194740.325000", "194740.785000", "194741.245000", "194741.705000", "194742.165000", "194742.625000", "194743.085000", "194743.545000", "194744.005000", "194744.465000", "194744.925000", "194745.385000", "194745.845000", "194746.305000", "194746.765000", "194747.225000", "194747.685000", "194748.145000", "194748.605000", "194749.065000", "194749.525000", "194749.985000", "194750.445000", "194750.905000", "194751.365000", "194751.825000", "194752.285000", "194752.745000", "194753.205000", "194753.665000", "194754.125000", "194754.585000", "194755.045000", "194755.505000", "194755.965000", "194756.425000", "194756.885000", "194757.345000", "194757.805000", "194758.265000", "194758.725000", "194759.185000", "194759.645000", "194800.105000", "194800.565000", "194801.025000", "194801.485000", "194801.945000", "194802.405000", "194802.865000", "194803.325000", "194803.785000", "194804.245000", "194804.705000", "194805.165000", "194805.625000", "194806.085000", "194806.545000", "194807.005000", "194807.465000", "194807.925000", "194808.385000", "194808.845000", "194809.305000", "194809.765000", "194810.225000", "194810.685000", "194811.145000", "194811.605000", "194812.065000", "194812.525000", "194812.985000", "194813.445000", "194813.905000", "194814.365000", "194814.825000", "194815.285000", "194815.745000", "194816.205000", "194816.665000", "194817.125000", "194817.585000", "194818.045000", "194818.505000", "194818.965000", "194819.425000", "194819.885000", "194820.345000", "194820.805000", "194821.265000", "194821.725000", "194822.185000", "194822.645000", "194823.105000", "194823.565000", "194824.025000", "194824.485000", "194824.945000", "194825.405000", "194825.865000", "194826.325000", "194826.785000", "194827.245000", "194827.705000", "194828.165000", "194828.625000", "194829.085000", "194829.545000", "194830.005000", "194830.465000", "194830.925000", "194831.385000", "194831.845000", "194832.305000", "194832.765000", "194833.225000", "194833.685000", "194834.145000", "194834.605000", "194835.065000", "194835.525000", "194835.985000", "194836.445000", "194836.905000", "194837.365000", "194837.825000", "194838.285000", "194838.745000", "194839.205000", "194839.665000", "194840.125000", "194840.585000", "194841.045000", "194841.505000", "194841.965000", "194842.425000", "194842.885000", "194843.345000", "194843.805000", "194844.265000", "194844.725000", "194845.185000", "194845.645000", "194846.105000", "194846.565000", "194847.025000", "194847.485000", "194847.945000", "194848.405000", "194848.865000", "194849.325000", "194849.785000", "194850.245000", "194850.705000", "194851.165000", "194851.625000", "194852.085000", "194852.545000", "194853.005000", "194853.465000", "194853.925000", "194854.385000", "194854.845000", "194855.305000", "194855.765000", "194856.225000", "194856.685000", "194857.145000", "194857.605000", "194858.065000", "194858.525000", "194858.985000", "194859.445000", "194859.905000", "194900.365000", "194900.825000", "194901.285000", "194901.745000", "194902.205000", "194902.665000", "194903.125000", "194903.585000", "194904.045000", "194904.505000", "194904.965000", "194905.425000", "194905.885000", "194906.345000", "194906.805000", "194907.265000", "194907.725000", "194908.185000", "194908.645000", "194909.105000", "194909.565000", "194910.025000", "194910.485000", "194910.945000", "194911.405000", "194911.865000", "194912.325000", "194912.785000", "194913.245000", "194913.705000", "194914.165000", "194914.625000", "194915.085000", "194915.545000", "194916.005000", "194916.465000", "194916.925000", "194917.385000", "194917.845000", "194918.305000", "194918.765000", "194919.225000", "194919.685000", "194920.145000", "194920.605000", "194921.065000", "194921.525000", "194921.985000", "194922.445000", "194922.905000", "194923.365000", "194923.825000", "194924.285000", "194924.745000", "194925.205000", "194925.665000", "194926.125000", "194926.585000", "194927.045000", "194927.505000", "194927.965000", "194928.425000", "194928.885000", "194929.345000", "194929.805000", "194930.265000", "194930.725000", "194931.185000", "194931.645000", "194932.105000", "194932.565000", "194933.025000", "194933.485000", "194933.945000", "194934.405000", "194934.865000", "194935.325000", "194935.785000", "194936.245000", "194936.705000", "194937.165000", "194937.625000", "194938.085000", "194938.545000", "194939.005000", "194939.465000", "194939.925000", "194940.385000", "194940.845000", "194941.305000", "194941.765000", "194942.225000", "194942.685000", "194943.145000", "194943.605000", "194944.065000", "194944.525000", "194944.985000", "194945.445000", "194945.905000", "194946.365000", "194946.825000", "194947.285000", "194947.745000", "194948.205000", "194948.665000", "194949.125000", "194949.585000", "194950.045000", "194950.505000", "194950.965000", "194951.425000", "194951.885000", "194952.345000", "194952.805000", "194953.265000", "194953.725000", "194954.185000", "194954.645000", "194955.105000", "194955.565000", "194956.025000", "194956.485000", "194956.945000", "194957.405000", "194957.865000", "194958.325000", "194958.785000"],
