{
  "AcquisitionMatrixPE": 82,
  "AcquisitionNumber": 1,
  "AcquisitionTime": "16:57:33.387500",
  "BandwidthPerPixelPhaseEncode": 24.888,
  "BaseResolution": 82,
  "BodyPartExamined": "BRAIN",
  "ConsistencyInfo": "N4_VE11E_LATEST_20181129",
  "ConversionSoftware": "dcm2niix",
  "ConversionSoftwareVersion": "v1.0.20201102",
  "DerivedVendorReportedEchoSpacing": 0.00049,
  "DeviceSerialNumber": "66112",
  "DwellTime": 2e-06,
  "EchoTime": 0.0272,
  "EchoTrainLength": 82,
  "EffectiveEchoSpacing": 0.00049,
  "FlipAngle": 44,
  "ImageComments": "Unaliased MB8/PE3",
  "ImageOrientationPatientDICOM": [0.999732, -0.0051843, -0.0225391, 0.00610707, 0.999138, 0.0410665],
  "ImageType": [
    "ORIGINAL",
    "PRIMARY",
    "M",
    "MB",
    "ND",
    "NORM",
    "MOSAIC"
],
  "ImagingFrequency": 123.259,
  "InPlanePhaseEncodingDirectionDICOM": "COL",
  "InstitutionAddress": "Maynard 3,Hanover,NH,US,03755",
  "InstitutionName": "Dartmouth College - PBS",
  "InstitutionalDepartmentName": "Department",
  "MRAcquisitionType": "2D",
  "MagneticFieldStrength": 3,
  "Manufacturer": "Siemens",
  "ManufacturersModelName": "Prisma",
  "Modality": "MR",
  "MultibandAccelerationFactor": 8,
  "PartialFourier": 1,
  "PatientPosition": "HFS",
  "PercentPhaseFOV": 100,
  "PercentSampling": 100,
  "PhaseEncodingDirection": "j-",
  "PhaseEncodingSteps": 82,
  "PhaseResolution": 1,
  "PixelBandwidth": 3050,
  "ProcedureStepDescription": "Wager_Wager^1076_spacetop",
  "ProtocolName": "func_run-06_task-social_acq-ap-mb8",
  "PulseSequenceDetails": "%CustomerSeq%\\cmrr_mbep2d_bold",
  "ReceiveCoilActiveElements": "HEA;HEP",
  "ReceiveCoilName": "Head_32",
  "ReconMatrixPE": 82,
  "RepetitionTime": 0.46,
  "SAR": 0.0878736,
  "ScanOptions": "FS",
  "ScanningSequence": "EP",
  "SequenceName": "epfid2d1_82",
  "SequenceVariant": "SK\\SS",
  "SeriesDescription": "func_run-06_task-social_acq-ap-mb8",
  "SeriesNumber": 22,
  "ShimSetting": [4208, -7751, -7194, 417, -140, 90, 40, 58],
  "SliceThickness": 2.7,
  "SliceTiming": [0, 0.25, 0.0625, 0.3125, 0.125, 0.375, 0.1875, 0, 0.25, 0.0625, 0.3125, 0.125, 0.375, 0.1875, 0, 0.25, 0.0625, 0.3125, 0.125, 0.375, 0.1875, 0, 0.25, 0.0625, 0.3125, 0.125, 0.375, 0.1875, 0, 0.25, 0.0625, 0.3125, 0.125, 0.375, 0.1875, 0, 0.25, 0.0625, 0.3125, 0.125, 0.375, 0.1875, 0, 0.25, 0.0625, 0.3125, 0.125, 0.375, 0.1875, 0, 0.25, 0.0625, 0.3125, 0.125, 0.375, 0.1875],
  "SoftwareVersions": "syngo MR E11",
  "SpacingBetweenSlices": 2.7,
  "StationName": "AWP66112",
  "TaskName": "social",
  "TotalReadoutTime": 0.03969,
  "TxRefAmp": 237.137,
  "WipMemBlock": "9f7f7dc8-80fb-4267-84bc-0aa412f41d96||Sequence: R016 ve11e/master r/434b28f1; Aug  7 2019 18:53:46 by eja",
  "dcmmeta_affine": [
    [-2.6822092533111572, 0.01638481207191944, -0.06022818386554718, 113.28207397460938],
    [0.013909101486206055, 2.6806135177612305, 0.11122161895036697, -108.11051177978516],
    [-0.06047067791223526, -0.11017849296331406, 2.697036027908325, -58.367530822753906],
    [0.0, 0.0, 0.0, 1.0]
],
  "dcmmeta_reorient_transform": [
    [0.0, -1.0, 0.0, 81.0],
    [1.0, 0.0, 0.0, 0.0],
    [0.0, 0.0, 1.0, 0.0],
    [0.0, 0.0, 0.0, 1.0]
],
  "dcmmeta_shape": [82, 82, 56, 872],
  "dcmmeta_slice_dim": 2,
  "dcmmeta_version": 0.6,
  "global": {
    "const": {
      "AccessionNumber": "A004656",
      "AcquisitionMatrix": [82, 0, 0, 82],
      "AngioFlag": "N",
      "BitsAllocated": 16,
      "BitsStored": 16,
      "BodyPartExamined": "BRAIN",
      "Columns": 656,
      "EchoNumbers": 1,
      "EchoTime": 27.2,
      "EchoTrainLength": 82,
      "FlipAngle": 44.0,
      "HighBit": 15,
      "ImageOrientationPatient": [0.99973252089318, -0.0051843011847, -0.0225390702958, 0.00610706589583, 0.99913775027585, 0.04106652797418],
      "ImagePositionPatient": [-889.10574590541, -874.363361424, -81.558130430857],
      "ImageType": [
        "ORIGINAL",
        "PRIMARY",
        "M",
        "MB",
        "ND",
        "NORM",
        "MOSAIC"
],
      "ImagedNucleus": "1H",
      "ImagingFrequency": 123.259094,
      "InPlanePhaseEncodingDirection": "COL",
      "MRAcquisitionType": "2D",
      "MagneticFieldStrength": 3.0,
      "Manufacturer": "SIEMENS",
      "ManufacturerModelName": "Prisma",
      "Modality": "MR",
      "NumberOfAverages": 1.0,
      "NumberOfPhaseEncodingSteps": 82,
      "PercentPhaseFieldOfView": 100.0,
      "PercentSampling": 100.0,
      "PerformedProcedureStepStartTime": "154150.417000",
      "PhotometricInterpretation": "MONOCHROME2",
      "PixelBandwidth": 3050.0,
      "PixelRepresentation": 0,
      "PixelSpacing": [2.6829268932343, 2.6829268932343],
      "ProtocolName": "func_run-06_task-social_acq-ap-mb8",
      "RepetitionTime": 460.0,
      "Rows": 656,
      "SAR": 0.08787363735756,
      "SamplesPerPixel": 1,
      "ScanOptions": "FS",
      "ScanningSequence": "EP",
      "SequenceName": "epfid2d1_82",
      "SequenceVariant": [
        "SK",
        "SS"
],
      "SeriesDescription": "func_run-06_task-social_acq-ap-mb8",
      "SeriesNumber": 22,
      "SeriesTime": "165800.896000",
      "SliceLocation": -65.283821841189,
      "SliceThickness": 2.7000000476837,
      "SmallestImagePixelValue": 0,
      "SoftwareVersions": "syngo MR E11",
      "SpacingBetweenSlices": 2.7000000718655,
      "SpecificCharacterSet": "ISO_IR 100",
      "StudyID": "1",
      "StudyTime": "154150.364000",
      "TransmitCoilName": "Body",
      "VariableFlipAngleFlag": "N",
      "WindowCenterWidthExplanation": "Algo1"
    },
    "slices": {}
  },
  "time": {
    "samples": {
      "AcquisitionNumber": [1, 2, 3, 4, 5, 6, 7, 8, 9, 10, 11, 12, 13, 14, 15, 16, 17, 18, 19, 20, 21, 22, 23, 24, 25, 26, 27, 28, 29, 30, 31, 32, 33, 34, 35, 36, 37, 38, 39, 40, 41, 42, 43, 44, 45, 46, 47, 48, 49, 50, 51, 52, 53, 54, 55, 56, 57, 58, 59, 60, 61, 62, 63, 64, 65, 66, 67, 68, 69, 70, 71, 72, 73, 74, 75, 76, 77, 78, 79, 80, 81, 82, 83, 84, 85, 86, 87, 88, 89, 90, 91, 92, 93, 94, 95, 96, 97, 98, 99, 100, 101, 102, 103, 104, 105, 106, 107, 108, 109, 110, 111, 112, 113, 114, 115, 116, 117, 118, 119, 120, 121, 122, 123, 124, 125, 126, 127, 128, 129, 130, 131, 132, 133, 134, 135, 136, 137, 138, 139, 140, 141, 142, 143, 144, 145, 146, 147, 148, 149, 150, 151, 152, 153, 154, 155, 156, 157, 158, 159, 160, 161, 162, 163, 164, 165, 166, 167, 168, 169, 170, 171, 172, 173, 174, 175, 176, 177, 178, 179, 180, 181, 182, 183, 184, 185, 186, 187, 188, 189, 190, 191, 192, 193, 194, 195, 196, 197, 198, 199, 200, 201, 202, 203, 204, 205, 206, 207, 208, 209, 210, 211, 212, 213, 214, 215, 216, 217, 218, 219, 220, 221, 222, 223, 224, 225, 226, 227, 228, 229, 230, 231, 232, 233, 234, 235, 236, 237, 238, 239, 240, 241, 242, 243, 244, 245, 246, 247, 248, 249, 250, 251, 252, 253, 254, 255, 256, 257, 258, 259, 260, 261, 262, 263, 264, 265, 266, 267, 268, 269, 270, 271, 272, 273, 274, 275, 276, 277, 278, 279, 280, 281, 282, 283, 284, 285, 286, 287, 288, 289, 290, 291, 292, 293, 294, 295, 296, 297, 298, 299, 300, 301, 302, 303, 304, 305, 306, 307, 308, 309, 310, 311, 312, 313, 314, 315, 316, 317, 318, 319, 320, 321, 322, 323, 324, 325, 326, 327, 328, 329, 330, 331, 332, 333, 334, 335, 336, 337, 338, 339, 340, 341, 342, 343, 344, 345, 346, 347, 348, 349, 350, 351, 352, 353, 354, 355, 356, 357, 358, 359, 360, 361, 362, 363, 364, 365, 366, 367, 368, 369, 370, 371, 372, 373, 374, 375, 376, 377, 378, 379, 380, 381, 382, 383, 384, 385, 386, 387, 388, 389, 390, 391, 392, 393, 394, 395, 396, 397, 398, 399, 400, 401, 402, 403, 404, 405, 406, 407, 408, 409, 410, 411, 412, 413, 414, 415, 416, 417, 418, 419, 420, 421, 422, 423, 424, 425, 426, 427, 428, 429, 430, 431, 432, 433, 434, 435, 436, 437, 438, 439, 440, 441, 442, 443, 444, 445, 446, 447, 448, 449, 450, 451, 452, 453, 454, 455, 456, 457, 458, 459, 460, 461, 462, 463, 464, 465, 466, 467, 468, 469, 470, 471, 472, 473, 474, 475, 476, 477, 478, 479, 480, 481, 482, 483, 484, 485, 486, 487, 488, 489, 490, 491, 492, 493, 494, 495, 496, 497, 498, 499, 500, 501, 502, 503, 504, 505, 506, 507, 508, 509, 510, 511, 512, 513, 514, 515, 516, 517, 518, 519, 520, 521, 522, 523, 524, 525, 526, 527, 528, 529, 530, 531, 532, 533, 534, 535, 536, 537, 538, 539, 540, 541, 542, 543, 544, 545, 546, 547, 548, 549, 550, 551, 552, 553, 554, 555, 556, 557, 558, 559, 560, 561, 562, 563, 564, 565, 566, 567, 568, 569, 570, 571, 572, 573, 574, 575, 576, 577, 578, 579, 580, 581, 582, 583, 584, 585, 586, 587, 588, 589, 590, 591, 592, 593, 594, 595, 596, 597, 598, 599, 600, 601, 602, 603, 604, 605, 606, 607, 608, 609, 610, 611, 612, 613, 614, 615, 616, 617, 618, 619, 620, 621, 622, 623, 624, 625, 626, 627, 628, 629, 630, 631, 632, 633, 634, 635, 636, 637, 638, 639, 640, 641, 642, 643, 644, 645, 646, 647, 648, 649, 650, 651, 652, 653, 654, 655, 656, 657, 658, 659, 660, 661, 662, 663, 664, 665, 666, 667, 668, 669, 670, 671, 672, 673, 674, 675, 676, 677, 678, 679, 680, 681, 682, 683, 684, 685, 686, 687, 688, 689, 690, 691, 692, 693, 694, 695, 696, 697, 698, 699, 700, 701, 702, 703, 704, 705, 706, 707, 708, 709, 710, 711, 712, 713, 714, 715, 716, 717, 718, 719, 720, 721, 722, 723, 724, 725, 726, 727, 728, 729, 730, 731, 732, 733, 734, 735, 736, 737, 738, 739, 740, 741, 742, 743, 744, 745, 746, 747, 748, 749, 750, 751, 752, 753, 754, 755, 756, 757, 758, 759, 760, 761, 762, 763, 764, 765, 766, 767, 768, 769, 770, 771, 772, 773, 774, 775, 776, 777, 778, 779, 780, 781, 782, 783, 784, 785, 786, 787, 788, 789, 790, 791, 792, 793, 794, 795, 796, 797, 798, 799, 800, 801, 802, 803, 804, 805, 806, 807, 808, 809, 810, 811, 812, 813, 814, 815, 816, 817, 818, 819, 820, 821, 822, 823, 824, 825, 826, 827, 828, 829, 830, 831, 832, 833, 834, 835, 836, 837, 838, 839, 840, 841, 842, 843, 844, 845, 846, 847, 848, 849, 850, 851, 852, 853, 854, 855, 856, 857, 858, 859, 860, 861, 862, 863, 864, 865, 866, 867, 868, 869, 870, 871, 872],
      "AcquisitionTime": ["165733.387500", "165733.847500", "165734.307500", "165734.767500", "165735.227500", "165735.687500", "165736.147500", "165736.607500", "165737.067500", "165737.527500", "165737.987500", "165738.447500", "165738.907500", "165739.367500", "165739.827500", "165740.287500", "165740.747500", "165741.207500", "165741.667500", "165742.127500", "165742.587500", "165743.047500", "165743.507500", "165743.967500", "165744.427500", "165744.887500", "165745.347500", "165745.807500", "165746.267500", "165746.727500", "165747.187500", "165747.647500", "165748.107500", "165748.567500", "165749.027500", "165749.487500", "165749.947500", "165750.407500", "165750.867500", "165751.327500", "165751.787500", "165752.247500", "165752.707500", "165753.167500", "165753.627500", "165754.087500", "165754.547500", "165755.007500", "165755.467500", "165755.927500", "165756.387500", "165756.847500", "165757.307500", "165757.767500", "165758.227500", "165758.687500", "165759.147500", "165759.607500", "165800.067500", "165800.527500", "165800.987500", "165801.447500", "165801.907500", "165802.367500", "165802.827500", "165803.287500", "165803.747500", "165804.207500", "165804.667500", "165805.127500", "165805.587500", "165806.047500", "165806.507500", "165806.967500", "165807.427500", "165807.887500", "165808.347500", "165808.807500", "165809.267500", "165809.727500", "165810.187500", "165810.647500", "165811.107500", "165811.567500", "165812.027500", "165812.487500", "165812.947500", "165813.407500", "165813.867500", "165814.327500", "165814.787500", "165815.247500", "165815.707500", "165816.167500", "165816.627500", "165817.087500", "165817.547500", "165818.007500", "165818.467500", "165818.927500", "165819.387500", "165819.847500", "165820.307500", "165820.767500", "165821.227500", "165821.687500", "165822.147500", "165822.607500", "165823.067500", "165823.527500", "165823.987500", "165824.447500", "165824.907500", "165825.367500", "165825.827500", "165826.287500", "165826.747500", "165827.207500", "165827.667500", "165828.127500", "165828.587500", "165829.047500", "165829.507500", "165829.967500", "165830.427500", "165830.887500", "165831.347500", "165831.807500", "165832.267500", "165832.727500", "165833.187500", "165833.647500", "165834.107500", "165834.567500", "165835.027500", "165835.487500", "165835.947500", "165836.407500", "165836.867500", "165837.327500", "165837.787500", "165838.247500", "165838.707500", "165839.167500", "165839.627500", "165840.087500", "165840.547500", "165841.007500", "165841.467500", "165841.927500", "165842.387500", "165842.847500", "165843.307500", "165843.767500", "165844.227500", "165844.687500", "165845.147500", "165845.607500", "165846.067500", "165846.527500", "165846.987500", "165847.447500", "165847.907500", "165848.367500", "165848.827500", "165849.287500", "165849.747500", "165850.207500", "165850.667500", "165851.127500", "165851.587500", "165852.047500", "165852.507500", "165852.967500", "165853.427500", "165853.887500", "165854.347500", "165854.807500", "165855.267500", "165855.727500", "165856.187500", "165856.647500", "165857.107500", "165857.567500", "165858.027500", "165858.487500", "165858.947500", "165859.407500", "165859.867500", "165900.327500", "165900.787500", "165901.247500", "165901.707500", "165902.167500", "165902.627500", "165903.087500", "165903.547500", "165904.007500", "165904.467500", "165904.927500", "165905.387500", "165905.847500", "165906.307500", "165906.767500", "165907.227500", "165907.687500", "165908.147500", "165908.607500", "165909.067500", "165909.527500", "165909.987500", "165910.447500", "165910.907500", "165911.367500", "165911.827500", "165912.287500", "165912.747500", "165913.207500", "165913.667500", "165914.127500", "165914.587500", "165915.047500", "165915.507500", "165915.967500", "165916.427500", "165916.887500", "165917.347500", "165917.807500", "165918.267500", "165918.727500", "165919.187500", "165919.647500", "165920.107500", "165920.567500", "165921.027500", "165921.487500", "165921.947500", "165922.407500", "165922.867500", "165923.327500", "165923.787500", "165924.247500", "165924.707500", "165925.167500", "165925.627500", "165926.087500", "165926.547500", "165927.007500", "165927.467500", "165927.927500", "165928.387500", "165928.847500", "165929.307500", "165929.767500", "165930.227500", "165930.687500", "165931.147500", "165931.607500", "165932.067500", "165932.527500", "165932.987500", "165933.447500", "165933.907500", "165934.367500", "165934.827500", "165935.287500", "165935.747500", "165936.207500", "165936.667500", "165937.127500", "165937.587500", "165938.047500", "165938.507500", "165938.967500", "165939.427500", "165939.887500", "165940.347500", "165940.807500", "165941.267500", "165941.727500", "165942.187500", "165942.647500", "165943.107500", "165943.567500", "165944.027500", "165944.487500", "165944.947500", "165945.407500", "165945.867500", "165946.327500", "165946.787500", "165947.247500", "165947.707500", "165948.167500", "165948.627500", "165949.087500", "165949.547500", "165950.007500", "165950.467500", "165950.927500", "165951.387500", "165951.847500", "165952.307500", "165952.767500", "165953.227500", "165953.687500", "165954.147500", "165954.607500", "165955.067500", "165955.527500", "165955.987500", "165956.447500", "165956.907500", "165957.367500", "165957.827500", "165958.287500", "165958.747500", "165959.207500", "165959.667500", "170000.127500", "170000.587500", "170001.047500", "170001.507500", "170001.967500", "170002.427500", "170002.887500", "170003.347500", "170003.807500", "170004.267500", "170004.727500", "170005.187500", "170005.647500", "170006.107500", "170006.567500", "170007.027500", "170007.487500", "170007.947500", "170008.407500", "170008.867500", "170009.327500", "170009.787500", "170010.247500", "170010.707500", "170011.167500", "170011.627500", "170012.087500", "170012.547500", "170013.007500", "170013.467500", "170013.927500", "170014.387500", "170014.847500", "170015.307500", "170015.767500", "170016.227500", "170016.687500", "170017.147500", "170017.607500", "170018.067500", "170018.527500", "170018.987500", "170019.447500", "170019.907500", "170020.367500", "170020.827500", "170021.287500", "170021.747500", "170022.207500", "170022.667500", "170023.127500", "170023.587500", "170024.047500", "170024.507500", "170024.967500", "170025.427500", "170025.887500", "170026.347500", "170026.807500", "170027.267500", "170027.727500", "170028.187500", "170028.647500", "170029.107500", "170029.567500", "170030.027500", "170030.487500", "170030.947500", "170031.407500", "170031.867500", "170032.327500", "170032.787500", "170033.247500", "170033.707500", "170034.167500", "170034.627500", "170035.087500", "170035.547500", "170036.007500", "170036.467500", "170036.927500", "170037.387500", "170037.847500", "170038.307500", "170038.767500", "170039.227500", "170039.687500", "170040.147500", "170040.607500", "170041.067500", "170041.527500", "170041.987500", "170042.447500", "170042.907500", "170043.367500", "170043.827500", "170044.287500", "170044.747500", "170045.207500", "170045.667500", "170046.127500", "170046.587500", "170047.047500", "170047.507500", "170047.967500", "170048.427500", "170048.887500", "170049.347500", "170049.807500", "170050.267500", "170050.727500", "170051.187500", "170051.647500", "170052.107500", "170052.567500", "170053.027500", "170053.487500", "170053.947500", "170054.407500", "170054.867500", "170055.327500", "170055.787500", "170056.247500", "170056.707500", "170057.167500", "170057.627500", "170058.087500", "170058.547500", "170059.007500", "170059.467500", "170059.927500", "170100.387500", "170100.847500", "170101.307500", "170101.767500", "170102.227500", "170102.687500", "170103.147500", "170103.607500", "170104.067500", "170104.527500", "170104.987500", "170105.447500", "170105.907500", "170106.367500", "170106.827500", "170107.287500", "170107.747500", "170108.207500", "170108.667500", "170109.127500", "170109.587500", "170110.047500", "170110.507500", "170110.967500", "170111.427500", "170111.887500", "170112.347500", "170112.807500", "170113.267500", "170113.727500", "170114.187500", "170114.647500", "170115.107500", "170115.567500", "170116.027500", "170116.487500", "170116.947500", "170117.407500", "170117.867500", "170118.327500", "170118.787500", "170119.247500", "170119.707500", "170120.167500", "170120.627500", "170121.087500", "170121.547500", "170122.007500", "170122.467500", "170122.927500", "170123.387500", "170123.847500", "170124.307500", "170124.767500", "170125.227500", "170125.687500", "170126.147500", "170126.607500", "170127.067500", "170127.527500", "170127.987500", "170128.447500", "170128.907500", "170129.367500", "170129.827500", "170130.287500", "170130.747500", "170131.207500", "170131.667500", "170132.127500", "170132.587500", "170133.047500", "170133.507500", "170133.967500", "170134.427500", "170134.887500", "170135.347500", "170135.807500", "170136.267500", "170136.727500", "170137.187500", "170137.647500", "170138.107500", "170138.567500", "170139.027500", "170139.487500", "170139.947500", "170140.407500", "170140.867500", "170141.327500", "170141.787500", "170142.247500", "170142.707500", "170143.167500", "170143.627500", "170144.087500", "170144.547500", "170145.007500", "170145.467500", "170145.927500", "170146.387500", "170146.847500", "170147.307500", "170147.767500", "170148.227500", "170148.687500", "170149.147500", "170149.607500", "170150.067500", "170150.527500", "170150.987500", "170151.447500", "170151.907500", "170152.367500", "170152.827500", "170153.287500", "170153.747500", "170154.207500", "170154.667500", "170155.127500", "170155.587500", "170156.047500", "170156.507500", "170156.967500", "170157.427500", "170157.887500", "170158.347500", "170158.807500", "170159.267500", "170159.727500", "170200.187500", "170200.647500", "170201.107500", "170201.567500", "170202.027500", "170202.487500", "170202.947500", "170203.407500", "170203.867500", "170204.327500", "170204.787500", "170205.247500", "170205.707500", "170206.167500", "170206.627500", "170207.087500", "170207.547500", "170208.007500", "170208.467500", "170208.927500", "170209.387500", "170209.847500", "170210.307500", "170210.767500", "170211.227500", "170211.687500", "170212.147500", "170212.607500", "170213.067500", "170213.527500", "170213.987500", "170214.447500", "170214.907500", "170215.367500", "170215.827500", "170216.287500", "170216.747500", "170217.207500", "170217.667500", "170218.127500", "170218.587500", "170219.047500", "170219.507500", "170219.967500", "170220.427500", "170220.887500", "170221.347500", "170221.807500", "170222.267500", "170222.727500", "170223.187500", "170223.647500", "170224.107500", "170224.567500", "170225.027500", "170225.487500", "170225.947500", "170226.407500", "170226.867500", "170227.327500", "170227.787500", "170228.247500", "170228.707500", "170229.167500", "170229.627500", "170230.087500", "170230.547500", "170231.007500", "170231.467500", "170231.927500", "170232.387500", "170232.847500", "170233.307500", "170233.767500", "170234.227500", "170234.687500", "170235.147500", "170235.607500", "170236.067500", "170236.527500", "170236.987500", "170237.447500", "170237.907500", "170238.367500", "170238.827500", "170239.287500", "170239.747500", "170240.207500", "170240.667500", "170241.127500", "170241.587500", "170242.047500", "170242.507500", "170242.967500", "170243.427500", "170243.887500", "170244.347500", "170244.807500", "170245.267500", "170245.727500", "170246.187500", "170246.647500", "170247.107500", "170247.567500", "170248.027500", "170248.487500", "170248.947500", "170249.407500", "170249.867500", "170250.327500", "170250.787500", "170251.247500", "170251.707500", "170252.167500", "170252.627500", "170253.087500", "170253.547500", "170254.007500", "170254.467500", "170254.927500", "170255.387500", "170255.847500", "170256.307500", "170256.767500", "170257.227500", "170257.687500", "170258.147500", "170258.607500", "170259.067500", "170259.527500", "170259.987500", "170300.447500", "170300.907500", "170301.367500", "170301.827500", "170302.287500", "170302.747500", "170303.207500", "170303.667500", "170304.127500", "170304.587500", "170305.047500", "170305.507500", "170305.967500", "170306.427500", "170306.887500", "170307.347500", "170307.807500", "170308.267500", "170308.727500", "170309.187500", "170309.647500", "170310.107500", "170310.567500", "170311.027500", "170311.487500", "170311.947500", "170312.407500", "170312.867500", "170313.327500", "170313.787500", "170314.247500", "170314.707500", "170315.167500", "170315.627500", "170316.087500", "170316.547500", "170317.007500", "170317.467500", "170317.927500", "170318.387500", "170318.847500", "170319.307500", "170319.767500", "170320.227500", "170320.687500", "170321.147500", "170321.607500", "170322.067500", "170322.527500", "170322.987500", "170323.447500", "170323.907500", "170324.367500", "170324.827500", "170325.287500", "170325.747500", "170326.207500", "170326.667500", "170327.127500", "170327.587500", "170328.047500", "170328.507500", "170328.967500", "170329.427500", "170329.887500", "170330.347500", "170330.807500", "170331.267500", "170331.727500", "170332.187500", "170332.647500", "170333.107500", "170333.567500", "170334.027500", "170334.487500", "170334.947500", "170335.407500", "170335.867500", "170336.327500", "170336.787500", "170337.247500", "170337.707500", "170338.167500", "170338.627500", "170339.087500", "170339.547500", "170340.007500", "170340.467500", "170340.927500", "170341.387500", "170341.847500", "170342.307500", "170342.767500", "170343.227500", "170343.687500", "170344.147500", "170344.607500", "170345.067500", "170345.527500", "170345.987500", "170346.447500", "170346.907500", "170347.367500", "170347.827500", "170348.287500", "170348.747500", "170349.207500", "170349.667500", "170350.127500", "170350.587500", "170351.047500", "170351.507500", "170351.967500", "170352.427500", "170352.887500", "170353.347500", "170353.807500", "170354.267500", "170354.727500", "170355.187500", "170355.647500", "170356.107500", "170356.567500", "170357.027500", "170357.487500", "170357.947500", "170358.407500", "170358.867500", "170359.327500", "170359.787500", "170400.247500", "170400.707500", "170401.167500", "170401.627500", "170402.087500", "170402.547500", "170403.007500", "170403.467500", "170403.927500", "170404.387500", "170404.847500", "170405.307500", "170405.767500", "170406.227500", "170406.687500", "170407.147500", "170407.607500", "170408.067500", "170408.527500", "170408.987500", "170409.447500", "170409.907500", "170410.367500", "170410.827500", "170411.287500", "170411.747500", "170412.207500", "170412.667500", "170413.127500", "170413.587500", "170414.047500"],
