{
  "AcquisitionMatrixPE": 82,
  "AcquisitionNumber": 1,
  "AcquisitionTime": "16:28:12.630000",
  "BandwidthPerPixelPhaseEncode": 24.888,
  "BaseResolution": 82,
  "BodyPartExamined": "BRAIN",
  "ConsistencyInfo": "N4_VE11E_LATEST_20181129",
  "ConversionSoftware": "dcm2niix",
  "ConversionSoftwareVersion": "v1.0.20201102",
  "DerivedVendorReportedEchoSpacing": 0.00049,
  "DeviceSerialNumber": "66112",
  "DwellTime": 2e-06,
  "EchoTime": 0.0272,
  "EchoTrainLength": 82,
  "EffectiveEchoSpacing": 0.00049,
  "FlipAngle": 44,
  "ImageComments": "Unaliased MB8/PE3",
  "ImageOrientationPatientDICOM": [0.999732, -0.0051843, -0.0225391, 0.00610707, 0.999138, 0.0410665],
  "ImageType": [
    "ORIGINAL",
    "PRIMARY",
    "M",
    "MB",
    "ND",
    "NORM",
    "MOSAIC"
],
  "ImagingFrequency": 123.259,
  "InPlanePhaseEncodingDirectionDICOM": "COL",
  "InstitutionAddress": "Maynard 3,Hanover,NH,US,03755",
  "InstitutionName": "Dartmouth College - PBS",
  "InstitutionalDepartmentName": "Department",
  "MRAcquisitionType": "2D",
  "MagneticFieldStrength": 3,
  "Manufacturer": "Siemens",
  "ManufacturersModelName": "Prisma",
  "Modality": "MR",
  "MultibandAccelerationFactor": 8,
  "PartialFourier": 1,
  "PatientPosition": "HFS",
  "PercentPhaseFOV": 100,
  "PercentSampling": 100,
  "PhaseEncodingDirection": "j-",
  "PhaseEncodingSteps": 82,
  "PhaseResolution": 1,
  "PixelBandwidth": 3050,
  "ProcedureStepDescription": "Wager_Wager^1076_spacetop",
  "ProtocolName": "func_run-02_task-social_acq-ap-mb8",
  "PulseSequenceDetails": "%CustomerSeq%\\cmrr_mbep2d_bold",
  "ReceiveCoilActiveElements": "HEA;HEP",
  "ReceiveCoilName": "Head_32",
  "ReconMatrixPE": 82,
  "RepetitionTime": 0.46,
  "SAR": 0.0878736,
  "ScanOptions": "FS",
  "ScanningSequence": "EP",
  "SequenceName": "epfid2d1_82",
  "SequenceVariant": "SK\\SS",
  "SeriesDescription": "func_run-02_task-social_acq-ap-mb8",
  "SeriesNumber": 14,
  "ShimSetting": [4208, -7751, -7194, 417, -140, 90, 40, 58],
  "SliceThickness": 2.7,
  "SliceTiming": [0, 0.2525, 0.0625, 0.315, 0.125, 0.3775, 0.19, 0, 0.2525, 0.0625, 0.315, 0.125, 0.3775, 0.19, 0, 0.2525, 0.0625, 0.315, 0.125, 0.3775, 0.19, 0, 0.2525, 0.0625, 0.315, 0.125, 0.3775, 0.19, 0, 0.2525, 0.0625, 0.315, 0.125, 0.3775, 0.19, 0, 0.2525, 0.0625, 0.315, 0.125, 0.3775, 0.19, 0, 0.2525, 0.0625, 0.315, 0.125, 0.3775, 0.19, 0, 0.2525, 0.0625, 0.315, 0.125, 0.3775, 0.19],
  "SoftwareVersions": "syngo MR E11",
  "SpacingBetweenSlices": 2.7,
  "StationName": "AWP66112",
  "TaskName": "social",
  "TotalReadoutTime": 0.03969,
  "TxRefAmp": 237.137,
  "WipMemBlock": "85dd1c20-b142-4c8e-a449-10961acd77bd||Sequence: R016 ve11e/master r/434b28f1; Aug  7 2019 18:53:46 by eja",
  "dcmmeta_affine": [
    [-2.6822092533111572, 0.01638481207191944, -0.06022818386554718, 113.28207397460938],
    [0.013909101486206055, 2.6806135177612305, 0.11122161895036697, -108.11051177978516],
    [-0.06047067791223526, -0.11017849296331406, 2.697036027908325, -58.367530822753906],
    [0.0, 0.0, 0.0, 1.0]
],
  "dcmmeta_reorient_transform": [
    [0.0, -1.0, 0.0, 81.0],
    [1.0, 0.0, 0.0, 0.0],
    [0.0, 0.0, 1.0, 0.0],
    [0.0, 0.0, 0.0, 1.0]
],
  "dcmmeta_shape": [82, 82, 56, 872],
  "dcmmeta_slice_dim": 2,
  "dcmmeta_version": 0.6,
  "global": {
    "const": {
      "AccessionNumber": "A004656",
      "AcquisitionMatrix": [82, 0, 0, 82],
      "AngioFlag": "N",
      "BitsAllocated": 16,
      "BitsStored": 16,
      "BodyPartExamined": "BRAIN",
      "Columns": 656,
      "EchoNumbers": 1,
      "EchoTime": 27.2,
      "EchoTrainLength": 82,
      "FlipAngle": 44.0,
      "HighBit": 15,
      "ImageOrientationPatient": [0.99973252089318, -0.0051843011847, -0.0225390702958, 0.00610706589583, 0.99913775027585, 0.04106652797418],
      "ImagePositionPatient": [-889.10574590541, -874.363361424, -81.558130430857],
      "ImageType": [
        "ORIGINAL",
        "PRIMARY",
        "M",
        "MB",
        "ND",
        "NORM",
        "MOSAIC"
],
      "ImagedNucleus": "1H",
      "ImagingFrequency": 123.259081,
      "InPlanePhaseEncodingDirection": "COL",
      "MRAcquisitionType": "2D",
      "MagneticFieldStrength": 3.0,
      "Manufacturer": "SIEMENS",
      "ManufacturerModelName": "Prisma",
      "Modality": "MR",
      "NumberOfAverages": 1.0,
      "NumberOfPhaseEncodingSteps": 82,
      "PercentPhaseFieldOfView": 100.0,
      "PercentSampling": 100.0,
      "PerformedProcedureStepStartTime": "154150.417000",
      "PhotometricInterpretation": "MONOCHROME2",
      "PixelBandwidth": 3050.0,
      "PixelRepresentation": 0,
      "PixelSpacing": [2.6829268932343, 2.6829268932343],
      "ProtocolName": "func_run-02_task-social_acq-ap-mb8",
      "RepetitionTime": 460.0,
      "Rows": 656,
      "SAR": 0.08787363735756,
      "SamplesPerPixel": 1,
      "ScanOptions": "FS",
      "ScanningSequence": "EP",
      "SequenceName": "epfid2d1_82",
      "SequenceVariant": [
        "SK",
        "SS"
],
      "SeriesDescription": "func_run-02_task-social_acq-ap-mb8",
      "SeriesNumber": 14,
      "SeriesTime": "162840.796000",
      "SliceLocation": -65.283821841189,
      "SliceThickness": 2.7000000476837,
      "SmallestImagePixelValue": 0,
      "SoftwareVersions": "syngo MR E11",
      "SpacingBetweenSlices": 2.7000000718655,
      "SpecificCharacterSet": "ISO_IR 100",
      "StudyID": "1",
      "StudyTime": "154150.364000",
      "TransmitCoilName": "Body",
      "VariableFlipAngleFlag": "N",
      "WindowCenterWidthExplanation": "Algo1"
    },
    "slices": {}
  },
  "time": {
    "samples": {
      "AcquisitionNumber": [1, 2, 3, 4, 5, 6, 7, 8, 9, 10, 11, 12, 13, 14, 15, 16, 17, 18, 19, 20, 21, 22, 23, 24, 25, 26, 27, 28, 29, 30, 31, 32, 33, 34, 35, 36, 37, 38, 39, 40, 41, 42, 43, 44, 45, 46, 47, 48, 49, 50, 51, 52, 53, 54, 55, 56, 57, 58, 59, 60, 61, 62, 63, 64, 65, 66, 67, 68, 69, 70, 71, 72, 73, 74, 75, 76, 77, 78, 79, 80, 81, 82, 83, 84, 85, 86, 87, 88, 89, 90, 91, 92, 93, 94, 95, 96, 97, 98, 99, 100, 101, 102, 103, 104, 105, 106, 107, 108, 109, 110, 111, 112, 113, 114, 115, 116, 117, 118, 119, 120, 121, 122, 123, 124, 125, 126, 127, 128, 129, 130, 131, 132, 133, 134, 135, 136, 137, 138, 139, 140, 141, 142, 143, 144, 145, 146, 147, 148, 149, 150, 151, 152, 153, 154, 155, 156, 157, 158, 159, 160, 161, 162, 163, 164, 165, 166, 167, 168, 169, 170, 171, 172, 173, 174, 175, 176, 177, 178, 179, 180, 181, 182, 183, 184, 185, 186, 187, 188, 189, 190, 191, 192, 193, 194, 195, 196, 197, 198, 199, 200, 201, 202, 203, 204, 205, 206, 207, 208, 209, 210, 211, 212, 213, 214, 215, 216, 217, 218, 219, 220, 221, 222, 223, 224, 225, 226, 227, 228, 229, 230, 231, 232, 233, 234, 235, 236, 237, 238, 239, 240, 241, 242, 243, 244, 245, 246, 247, 248, 249, 250, 251, 252, 253, 254, 255, 256, 257, 258, 259, 260, 261, 262, 263, 264, 265, 266, 267, 268, 269, 270, 271, 272, 273, 274, 275, 276, 277, 278, 279, 280, 281, 282, 283, 284, 285, 286, 287, 288, 289, 290, 291, 292, 293, 294, 295, 296, 297, 298, 299, 300, 301, 302, 303, 304, 305, 306, 307, 308, 309, 310, 311, 312, 313, 314, 315, 316, 317, 318, 319, 320, 321, 322, 323, 324, 325, 326, 327, 328, 329, 330, 331, 332, 333, 334, 335, 336, 337, 338, 339, 340, 341, 342, 343, 344, 345, 346, 347, 348, 349, 350, 351, 352, 353, 354, 355, 356, 357, 358, 359, 360, 361, 362, 363, 364, 365, 366, 367, 368, 369, 370, 371, 372, 373, 374, 375, 376, 377, 378, 379, 380, 381, 382, 383, 384, 385, 386, 387, 388, 389, 390, 391, 392, 393, 394, 395, 396, 397, 398, 399, 400, 401, 402, 403, 404, 405, 406, 407, 408, 409, 410, 411, 412, 413, 414, 415, 416, 417, 418, 419, 420, 421, 422, 423, 424, 425, 426, 427, 428, 429, 430, 431, 432, 433, 434, 435, 436, 437, 438, 439, 440, 441, 442, 443, 444, 445, 446, 447, 448, 449, 450, 451, 452, 453, 454, 455, 456, 457, 458, 459, 460, 461, 462, 463, 464, 465, 466, 467, 468, 469, 470, 471, 472, 473, 474, 475, 476, 477, 478, 479, 480, 481, 482, 483, 484, 485, 486, 487, 488, 489, 490, 491, 492, 493, 494, 495, 496, 497, 498, 499, 500, 501, 502, 503, 504, 505, 506, 507, 508, 509, 510, 511, 512, 513, 514, 515, 516, 517, 518, 519, 520, 521, 522, 523, 524, 525, 526, 527, 528, 529, 530, 531, 532, 533, 534, 535, 536, 537, 538, 539, 540, 541, 542, 543, 544, 545, 546, 547, 548, 549, 550, 551, 552, 553, 554, 555, 556, 557, 558, 559, 560, 561, 562, 563, 564, 565, 566, 567, 568, 569, 570, 571, 572, 573, 574, 575, 576, 577, 578, 579, 580, 581, 582, 583, 584, 585, 586, 587, 588, 589, 590, 591, 592, 593, 594, 595, 596, 597, 598, 599, 600, 601, 602, 603, 604, 605, 606, 607, 608, 609, 610, 611, 612, 613, 614, 615, 616, 617, 618, 619, 620, 621, 622, 623, 624, 625, 626, 627, 628, 629, 630, 631, 632, 633, 634, 635, 636, 637, 638, 639, 640, 641, 642, 643, 644, 645, 646, 647, 648, 649, 650, 651, 652, 653, 654, 655, 656, 657, 658, 659, 660, 661, 662, 663, 664, 665, 666, 667, 668, 669, 670, 671, 672, 673, 674, 675, 676, 677, 678, 679, 680, 681, 682, 683, 684, 685, 686, 687, 688, 689, 690, 691, 692, 693, 694, 695, 696, 697, 698, 699, 700, 701, 702, 703, 704, 705, 706, 707, 708, 709, 710, 711, 712, 713, 714, 715, 716, 717, 718, 719, 720, 721, 722, 723, 724, 725, 726, 727, 728, 729, 730, 731, 732, 733, 734, 735, 736, 737, 738, 739, 740, 741, 742, 743, 744, 745, 746, 747, 748, 749, 750, 751, 752, 753, 754, 755, 756, 757, 758, 759, 760, 761, 762, 763, 764, 765, 766, 767, 768, 769, 770, 771, 772, 773, 774, 775, 776, 777, 778, 779, 780, 781, 782, 783, 784, 785, 786, 787, 788, 789, 790, 791, 792, 793, 794, 795, 796, 797, 798, 799, 800, 801, 802, 803, 804, 805, 806, 807, 808, 809, 810, 811, 812, 813, 814, 815, 816, 817, 818, 819, 820, 821, 822, 823, 824, 825, 826, 827, 828, 829, 830, 831, 832, 833, 834, 835, 836, 837, 838, 839, 840, 841, 842, 843, 844, 845, 846, 847, 848, 849, 850, 851, 852, 853, 854, 855, 856, 857, 858, 859, 860, 861, 862, 863, 864, 865, 866, 867, 868, 869, 870, 871, 872],
      "AcquisitionTime": ["162812.630000", "162813.090000", "162813.550000", "162814.010000", "162814.470000", "162814.930000", "162815.390000", "162815.850000", "162816.310000", "162816.770000", "162817.230000", "162817.690000", "162818.150000", "162818.610000", "162819.070000", "162819.530000", "162819.990000", "162820.450000", "162820.910000", "162821.370000", "162821.830000", "162822.290000", "162822.750000", "162823.210000", "162823.670000", "162824.130000", "162824.590000", "162825.050000", "162825.510000", "162825.970000", "162826.430000", "162826.890000", "162827.350000", "162827.810000", "162828.270000", "162828.730000", "162829.190000", "162829.650000", "162830.110000", "162830.570000", "162831.030000", "162831.490000", "162831.950000", "162832.410000", "162832.870000", "162833.330000", "162833.790000", "162834.250000", "162834.710000", "162835.170000", "162835.630000", "162836.090000", "162836.550000", "162837.010000", "162837.470000", "162837.930000", "162838.390000", "162838.850000", "162839.310000", "162839.770000", "162840.230000", "162840.690000", "162841.150000", "162841.610000", "162842.070000", "162842.530000", "162842.990000", "162843.450000", "162843.910000", "162844.370000", "162844.830000", "162845.290000", "162845.750000", "162846.210000", "162846.670000", "162847.130000", "162847.590000", "162848.050000", "162848.510000", "162848.970000", "162849.430000", "162849.890000", "162850.350000", "162850.810000", "162851.270000", "162851.730000", "162852.190000", "162852.650000", "162853.110000", "162853.570000", "162854.030000", "162854.490000", "162854.950000", "162855.410000", "162855.870000", "162856.330000", "162856.790000", "162857.250000", "162857.710000", "162858.170000", "162858.630000", "162859.090000", "162859.550000", "162900.010000", "162900.470000", "162900.930000", "162901.390000", "162901.850000", "162902.310000", "162902.770000", "162903.230000", "162903.690000", "162904.150000", "162904.610000", "162905.070000", "162905.530000", "162905.990000", "162906.450000", "162906.910000", "162907.370000", "162907.830000", "162908.290000", "162908.750000", "162909.210000", "162909.670000", "162910.130000", "162910.590000", "162911.050000", "162911.510000", "162911.970000", "162912.430000", "162912.890000", "162913.350000", "162913.810000", "162914.270000", "162914.730000", "162915.190000", "162915.650000", "162916.110000", "162916.570000", "162917.030000", "162917.490000", "162917.950000", "162918.410000", "162918.870000", "162919.330000", "162919.790000", "162920.250000", "162920.710000", "162921.170000", "162921.630000", "162922.090000", "162922.550000", "162923.010000", "162923.470000", "162923.930000", "162924.390000", "162924.850000", "162925.310000", "162925.770000", "162926.230000", "162926.690000", "162927.150000", "162927.610000", "162928.070000", "162928.530000", "162928.990000", "162929.450000", "162929.910000", "162930.370000", "162930.830000", "162931.290000", "162931.750000", "162932.210000", "162932.670000", "162933.130000", "162933.590000", "162934.050000", "162934.510000", "162934.970000", "162935.430000", "162935.890000", "162936.350000", "162936.810000", "162937.270000", "162937.730000", "162938.190000", "162938.650000", "162939.110000", "162939.570000", "162940.030000", "162940.490000", "162940.950000", "162941.410000", "162941.870000", "162942.330000", "162942.790000", "162943.250000", "162943.710000", "162944.170000", "162944.630000", "162945.090000", "162945.550000", "162946.010000", "162946.470000", "162946.930000", "162947.390000", "162947.850000", "162948.310000", "162948.770000", "162949.230000", "162949.690000", "162950.150000", "162950.610000", "162951.070000", "162951.530000", "162951.990000", "162952.450000", "162952.910000", "162953.370000", "162953.830000", "162954.290000", "162954.750000", "162955.210000", "162955.670000", "162956.130000", "162956.590000", "162957.050000", "162957.510000", "162957.970000", "162958.430000", "162958.890000", "162959.350000", "162959.810000", "163000.270000", "163000.730000", "163001.190000", "163001.650000", "163002.110000", "163002.570000", "163003.030000", "163003.490000", "163003.950000", "163004.410000", "163004.870000", "163005.330000", "163005.790000", "163006.250000", "163006.710000", "163007.170000", "163007.630000", "163008.090000", "163008.550000", "163009.010000", "163009.470000", "163009.930000", "163010.390000", "163010.850000", "163011.310000", "163011.770000", "163012.230000", "163012.690000", "163013.150000", "163013.610000", "163014.070000", "163014.530000", "163014.990000", "163015.450000", "163015.910000", "163016.370000", "163016.830000", "163017.290000", "163017.750000", "163018.210000", "163018.670000", "163019.130000", "163019.590000", "163020.050000", "163020.510000", "163020.970000", "163021.430000", "163021.890000", "163022.350000", "163022.810000", "163023.270000", "163023.730000", "163024.190000", "163024.650000", "163025.110000", "163025.570000", "163026.030000", "163026.490000", "163026.950000", "163027.410000", "163027.870000", "163028.330000", "163028.790000", "163029.250000", "163029.710000", "163030.170000", "163030.630000", "163031.090000", "163031.550000", "163032.010000", "163032.470000", "163032.930000", "163033.390000", "163033.850000", "163034.310000", "163034.770000", "163035.230000", "163035.690000", "163036.150000", "163036.610000", "163037.070000", "163037.530000", "163037.990000", "163038.450000", "163038.910000", "163039.370000", "163039.830000", "163040.290000", "163040.750000", "163041.210000", "163041.670000", "163042.130000", "163042.590000", "163043.050000", "163043.510000", "163043.970000", "163044.430000", "163044.890000", "163045.350000", "163045.810000", "163046.270000", "163046.730000", "163047.190000", "163047.650000", "163048.110000", "163048.570000", "163049.030000", "163049.490000", "163049.950000", "163050.410000", "163050.870000", "163051.330000", "163051.790000", "163052.250000", "163052.710000", "163053.170000", "163053.630000", "163054.090000", "163054.550000", "163055.010000", "163055.470000", "163055.930000", "163056.390000", "163056.850000", "163057.310000", "163057.770000", "163058.230000", "163058.690000", "163059.150000", "163059.610000", "163100.070000", "163100.530000", "163100.990000", "163101.450000", "163101.910000", "163102.370000", "163102.830000", "163103.290000", "163103.750000", "163104.210000", "163104.670000", "163105.130000", "163105.590000", "163106.050000", "163106.510000", "163106.970000", "163107.430000", "163107.890000", "163108.350000", "163108.810000", "163109.270000", "163109.730000", "163110.190000", "163110.650000", "163111.110000", "163111.570000", "163112.030000", "163112.490000", "163112.950000", "163113.410000", "163113.870000", "163114.330000", "163114.790000", "163115.250000", "163115.710000", "163116.170000", "163116.630000", "163117.090000", "163117.550000", "163118.010000", "163118.470000", "163118.930000", "163119.390000", "163119.850000", "163120.310000", "163120.770000", "163121.230000", "163121.690000", "163122.150000", "163122.610000", "163123.070000", "163123.530000", "163123.990000", "163124.450000", "163124.910000", "163125.370000", "163125.830000", "163126.290000", "163126.750000", "163127.210000", "163127.670000", "163128.130000", "163128.590000", "163129.050000", "163129.510000", "163129.970000", "163130.430000", "163130.890000", "163131.350000", "163131.810000", "163132.270000", "163132.730000", "163133.190000", "163133.650000", "163134.110000", "163134.570000", "163135.030000", "163135.490000", "163135.950000", "163136.410000", "163136.870000", "163137.330000", "163137.790000", "163138.250000", "163138.710000", "163139.170000", "163139.630000", "163140.090000", "163140.550000", "163141.010000", "163141.470000", "163141.930000", "163142.390000", "163142.850000", "163143.310000", "163143.770000", "163144.230000", "163144.690000", "163145.150000", "163145.610000", "163146.070000", "163146.530000", "163146.990000", "163147.450000", "163147.910000", "163148.370000", "163148.830000", "163149.290000", "163149.750000", "163150.210000", "163150.670000", "163151.130000", "163151.590000", "163152.050000", "163152.510000", "163152.970000", "163153.430000", "163153.890000", "163154.350000", "163154.810000", "163155.270000", "163155.730000", "163156.190000", "163156.650000", "163157.110000", "163157.570000", "163158.030000", "163158.490000", "163158.950000", "163159.410000", "163159.870000", "163200.330000", "163200.790000", "163201.250000", "163201.710000", "163202.170000", "163202.630000", "163203.090000", "163203.550000", "163204.010000", "163204.470000", "163204.930000", "163205.390000", "163205.850000", "163206.310000", "163206.770000", "163207.230000", "163207.690000", "163208.150000", "163208.610000", "163209.070000", "163209.530000", "163209.990000", "163210.450000", "163210.910000", "163211.370000", "163211.830000", "163212.290000", "163212.750000", "163213.210000", "163213.670000", "163214.130000", "163214.590000", "163215.050000", "163215.510000", "163215.970000", "163216.430000", "163216.890000", "163217.350000", "163217.810000", "163218.270000", "163218.730000", "163219.190000", "163219.650000", "163220.110000", "163220.570000", "163221.030000", "163221.490000", "163221.950000", "163222.410000", "163222.870000", "163223.330000", "163223.790000", "163224.250000", "163224.710000", "163225.170000", "163225.630000", "163226.090000", "163226.550000", "163227.010000", "163227.470000", "163227.930000", "163228.390000", "163228.850000", "163229.310000", "163229.770000", "163230.230000", "163230.690000", "163231.150000", "163231.610000", "163232.070000", "163232.530000", "163232.990000", "163233.450000", "163233.910000", "163234.370000", "163234.830000", "163235.290000", "163235.750000", "163236.210000", "163236.670000", "163237.130000", "163237.590000", "163238.050000", "163238.510000", "163238.970000", "163239.430000", "163239.890000", "163240.350000", "163240.810000", "163241.270000", "163241.730000", "163242.190000", "163242.650000", "163243.110000", "163243.570000", "163244.030000", "163244.490000", "163244.950000", "163245.410000", "163245.870000", "163246.330000", "163246.790000", "163247.250000", "163247.710000", "163248.170000", "163248.630000", "163249.090000", "163249.550000", "163250.010000", "163250.470000", "163250.930000", "163251.390000", "163251.850000", "163252.310000", "163252.770000", "163253.230000", "163253.690000", "163254.150000", "163254.610000", "163255.070000", "163255.530000", "163255.990000", "163256.450000", "163256.910000", "163257.370000", "163257.830000", "163258.290000", "163258.750000", "163259.210000", "163259.670000", "163300.130000", "163300.590000", "163301.050000", "163301.510000", "163301.970000", "163302.430000", "163302.890000", "163303.350000", "163303.810000", "163304.270000", "163304.730000", "163305.190000", "163305.650000", "163306.110000", "163306.570000", "163307.030000", "163307.490000", "163307.950000", "163308.410000", "163308.870000", "163309.330000", "163309.790000", "163310.250000", "163310.710000", "163311.170000", "163311.630000", "163312.090000", "163312.550000", "163313.010000", "163313.470000", "163313.930000", "163314.390000", "163314.850000", "163315.310000", "163315.770000", "163316.230000", "163316.690000", "163317.150000", "163317.610000", "163318.070000", "163318.530000", "163318.990000", "163319.450000", "163319.910000", "163320.370000", "163320.830000", "163321.290000", "163321.750000", "163322.210000", "163322.670000", "163323.130000", "163323.590000", "163324.050000", "163324.510000", "163324.970000", "163325.430000", "163325.890000", "163326.350000", "163326.810000", "163327.270000", "163327.730000", "163328.190000", "163328.650000", "163329.110000", "163329.570000", "163330.030000", "163330.490000", "163330.950000", "163331.410000", "163331.870000", "163332.330000", "163332.790000", "163333.250000", "163333.710000", "163334.170000", "163334.630000", "163335.090000", "163335.550000", "163336.010000", "163336.470000", "163336.930000", "163337.390000", "163337.850000", "163338.310000", "163338.770000", "163339.230000", "163339.690000", "163340.150000", "163340.610000", "163341.070000", "163341.530000", "163341.990000", "163342.450000", "163342.910000", "163343.370000", "163343.830000", "163344.290000", "163344.750000", "163345.210000", "163345.670000", "163346.130000", "163346.590000", "163347.050000", "163347.510000", "163347.970000", "163348.430000", "163348.890000", "163349.350000", "163349.810000", "163350.270000", "163350.730000", "163351.190000", "163351.650000", "163352.110000", "163352.570000", "163353.030000", "163353.490000", "163353.950000", "163354.410000", "163354.870000", "163355.330000", "163355.790000", "163356.250000", "163356.710000", "163357.170000", "163357.630000", "163358.090000", "163358.550000", "163359.010000", "163359.470000", "163359.930000", "163400.390000", "163400.850000", "163401.310000", "163401.770000", "163402.230000", "163402.690000", "163403.150000", "163403.610000", "163404.070000", "163404.530000", "163404.990000", "163405.450000", "163405.910000", "163406.370000", "163406.830000", "163407.290000", "163407.750000", "163408.210000", "163408.670000", "163409.130000", "163409.590000", "163410.050000", "163410.510000", "163410.970000", "163411.430000", "163411.890000", "163412.350000", "163412.810000", "163413.270000", "163413.730000", "163414.190000", "163414.650000", "163415.110000", "163415.570000", "163416.030000", "163416.490000", "163416.950000", "163417.410000", "163417.870000", "163418.330000", "163418.790000", "163419.250000", "163419.710000", "163420.170000", "163420.630000", "163421.090000", "163421.550000", "163422.010000", "163422.470000", "163422.930000", "163423.390000", "163423.850000", "163424.310000", "163424.770000", "163425.230000", "163425.690000", "163426.150000", "163426.610000", "163427.070000", "163427.530000", "163427.990000", "163428.450000", "163428.910000", "163429.370000", "163429.830000", "163430.290000", "163430.750000", "163431.210000", "163431.670000", "163432.130000", "163432.590000", "163433.050000", "163433.510000", "163433.970000", "163434.430000", "163434.890000", "163435.350000", "163435.810000", "163436.270000", "163436.730000", "163437.190000", "163437.650000", "163438.110000", "163438.570000", "163439.030000", "163439.490000", "163439.950000", "163440.410000", "163440.870000", "163441.330000", "163441.790000", "163442.250000", "163442.710000", "163443.170000", "163443.630000", "163444.090000", "163444.550000", "163445.010000", "163445.470000", "163445.930000", "163446.390000", "163446.850000", "163447.310000", "163447.770000", "163448.230000", "163448.690000", "163449.150000", "163449.610000", "163450.070000", "163450.530000", "163450.990000", "163451.450000", "163451.910000", "163452.370000", "163452.830000", "163453.290000"],
