{
  "AcquisitionMatrixPE": 82,
  "AcquisitionNumber": 1,
  "AcquisitionTime": "17:28:7.365000",
  "BandwidthPerPixelPhaseEncode": 24.888,
  "BaseResolution": 82,
  "BodyPartExamined": "BRAIN",
  "ConsistencyInfo": "N4_VE11E_LATEST_20181129",
  "ConversionSoftware": "dcm2niix",
  "ConversionSoftwareVersion": "v1.0.20201102",
  "DerivedVendorReportedEchoSpacing": 0.00049,
  "DeviceSerialNumber": "66112",
  "DwellTime": 2e-06,
  "EchoTime": 0.0272,
  "EchoTrainLength": 82,
  "EffectiveEchoSpacing": 0.00049,
  "FlipAngle": 44,
  "ImageComments": "Unaliased MB8/PE3",
  "ImageOrientationPatientDICOM": [0.999019, -0.0103127, -0.0430655, 0.0104621, 0.99994, 0.00324669],
  "ImageType": [
    "ORIGINAL",
    "PRIMARY",
    "M",
    "MB",
    "ND",
    "NORM",
    "MOSAIC"
],
  "ImagingFrequency": 123.259,
  "InPlanePhaseEncodingDirectionDICOM": "COL",
  "InstitutionAddress": "Maynard 3,Hanover,NH,US,03755",
  "InstitutionName": "Dartmouth College - PBS",
  "InstitutionalDepartmentName": "Department",
  "MRAcquisitionType": "2D",
  "MagneticFieldStrength": 3,
  "Manufacturer": "Siemens",
  "ManufacturersModelName": "Prisma",
  "Modality": "MR",
  "MultibandAccelerationFactor": 8,
  "PartialFourier": 1,
  "PatientPosition": "HFS",
  "PercentPhaseFOV": 100,
  "PercentSampling": 100,
  "PhaseEncodingDirection": "j-",
  "PhaseEncodingSteps": 82,
  "PhaseResolution": 1,
  "PixelBandwidth": 3050,
  "ProcedureStepDescription": "Wager_Wager^1076_spacetop",
  "ProtocolName": "func_run-03_task-alignvideo_acq-ap-mb8",
  "PulseSequenceDetails": "%CustomerSeq%\\cmrr_mbep2d_bold",
  "ReceiveCoilActiveElements": "HEA;HEP",
  "ReceiveCoilName": "Head_32",
  "ReconMatrixPE": 82,
  "RepetitionTime": 0.46,
  "SAR": 0.0879511,
  "ScanOptions": "FS",
  "ScanningSequence": "EP",
  "SequenceName": "epfid2d1_82",
  "SequenceVariant": "SK\\SS",
  "SeriesDescription": "func_run-03_task-alignvideo_acq-ap-mb8",
  "SeriesNumber": 34,
  "ShimSetting": [4208, -7753, -7193, 427, -142, 84, 37, 58],
  "SliceThickness": 2.7,
  "SliceTiming": [0, 0.2525, 0.0625, 0.315, 0.125, 0.3775, 0.19, 0, 0.2525, 0.0625, 0.315, 0.125, 0.3775, 0.19, 0, 0.2525, 0.0625, 0.315, 0.125, 0.3775, 0.19, 0, 0.2525, 0.0625, 0.315, 0.125, 0.3775, 0.19, 0, 0.2525, 0.0625, 0.315, 0.125, 0.3775, 0.19, 0, 0.2525, 0.0625, 0.315, 0.125, 0.3775, 0.19, 0, 0.2525, 0.0625, 0.315, 0.125, 0.3775, 0.19, 0, 0.2525, 0.0625, 0.315, 0.125, 0.3775, 0.19],
  "SoftwareVersions": "syngo MR E11",
  "SpacingBetweenSlices": 2.7,
  "StationName": "AWP66112",
  "TaskName": "alignvideo",
  "TotalReadoutTime": 0.03969,
  "TxRefAmp": 237.137,
  "WipMemBlock": "271c8529-fdce-4a10-8039-5af36c5f34dc||Sequence: R016 ve11e/master r/434b28f1; Aug  7 2019 18:53:46 by eja",
  "dcmmeta_affine": [
    [-2.680294990539551, 0.028069116175174713, -0.11617948114871979, 113.38776397705078],
    [0.027668114751577377, 2.6827659606933594, 0.00997396744787693, -106.70344543457031],
    [-0.11554159969091415, -0.008710633032023907, 2.6974806785583496, -61.30177307128906],
    [0.0, 0.0, 0.0, 1.0]
],
  "dcmmeta_reorient_transform": [
    [0.0, -1.0, 0.0, 81.0],
    [1.0, 0.0, 0.0, 0.0],
    [0.0, 0.0, 1.0, 0.0],
    [0.0, 0.0, 0.0, 1.0]
],
  "dcmmeta_shape": [82, 82, 56, 1016],
  "dcmmeta_slice_dim": 2,
  "dcmmeta_version": 0.6,
  "global": {
    "const": {
      "AccessionNumber": "A004656",
      "AcquisitionMatrix": [82, 0, 0, 82],
      "AngioFlag": "N",
      "BitsAllocated": 16,
      "BitsStored": 16,
      "BodyPartExamined": "BRAIN",
      "Columns": 656,
      "EchoNumbers": 1,
      "EchoTime": 27.2,
      "EchoTrainLength": 82,
      "FlipAngle": 44.0,
      "HighBit": 15,
      "ImageOrientationPatient": [0.99901902450094, -0.0103126604858, -0.0430655049767, 0.01046212517206, 0.9999399996692, 0.00324669038225],
      "ImagePositionPatient": [-892.96186493698, -872.61366676422, -31.346847716956],
      "ImageType": [
        "ORIGINAL",
        "PRIMARY",
        "M",
        "MB",
        "ND",
        "NORM",
        "MOSAIC"
],
      "ImagedNucleus": "1H",
      "ImagingFrequency": 123.259096,
      "InPlanePhaseEncodingDirection": "COL",
      "MRAcquisitionType": "2D",
      "MagneticFieldStrength": 3.0,
      "Manufacturer": "SIEMENS",
      "ManufacturerModelName": "Prisma",
      "Modality": "MR",
      "NumberOfAverages": 1.0,
      "NumberOfPhaseEncodingSteps": 82,
      "PercentPhaseFieldOfView": 100.0,
      "PercentSampling": 100.0,
      "PerformedProcedureStepStartTime": "154150.417000",
      "PhotometricInterpretation": "MONOCHROME2",
      "PixelBandwidth": 3050.0,
      "PixelRepresentation": 0,
      "PixelSpacing": [2.6829268932343, 2.6829268932343],
      "ProtocolName": "func_run-03_task-alignvideo_acq-ap-mb8",
      "RepetitionTime": 460.0,
      "Rows": 656,
      "SAR": 0.0879511135379,
      "SamplesPerPixel": 1,
      "ScanOptions": "FS",
      "ScanningSequence": "EP",
      "SequenceName": "epfid2d1_82",
      "SequenceVariant": [
        "SK",
        "SS"
],
      "SeriesDescription": "func_run-03_task-alignvideo_acq-ap-mb8",
      "SeriesNumber": 34,
      "SeriesTime": "172820.889000",
      "SliceLocation": -66.517759318881,
      "SliceThickness": 2.7000000476837,
      "SmallestImagePixelValue": 0,
      "SoftwareVersions": "syngo MR E11",
      "SpacingBetweenSlices": 2.6999999406693,
      "SpecificCharacterSet": "ISO_IR 100",
      "StudyID": "1",
      "StudyTime": "154150.364000",
      "TransmitCoilName": "Body",
      "VariableFlipAngleFlag": "N",
      "WindowCenterWidthExplanation": "Algo1"
    },
    "slices": {}
  },
  "time": {
    "samples": {
      "AcquisitionNumber": [1, 2, 3, 4, 5, 6, 7, 8, 9, 10, 11, 12, 13, 14, 15, 16, 17, 18, 19, 20, 21, 22, 23, 24, 25, 26, 27, 28, 29, 30, 31, 32, 33, 34, 35, 36, 37, 38, 39, 40, 41, 42, 43, 44, 45, 46, 47, 48, 49, 50, 51, 52, 53, 54, 55, 56, 57, 58, 59, 60, 61, 62, 63, 64, 65, 66, 67, 68, 69, 70, 71, 72, 73, 74, 75, 76, 77, 78, 79, 80, 81, 82, 83, 84, 85, 86, 87, 88, 89, 90, 91, 92, 93, 94, 95, 96, 97, 98, 99, 100, 101, 102, 103, 104, 105, 106, 107, 108, 109, 110, 111, 112, 113, 114, 115, 116, 117, 118, 119, 120, 121, 122, 123, 124, 125, 126, 127, 128, 129, 130, 131, 132, 133, 134, 135, 136, 137, 138, 139, 140, 141, 142, 143, 144, 145, 146, 147, 148, 149, 150, 151, 152, 153, 154, 155, 156, 157, 158, 159, 160, 161, 162, 163, 164, 165, 166, 167, 168, 169, 170, 171, 172, 173, 174, 175, 176, 177, 178, 179, 180, 181, 182, 183, 184, 185, 186, 187, 188, 189, 190, 191, 192, 193, 194, 195, 196, 197, 198, 199, 200, 201, 202, 203, 204, 205, 206, 207, 208, 209, 210, 211, 212, 213, 214, 215, 216, 217, 218, 219, 220, 221, 222, 223, 224, 225, 226, 227, 228, 229, 230, 231, 232, 233, 234, 235, 236, 237, 238, 239, 240, 241, 242, 243, 244, 245, 246, 247, 248, 249, 250, 251, 252, 253, 254, 255, 256, 257, 258, 259, 260, 261, 262, 263, 264, 265, 266, 267, 268, 269, 270, 271, 272, 273, 274, 275, 276, 277, 278, 279, 280, 281, 282, 283, 284, 285, 286, 287, 288, 289, 290, 291, 292, 293, 294, 295, 296, 297, 298, 299, 300, 301, 302, 303, 304, 305, 306, 307, 308, 309, 310, 311, 312, 313, 314, 315, 316, 317, 318, 319, 320, 321, 322, 323, 324, 325, 326, 327, 328, 329, 330, 331, 332, 333, 334, 335, 336, 337, 338, 339, 340, 341, 342, 343, 344, 345, 346, 347, 348, 349, 350, 351, 352, 353, 354, 355, 356, 357, 358, 359, 360, 361, 362, 363, 364, 365, 366, 367, 368, 369, 370, 371, 372, 373, 374, 375, 376, 377, 378, 379, 380, 381, 382, 383, 384, 385, 386, 387, 388, 389, 390, 391, 392, 393, 394, 395, 396, 397, 398, 399, 400, 401, 402, 403, 404, 405, 406, 407, 408, 409, 410, 411, 412, 413, 414, 415, 416, 417, 418, 419, 420, 421, 422, 423, 424, 425, 426, 427, 428, 429, 430, 431, 432, 433, 434, 435, 436, 437, 438, 439, 440, 441, 442, 443, 444, 445, 446, 447, 448, 449, 450, 451, 452, 453, 454, 455, 456, 457, 458, 459, 460, 461, 462, 463, 464, 465, 466, 467, 468, 469, 470, 471, 472, 473, 474, 475, 476, 477, 478, 479, 480, 481, 482, 483, 484, 485, 486, 487, 488, 489, 490, 491, 492, 493, 494, 495, 496, 497, 498, 499, 500, 501, 502, 503, 504, 505, 506, 507, 508, 509, 510, 511, 512, 513, 514, 515, 516, 517, 518, 519, 520, 521, 522, 523, 524, 525, 526, 527, 528, 529, 530, 531, 532, 533, 534, 535, 536, 537, 538, 539, 540, 541, 542, 543, 544, 545, 546, 547, 548, 549, 550, 551, 552, 553, 554, 555, 556, 557, 558, 559, 560, 561, 562, 563, 564, 565, 566, 567, 568, 569, 570, 571, 572, 573, 574, 575, 576, 577, 578, 579, 580, 581, 582, 583, 584, 585, 586, 587, 588, 589, 590, 591, 592, 593, 594, 595, 596, 597, 598, 599, 600, 601, 602, 603, 604, 605, 606, 607, 608, 609, 610, 611, 612, 613, 614, 615, 616, 617, 618, 619, 620, 621, 622, 623, 624, 625, 626, 627, 628, 629, 630, 631, 632, 633, 634, 635, 636, 637, 638, 639, 640, 641, 642, 643, 644, 645, 646, 647, 648, 649, 650, 651, 652, 653, 654, 655, 656, 657, 658, 659, 660, 661, 662, 663, 664, 665, 666, 667, 668, 669, 670, 671, 672, 673, 674, 675, 676, 677, 678, 679, 680, 681, 682, 683, 684, 685, 686, 687, 688, 689, 690, 691, 692, 693, 694, 695, 696, 697, 698, 699, 700, 701, 702, 703, 704, 705, 706, 707, 708, 709, 710, 711, 712, 713, 714, 715, 716, 717, 718, 719, 720, 721, 722, 723, 724, 725, 726, 727, 728, 729, 730, 731, 732, 733, 734, 735, 736, 737, 738, 739, 740, 741, 742, 743, 744, 745, 746, 747, 748, 749, 750, 751, 752, 753, 754, 755, 756, 757, 758, 759, 760, 761, 762, 763, 764, 765, 766, 767, 768, 769, 770, 771, 772, 773, 774, 775, 776, 777, 778, 779, 780, 781, 782, 783, 784, 785, 786, 787, 788, 789, 790, 791, 792, 793, 794, 795, 796, 797, 798, 799, 800, 801, 802, 803, 804, 805, 806, 807, 808, 809, 810, 811, 812, 813, 814, 815, 816, 817, 818, 819, 820, 821, 822, 823, 824, 825, 826, 827, 828, 829, 830, 831, 832, 833, 834, 835, 836, 837, 838, 839, 840, 841, 842, 843, 844, 845, 846, 847, 848, 849, 850, 851, 852, 853, 854, 855, 856, 857, 858, 859, 860, 861, 862, 863, 864, 865, 866, 867, 868, 869, 870, 871, 872, 873, 874, 875, 876, 877, 878, 879, 880, 881, 882, 883, 884, 885, 886, 887, 888, 889, 890, 891, 892, 893, 894, 895, 896, 897, 898, 899, 900, 901, 902, 903, 904, 905, 906, 907, 908, 909, 910, 911, 912, 913, 914, 915, 916, 917, 918, 919, 920, 921, 922, 923, 924, 925, 926, 927, 928, 929, 930, 931, 932, 933, 934, 935, 936, 937, 938, 939, 940, 941, 942, 943, 944, 945, 946, 947, 948, 949, 950, 951, 952, 953, 954, 955, 956, 957, 958, 959, 960, 961, 962, 963, 964, 965, 966, 967, 968, 969, 970, 971, 972, 973, 974, 975, 976, 977, 978, 979, 980, 981, 982, 983, 984, 985, 986, 987, 988, 989, 990, 991, 992, 993, 994, 995, 996, 997, 998, 999, 1000, 1001, 1002, 1003, 1004, 1005, 1006, 1007, 1008, 1009, 1010, 1011, 1012, 1013, 1014, 1015, 1016],
      "AcquisitionTime": ["172807.365000", "172807.825000", "172808.285000", "172808.745000", "172809.205000", "172809.665000", "172810.125000", "172810.585000", "172811.045000", "172811.505000", "172811.965000", "172812.425000", "172812.885000", "172813.345000", "172813.805000", "172814.265000", "172814.725000", "172815.185000", "172815.645000", "172816.105000", "172816.565000", "172817.025000", "172817.485000", "172817.945000", "172818.405000", "172818.865000", "172819.325000", "172819.785000", "172820.245000", "172820.705000", "172821.165000", "172821.625000", "172822.085000", "172822.545000", "172823.005000", "172823.465000", "172823.925000", "172824.385000", "172824.845000", "172825.305000", "172825.765000", "172826.225000", "172826.685000", "172827.145000", "172827.605000", "172828.065000", "172828.525000", "172828.985000", "172829.445000", "172829.905000", "172830.365000", "172830.825000", "172831.285000", "172831.745000", "172832.205000", "172832.665000", "172833.125000", "172833.585000", "172834.045000", "172834.505000", "172834.965000", "172835.425000", "172835.885000", "172836.345000", "172836.805000", "172837.265000", "172837.725000", "172838.185000", "172838.645000", "172839.105000", "172839.565000", "172840.025000", "172840.485000", "172840.945000", "172841.405000", "172841.865000", "172842.325000", "172842.785000", "172843.245000", "172843.705000", "172844.165000", "172844.625000", "172845.085000", "172845.545000", "172846.005000", "172846.465000", "172846.925000", "172847.385000", "172847.845000", "172848.305000", "172848.765000", "172849.225000", "172849.685000", "172850.145000", "172850.605000", "172851.065000", "172851.525000", "172851.985000", "172852.445000", "172852.905000", "172853.365000", "172853.825000", "172854.285000", "172854.745000", "172855.205000", "172855.665000", "172856.125000", "172856.585000", "172857.045000", "172857.505000", "172857.965000", "172858.425000", "172858.885000", "172859.345000", "172859.805000", "172900.265000", "172900.725000", "172901.185000", "172901.645000", "172902.105000", "172902.565000", "172903.025000", "172903.485000", "172903.945000", "172904.405000", "172904.865000", "172905.325000", "172905.785000", "172906.245000", "172906.705000", "172907.165000", "172907.625000", "172908.085000", "172908.545000", "172909.005000", "172909.465000", "172909.925000", "172910.385000", "172910.845000", "172911.305000", "172911.765000", "172912.225000", "172912.685000", "172913.145000", "172913.605000", "172914.065000", "172914.525000", "172914.985000", "172915.445000", "172915.905000", "172916.365000", "172916.825000", "172917.285000", "172917.745000", "172918.205000", "172918.665000", "172919.125000", "172919.585000", "172920.045000", "172920.505000", "172920.965000", "172921.425000", "172921.885000", "172922.345000", "172922.805000", "172923.265000", "172923.725000", "172924.185000", "172924.645000", "172925.105000", "172925.565000", "172926.025000", "172926.485000", "172926.945000", "172927.405000", "172927.865000", "172928.325000", "172928.785000", "172929.245000", "172929.705000", "172930.165000", "172930.625000", "172931.085000", "172931.545000", "172932.005000", "172932.465000", "172932.925000", "172933.385000", "172933.845000", "172934.305000", "172934.765000", "172935.225000", "172935.685000", "172936.145000", "172936.605000", "172937.065000", "172937.525000", "172937.985000", "172938.445000", "172938.905000", "172939.365000", "172939.825000", "172940.285000", "172940.745000", "172941.205000", "172941.665000", "172942.125000", "172942.585000", "172943.045000", "172943.505000", "172943.965000", "172944.425000", "172944.885000", "172945.345000", "172945.805000", "172946.265000", "172946.725000", "172947.185000", "172947.645000", "172948.105000", "172948.565000", "172949.025000", "172949.485000", "172949.945000", "172950.405000", "172950.865000", "172951.325000", "172951.785000", "172952.245000", "172952.705000", "172953.165000", "172953.625000", "172954.085000", "172954.545000", "172955.005000", "172955.465000", "172955.925000", "172956.385000", "172956.845000", "172957.305000", "172957.765000", "172958.225000", "172958.685000", "172959.145000", "172959.605000", "173000.065000", "173000.525000", "173000.985000", "173001.445000", "173001.905000", "173002.365000", "173002.825000", "173003.285000", "173003.745000", "173004.205000", "173004.665000", "173005.125000", "173005.585000", "173006.045000", "173006.505000", "173006.965000", "173007.425000", "173007.885000", "173008.345000", "173008.805000", "173009.265000", "173009.725000", "173010.185000", "173010.645000", "173011.105000", "173011.565000", "173012.025000", "173012.485000", "173012.945000", "173013.405000", "173013.865000", "173014.325000", "173014.785000", "173015.245000", "173015.705000", "173016.165000", "173016.625000", "173017.085000", "173017.545000", "173018.005000", "173018.465000", "173018.925000", "173019.385000", "173019.845000", "173020.305000", "173020.765000", "173021.225000", "173021.685000", "173022.145000", "173022.605000", "173023.065000", "173023.525000", "173023.985000", "173024.445000", "173024.905000", "173025.365000", "173025.825000", "173026.285000", "173026.745000", "173027.205000", "173027.665000", "173028.125000", "173028.585000", "173029.045000", "173029.505000", "173029.965000", "173030.425000", "173030.885000", "173031.345000", "173031.805000", "173032.265000", "173032.725000", "173033.185000", "173033.645000", "173034.105000", "173034.565000", "173035.025000", "173035.485000", "173035.945000", "173036.405000", "173036.865000", "173037.325000", "173037.785000", "173038.245000", "173038.705000", "173039.165000", "173039.625000", "173040.085000", "173040.545000", "173041.005000", "173041.465000", "173041.925000", "173042.385000", "173042.845000", "173043.305000", "173043.765000", "173044.225000", "173044.685000", "173045.145000", "173045.605000", "173046.065000", "173046.525000", "173046.985000", "173047.445000", "173047.905000", "173048.365000", "173048.825000", "173049.285000", "173049.745000", "173050.205000", "173050.665000", "173051.125000", "173051.585000", "173052.045000", "173052.505000", "173052.965000", "173053.425000", "173053.885000", "173054.345000", "173054.805000", "173055.265000", "173055.725000", "173056.185000", "173056.645000", "173057.105000", "173057.565000", "173058.025000", "173058.485000", "173058.945000", "173059.405000", "173059.865000", "173100.325000", "173100.785000", "173101.245000", "173101.705000", "173102.165000", "173102.625000", "173103.085000", "173103.545000", "173104.005000", "173104.465000", "173104.925000", "173105.385000", "173105.845000", "173106.305000", "173106.765000", "173107.225000", "173107.685000", "173108.145000", "173108.605000", "173109.065000", "173109.525000", "173109.985000", "173110.445000", "173110.905000", "173111.365000", "173111.825000", "173112.285000", "173112.745000", "173113.205000", "173113.665000", "173114.125000", "173114.585000", "173115.045000", "173115.505000", "173115.965000", "173116.425000", "173116.885000", "173117.345000", "173117.805000", "173118.265000", "173118.725000", "173119.185000", "173119.645000", "173120.105000", "173120.565000", "173121.025000", "173121.485000", "173121.945000", "173122.405000", "173122.865000", "173123.325000", "173123.785000", "173124.245000", "173124.705000", "173125.165000", "173125.625000", "173126.085000", "173126.545000", "173127.005000", "173127.465000", "173127.925000", "173128.385000", "173128.845000", "173129.305000", "173129.765000", "173130.225000", "173130.685000", "173131.145000", "173131.605000", "173132.065000", "173132.525000", "173132.985000", "173133.445000", "173133.905000", "173134.365000", "173134.825000", "173135.285000", "173135.745000", "173136.205000", "173136.665000", "173137.125000", "173137.585000", "173138.045000", "173138.505000", "173138.965000", "173139.425000", "173139.885000", "173140.345000", "173140.805000", "173141.265000", "173141.725000", "173142.185000", "173142.645000", "173143.105000", "173143.565000", "173144.025000", "173144.485000", "173144.945000", "173145.405000", "173145.865000", "173146.325000", "173146.785000", "173147.245000", "173147.705000", "173148.165000", "173148.625000", "173149.085000", "173149.545000", "173150.005000", "173150.465000", "173150.925000", "173151.385000", "173151.845000", "173152.305000", "173152.765000", "173153.225000", "173153.685000", "173154.145000", "173154.605000", "173155.065000", "173155.525000", "173155.985000", "173156.445000", "173156.905000", "173157.365000", "173157.825000", "173158.285000", "173158.745000", "173159.205000", "173159.665000", "173200.125000", "173200.585000", "173201.045000", "173201.505000", "173201.965000", "173202.425000", "173202.885000", "173203.345000", "173203.805000", "173204.265000", "173204.725000", "173205.185000", "173205.645000", "173206.105000", "173206.565000", "173207.025000", "173207.485000", "173207.945000", "173208.405000", "173208.865000", "173209.325000", "173209.785000", "173210.245000", "173210.705000", "173211.165000", "173211.625000", "173212.085000", "173212.545000", "173213.005000", "173213.465000", "173213.925000", "173214.385000", "173214.845000", "173215.305000", "173215.765000", "173216.225000", "173216.685000", "173217.145000", "173217.605000", "173218.065000", "173218.525000", "173218.985000", "173219.445000", "173219.905000", "173220.365000", "173220.825000", "173221.285000", "173221.745000", "173222.205000", "173222.665000", "173223.125000", "173223.585000", "173224.045000", "173224.505000", "173224.965000", "173225.425000", "173225.885000", "173226.345000", "173226.805000", "173227.265000", "173227.725000", "173228.185000", "173228.645000", "173229.105000", "173229.565000", "173230.025000", "173230.485000", "173230.945000", "173231.405000", "173231.865000", "173232.325000", "173232.785000", "173233.245000", "173233.705000", "173234.165000", "173234.625000", "173235.085000", "173235.545000", "173236.005000", "173236.465000", "173236.925000", "173237.385000", "173237.845000", "173238.305000", "173238.765000", "173239.225000", "173239.685000", "173240.145000", "173240.605000", "173241.065000", "173241.525000", "173241.985000", "173242.445000", "173242.905000", "173243.365000", "173243.825000", "173244.285000", "173244.745000", "173245.205000", "173245.665000", "173246.125000", "173246.585000", "173247.045000", "173247.505000", "173247.965000", "173248.425000", "173248.885000", "173249.345000", "173249.805000", "173250.265000", "173250.725000", "173251.185000", "173251.645000", "173252.105000", "173252.565000", "173253.025000", "173253.485000", "173253.945000", "173254.405000", "173254.865000", "173255.325000", "173255.785000", "173256.245000", "173256.705000", "173257.165000", "173257.625000", "173258.085000", "173258.545000", "173259.005000", "173259.465000", "173259.925000", "173300.385000", "173300.845000", "173301.305000", "173301.765000", "173302.225000", "173302.685000", "173303.145000", "173303.605000", "173304.065000", "173304.525000", "173304.985000", "173305.445000", "173305.905000", "173306.365000", "173306.825000", "173307.285000", "173307.745000", "173308.205000", "173308.665000", "173309.125000", "173309.585000", "173310.045000", "173310.505000", "173310.965000", "173311.425000", "173311.885000", "173312.345000", "173312.805000", "173313.265000", "173313.725000", "173314.185000", "173314.645000", "173315.105000", "173315.565000", "173316.025000", "173316.485000", "173316.945000", "173317.405000", "173317.865000", "173318.325000", "173318.785000", "173319.245000", "173319.705000", "173320.165000", "173320.625000", "173321.085000", "173321.545000", "173322.005000", "173322.465000", "173322.925000", "173323.385000", "173323.845000", "173324.305000", "173324.765000", "173325.225000", "173325.685000", "173326.145000", "173326.605000", "173327.065000", "173327.525000", "173327.985000", "173328.445000", "173328.905000", "173329.365000", "173329.825000", "173330.285000", "173330.745000", "173331.205000", "173331.665000", "173332.125000", "173332.585000", "173333.045000", "173333.505000", "173333.965000", "173334.425000", "173334.885000", "173335.345000", "173335.805000", "173336.265000", "173336.725000", "173337.185000", "173337.645000", "173338.105000", "173338.565000", "173339.025000", "173339.485000", "173339.945000", "173340.405000", "173340.865000", "173341.325000", "173341.785000", "173342.245000", "173342.705000", "173343.165000", "173343.625000", "173344.085000", "173344.545000", "173345.005000", "173345.465000", "173345.925000", "173346.385000", "173346.845000", "173347.305000", "173347.765000", "173348.225000", "173348.685000", "173349.145000", "173349.605000", "173350.065000", "173350.525000", "173350.985000", "173351.445000", "173351.905000", "173352.365000", "173352.825000", "173353.285000", "173353.745000", "173354.205000", "173354.665000", "173355.125000", "173355.585000", "173356.045000", "173356.505000", "173356.965000", "173357.425000", "173357.885000", "173358.345000", "173358.805000", "173359.265000", "173359.725000", "173400.185000", "173400.645000", "173401.105000", "173401.565000", "173402.025000", "173402.485000", "173402.945000", "173403.405000", "173403.865000", "173404.325000", "173404.785000", "173405.245000", "173405.705000", "173406.165000", "173406.625000", "173407.085000", "173407.545000", "173408.005000", "173408.465000", "173408.925000", "173409.385000", "173409.845000", "173410.305000", "173410.765000", "173411.225000", "173411.685000", "173412.145000", "173412.605000", "173413.065000", "173413.525000", "173413.985000", "173414.445000", "173414.905000", "173415.365000", "173415.825000", "173416.285000", "173416.745000", "173417.205000", "173417.665000", "173418.125000", "173418.585000", "173419.045000", "173419.505000", "173419.965000", "173420.425000", "173420.885000", "173421.345000", "173421.805000", "173422.265000", "173422.725000", "173423.185000", "173423.645000", "173424.105000", "173424.565000", "173425.025000", "173425.485000", "173425.945000", "173426.405000", "173426.865000", "173427.325000", "173427.785000", "173428.245000", "173428.705000", "173429.165000", "173429.625000", "173430.085000", "173430.545000", "173431.005000", "173431.465000", "173431.925000", "173432.385000", "173432.845000", "173433.305000", "173433.765000", "173434.225000", "173434.685000", "173435.145000", "173435.605000", "173436.065000", "173436.525000", "173436.985000", "173437.445000", "173437.905000", "173438.365000", "173438.825000", "173439.285000", "173439.745000", "173440.205000", "173440.665000", "173441.125000", "173441.585000", "173442.045000", "173442.505000", "173442.965000", "173443.425000", "173443.885000", "173444.345000", "173444.805000", "173445.265000", "173445.725000", "173446.185000", "173446.645000", "173447.105000", "173447.565000", "173448.025000", "173448.485000", "173448.945000", "173449.405000", "173449.865000", "173450.325000", "173450.785000", "173451.245000", "173451.705000", "173452.165000", "173452.625000", "173453.085000", "173453.545000", "173454.005000", "173454.465000", "173454.925000", "173455.385000", "173455.845000", "173456.305000", "173456.765000", "173457.225000", "173457.685000", "173458.145000", "173458.605000", "173459.065000", "173459.525000", "173459.985000", "173500.445000", "173500.905000", "173501.365000", "173501.825000", "173502.285000", "173502.745000", "173503.205000", "173503.665000", "173504.125000", "173504.585000", "173505.045000", "173505.505000", "173505.965000", "173506.425000", "173506.885000", "173507.345000", "173507.805000", "173508.265000", "173508.725000", "173509.185000", "173509.645000", "173510.105000", "173510.565000", "173511.025000", "173511.485000", "173511.945000", "173512.405000", "173512.865000", "173513.325000", "173513.785000", "173514.245000", "173514.705000", "173515.165000", "173515.625000", "173516.085000", "173516.545000", "173517.005000", "173517.465000", "173517.925000", "173518.385000", "173518.845000", "173519.305000", "173519.765000", "173520.225000", "173520.685000", "173521.145000", "173521.605000", "173522.065000", "173522.525000", "173522.985000", "173523.445000", "173523.905000", "173524.365000", "173524.825000", "173525.285000", "173525.745000", "173526.205000", "173526.665000", "173527.125000", "173527.585000", "173528.045000", "173528.505000", "173528.965000", "173529.425000", "173529.885000", "173530.345000", "173530.805000", "173531.265000", "173531.725000", "173532.185000", "173532.645000", "173533.105000", "173533.565000", "173534.025000", "173534.485000", "173534.945000", "173535.405000", "173535.865000", "173536.325000", "173536.785000", "173537.245000", "173537.705000", "173538.165000", "173538.625000", "173539.085000", "173539.545000", "173540.005000", "173540.465000", "173540.925000", "173541.385000", "173541.845000", "173542.305000", "173542.765000", "173543.225000", "173543.685000", "173544.145000", "173544.605000", "173545.065000", "173545.525000", "173545.985000", "173546.445000", "173546.905000", "173547.365000", "173547.825000", "173548.285000", "173548.745000", "173549.205000", "173549.665000", "173550.125000", "173550.585000", "173551.045000", "173551.505000", "173551.965000", "173552.425000", "173552.885000", "173553.345000", "173553.805000", "173554.265000"],
