{
  "AcquisitionMatrixPE": 82,
  "AcquisitionNumber": 1,
  "AcquisitionTime": "13:40:41.967500",
  "BandwidthPerPixelPhaseEncode": 24.888,
  "BaseResolution": 82,
  "BodyPartExamined": "BRAIN",
  "ConsistencyInfo": "N4_VE11E_LATEST_20181129",
  "ConversionSoftware": "dcm2niix",
  "ConversionSoftwareVersion": "v1.0.20201102",
  "DerivedVendorReportedEchoSpacing": 0.00049,
  "DeviceSerialNumber": "66112",
  "DwellTime": 2e-06,
  "EchoTime": 0.0272,
  "EchoTrainLength": 82,
  "EffectiveEchoSpacing": 0.00049,
  "FlipAngle": 44,
  "ImageComments": "Unaliased MB8/PE3",
  "ImageOrientationPatientDICOM": [0.999046, 0.0371151, -0.0230207, -0.0357604, 0.997751, 0.0567008],
  "ImageType": [
    "ORIGINAL",
    "PRIMARY",
    "M",
    "MB",
    "ND",
    "NORM",
    "MOSAIC"
],
  "ImagingFrequency": 123.252,
  "InPlanePhaseEncodingDirectionDICOM": "COL",
  "InstitutionAddress": "Maynard 3,Hanover,NH,US,03755",
  "InstitutionName": "Dartmouth College - PBS",
  "InstitutionalDepartmentName": "Department",
  "MRAcquisitionType": "2D",
  "MagneticFieldStrength": 3,
  "Manufacturer": "Siemens",
  "ManufacturersModelName": "Prisma",
  "Modality": "MR",
  "MultibandAccelerationFactor": 8,
  "PartialFourier": 1,
  "PatientPosition": "HFS",
  "PercentPhaseFOV": 100,
  "PercentSampling": 100,
  "PhaseEncodingDirection": "j-",
  "PhaseEncodingSteps": 82,
  "PhaseResolution": 1,
  "PixelBandwidth": 3050,
  "ProcedureStepDescription": "Wager_Wager^1076_spacetop",
  "ProtocolName": "func_run-02_task-alignvideo_acq-ap-mb8",
  "PulseSequenceDetails": "%CustomerSeq%\\cmrr_mbep2d_bold",
  "ReceiveCoilActiveElements": "HEA;HEP",
  "ReceiveCoilName": "Head_32",
  "ReconMatrixPE": 82,
  "RepetitionTime": 0.46,
  "SAR": 0.0886052,
  "ScanOptions": "FS",
  "ScanningSequence": "EP",
  "SequenceName": "epfid2d1_82",
  "SequenceVariant": "SK\\SS",
  "SeriesDescription": "func_run-02_task-alignvideo_acq-ap-mb8",
  "SeriesNumber": 32,
  "ShimSetting": [4150, -7765, -7269, 479, -15, -279, 55, 62],
  "SliceThickness": 2.7,
  "SliceTiming": [0, 0.2525, 0.065, 0.315, 0.1275, 0.3775, 0.19, 0, 0.2525, 0.065, 0.315, 0.1275, 0.3775, 0.19, 0, 0.2525, 0.065, 0.315, 0.1275, 0.3775, 0.19, 0, 0.2525, 0.065, 0.315, 0.1275, 0.3775, 0.19, 0, 0.2525, 0.065, 0.315, 0.1275, 0.3775, 0.19, 0, 0.2525, 0.065, 0.315, 0.1275, 0.3775, 0.19, 0, 0.2525, 0.065, 0.315, 0.1275, 0.3775, 0.19, 0, 0.2525, 0.065, 0.315, 0.1275, 0.3775, 0.19],
  "SoftwareVersions": "syngo MR E11",
  "SpacingBetweenSlices": 2.7,
  "StationName": "AWP66112",
  "TaskName": "alignvideo",
  "TotalReadoutTime": 0.03969,
  "TxRefAmp": 276.163,
  "WipMemBlock": "a7c669ad-d6d6-4535-b766-dc397fe3dabc||Sequence: R016 ve11e/master r/434b28f1; Aug  7 2019 18:53:46 by eja",
  "dcmmeta_affine": [
    [-2.6803667545318604, -0.09594259411096573, -0.06769808381795883, 117.53343200683594],
    [-0.09957704693078995, 2.676891803741455, 0.15072347223758698, -89.22964477539062],
    [-0.06176282837986946, -0.15212421119213104, 2.694939613342285, -68.50264739990234],
    [0.0, 0.0, 0.0, 1.0]
],
  "dcmmeta_reorient_transform": [
    [0.0, -1.0, 0.0, 81.0],
    [1.0, 0.0, 0.0, 0.0],
    [0.0, 0.0, 1.0, 0.0],
    [0.0, 0.0, 0.0, 1.0]
],
  "dcmmeta_shape": [82, 82, 56, 926],
  "dcmmeta_slice_dim": 2,
  "dcmmeta_version": 0.6,
  "global": {
    "const": {
      "AccessionNumber": "A004031",
      "AcquisitionMatrix": [82, 0, 0, 82],
      "AngioFlag": "N",
      "BitsAllocated": 16,
      "BitsStored": 16,
      "BodyPartExamined": "BRAIN",
      "Columns": 656,
      "EchoNumbers": 1,
      "EchoTime": 27.2,
      "EchoTrainLength": 82,
      "FlipAngle": 44.0,
      "HighBit": 15,
      "ImageOrientationPatient": [0.99904580410266, 0.03711507955855, -0.0230206901335, -0.0357604218458, 0.99775057341338, 0.05670084199275],
      "ImagePositionPatient": [-851.49184033336, -924.44516970258, -106.75842264841],
      "ImageType": [
        "ORIGINAL",
        "PRIMARY",
        "M",
        "MB",
        "ND",
        "NORM",
        "MOSAIC"
],
      "ImagedNucleus": "1H",
      "ImagingFrequency": 123.252299,
      "InPlanePhaseEncodingDirection": "COL",
      "MRAcquisitionType": "2D",
      "MagneticFieldStrength": 3.0,
      "Manufacturer": "SIEMENS",
      "ManufacturerModelName": "Prisma",
      "Modality": "MR",
      "NumberOfAverages": 1.0,
      "NumberOfPhaseEncodingSteps": 82,
      "PercentPhaseFieldOfView": 100.0,
      "PercentSampling": 100.0,
      "PerformedProcedureStepStartTime": "120034.693000",
      "PhotometricInterpretation": "MONOCHROME2",
      "PixelBandwidth": 3050.0,
      "PixelRepresentation": 0,
      "PixelSpacing": [2.6829268932343, 2.6829268932343],
      "ProtocolName": "func_run-02_task-alignvideo_acq-ap-mb8",
      "RepetitionTime": 460.0,
      "Rows": 656,
      "SAR": 0.08860524182363,
      "SamplesPerPixel": 1,
      "ScanOptions": "FS",
      "ScanningSequence": "EP",
      "SequenceName": "epfid2d1_82",
      "SequenceVariant": [
        "SK",
        "SS"
],
      "SeriesDescription": "func_run-02_task-alignvideo_acq-ap-mb8",
      "SeriesNumber": 32,
      "SeriesTime": "134058.579000",
      "SliceLocation": -76.30232439839,
      "SliceThickness": 2.7000000476837,
      "SmallestImagePixelValue": 0,
      "SoftwareVersions": "syngo MR E11",
      "SpacingBetweenSlices": 2.7000000396624,
      "SpecificCharacterSet": "ISO_IR 100",
      "StudyID": "2",
      "StudyTime": "120034.642000",
      "TransmitCoilName": "Body",
      "VariableFlipAngleFlag": "N",
      "WindowCenterWidthExplanation": "Algo1"
    },
    "slices": {}
  },
  "time": {
    "samples": {
      "AcquisitionNumber": [1, 2, 3, 4, 5, 6, 7, 8, 9, 10, 11, 12, 13, 14, 15, 16, 17, 18, 19, 20, 21, 22, 23, 24, 25, 26, 27, 28, 29, 30, 31, 32, 33, 34, 35, 36, 37, 38, 39, 40, 41, 42, 43, 44, 45, 46, 47, 48, 49, 50, 51, 52, 53, 54, 55, 56, 57, 58, 59, 60, 61, 62, 63, 64, 65, 66, 67, 68, 69, 70, 71, 72, 73, 74, 75, 76, 77, 78, 79, 80, 81, 82, 83, 84, 85, 86, 87, 88, 89, 90, 91, 92, 93, 94, 95, 96, 97, 98, 99, 100, 101, 102, 103, 104, 105, 106, 107, 108, 109, 110, 111, 112, 113, 114, 115, 116, 117, 118, 119, 120, 121, 122, 123, 124, 125, 126, 127, 128, 129, 130, 131, 132, 133, 134, 135, 136, 137, 138, 139, 140, 141, 142, 143, 144, 145, 146, 147, 148, 149, 150, 151, 152, 153, 154, 155, 156, 157, 158, 159, 160, 161, 162, 163, 164, 165, 166, 167, 168, 169, 170, 171, 172, 173, 174, 175, 176, 177, 178, 179, 180, 181, 182, 183, 184, 185, 186, 187, 188, 189, 190, 191, 192, 193, 194, 195, 196, 197, 198, 199, 200, 201, 202, 203, 204, 205, 206, 207, 208, 209, 210, 211, 212, 213, 214, 215, 216, 217, 218, 219, 220, 221, 222, 223, 224, 225, 226, 227, 228, 229, 230, 231, 232, 233, 234, 235, 236, 237, 238, 239, 240, 241, 242, 243, 244, 245, 246, 247, 248, 249, 250, 251, 252, 253, 254, 255, 256, 257, 258, 259, 260, 261, 262, 263, 264, 265, 266, 267, 268, 269, 270, 271, 272, 273, 274, 275, 276, 277, 278, 279, 280, 281, 282, 283, 284, 285, 286, 287, 288, 289, 290, 291, 292, 293, 294, 295, 296, 297, 298, 299, 300, 301, 302, 303, 304, 305, 306, 307, 308, 309, 310, 311, 312, 313, 314, 315, 316, 317, 318, 319, 320, 321, 322, 323, 324, 325, 326, 327, 328, 329, 330, 331, 332, 333, 334, 335, 336, 337, 338, 339, 340, 341, 342, 343, 344, 345, 346, 347, 348, 349, 350, 351, 352, 353, 354, 355, 356, 357, 358, 359, 360, 361, 362, 363, 364, 365, 366, 367, 368, 369, 370, 371, 372, 373, 374, 375, 376, 377, 378, 379, 380, 381, 382, 383, 384, 385, 386, 387, 388, 389, 390, 391, 392, 393, 394, 395, 396, 397, 398, 399, 400, 401, 402, 403, 404, 405, 406, 407, 408, 409, 410, 411, 412, 413, 414, 415, 416, 417, 418, 419, 420, 421, 422, 423, 424, 425, 426, 427, 428, 429, 430, 431, 432, 433, 434, 435, 436, 437, 438, 439, 440, 441, 442, 443, 444, 445, 446, 447, 448, 449, 450, 451, 452, 453, 454, 455, 456, 457, 458, 459, 460, 461, 462, 463, 464, 465, 466, 467, 468, 469, 470, 471, 472, 473, 474, 475, 476, 477, 478, 479, 480, 481, 482, 483, 484, 485, 486, 487, 488, 489, 490, 491, 492, 493, 494, 495, 496, 497, 498, 499, 500, 501, 502, 503, 504, 505, 506, 507, 508, 509, 510, 511, 512, 513, 514, 515, 516, 517, 518, 519, 520, 521, 522, 523, 524, 525, 526, 527, 528, 529, 530, 531, 532, 533, 534, 535, 536, 537, 538, 539, 540, 541, 542, 543, 544, 545, 546, 547, 548, 549, 550, 551, 552, 553, 554, 555, 556, 557, 558, 559, 560, 561, 562, 563, 564, 565, 566, 567, 568, 569, 570, 571, 572, 573, 574, 575, 576, 577, 578, 579, 580, 581, 582, 583, 584, 585, 586, 587, 588, 589, 590, 591, 592, 593, 594, 595, 596, 597, 598, 599, 600, 601, 602, 603, 604, 605, 606, 607, 608, 609, 610, 611, 612, 613, 614, 615, 616, 617, 618, 619, 620, 621, 622, 623, 624, 625, 626, 627, 628, 629, 630, 631, 632, 633, 634, 635, 636, 637, 638, 639, 640, 641, 642, 643, 644, 645, 646, 647, 648, 649, 650, 651, 652, 653, 654, 655, 656, 657, 658, 659, 660, 661, 662, 663, 664, 665, 666, 667, 668, 669, 670, 671, 672, 673, 674, 675, 676, 677, 678, 679, 680, 681, 682, 683, 684, 685, 686, 687, 688, 689, 690, 691, 692, 693, 694, 695, 696, 697, 698, 699, 700, 701, 702, 703, 704, 705, 706, 707, 708, 709, 710, 711, 712, 713, 714, 715, 716, 717, 718, 719, 720, 721, 722, 723, 724, 725, 726, 727, 728, 729, 730, 731, 732, 733, 734, 735, 736, 737, 738, 739, 740, 741, 742, 743, 744, 745, 746, 747, 748, 749, 750, 751, 752, 753, 754, 755, 756, 757, 758, 759, 760, 761, 762, 763, 764, 765, 766, 767, 768, 769, 770, 771, 772, 773, 774, 775, 776, 777, 778, 779, 780, 781, 782, 783, 784, 785, 786, 787, 788, 789, 790, 791, 792, 793, 794, 795, 796, 797, 798, 799, 800, 801, 802, 803, 804, 805, 806, 807, 808, 809, 810, 811, 812, 813, 814, 815, 816, 817, 818, 819, 820, 821, 822, 823, 824, 825, 826, 827, 828, 829, 830, 831, 832, 833, 834, 835, 836, 837, 838, 839, 840, 841, 842, 843, 844, 845, 846, 847, 848, 849, 850, 851, 852, 853, 854, 855, 856, 857, 858, 859, 860, 861, 862, 863, 864, 865, 866, 867, 868, 869, 870, 871, 872, 873, 874, 875, 876, 877, 878, 879, 880, 881, 882, 883, 884, 885, 886, 887, 888, 889, 890, 891, 892, 893, 894, 895, 896, 897, 898, 899, 900, 901, 902, 903, 904, 905, 906, 907, 908, 909, 910, 911, 912, 913, 914, 915, 916, 917, 918, 919, 920, 921, 922, 923, 924, 925, 926],
      "AcquisitionTime": ["134041.967500", "134042.427500", "134042.887500", "134043.347500", "134043.807500", "134044.267500", "134044.727500", "134045.187500", "134045.647500", "134046.107500", "134046.567500", "134047.027500", "134047.487500", "134047.947500", "134048.407500", "134048.867500", "134049.327500", "134049.787500", "134050.247500", "134050.707500", "134051.167500", "134051.627500", "134052.087500", "134052.547500", "134053.007500", "134053.467500", "134053.927500", "134054.387500", "134054.847500", "134055.307500", "134055.767500", "134056.227500", "134056.687500", "134057.147500", "134057.607500", "134058.067500", "134058.527500", "134058.987500", "134059.447500", "134059.907500", "134100.367500", "134100.827500", "134101.287500", "134101.747500", "134102.207500", "134102.667500", "134103.127500", "134103.587500", "134104.047500", "134104.507500", "134104.967500", "134105.427500", "134105.887500", "134106.347500", "134106.807500", "134107.267500", "134107.727500", "134108.187500", "134108.647500", "134109.107500", "134109.567500", "134110.027500", "134110.487500", "134110.947500", "134111.407500", "134111.867500", "134112.327500", "134112.787500", "134113.247500", "134113.707500", "134114.167500", "134114.627500", "134115.087500", "134115.547500", "134116.007500", "134116.467500", "134116.927500", "134117.387500", "134117.847500", "134118.307500", "134118.767500", "134119.227500", "134119.687500", "134120.147500", "134120.607500", "134121.067500", "134121.527500", "134121.987500", "134122.447500", "134122.907500", "134123.367500", "134123.827500", "134124.287500", "134124.747500", "134125.207500", "134125.667500", "134126.127500", "134126.587500", "134127.047500", "134127.507500", "134127.967500", "134128.427500", "134128.887500", "134129.347500", "134129.807500", "134130.267500", "134130.727500", "134131.187500", "134131.647500", "134132.107500", "134132.567500", "134133.027500", "134133.487500", "134133.947500", "134134.407500", "134134.867500", "134135.327500", "134135.787500", "134136.247500", "134136.707500", "134137.167500", "134137.627500", "134138.087500", "134138.547500", "134139.007500", "134139.467500", "134139.927500", "134140.387500", "134140.847500", "134141.307500", "134141.767500", "134142.227500", "134142.687500", "134143.147500", "134143.607500", "134144.067500", "134144.527500", "134144.987500", "134145.447500", "134145.907500", "134146.367500", "134146.827500", "134147.287500", "134147.747500", "134148.207500", "134148.667500", "134149.127500", "134149.587500", "134150.047500", "134150.507500", "134150.967500", "134151.427500", "134151.887500", "134152.347500", "134152.807500", "134153.267500", "134153.727500", "134154.187500", "134154.647500", "134155.107500", "134155.567500", "134156.027500", "134156.487500", "134156.947500", "134157.407500", "134157.867500", "134158.327500", "134158.787500", "134159.247500", "134159.707500", "134200.167500", "134200.627500", "134201.087500", "134201.547500", "134202.007500", "134202.467500", "134202.927500", "134203.387500", "134203.847500", "134204.307500", "134204.767500", "134205.227500", "134205.687500", "134206.147500", "134206.607500", "134207.067500", "134207.527500", "134207.987500", "134208.447500", "134208.907500", "134209.367500", "134209.827500", "134210.287500", "134210.747500", "134211.207500", "134211.667500", "134212.127500", "134212.587500", "134213.047500", "134213.507500", "134213.967500", "134214.427500", "134214.887500", "134215.347500", "134215.807500", "134216.267500", "134216.727500", "134217.187500", "134217.647500", "134218.107500", "134218.567500", "134219.027500", "134219.487500", "134219.947500", "134220.407500", "134220.867500", "134221.327500", "134221.787500", "134222.247500", "134222.707500", "134223.167500", "134223.627500", "134224.087500", "134224.547500", "134225.007500", "134225.467500", "134225.927500", "134226.387500", "134226.847500", "134227.307500", "134227.767500", "134228.227500", "134228.687500", "134229.147500", "134229.607500", "134230.067500", "134230.527500", "134230.987500", "134231.447500", "134231.907500", "134232.367500", "134232.827500", "134233.287500", "134233.747500", "134234.207500", "134234.667500", "134235.127500", "134235.587500", "134236.047500", "134236.507500", "134236.967500", "134237.427500", "134237.887500", "134238.347500", "134238.807500", "134239.267500", "134239.727500", "134240.187500", "134240.647500", "134241.107500", "134241.567500", "134242.027500", "134242.487500", "134242.947500", "134243.407500", "134243.867500", "134244.327500", "134244.787500", "134245.247500", "134245.707500", "134246.167500", "134246.627500", "134247.087500", "134247.547500", "134248.007500", "134248.467500", "134248.927500", "134249.387500", "134249.847500", "134250.307500", "134250.767500", "134251.227500", "134251.687500", "134252.147500", "134252.607500", "134253.067500", "134253.527500", "134253.987500", "134254.447500", "134254.907500", "134255.367500", "134255.827500", "134256.287500", "134256.747500", "134257.207500", "134257.667500", "134258.127500", "134258.587500", "134259.047500", "134259.507500", "134259.967500", "134300.427500", "134300.887500", "134301.347500", "134301.807500", "134302.267500", "134302.727500", "134303.187500", "134303.647500", "134304.107500", "134304.567500", "134305.027500", "134305.487500", "134305.947500", "134306.407500", "134306.867500", "134307.327500", "134307.787500", "134308.247500", "134308.707500", "134309.167500", "134309.627500", "134310.087500", "134310.547500", "134311.007500", "134311.467500", "134311.927500", "134312.387500", "134312.847500", "134313.307500", "134313.767500", "134314.227500", "134314.687500", "134315.147500", "134315.607500", "134316.067500", "134316.527500", "134316.987500", "134317.447500", "134317.907500", "134318.367500", "134318.827500", "134319.287500", "134319.747500", "134320.207500", "134320.667500", "134321.127500", "134321.587500", "134322.047500", "134322.507500", "134322.967500", "134323.427500", "134323.887500", "134324.347500", "134324.807500", "134325.267500", "134325.727500", "134326.187500", "134326.647500", "134327.107500", "134327.567500", "134328.027500", "134328.487500", "134328.947500", "134329.407500", "134329.867500", "134330.327500", "134330.787500", "134331.247500", "134331.707500", "134332.167500", "134332.627500", "134333.087500", "134333.547500", "134334.007500", "134334.467500", "134334.927500", "134335.387500", "134335.847500", "134336.307500", "134336.767500", "134337.227500", "134337.687500", "134338.147500", "134338.607500", "134339.067500", "134339.527500", "134339.987500", "134340.447500", "134340.907500", "134341.367500", "134341.827500", "134342.287500", "134342.747500", "134343.207500", "134343.667500", "134344.127500", "134344.587500", "134345.047500", "134345.507500", "134345.967500", "134346.427500", "134346.887500", "134347.347500", "134347.807500", "134348.267500", "134348.727500", "134349.187500", "134349.647500", "134350.107500", "134350.567500", "134351.027500", "134351.487500", "134351.947500", "134352.407500", "134352.867500", "134353.327500", "134353.787500", "134354.247500", "134354.707500", "134355.167500", "134355.627500", "134356.087500", "134356.547500", "134357.007500", "134357.467500", "134357.927500", "134358.387500", "134358.847500", "134359.307500", "134359.767500", "134400.227500", "134400.687500", "134401.147500", "134401.607500", "134402.067500", "134402.527500", "134402.987500", "134403.447500", "134403.907500", "134404.367500", "134404.827500", "134405.287500", "134405.747500", "134406.207500", "134406.667500", "134407.127500", "134407.587500", "134408.047500", "134408.507500", "134408.967500", "134409.427500", "134409.887500", "134410.347500", "134410.807500", "134411.267500", "134411.727500", "134412.187500", "134412.647500", "134413.107500", "134413.567500", "134414.027500", "134414.487500", "134414.947500", "134415.407500", "134415.867500", "134416.327500", "134416.787500", "134417.247500", "134417.707500", "134418.167500", "134418.627500", "134419.087500", "134419.547500", "134420.007500", "134420.467500", "134420.927500", "134421.387500", "134421.847500", "134422.307500", "134422.767500", "134423.227500", "134423.687500", "134424.147500", "134424.607500", "134425.067500", "134425.527500", "134425.987500", "134426.447500", "134426.907500", "134427.367500", "134427.827500", "134428.287500", "134428.747500", "134429.207500", "134429.667500", "134430.127500", "134430.587500", "134431.047500", "134431.507500", "134431.967500", "134432.427500", "134432.887500", "134433.347500", "134433.807500", "134434.267500", "134434.727500", "134435.187500", "134435.647500", "134436.107500", "134436.567500", "134437.027500", "134437.487500", "134437.947500", "134438.407500", "134438.867500", "134439.327500", "134439.787500", "134440.247500", "134440.707500", "134441.167500", "134441.627500", "134442.087500", "134442.547500", "134443.007500", "134443.467500", "134443.927500", "134444.387500", "134444.847500", "134445.307500", "134445.767500", "134446.227500", "134446.687500", "134447.147500", "134447.607500", "134448.067500", "134448.527500", "134448.987500", "134449.447500", "134449.907500", "134450.367500", "134450.827500", "134451.287500", "134451.747500", "134452.207500", "134452.667500", "134453.127500", "134453.587500", "134454.047500", "134454.507500", "134454.967500", "134455.427500", "134455.887500", "134456.347500", "134456.807500", "134457.267500", "134457.727500", "134458.187500", "134458.647500", "134459.107500", "134459.567500", "134500.027500", "134500.487500", "134500.947500", "134501.407500", "134501.867500", "134502.327500", "134502.787500", "134503.247500", "134503.707500", "134504.167500", "134504.627500", "134505.087500", "134505.547500", "134506.007500", "134506.467500", "134506.927500", "134507.387500", "134507.847500", "134508.307500", "134508.767500", "134509.227500", "134509.687500", "134510.147500", "134510.607500", "134511.067500", "134511.527500", "134511.987500", "134512.447500", "134512.907500", "134513.367500", "134513.827500", "134514.287500", "134514.747500", "134515.207500", "134515.667500", "134516.127500", "134516.587500", "134517.047500", "134517.507500", "134517.967500", "134518.427500", "134518.887500", "134519.347500", "134519.807500", "134520.267500", "134520.727500", "134521.187500", "134521.647500", "134522.107500", "134522.567500", "134523.027500", "134523.487500", "134523.947500", "134524.407500", "134524.867500", "134525.327500", "134525.787500", "134526.247500", "134526.707500", "134527.167500", "134527.627500", "134528.087500", "134528.547500", "134529.007500", "134529.467500", "134529.927500", "134530.387500", "134530.847500", "134531.307500", "134531.767500", "134532.227500", "134532.687500", "134533.147500", "134533.607500", "134534.067500", "134534.527500", "134534.987500", "134535.447500", "134535.907500", "134536.367500", "134536.827500", "134537.287500", "134537.747500", "134538.207500", "134538.667500", "134539.127500", "134539.587500", "134540.047500", "134540.507500", "134540.967500", "134541.427500", "134541.887500", "134542.347500", "134542.807500", "134543.267500", "134543.727500", "134544.187500", "134544.647500", "134545.107500", "134545.567500", "134546.027500", "134546.487500", "134546.947500", "134547.407500", "134547.867500", "134548.327500", "134548.787500", "134549.247500", "134549.707500", "134550.167500", "134550.627500", "134551.087500", "134551.547500", "134552.007500", "134552.467500", "134552.927500", "134553.387500", "134553.847500", "134554.307500", "134554.767500", "134555.227500", "134555.687500", "134556.147500", "134556.607500", "134557.067500", "134557.527500", "134557.987500", "134558.447500", "134558.907500", "134559.367500", "134559.827500", "134600.287500", "134600.747500", "134601.207500", "134601.667500", "134602.127500", "134602.587500", "134603.047500", "134603.507500", "134603.967500", "134604.427500", "134604.887500", "134605.347500", "134605.807500", "134606.267500", "134606.727500", "134607.187500", "134607.647500", "134608.107500", "134608.567500", "134609.027500", "134609.487500", "134609.947500", "134610.407500", "134610.867500", "134611.327500", "134611.787500", "134612.247500", "134612.707500", "134613.167500", "134613.627500", "134614.087500", "134614.547500", "134615.007500", "134615.467500", "134615.927500", "134616.387500", "134616.847500", "134617.307500", "134617.767500", "134618.227500", "134618.687500", "134619.147500", "134619.607500", "134620.067500", "134620.527500", "134620.987500", "134621.447500", "134621.907500", "134622.367500", "134622.827500", "134623.287500", "134623.747500", "134624.207500", "134624.667500", "134625.127500", "134625.587500", "134626.047500", "134626.507500", "134626.967500", "134627.427500", "134627.887500", "134628.347500", "134628.807500", "134629.267500", "134629.727500", "134630.187500", "134630.647500", "134631.107500", "134631.567500", "134632.027500", "134632.487500", "134632.947500", "134633.407500", "134633.867500", "134634.327500", "134634.787500", "134635.247500", "134635.707500", "134636.167500", "134636.627500", "134637.087500", "134637.547500", "134638.007500", "134638.467500", "134638.927500", "134639.387500", "134639.847500", "134640.307500", "134640.767500", "134641.227500", "134641.687500", "134642.147500", "134642.607500", "134643.067500", "134643.527500", "134643.987500", "134644.447500", "134644.907500", "134645.367500", "134645.827500", "134646.287500", "134646.747500", "134647.207500", "134647.667500", "134648.127500", "134648.587500", "134649.047500", "134649.507500", "134649.967500", "134650.427500", "134650.887500", "134651.347500", "134651.807500", "134652.267500", "134652.727500", "134653.187500", "134653.647500", "134654.107500", "134654.567500", "134655.027500", "134655.487500", "134655.947500", "134656.407500", "134656.867500", "134657.327500", "134657.787500", "134658.247500", "134658.707500", "134659.167500", "134659.627500", "134700.087500", "134700.547500", "134701.007500", "134701.467500", "134701.927500", "134702.387500", "134702.847500", "134703.307500", "134703.767500", "134704.227500", "134704.687500", "134705.147500", "134705.607500", "134706.067500", "134706.527500", "134706.987500", "134707.447500", "134707.907500", "134708.367500", "134708.827500", "134709.287500", "134709.747500", "134710.207500", "134710.667500", "134711.127500", "134711.587500", "134712.047500", "134712.507500", "134712.967500", "134713.427500", "134713.887500", "134714.347500", "134714.807500", "134715.267500", "134715.727500", "134716.187500", "134716.647500", "134717.107500", "134717.567500", "134718.027500", "134718.487500", "134718.947500", "134719.407500", "134719.867500", "134720.327500", "134720.787500", "134721.247500", "134721.707500", "134722.167500", "134722.627500", "134723.087500", "134723.547500", "134724.007500", "134724.467500", "134724.927500", "134725.387500", "134725.847500", "134726.307500", "134726.767500", "134727.227500", "134727.687500", "134728.147500", "134728.607500", "134729.067500", "134729.527500", "134729.987500", "134730.447500", "134730.907500", "134731.367500", "134731.827500", "134732.287500", "134732.747500", "134733.207500", "134733.667500", "134734.127500", "134734.587500", "134735.047500", "134735.507500", "134735.967500", "134736.427500", "134736.887500", "134737.347500", "134737.807500", "134738.267500", "134738.727500", "134739.187500", "134739.647500", "134740.107500", "134740.567500", "134741.027500", "134741.487500", "134741.947500", "134742.407500", "134742.867500", "134743.327500", "134743.787500", "134744.247500", "134744.707500", "134745.167500", "134745.627500", "134746.087500", "134746.547500", "134747.007500", "134747.467500"],
