{
  "AcquisitionMatrixPE": 82,
  "AcquisitionNumber": 1,
  "AcquisitionTime": "13:12:16.025000",
  "BandwidthPerPixelPhaseEncode": 24.888,
  "BaseResolution": 82,
  "BodyPartExamined": "BRAIN",
  "ConsistencyInfo": "N4_VE11E_LATEST_20181129",
  "ConversionSoftware": "dcm2niix",
  "ConversionSoftwareVersion": "v1.0.20201102",
  "DerivedVendorReportedEchoSpacing": 0.00049,
  "DeviceSerialNumber": "66112",
  "DwellTime": 2e-06,
  "EchoTime": 0.0272,
  "EchoTrainLength": 82,
  "EffectiveEchoSpacing": 0.00049,
  "FlipAngle": 44,
  "ImageComments": "Unaliased MB8/PE3",
  "ImageOrientationPatientDICOM": [0.998554, 0.0133182, -0.0520853, -0.00627423, 0.991078, 0.133132],
  "ImageType": [
    "ORIGINAL",
    "PRIMARY",
    "M",
    "MB",
    "ND",
    "NORM",
    "MOSAIC"
],
  "ImagingFrequency": 123.252,
  "InPlanePhaseEncodingDirectionDICOM": "COL",
  "InstitutionAddress": "Maynard 3,Hanover,NH,US,03755",
  "InstitutionName": "Dartmouth College - PBS",
  "InstitutionalDepartmentName": "Department",
  "MRAcquisitionType": "2D",
  "MagneticFieldStrength": 3,
  "Manufacturer": "Siemens",
  "ManufacturersModelName": "Prisma",
  "Modality": "MR",
  "MultibandAccelerationFactor": 8,
  "PartialFourier": 1,
  "PatientPosition": "HFS",
  "PercentPhaseFOV": 100,
  "PercentSampling": 100,
  "PhaseEncodingDirection": "j-",
  "PhaseEncodingSteps": 82,
  "PhaseResolution": 1,
  "PixelBandwidth": 3050,
  "ProcedureStepDescription": "Wager_Wager^1076_spacetop",
  "ProtocolName": "func_run-05_task-social_acq-ap-mb8",
  "PulseSequenceDetails": "%CustomerSeq%\\cmrr_mbep2d_bold",
  "ReceiveCoilActiveElements": "HEA;HEP",
  "ReceiveCoilName": "Head_32",
  "ReconMatrixPE": 82,
  "RepetitionTime": 0.46,
  "SAR": 0.0941432,
  "ScanOptions": "FS",
  "ScanningSequence": "EP",
  "SequenceName": "epfid2d1_82",
  "SequenceVariant": "SK\\SS",
  "SeriesDescription": "func_run-05_task-social_acq-ap-mb8",
  "SeriesNumber": 20,
  "ShimSetting": [4141, -7793, -7246, 454, -31, -287, -23, 89],
  "SliceThickness": 2.7,
  "SliceTiming": [0, 0.2525, 0.0625, 0.315, 0.125, 0.3775, 0.19, 0, 0.2525, 0.0625, 0.315, 0.125, 0.3775, 0.19, 0, 0.2525, 0.0625, 0.315, 0.125, 0.3775, 0.19, 0, 0.2525, 0.0625, 0.315, 0.125, 0.3775, 0.19, 0, 0.2525, 0.0625, 0.315, 0.125, 0.3775, 0.19, 0, 0.2525, 0.0625, 0.315, 0.125, 0.3775, 0.19, 0, 0.2525, 0.0625, 0.315, 0.125, 0.3775, 0.19, 0, 0.2525, 0.0625, 0.315, 0.125, 0.3775, 0.19],
  "SoftwareVersions": "syngo MR E11",
  "SpacingBetweenSlices": 2.7,
  "StationName": "AWP66112",
  "TaskName": "social",
  "TotalReadoutTime": 0.03969,
  "TxRefAmp": 282.589,
  "WipMemBlock": "df220d73-4c2b-4334-93e0-3c742683db40||Sequence: R016 ve11e/master r/434b28f1; Aug  7 2019 18:53:46 by eja",
  "dcmmeta_affine": [
    [-2.679046869277954, -0.016833288595080376, -0.1441628336906433, 112.70991516113281],
    [-0.03573165461421013, 2.6589910984039307, 0.3580529987812042, -96.50149536132812],
    [-0.1397409290075302, -0.35718223452568054, 2.6722676753997803, -55.6845588684082],
    [0.0, 0.0, 0.0, 1.0]
],
  "dcmmeta_reorient_transform": [
    [0.0, -1.0, 0.0, 81.0],
    [1.0, 0.0, 0.0, 0.0],
    [0.0, 0.0, 1.0, 0.0],
    [0.0, 0.0, 0.0, 1.0]
],
  "dcmmeta_shape": [82, 82, 56, 872],
  "dcmmeta_slice_dim": 2,
  "dcmmeta_version": 0.6,
  "global": {
    "const": {
      "AccessionNumber": "A004031",
      "AcquisitionMatrix": [82, 0, 0, 82],
      "AngioFlag": "N",
      "BitsAllocated": 16,
      "BitsStored": 16,
      "BodyPartExamined": "BRAIN",
      "Columns": 656,
      "EchoNumbers": 1,
      "EchoTime": 27.2,
      "EchoTrainLength": 82,
      "FlipAngle": 44.0,
      "HighBit": 15,
      "ImageOrientationPatient": [0.99855383061643, 0.01331816117336, -0.0520852564956, -0.0062742257596, 0.99107851502196, 0.13313155581224],
      "ImagePositionPatient": [-875.4017322535, -892.26225122292, -147.02197037983],
      "ImageType": [
        "ORIGINAL",
        "PRIMARY",
        "M",
        "MB",
        "ND",
        "NORM",
        "MOSAIC"
],
      "ImagedNucleus": "1H",
      "ImagingFrequency": 123.252287,
      "InPlanePhaseEncodingDirection": "COL",
      "MRAcquisitionType": "2D",
      "MagneticFieldStrength": 3.0,
      "Manufacturer": "SIEMENS",
      "ManufacturerModelName": "Prisma",
      "Modality": "MR",
      "NumberOfAverages": 1.0,
      "NumberOfPhaseEncodingSteps": 82,
      "PercentPhaseFieldOfView": 100.0,
      "PercentSampling": 100.0,
      "PerformedProcedureStepStartTime": "120034.693000",
      "PhotometricInterpretation": "MONOCHROME2",
      "PixelBandwidth": 3050.0,
      "PixelRepresentation": 0,
      "PixelSpacing": [2.6829268932343, 2.6829268932343],
      "ProtocolName": "func_run-05_task-social_acq-ap-mb8",
      "RepetitionTime": 460.0,
      "Rows": 656,
      "SAR": 0.09414324154427,
      "SamplesPerPixel": 1,
      "ScanOptions": "FS",
      "ScanningSequence": "EP",
      "SequenceName": "epfid2d1_82",
      "SequenceVariant": [
        "SK",
        "SS"
],
      "SeriesDescription": "func_run-05_task-social_acq-ap-mb8",
      "SeriesNumber": 20,
      "SeriesTime": "131238.521000",
      "SliceLocation": -73.927882750245,
      "SliceThickness": 2.7000000476837,
      "SmallestImagePixelValue": 0,
      "SoftwareVersions": "syngo MR E11",
      "SpacingBetweenSlices": 2.6999999217516,
      "SpecificCharacterSet": "ISO_IR 100",
      "StudyID": "2",
      "StudyTime": "120034.642000",
      "TransmitCoilName": "Body",
      "VariableFlipAngleFlag": "N",
      "WindowCenterWidthExplanation": "Algo1"
    },
    "slices": {}
  },
  "time": {
    "samples": {
      "AcquisitionNumber": [1, 2, 3, 4, 5, 6, 7, 8, 9, 10, 11, 12, 13, 14, 15, 16, 17, 18, 19, 20, 21, 22, 23, 24, 25, 26, 27, 28, 29, 30, 31, 32, 33, 34, 35, 36, 37, 38, 39, 40, 41, 42, 43, 44, 45, 46, 47, 48, 49, 50, 51, 52, 53, 54, 55, 56, 57, 58, 59, 60, 61, 62, 63, 64, 65, 66, 67, 68, 69, 70, 71, 72, 73, 74, 75, 76, 77, 78, 79, 80, 81, 82, 83, 84, 85, 86, 87, 88, 89, 90, 91, 92, 93, 94, 95, 96, 97, 98, 99, 100, 101, 102, 103, 104, 105, 106, 107, 108, 109, 110, 111, 112, 113, 114, 115, 116, 117, 118, 119, 120, 121, 122, 123, 124, 125, 126, 127, 128, 129, 130, 131, 132, 133, 134, 135, 136, 137, 138, 139, 140, 141, 142, 143, 144, 145, 146, 147, 148, 149, 150, 151, 152, 153, 154, 155, 156, 157, 158, 159, 160, 161, 162, 163, 164, 165, 166, 167, 168, 169, 170, 171, 172, 173, 174, 175, 176, 177, 178, 179, 180, 181, 182, 183, 184, 185, 186, 187, 188, 189, 190, 191, 192, 193, 194, 195, 196, 197, 198, 199, 200, 201, 202, 203, 204, 205, 206, 207, 208, 209, 210, 211, 212, 213, 214, 215, 216, 217, 218, 219, 220, 221, 222, 223, 224, 225, 226, 227, 228, 229, 230, 231, 232, 233, 234, 235, 236, 237, 238, 239, 240, 241, 242, 243, 244, 245, 246, 247, 248, 249, 250, 251, 252, 253, 254, 255, 256, 257, 258, 259, 260, 261, 262, 263, 264, 265, 266, 267, 268, 269, 270, 271, 272, 273, 274, 275, 276, 277, 278, 279, 280, 281, 282, 283, 284, 285, 286, 287, 288, 289, 290, 291, 292, 293, 294, 295, 296, 297, 298, 299, 300, 301, 302, 303, 304, 305, 306, 307, 308, 309, 310, 311, 312, 313, 314, 315, 316, 317, 318, 319, 320, 321, 322, 323, 324, 325, 326, 327, 328, 329, 330, 331, 332, 333, 334, 335, 336, 337, 338, 339, 340, 341, 342, 343, 344, 345, 346, 347, 348, 349, 350, 351, 352, 353, 354, 355, 356, 357, 358, 359, 360, 361, 362, 363, 364, 365, 366, 367, 368, 369, 370, 371, 372, 373, 374, 375, 376, 377, 378, 379, 380, 381, 382, 383, 384, 385, 386, 387, 388, 389, 390, 391, 392, 393, 394, 395, 396, 397, 398, 399, 400, 401, 402, 403, 404, 405, 406, 407, 408, 409, 410, 411, 412, 413, 414, 415, 416, 417, 418, 419, 420, 421, 422, 423, 424, 425, 426, 427, 428, 429, 430, 431, 432, 433, 434, 435, 436, 437, 438, 439, 440, 441, 442, 443, 444, 445, 446, 447, 448, 449, 450, 451, 452, 453, 454, 455, 456, 457, 458, 459, 460, 461, 462, 463, 464, 465, 466, 467, 468, 469, 470, 471, 472, 473, 474, 475, 476, 477, 478, 479, 480, 481, 482, 483, 484, 485, 486, 487, 488, 489, 490, 491, 492, 493, 494, 495, 496, 497, 498, 499, 500, 501, 502, 503, 504, 505, 506, 507, 508, 509, 510, 511, 512, 513, 514, 515, 516, 517, 518, 519, 520, 521, 522, 523, 524, 525, 526, 527, 528, 529, 530, 531, 532, 533, 534, 535, 536, 537, 538, 539, 540, 541, 542, 543, 544, 545, 546, 547, 548, 549, 550, 551, 552, 553, 554, 555, 556, 557, 558, 559, 560, 561, 562, 563, 564, 565, 566, 567, 568, 569, 570, 571, 572, 573, 574, 575, 576, 577, 578, 579, 580, 581, 582, 583, 584, 585, 586, 587, 588, 589, 590, 591, 592, 593, 594, 595, 596, 597, 598, 599, 600, 601, 602, 603, 604, 605, 606, 607, 608, 609, 610, 611, 612, 613, 614, 615, 616, 617, 618, 619, 620, 621, 622, 623, 624, 625, 626, 627, 628, 629, 630, 631, 632, 633, 634, 635, 636, 637, 638, 639, 640, 641, 642, 643, 644, 645, 646, 647, 648, 649, 650, 651, 652, 653, 654, 655, 656, 657, 658, 659, 660, 661, 662, 663, 664, 665, 666, 667, 668, 669, 670, 671, 672, 673, 674, 675, 676, 677, 678, 679, 680, 681, 682, 683, 684, 685, 686, 687, 688, 689, 690, 691, 692, 693, 694, 695, 696, 697, 698, 699, 700, 701, 702, 703, 704, 705, 706, 707, 708, 709, 710, 711, 712, 713, 714, 715, 716, 717, 718, 719, 720, 721, 722, 723, 724, 725, 726, 727, 728, 729, 730, 731, 732, 733, 734, 735, 736, 737, 738, 739, 740, 741, 742, 743, 744, 745, 746, 747, 748, 749, 750, 751, 752, 753, 754, 755, 756, 757, 758, 759, 760, 761, 762, 763, 764, 765, 766, 767, 768, 769, 770, 771, 772, 773, 774, 775, 776, 777, 778, 779, 780, 781, 782, 783, 784, 785, 786, 787, 788, 789, 790, 791, 792, 793, 794, 795, 796, 797, 798, 799, 800, 801, 802, 803, 804, 805, 806, 807, 808, 809, 810, 811, 812, 813, 814, 815, 816, 817, 818, 819, 820, 821, 822, 823, 824, 825, 826, 827, 828, 829, 830, 831, 832, 833, 834, 835, 836, 837, 838, 839, 840, 841, 842, 843, 844, 845, 846, 847, 848, 849, 850, 851, 852, 853, 854, 855, 856, 857, 858, 859, 860, 861, 862, 863, 864, 865, 866, 867, 868, 869, 870, 871, 872],
      "AcquisitionTime": ["131216.025000", "131216.485000", "131216.945000", "131217.405000", "131217.865000", "131218.325000", "131218.785000", "131219.245000", "131219.705000", "131220.165000", "131220.625000", "131221.085000", "131221.545000", "131222.005000", "131222.465000", "131222.925000", "131223.385000", "131223.845000", "131224.305000", "131224.765000", "131225.225000", "131225.685000", "131226.145000", "131226.605000", "131227.065000", "131227.525000", "131227.985000", "131228.445000", "131228.905000", "131229.365000", "131229.825000", "131230.285000", "131230.745000", "131231.205000", "131231.665000", "131232.125000", "131232.585000", "131233.045000", "131233.505000", "131233.965000", "131234.425000", "131234.885000", "131235.345000", "131235.805000", "131236.265000", "131236.725000", "131237.185000", "131237.645000", "131238.105000", "131238.565000", "131239.025000", "131239.485000", "131239.945000", "131240.405000", "131240.865000", "131241.325000", "131241.785000", "131242.245000", "131242.705000", "131243.165000", "131243.625000", "131244.085000", "131244.545000", "131245.005000", "131245.465000", "131245.925000", "131246.385000", "131246.845000", "131247.305000", "131247.765000", "131248.225000", "131248.685000", "131249.145000", "131249.605000", "131250.065000", "131250.525000", "131250.985000", "131251.445000", "131251.905000", "131252.365000", "131252.825000", "131253.285000", "131253.745000", "131254.205000", "131254.665000", "131255.125000", "131255.585000", "131256.045000", "131256.505000", "131256.965000", "131257.425000", "131257.885000", "131258.345000", "131258.805000", "131259.265000", "131259.725000", "131300.185000", "131300.645000", "131301.105000", "131301.565000", "131302.025000", "131302.485000", "131302.945000", "131303.405000", "131303.865000", "131304.325000", "131304.785000", "131305.245000", "131305.705000", "131306.165000", "131306.625000", "131307.085000", "131307.545000", "131308.005000", "131308.465000", "131308.925000", "131309.385000", "131309.845000", "131310.305000", "131310.765000", "131311.225000", "131311.685000", "131312.145000", "131312.605000", "131313.065000", "131313.525000", "131313.985000", "131314.445000", "131314.905000", "131315.365000", "131315.825000", "131316.285000", "131316.745000", "131317.205000", "131317.665000", "131318.125000", "131318.585000", "131319.045000", "131319.505000", "131319.965000", "131320.425000", "131320.885000", "131321.345000", "131321.805000", "131322.265000", "131322.725000", "131323.185000", "131323.645000", "131324.105000", "131324.565000", "131325.025000", "131325.485000", "131325.945000", "131326.405000", "131326.865000", "131327.325000", "131327.785000", "131328.245000", "131328.705000", "131329.165000", "131329.625000", "131330.085000", "131330.545000", "131331.005000", "131331.465000", "131331.925000", "131332.385000", "131332.845000", "131333.305000", "131333.765000", "131334.225000", "131334.685000", "131335.145000", "131335.605000", "131336.065000", "131336.525000", "131336.985000", "131337.445000", "131337.905000", "131338.365000", "131338.825000", "131339.285000", "131339.745000", "131340.205000", "131340.665000", "131341.125000", "131341.585000", "131342.045000", "131342.505000", "131342.965000", "131343.425000", "131343.885000", "131344.345000", "131344.805000", "131345.265000", "131345.725000", "131346.185000", "131346.645000", "131347.105000", "131347.565000", "131348.025000", "131348.485000", "131348.945000", "131349.405000", "131349.865000", "131350.325000", "131350.785000", "131351.245000", "131351.705000", "131352.165000", "131352.625000", "131353.085000", "131353.545000", "131354.005000", "131354.465000", "131354.925000", "131355.385000", "131355.845000", "131356.305000", "131356.765000", "131357.225000", "131357.685000", "131358.145000", "131358.605000", "131359.065000", "131359.525000", "131359.985000", "131400.445000", "131400.905000", "131401.365000", "131401.825000", "131402.285000", "131402.745000", "131403.205000", "131403.665000", "131404.125000", "131404.585000", "131405.045000", "131405.505000", "131405.965000", "131406.425000", "131406.885000", "131407.345000", "131407.805000", "131408.265000", "131408.725000", "131409.185000", "131409.645000", "131410.105000", "131410.565000", "131411.025000", "131411.485000", "131411.945000", "131412.405000", "131412.865000", "131413.325000", "131413.785000", "131414.245000", "131414.705000", "131415.165000", "131415.625000", "131416.085000", "131416.545000", "131417.005000", "131417.465000", "131417.925000", "131418.385000", "131418.845000", "131419.305000", "131419.765000", "131420.225000", "131420.685000", "131421.145000", "131421.605000", "131422.065000", "131422.525000", "131422.985000", "131423.445000", "131423.905000", "131424.365000", "131424.825000", "131425.285000", "131425.745000", "131426.205000", "131426.665000", "131427.125000", "131427.585000", "131428.045000", "131428.505000", "131428.965000", "131429.425000", "131429.885000", "131430.345000", "131430.805000", "131431.265000", "131431.725000", "131432.185000", "131432.645000", "131433.105000", "131433.565000", "131434.025000", "131434.485000", "131434.945000", "131435.405000", "131435.865000", "131436.325000", "131436.785000", "131437.245000", "131437.705000", "131438.165000", "131438.625000", "131439.085000", "131439.545000", "131440.005000", "131440.465000", "131440.925000", "131441.385000", "131441.845000", "131442.305000", "131442.765000", "131443.225000", "131443.685000", "131444.145000", "131444.605000", "131445.065000", "131445.525000", "131445.985000", "131446.445000", "131446.905000", "131447.365000", "131447.825000", "131448.285000", "131448.745000", "131449.205000", "131449.665000", "131450.125000", "131450.585000", "131451.045000", "131451.505000", "131451.965000", "131452.425000", "131452.885000", "131453.345000", "131453.805000", "131454.265000", "131454.725000", "131455.185000", "131455.645000", "131456.105000", "131456.565000", "131457.025000", "131457.485000", "131457.945000", "131458.405000", "131458.865000", "131459.325000", "131459.785000", "131500.245000", "131500.705000", "131501.165000", "131501.625000", "131502.085000", "131502.545000", "131503.005000", "131503.465000", "131503.925000", "131504.385000", "131504.845000", "131505.305000", "131505.765000", "131506.225000", "131506.685000", "131507.145000", "131507.605000", "131508.065000", "131508.525000", "131508.985000", "131509.445000", "131509.905000", "131510.365000", "131510.825000", "131511.285000", "131511.745000", "131512.205000", "131512.665000", "131513.125000", "131513.585000", "131514.045000", "131514.505000", "131514.965000", "131515.425000", "131515.885000", "131516.345000", "131516.805000", "131517.265000", "131517.725000", "131518.185000", "131518.645000", "131519.105000", "131519.565000", "131520.025000", "131520.485000", "131520.945000", "131521.405000", "131521.865000", "131522.325000", "131522.785000", "131523.245000", "131523.705000", "131524.165000", "131524.625000", "131525.085000", "131525.545000", "131526.005000", "131526.465000", "131526.925000", "131527.385000", "131527.845000", "131528.305000", "131528.765000", "131529.225000", "131529.685000", "131530.145000", "131530.605000", "131531.065000", "131531.525000", "131531.985000", "131532.445000", "131532.905000", "131533.365000", "131533.825000", "131534.285000", "131534.745000", "131535.205000", "131535.665000", "131536.125000", "131536.585000", "131537.045000", "131537.505000", "131537.965000", "131538.425000", "131538.885000", "131539.345000", "131539.805000", "131540.265000", "131540.725000", "131541.185000", "131541.645000", "131542.105000", "131542.565000", "131543.025000", "131543.485000", "131543.945000", "131544.405000", "131544.865000", "131545.325000", "131545.785000", "131546.245000", "131546.705000", "131547.165000", "131547.625000", "131548.085000", "131548.545000", "131549.005000", "131549.465000", "131549.925000", "131550.385000", "131550.845000", "131551.305000", "131551.765000", "131552.225000", "131552.685000", "131553.145000", "131553.605000", "131554.065000", "131554.525000", "131554.985000", "131555.445000", "131555.905000", "131556.365000", "131556.825000", "131557.285000", "131557.745000", "131558.205000", "131558.665000", "131559.125000", "131559.585000", "131600.045000", "131600.505000", "131600.965000", "131601.425000", "131601.885000", "131602.345000", "131602.805000", "131603.265000", "131603.725000", "131604.185000", "131604.645000", "131605.105000", "131605.565000", "131606.025000", "131606.485000", "131606.945000", "131607.405000", "131607.865000", "131608.325000", "131608.785000", "131609.245000", "131609.705000", "131610.165000", "131610.625000", "131611.085000", "131611.545000", "131612.005000", "131612.465000", "131612.925000", "131613.385000", "131613.845000", "131614.305000", "131614.765000", "131615.225000", "131615.685000", "131616.145000", "131616.605000", "131617.065000", "131617.525000", "131617.985000", "131618.445000", "131618.905000", "131619.365000", "131619.825000", "131620.285000", "131620.745000", "131621.205000", "131621.665000", "131622.125000", "131622.585000", "131623.045000", "131623.505000", "131623.965000", "131624.425000", "131624.885000", "131625.345000", "131625.805000", "131626.265000", "131626.725000", "131627.185000", "131627.645000", "131628.105000", "131628.565000", "131629.025000", "131629.485000", "131629.945000", "131630.405000", "131630.865000", "131631.325000", "131631.785000", "131632.245000", "131632.705000", "131633.165000", "131633.625000", "131634.085000", "131634.545000", "131635.005000", "131635.465000", "131635.925000", "131636.385000", "131636.845000", "131637.305000", "131637.765000", "131638.225000", "131638.685000", "131639.145000", "131639.605000", "131640.065000", "131640.525000", "131640.985000", "131641.445000", "131641.905000", "131642.365000", "131642.825000", "131643.285000", "131643.745000", "131644.205000", "131644.665000", "131645.125000", "131645.585000", "131646.045000", "131646.505000", "131646.965000", "131647.425000", "131647.885000", "131648.345000", "131648.805000", "131649.265000", "131649.725000", "131650.185000", "131650.645000", "131651.105000", "131651.565000", "131652.025000", "131652.485000", "131652.945000", "131653.405000", "131653.865000", "131654.325000", "131654.785000", "131655.245000", "131655.705000", "131656.165000", "131656.625000", "131657.085000", "131657.545000", "131658.005000", "131658.465000", "131658.925000", "131659.385000", "131659.845000", "131700.305000", "131700.765000", "131701.225000", "131701.685000", "131702.145000", "131702.605000", "131703.065000", "131703.525000", "131703.985000", "131704.445000", "131704.905000", "131705.365000", "131705.825000", "131706.285000", "131706.745000", "131707.205000", "131707.665000", "131708.125000", "131708.585000", "131709.045000", "131709.505000", "131709.965000", "131710.425000", "131710.885000", "131711.345000", "131711.805000", "131712.265000", "131712.725000", "131713.185000", "131713.645000", "131714.105000", "131714.565000", "131715.025000", "131715.485000", "131715.945000", "131716.405000", "131716.865000", "131717.325000", "131717.785000", "131718.245000", "131718.705000", "131719.165000", "131719.625000", "131720.085000", "131720.545000", "131721.005000", "131721.465000", "131721.925000", "131722.385000", "131722.845000", "131723.305000", "131723.765000", "131724.225000", "131724.685000", "131725.145000", "131725.605000", "131726.065000", "131726.525000", "131726.985000", "131727.445000", "131727.905000", "131728.365000", "131728.825000", "131729.285000", "131729.745000", "131730.205000", "131730.665000", "131731.125000", "131731.585000", "131732.045000", "131732.505000", "131732.965000", "131733.425000", "131733.885000", "131734.345000", "131734.805000", "131735.265000", "131735.725000", "131736.185000", "131736.645000", "131737.105000", "131737.565000", "131738.025000", "131738.485000", "131738.945000", "131739.405000", "131739.865000", "131740.325000", "131740.785000", "131741.245000", "131741.705000", "131742.165000", "131742.625000", "131743.085000", "131743.545000", "131744.005000", "131744.465000", "131744.925000", "131745.385000", "131745.845000", "131746.305000", "131746.765000", "131747.225000", "131747.685000", "131748.145000", "131748.605000", "131749.065000", "131749.525000", "131749.985000", "131750.445000", "131750.905000", "131751.365000", "131751.825000", "131752.285000", "131752.745000", "131753.205000", "131753.665000", "131754.125000", "131754.585000", "131755.045000", "131755.505000", "131755.965000", "131756.425000", "131756.885000", "131757.345000", "131757.805000", "131758.265000", "131758.725000", "131759.185000", "131759.645000", "131800.105000", "131800.565000", "131801.025000", "131801.485000", "131801.945000", "131802.405000", "131802.865000", "131803.325000", "131803.785000", "131804.245000", "131804.705000", "131805.165000", "131805.625000", "131806.085000", "131806.545000", "131807.005000", "131807.465000", "131807.925000", "131808.385000", "131808.845000", "131809.305000", "131809.765000", "131810.225000", "131810.685000", "131811.145000", "131811.605000", "131812.065000", "131812.525000", "131812.985000", "131813.445000", "131813.905000", "131814.365000", "131814.825000", "131815.285000", "131815.745000", "131816.205000", "131816.665000", "131817.125000", "131817.585000", "131818.045000", "131818.505000", "131818.965000", "131819.425000", "131819.885000", "131820.345000", "131820.805000", "131821.265000", "131821.725000", "131822.185000", "131822.645000", "131823.105000", "131823.565000", "131824.025000", "131824.485000", "131824.945000", "131825.405000", "131825.865000", "131826.325000", "131826.785000", "131827.245000", "131827.705000", "131828.165000", "131828.625000", "131829.085000", "131829.545000", "131830.005000", "131830.465000", "131830.925000", "131831.385000", "131831.845000", "131832.305000", "131832.765000", "131833.225000", "131833.685000", "131834.145000", "131834.605000", "131835.065000", "131835.525000", "131835.985000", "131836.445000", "131836.905000", "131837.365000", "131837.825000", "131838.285000", "131838.745000", "131839.205000", "131839.665000", "131840.125000", "131840.585000", "131841.045000", "131841.505000", "131841.965000", "131842.425000", "131842.885000", "131843.345000", "131843.805000", "131844.265000", "131844.725000", "131845.185000", "131845.645000", "131846.105000", "131846.565000", "131847.025000", "131847.485000", "131847.945000", "131848.405000", "131848.865000", "131849.325000", "131849.785000", "131850.245000", "131850.705000", "131851.165000", "131851.625000", "131852.085000", "131852.545000", "131853.005000", "131853.465000", "131853.925000", "131854.385000", "131854.845000", "131855.305000", "131855.765000", "131856.225000", "131856.685000"],
