{
  "AcquisitionMatrixPE": 82,
  "AcquisitionNumber": 1,
  "AcquisitionTime": "12:56:2.487500",
  "BandwidthPerPixelPhaseEncode": 24.888,
  "BaseResolution": 82,
  "BodyPartExamined": "BRAIN",
  "ConsistencyInfo": "N4_VE11E_LATEST_20181129",
  "ConversionSoftware": "dcm2niix",
  "ConversionSoftwareVersion": "v1.0.20201102",
  "DerivedVendorReportedEchoSpacing": 0.00049,
  "DeviceSerialNumber": "66112",
  "DwellTime": 2e-06,
  "EchoTime": 0.0272,
  "EchoTrainLength": 82,
  "EffectiveEchoSpacing": 0.00049,
  "FlipAngle": 44,
  "ImageComments": "Unaliased MB8/PE3",
  "ImageOrientationPatientDICOM": [0.998554, 0.0133182, -0.0520853, -0.00627423, 0.991078, 0.133132],
  "ImageType": [
    "ORIGINAL",
    "PRIMARY",
    "M",
    "MB",
    "ND",
    "NORM",
    "MOSAIC"
],
  "ImagingFrequency": 123.252,
  "InPlanePhaseEncodingDirectionDICOM": "COL",
  "InstitutionAddress": "Maynard 3,Hanover,NH,US,03755",
  "InstitutionName": "Dartmouth College - PBS",
  "InstitutionalDepartmentName": "Department",
  "MRAcquisitionType": "2D",
  "MagneticFieldStrength": 3,
  "Manufacturer": "Siemens",
  "ManufacturersModelName": "Prisma",
  "Modality": "MR",
  "MultibandAccelerationFactor": 8,
  "PartialFourier": 1,
  "PatientPosition": "HFS",
  "PercentPhaseFOV": 100,
  "PercentSampling": 100,
  "PhaseEncodingDirection": "j-",
  "PhaseEncodingSteps": 82,
  "PhaseResolution": 1,
  "PixelBandwidth": 3050,
  "ProcedureStepDescription": "Wager_Wager^1076_spacetop",
  "ProtocolName": "func_run-03_task-social_acq-ap-mb8",
  "PulseSequenceDetails": "%CustomerSeq%\\cmrr_mbep2d_bold",
  "ReceiveCoilActiveElements": "HEA;HEP",
  "ReceiveCoilName": "Head_32",
  "ReconMatrixPE": 82,
  "RepetitionTime": 0.46,
  "SAR": 0.0941432,
  "ScanOptions": "FS",
  "ScanningSequence": "EP",
  "SequenceName": "epfid2d1_82",
  "SequenceVariant": "SK\\SS",
  "SeriesDescription": "func_run-03_task-social_acq-ap-mb8",
  "SeriesNumber": 16,
  "ShimSetting": [4141, -7793, -7246, 454, -31, -287, -23, 89],
  "SliceThickness": 2.7,
  "SliceTiming": [0, 0.2525, 0.0625, 0.315, 0.125, 0.3775, 0.1875, 0, 0.2525, 0.0625, 0.315, 0.125, 0.3775, 0.1875, 0, 0.2525, 0.0625, 0.315, 0.125, 0.3775, 0.1875, 0, 0.2525, 0.0625, 0.315, 0.125, 0.3775, 0.1875, 0, 0.2525, 0.0625, 0.315, 0.125, 0.3775, 0.1875, 0, 0.2525, 0.0625, 0.315, 0.125, 0.3775, 0.1875, 0, 0.2525, 0.0625, 0.315, 0.125, 0.3775, 0.1875, 0, 0.2525, 0.0625, 0.315, 0.125, 0.3775, 0.1875],
  "SoftwareVersions": "syngo MR E11",
  "SpacingBetweenSlices": 2.7,
  "StationName": "AWP66112",
  "TaskName": "social",
  "TotalReadoutTime": 0.03969,
  "TxRefAmp": 282.589,
  "WipMemBlock": "0b2ba0b1-abcf-4f57-9d74-4c5ead72045f||Sequence: R016 ve11e/master r/434b28f1; Aug  7 2019 18:53:46 by eja",
  "dcmmeta_affine": [
    [-2.679046869277954, -0.016833288595080376, -0.1441628336906433, 112.70991516113281],
    [-0.03573165461421013, 2.6589910984039307, 0.3580529987812042, -96.50149536132812],
    [-0.1397409290075302, -0.35718223452568054, 2.6722676753997803, -55.6845588684082],
    [0.0, 0.0, 0.0, 1.0]
],
  "dcmmeta_reorient_transform": [
    [0.0, -1.0, 0.0, 81.0],
    [1.0, 0.0, 0.0, 0.0],
    [0.0, 0.0, 1.0, 0.0],
    [0.0, 0.0, 0.0, 1.0]
],
  "dcmmeta_shape": [82, 82, 56, 872],
  "dcmmeta_slice_dim": 2,
  "dcmmeta_version": 0.6,
  "global": {
    "const": {
      "AccessionNumber": "A004031",
      "AcquisitionMatrix": [82, 0, 0, 82],
      "AngioFlag": "N",
      "BitsAllocated": 16,
      "BitsStored": 16,
      "BodyPartExamined": "BRAIN",
      "Columns": 656,
      "EchoNumbers": 1,
      "EchoTime": 27.2,
      "EchoTrainLength": 82,
      "FlipAngle": 44.0,
      "HighBit": 15,
      "ImageOrientationPatient": [0.99855383061643, 0.01331816117336, -0.0520852564956, -0.0062742257596, 0.99107851502196, 0.13313155581224],
      "ImagePositionPatient": [-875.4017322535, -892.26225122292, -147.02197037983],
      "ImageType": [
        "ORIGINAL",
        "PRIMARY",
        "M",
        "MB",
        "ND",
        "NORM",
        "MOSAIC"
],
      "ImagedNucleus": "1H",
      "ImagingFrequency": 123.252287,
      "InPlanePhaseEncodingDirection": "COL",
      "MRAcquisitionType": "2D",
      "MagneticFieldStrength": 3.0,
      "Manufacturer": "SIEMENS",
      "ManufacturerModelName": "Prisma",
      "Modality": "MR",
      "NumberOfAverages": 1.0,
      "NumberOfPhaseEncodingSteps": 82,
      "PercentPhaseFieldOfView": 100.0,
      "PercentSampling": 100.0,
      "PerformedProcedureStepStartTime": "120034.693000",
      "PhotometricInterpretation": "MONOCHROME2",
      "PixelBandwidth": 3050.0,
      "PixelRepresentation": 0,
      "PixelSpacing": [2.6829268932343, 2.6829268932343],
      "ProtocolName": "func_run-03_task-social_acq-ap-mb8",
      "RepetitionTime": 460.0,
      "Rows": 656,
      "SAR": 0.09414324154427,
      "SamplesPerPixel": 1,
      "ScanOptions": "FS",
      "ScanningSequence": "EP",
      "SequenceName": "epfid2d1_82",
      "SequenceVariant": [
        "SK",
        "SS"
],
      "SeriesDescription": "func_run-03_task-social_acq-ap-mb8",
      "SeriesNumber": 16,
      "SeriesTime": "125618.575000",
      "SliceLocation": -73.927882750245,
      "SliceThickness": 2.7000000476837,
      "SmallestImagePixelValue": 0,
      "SoftwareVersions": "syngo MR E11",
      "SpacingBetweenSlices": 2.6999999217516,
      "SpecificCharacterSet": "ISO_IR 100",
      "StudyID": "2",
      "StudyTime": "120034.642000",
      "TransmitCoilName": "Body",
      "VariableFlipAngleFlag": "N",
      "WindowCenterWidthExplanation": "Algo1"
    },
    "slices": {}
  },
  "time": {
    "samples": {
      "AcquisitionNumber": [1, 2, 3, 4, 5, 6, 7, 8, 9, 10, 11, 12, 13, 14, 15, 16, 17, 18, 19, 20, 21, 22, 23, 24, 25, 26, 27, 28, 29, 30, 31, 32, 33, 34, 35, 36, 37, 38, 39, 40, 41, 42, 43, 44, 45, 46, 47, 48, 49, 50, 51, 52, 53, 54, 55, 56, 57, 58, 59, 60, 61, 62, 63, 64, 65, 66, 67, 68, 69, 70, 71, 72, 73, 74, 75, 76, 77, 78, 79, 80, 81, 82, 83, 84, 85, 86, 87, 88, 89, 90, 91, 92, 93, 94, 95, 96, 97, 98, 99, 100, 101, 102, 103, 104, 105, 106, 107, 108, 109, 110, 111, 112, 113, 114, 115, 116, 117, 118, 119, 120, 121, 122, 123, 124, 125, 126, 127, 128, 129, 130, 131, 132, 133, 134, 135, 136, 137, 138, 139, 140, 141, 142, 143, 144, 145, 146, 147, 148, 149, 150, 151, 152, 153, 154, 155, 156, 157, 158, 159, 160, 161, 162, 163, 164, 165, 166, 167, 168, 169, 170, 171, 172, 173, 174, 175, 176, 177, 178, 179, 180, 181, 182, 183, 184, 185, 186, 187, 188, 189, 190, 191, 192, 193, 194, 195, 196, 197, 198, 199, 200, 201, 202, 203, 204, 205, 206, 207, 208, 209, 210, 211, 212, 213, 214, 215, 216, 217, 218, 219, 220, 221, 222, 223, 224, 225, 226, 227, 228, 229, 230, 231, 232, 233, 234, 235, 236, 237, 238, 239, 240, 241, 242, 243, 244, 245, 246, 247, 248, 249, 250, 251, 252, 253, 254, 255, 256, 257, 258, 259, 260, 261, 262, 263, 264, 265, 266, 267, 268, 269, 270, 271, 272, 273, 274, 275, 276, 277, 278, 279, 280, 281, 282, 283, 284, 285, 286, 287, 288, 289, 290, 291, 292, 293, 294, 295, 296, 297, 298, 299, 300, 301, 302, 303, 304, 305, 306, 307, 308, 309, 310, 311, 312, 313, 314, 315, 316, 317, 318, 319, 320, 321, 322, 323, 324, 325, 326, 327, 328, 329, 330, 331, 332, 333, 334, 335, 336, 337, 338, 339, 340, 341, 342, 343, 344, 345, 346, 347, 348, 349, 350, 351, 352, 353, 354, 355, 356, 357, 358, 359, 360, 361, 362, 363, 364, 365, 366, 367, 368, 369, 370, 371, 372, 373, 374, 375, 376, 377, 378, 379, 380, 381, 382, 383, 384, 385, 386, 387, 388, 389, 390, 391, 392, 393, 394, 395, 396, 397, 398, 399, 400, 401, 402, 403, 404, 405, 406, 407, 408, 409, 410, 411, 412, 413, 414, 415, 416, 417, 418, 419, 420, 421, 422, 423, 424, 425, 426, 427, 428, 429, 430, 431, 432, 433, 434, 435, 436, 437, 438, 439, 440, 441, 442, 443, 444, 445, 446, 447, 448, 449, 450, 451, 452, 453, 454, 455, 456, 457, 458, 459, 460, 461, 462, 463, 464, 465, 466, 467, 468, 469, 470, 471, 472, 473, 474, 475, 476, 477, 478, 479, 480, 481, 482, 483, 484, 485, 486, 487, 488, 489, 490, 491, 492, 493, 494, 495, 496, 497, 498, 499, 500, 501, 502, 503, 504, 505, 506, 507, 508, 509, 510, 511, 512, 513, 514, 515, 516, 517, 518, 519, 520, 521, 522, 523, 524, 525, 526, 527, 528, 529, 530, 531, 532, 533, 534, 535, 536, 537, 538, 539, 540, 541, 542, 543, 544, 545, 546, 547, 548, 549, 550, 551, 552, 553, 554, 555, 556, 557, 558, 559, 560, 561, 562, 563, 564, 565, 566, 567, 568, 569, 570, 571, 572, 573, 574, 575, 576, 577, 578, 579, 580, 581, 582, 583, 584, 585, 586, 587, 588, 589, 590, 591, 592, 593, 594, 595, 596, 597, 598, 599, 600, 601, 602, 603, 604, 605, 606, 607, 608, 609, 610, 611, 612, 613, 614, 615, 616, 617, 618, 619, 620, 621, 622, 623, 624, 625, 626, 627, 628, 629, 630, 631, 632, 633, 634, 635, 636, 637, 638, 639, 640, 641, 642, 643, 644, 645, 646, 647, 648, 649, 650, 651, 652, 653, 654, 655, 656, 657, 658, 659, 660, 661, 662, 663, 664, 665, 666, 667, 668, 669, 670, 671, 672, 673, 674, 675, 676, 677, 678, 679, 680, 681, 682, 683, 684, 685, 686, 687, 688, 689, 690, 691, 692, 693, 694, 695, 696, 697, 698, 699, 700, 701, 702, 703, 704, 705, 706, 707, 708, 709, 710, 711, 712, 713, 714, 715, 716, 717, 718, 719, 720, 721, 722, 723, 724, 725, 726, 727, 728, 729, 730, 731, 732, 733, 734, 735, 736, 737, 738, 739, 740, 741, 742, 743, 744, 745, 746, 747, 748, 749, 750, 751, 752, 753, 754, 755, 756, 757, 758, 759, 760, 761, 762, 763, 764, 765, 766, 767, 768, 769, 770, 771, 772, 773, 774, 775, 776, 777, 778, 779, 780, 781, 782, 783, 784, 785, 786, 787, 788, 789, 790, 791, 792, 793, 794, 795, 796, 797, 798, 799, 800, 801, 802, 803, 804, 805, 806, 807, 808, 809, 810, 811, 812, 813, 814, 815, 816, 817, 818, 819, 820, 821, 822, 823, 824, 825, 826, 827, 828, 829, 830, 831, 832, 833, 834, 835, 836, 837, 838, 839, 840, 841, 842, 843, 844, 845, 846, 847, 848, 849, 850, 851, 852, 853, 854, 855, 856, 857, 858, 859, 860, 861, 862, 863, 864, 865, 866, 867, 868, 869, 870, 871, 872],
      "AcquisitionTime": ["125602.487500", "125602.947500", "125603.407500", "125603.867500", "125604.327500", "125604.787500", "125605.247500", "125605.707500", "125606.167500", "125606.627500", "125607.087500", "125607.547500", "125608.007500", "125608.467500", "125608.927500", "125609.387500", "125609.847500", "125610.307500", "125610.767500", "125611.227500", "125611.687500", "125612.147500", "125612.607500", "125613.067500", "125613.527500", "125613.987500", "125614.447500", "125614.907500", "125615.367500", "125615.827500", "125616.287500", "125616.747500", "125617.207500", "125617.667500", "125618.127500", "125618.587500", "125619.047500", "125619.507500", "125619.967500", "125620.427500", "125620.887500", "125621.347500", "125621.807500", "125622.267500", "125622.727500", "125623.187500", "125623.647500", "125624.107500", "125624.567500", "125625.027500", "125625.487500", "125625.947500", "125626.407500", "125626.867500", "125627.327500", "125627.787500", "125628.247500", "125628.707500", "125629.167500", "125629.627500", "125630.087500", "125630.547500", "125631.007500", "125631.467500", "125631.927500", "125632.387500", "125632.847500", "125633.307500", "125633.767500", "125634.227500", "125634.687500", "125635.147500", "125635.607500", "125636.067500", "125636.527500", "125636.987500", "125637.447500", "125637.907500", "125638.367500", "125638.827500", "125639.287500", "125639.747500", "125640.207500", "125640.667500", "125641.127500", "125641.587500", "125642.047500", "125642.507500", "125642.967500", "125643.427500", "125643.887500", "125644.347500", "125644.807500", "125645.267500", "125645.727500", "125646.187500", "125646.647500", "125647.107500", "125647.567500", "125648.027500", "125648.487500", "125648.947500", "125649.407500", "125649.867500", "125650.327500", "125650.787500", "125651.247500", "125651.707500", "125652.167500", "125652.627500", "125653.087500", "125653.547500", "125654.007500", "125654.467500", "125654.927500", "125655.387500", "125655.847500", "125656.307500", "125656.767500", "125657.227500", "125657.687500", "125658.147500", "125658.607500", "125659.067500", "125659.527500", "125659.987500", "125700.447500", "125700.907500", "125701.367500", "125701.827500", "125702.287500", "125702.747500", "125703.207500", "125703.667500", "125704.127500", "125704.587500", "125705.047500", "125705.507500", "125705.967500", "125706.427500", "125706.887500", "125707.347500", "125707.807500", "125708.267500", "125708.727500", "125709.187500", "125709.647500", "125710.107500", "125710.567500", "125711.027500", "125711.487500", "125711.947500", "125712.407500", "125712.867500", "125713.327500", "125713.787500", "125714.247500", "125714.707500", "125715.167500", "125715.627500", "125716.087500", "125716.547500", "125717.007500", "125717.467500", "125717.927500", "125718.387500", "125718.847500", "125719.307500", "125719.767500", "125720.227500", "125720.687500", "125721.147500", "125721.607500", "125722.067500", "125722.527500", "125722.987500", "125723.447500", "125723.907500", "125724.367500", "125724.827500", "125725.287500", "125725.747500", "125726.207500", "125726.667500", "125727.127500", "125727.587500", "125728.047500", "125728.507500", "125728.967500", "125729.427500", "125729.887500", "125730.347500", "125730.807500", "125731.267500", "125731.727500", "125732.187500", "125732.647500", "125733.107500", "125733.567500", "125734.027500", "125734.487500", "125734.947500", "125735.407500", "125735.867500", "125736.327500", "125736.787500", "125737.247500", "125737.707500", "125738.167500", "125738.627500", "125739.087500", "125739.547500", "125740.007500", "125740.467500", "125740.927500", "125741.387500", "125741.847500", "125742.307500", "125742.767500", "125743.227500", "125743.687500", "125744.147500", "125744.607500", "125745.067500", "125745.527500", "125745.987500", "125746.447500", "125746.907500", "125747.367500", "125747.827500", "125748.287500", "125748.747500", "125749.207500", "125749.667500", "125750.127500", "125750.587500", "125751.047500", "125751.507500", "125751.967500", "125752.427500", "125752.887500", "125753.347500", "125753.807500", "125754.267500", "125754.727500", "125755.187500", "125755.647500", "125756.107500", "125756.567500", "125757.027500", "125757.487500", "125757.947500", "125758.407500", "125758.867500", "125759.327500", "125759.787500", "125800.247500", "125800.707500", "125801.167500", "125801.627500", "125802.087500", "125802.547500", "125803.007500", "125803.467500", "125803.927500", "125804.387500", "125804.847500", "125805.307500", "125805.767500", "125806.227500", "125806.687500", "125807.147500", "125807.607500", "125808.067500", "125808.527500", "125808.987500", "125809.447500", "125809.907500", "125810.367500", "125810.827500", "125811.287500", "125811.747500", "125812.207500", "125812.667500", "125813.127500", "125813.587500", "125814.047500", "125814.507500", "125814.967500", "125815.427500", "125815.887500", "125816.347500", "125816.807500", "125817.267500", "125817.727500", "125818.187500", "125818.647500", "125819.107500", "125819.567500", "125820.027500", "125820.487500", "125820.947500", "125821.407500", "125821.867500", "125822.327500", "125822.787500", "125823.247500", "125823.707500", "125824.167500", "125824.627500", "125825.087500", "125825.547500", "125826.007500", "125826.467500", "125826.927500", "125827.387500", "125827.847500", "125828.307500", "125828.767500", "125829.227500", "125829.687500", "125830.147500", "125830.607500", "125831.067500", "125831.527500", "125831.987500", "125832.447500", "125832.907500", "125833.367500", "125833.827500", "125834.287500", "125834.747500", "125835.207500", "125835.667500", "125836.127500", "125836.587500", "125837.047500", "125837.507500", "125837.967500", "125838.427500", "125838.887500", "125839.347500", "125839.807500", "125840.267500", "125840.727500", "125841.187500", "125841.647500", "125842.107500", "125842.567500", "125843.027500", "125843.487500", "125843.947500", "125844.407500", "125844.867500", "125845.327500", "125845.787500", "125846.247500", "125846.707500", "125847.167500", "125847.627500", "125848.087500", "125848.547500", "125849.007500", "125849.467500", "125849.927500", "125850.387500", "125850.847500", "125851.307500", "125851.767500", "125852.227500", "125852.687500", "125853.147500", "125853.607500", "125854.067500", "125854.527500", "125854.987500", "125855.447500", "125855.907500", "125856.367500", "125856.827500", "125857.287500", "125857.747500", "125858.207500", "125858.667500", "125859.127500", "125859.587500", "125900.047500", "125900.507500", "125900.967500", "125901.427500", "125901.887500", "125902.347500", "125902.807500", "125903.267500", "125903.727500", "125904.187500", "125904.647500", "125905.107500", "125905.567500", "125906.027500", "125906.487500", "125906.947500", "125907.407500", "125907.867500", "125908.327500", "125908.787500", "125909.247500", "125909.707500", "125910.167500", "125910.627500", "125911.087500", "125911.547500", "125912.007500", "125912.467500", "125912.927500", "125913.387500", "125913.847500", "125914.307500", "125914.767500", "125915.227500", "125915.687500", "125916.147500", "125916.607500", "125917.067500", "125917.527500", "125917.987500", "125918.447500", "125918.907500", "125919.367500", "125919.827500", "125920.287500", "125920.747500", "125921.207500", "125921.667500", "125922.127500", "125922.587500", "125923.047500", "125923.507500", "125923.967500", "125924.427500", "125924.887500", "125925.347500", "125925.807500", "125926.267500", "125926.727500", "125927.187500", "125927.647500", "125928.107500", "125928.567500", "125929.027500", "125929.487500", "125929.947500", "125930.407500", "125930.867500", "125931.327500", "125931.787500", "125932.247500", "125932.707500", "125933.167500", "125933.627500", "125934.087500", "125934.547500", "125935.007500", "125935.467500", "125935.927500", "125936.387500", "125936.847500", "125937.307500", "125937.767500", "125938.227500", "125938.687500", "125939.147500", "125939.607500", "125940.067500", "125940.527500", "125940.987500", "125941.447500", "125941.907500", "125942.367500", "125942.827500", "125943.287500", "125943.747500", "125944.207500", "125944.667500", "125945.127500", "125945.587500", "125946.047500", "125946.507500", "125946.967500", "125947.427500", "125947.887500", "125948.347500", "125948.807500", "125949.267500", "125949.727500", "125950.187500", "125950.647500", "125951.107500", "125951.567500", "125952.027500", "125952.487500", "125952.947500", "125953.407500", "125953.867500", "125954.327500", "125954.787500", "125955.247500", "125955.707500", "125956.167500", "125956.627500", "125957.087500", "125957.547500", "125958.007500", "125958.467500", "125958.927500", "125959.387500", "125959.847500", "130000.307500", "130000.767500", "130001.227500", "130001.687500", "130002.147500", "130002.607500", "130003.067500", "130003.527500", "130003.987500", "130004.447500", "130004.907500", "130005.367500", "130005.827500", "130006.287500", "130006.747500", "130007.207500", "130007.667500", "130008.127500", "130008.587500", "130009.047500", "130009.507500", "130009.967500", "130010.427500", "130010.887500", "130011.347500", "130011.807500", "130012.267500", "130012.727500", "130013.187500", "130013.647500", "130014.107500", "130014.567500", "130015.027500", "130015.487500", "130015.947500", "130016.407500", "130016.867500", "130017.327500", "130017.787500", "130018.247500", "130018.707500", "130019.167500", "130019.627500", "130020.087500", "130020.547500", "130021.007500", "130021.467500", "130021.927500", "130022.387500", "130022.847500", "130023.307500", "130023.767500", "130024.227500", "130024.687500", "130025.147500", "130025.607500", "130026.067500", "130026.527500", "130026.987500", "130027.447500", "130027.907500", "130028.367500", "130028.827500", "130029.287500", "130029.747500", "130030.207500", "130030.667500", "130031.127500", "130031.587500", "130032.047500", "130032.507500", "130032.967500", "130033.427500", "130033.887500", "130034.347500", "130034.807500", "130035.267500", "130035.727500", "130036.187500", "130036.647500", "130037.107500", "130037.567500", "130038.027500", "130038.487500", "130038.947500", "130039.407500", "130039.867500", "130040.327500", "130040.787500", "130041.247500", "130041.707500", "130042.167500", "130042.627500", "130043.087500", "130043.547500", "130044.007500", "130044.467500", "130044.927500", "130045.387500", "130045.847500", "130046.307500", "130046.767500", "130047.227500", "130047.687500", "130048.147500", "130048.607500", "130049.067500", "130049.527500", "130049.987500", "130050.447500", "130050.907500", "130051.367500", "130051.827500", "130052.287500", "130052.747500", "130053.207500", "130053.667500", "130054.127500", "130054.587500", "130055.047500", "130055.507500", "130055.967500", "130056.427500", "130056.887500", "130057.347500", "130057.807500", "130058.267500", "130058.727500", "130059.187500", "130059.647500", "130100.107500", "130100.567500", "130101.027500", "130101.487500", "130101.947500", "130102.407500", "130102.867500", "130103.327500", "130103.787500", "130104.247500", "130104.707500", "130105.167500", "130105.627500", "130106.087500", "130106.547500", "130107.007500", "130107.467500", "130107.927500", "130108.387500", "130108.847500", "130109.307500", "130109.767500", "130110.227500", "130110.687500", "130111.147500", "130111.607500", "130112.067500", "130112.527500", "130112.987500", "130113.447500", "130113.907500", "130114.367500", "130114.827500", "130115.287500", "130115.747500", "130116.207500", "130116.667500", "130117.127500", "130117.587500", "130118.047500", "130118.507500", "130118.967500", "130119.427500", "130119.887500", "130120.347500", "130120.807500", "130121.267500", "130121.727500", "130122.187500", "130122.647500", "130123.107500", "130123.567500", "130124.027500", "130124.487500", "130124.947500", "130125.407500", "130125.867500", "130126.327500", "130126.787500", "130127.247500", "130127.707500", "130128.167500", "130128.627500", "130129.087500", "130129.547500", "130130.007500", "130130.467500", "130130.927500", "130131.387500", "130131.847500", "130132.307500", "130132.767500", "130133.227500", "130133.687500", "130134.147500", "130134.607500", "130135.067500", "130135.527500", "130135.987500", "130136.447500", "130136.907500", "130137.367500", "130137.827500", "130138.287500", "130138.747500", "130139.207500", "130139.667500", "130140.127500", "130140.587500", "130141.047500", "130141.507500", "130141.967500", "130142.427500", "130142.887500", "130143.347500", "130143.807500", "130144.267500", "130144.727500", "130145.187500", "130145.647500", "130146.107500", "130146.567500", "130147.027500", "130147.487500", "130147.947500", "130148.407500", "130148.867500", "130149.327500", "130149.787500", "130150.247500", "130150.707500", "130151.167500", "130151.627500", "130152.087500", "130152.547500", "130153.007500", "130153.467500", "130153.927500", "130154.387500", "130154.847500", "130155.307500", "130155.767500", "130156.227500", "130156.687500", "130157.147500", "130157.607500", "130158.067500", "130158.527500", "130158.987500", "130159.447500", "130159.907500", "130200.367500", "130200.827500", "130201.287500", "130201.747500", "130202.207500", "130202.667500", "130203.127500", "130203.587500", "130204.047500", "130204.507500", "130204.967500", "130205.427500", "130205.887500", "130206.347500", "130206.807500", "130207.267500", "130207.727500", "130208.187500", "130208.647500", "130209.107500", "130209.567500", "130210.027500", "130210.487500", "130210.947500", "130211.407500", "130211.867500", "130212.327500", "130212.787500", "130213.247500", "130213.707500", "130214.167500", "130214.627500", "130215.087500", "130215.547500", "130216.007500", "130216.467500", "130216.927500", "130217.387500", "130217.847500", "130218.307500", "130218.767500", "130219.227500", "130219.687500", "130220.147500", "130220.607500", "130221.067500", "130221.527500", "130221.987500", "130222.447500", "130222.907500", "130223.367500", "130223.827500", "130224.287500", "130224.747500", "130225.207500", "130225.667500", "130226.127500", "130226.587500", "130227.047500", "130227.507500", "130227.967500", "130228.427500", "130228.887500", "130229.347500", "130229.807500", "130230.267500", "130230.727500", "130231.187500", "130231.647500", "130232.107500", "130232.567500", "130233.027500", "130233.487500", "130233.947500", "130234.407500", "130234.867500", "130235.327500", "130235.787500", "130236.247500", "130236.707500", "130237.167500", "130237.627500", "130238.087500", "130238.547500", "130239.007500", "130239.467500", "130239.927500", "130240.387500", "130240.847500", "130241.307500", "130241.767500", "130242.227500", "130242.687500", "130243.147500"],
