{
  "AcquisitionMatrixPE": 82,
  "AcquisitionNumber": 1,
  "AcquisitionTime": "16:25:23.070000",
  "BandwidthPerPixelPhaseEncode": 24.888,
  "BaseResolution": 82,
  "BodyPartExamined": "BRAIN",
  "ConsistencyInfo": "N4_VE11E_LATEST_20181129",
  "ConversionSoftware": "dcm2niix",
  "ConversionSoftwareVersion": "v1.0.20201102",
  "DerivedVendorReportedEchoSpacing": 0.00049,
  "DeviceSerialNumber": "66112",
  "DwellTime": 2e-06,
  "EchoTime": 0.0272,
  "EchoTrainLength": 82,
  "EffectiveEchoSpacing": 0.00049,
  "FlipAngle": 44,
  "ImageComments": "Unaliased MB8/PE3",
  "ImageOrientationPatientDICOM": [0.997306, 0.0328033, -0.0656152, -0.0294251, 0.998224, 0.0518058],
  "ImageType": [
    "ORIGINAL",
    "PRIMARY",
    "M",
    "MB",
    "ND",
    "NORM",
    "MOSAIC"
],
  "ImagingFrequency": 123.252,
  "InPlanePhaseEncodingDirectionDICOM": "COL",
  "InstitutionAddress": "Maynard 3,Hanover,NH,US,03755",
  "InstitutionName": "Dartmouth College - PBS",
  "InstitutionalDepartmentName": "Department",
  "MRAcquisitionType": "2D",
  "MagneticFieldStrength": 3,
  "Manufacturer": "Siemens",
  "ManufacturersModelName": "Prisma",
  "Modality": "MR",
  "MultibandAccelerationFactor": 8,
  "PartialFourier": 1,
  "PatientPosition": "HFS",
  "PercentPhaseFOV": 100,
  "PercentSampling": 100,
  "PhaseEncodingDirection": "j-",
  "PhaseEncodingSteps": 82,
  "PhaseResolution": 1,
  "PixelBandwidth": 3050,
  "ProcedureStepDescription": "Wager_Wager^1076_spacetop",
  "ProtocolName": "func_run-01_task-social_acq-ap-mb8",
  "PulseSequenceDetails": "%CustomerSeq%\\cmrr_mbep2d_bold",
  "ReceiveCoilActiveElements": "HEA;HEP",
  "ReceiveCoilName": "Head_32",
  "ReconMatrixPE": 82,
  "RepetitionTime": 0.46,
  "SAR": 0.0908842,
  "ScanOptions": "FS",
  "ScanningSequence": "EP",
  "SequenceName": "epfid2d1_82",
  "SequenceVariant": "SK\\SS",
  "SeriesDescription": "func_run-01_task-social_acq-ap-mb8",
  "SeriesNumber": 12,
  "ShimSetting": [4135, -7729, -7260, 506, -2, -14, -14, 89],
  "SliceThickness": 2.7,
  "SliceTiming": [0, 0.2525, 0.0625, 0.315, 0.125, 0.3775, 0.19, 0, 0.2525, 0.0625, 0.315, 0.125, 0.3775, 0.19, 0, 0.2525, 0.0625, 0.315, 0.125, 0.3775, 0.19, 0, 0.2525, 0.0625, 0.315, 0.125, 0.3775, 0.19, 0, 0.2525, 0.0625, 0.315, 0.125, 0.3775, 0.19, 0, 0.2525, 0.0625, 0.315, 0.125, 0.3775, 0.19, 0, 0.2525, 0.0625, 0.315, 0.125, 0.3775, 0.19, 0, 0.2525, 0.0625, 0.315, 0.125, 0.3775, 0.19],
  "SoftwareVersions": "syngo MR E11",
  "SpacingBetweenSlices": 2.7,
  "StationName": "AWP66112",
  "TaskName": "social",
  "TotalReadoutTime": 0.03969,
  "TxRefAmp": 252.486,
  "WipMemBlock": "4daedc54-6e9e-4dd4-934a-0408d18ed7ab||Sequence: R016 ve11e/master r/434b28f1; Aug  7 2019 18:53:46 by eja",
  "dcmmeta_affine": [
    [-2.6756982803344727, -0.07894536107778549, -0.18143460154533386, 119.7489242553711],
    [-0.08800892531871796, 2.6781609058380127, 0.13428576290607452, -84.38846588134766],
    [-0.1760406792163849, -0.13899113237857819, 2.6905479431152344, -49.39563751220703],
    [0.0, 0.0, 0.0, 1.0]
],
  "dcmmeta_reorient_transform": [
    [0.0, -1.0, 0.0, 81.0],
    [1.0, 0.0, 0.0, 0.0],
    [0.0, 0.0, 1.0, 0.0],
    [0.0, 0.0, 0.0, 1.0]
],
  "dcmmeta_shape": [82, 82, 56, 872],
  "dcmmeta_slice_dim": 2,
  "dcmmeta_version": 0.6,
  "global": {
    "const": {
      "AccessionNumber": "A003958",
      "AcquisitionMatrix": [82, 0, 0, 82],
      "AngioFlag": "N",
      "BitsAllocated": 16,
      "BitsStored": 16,
      "BodyPartExamined": "BRAIN",
      "Columns": 656,
      "EchoNumbers": 1,
      "EchoTime": 27.2,
      "EchoTrainLength": 82,
      "FlipAngle": 44.0,
      "HighBit": 15,
      "ImageOrientationPatient": [0.99730566669231, 0.03280332455349, -0.0656151589318, -0.0294250885238, 0.99822358467135, 0.05180578318342],
      "ImagePositionPatient": [-858.62241269199, -926.43330608927, -50.020699796286],
      "ImageType": [
        "ORIGINAL",
        "PRIMARY",
        "M",
        "MB",
        "ND",
        "NORM",
        "MOSAIC"
],
      "ImagedNucleus": "1H",
      "ImagingFrequency": 123.252199,
      "InPlanePhaseEncodingDirection": "COL",
      "MRAcquisitionType": "2D",
      "MagneticFieldStrength": 3.0,
      "Manufacturer": "SIEMENS",
      "ManufacturerModelName": "Prisma",
      "Modality": "MR",
      "NumberOfAverages": 1.0,
      "NumberOfPhaseEncodingSteps": 82,
      "PercentPhaseFieldOfView": 100.0,
      "PercentSampling": 100.0,
      "PerformedProcedureStepStartTime": "155352.276000",
      "PhotometricInterpretation": "MONOCHROME2",
      "PixelBandwidth": 3050.0,
      "PixelRepresentation": 0,
      "PixelSpacing": [2.6829268932343, 2.6829268932343],
      "ProtocolName": "func_run-01_task-social_acq-ap-mb8",
      "RepetitionTime": 460.0,
      "Rows": 656,
      "SAR": 0.09088423606807,
      "SamplesPerPixel": 1,
      "ScanOptions": "FS",
      "ScanningSequence": "EP",
      "SequenceName": "epfid2d1_82",
      "SequenceVariant": [
        "SK",
        "SS"
],
      "SeriesDescription": "func_run-01_task-social_acq-ap-mb8",
      "SeriesNumber": 12,
      "SeriesTime": "162550.818000",
      "SliceLocation": -61.466705831017,
      "SliceThickness": 2.7000000476837,
      "SmallestImagePixelValue": 0,
      "SoftwareVersions": "syngo MR E11",
      "SpacingBetweenSlices": 2.6999999611287,
      "SpecificCharacterSet": "ISO_IR 100",
      "StudyID": "2",
      "StudyTime": "155352.227000",
      "TransmitCoilName": "Body",
      "VariableFlipAngleFlag": "N",
      "WindowCenterWidthExplanation": "Algo1"
    },
    "slices": {}
  },
  "time": {
    "samples": {
      "AcquisitionNumber": [1, 2, 3, 4, 5, 6, 7, 8, 9, 10, 11, 12, 13, 14, 15, 16, 17, 18, 19, 20, 21, 22, 23, 24, 25, 26, 27, 28, 29, 30, 31, 32, 33, 34, 35, 36, 37, 38, 39, 40, 41, 42, 43, 44, 45, 46, 47, 48, 49, 50, 51, 52, 53, 54, 55, 56, 57, 58, 59, 60, 61, 62, 63, 64, 65, 66, 67, 68, 69, 70, 71, 72, 73, 74, 75, 76, 77, 78, 79, 80, 81, 82, 83, 84, 85, 86, 87, 88, 89, 90, 91, 92, 93, 94, 95, 96, 97, 98, 99, 100, 101, 102, 103, 104, 105, 106, 107, 108, 109, 110, 111, 112, 113, 114, 115, 116, 117, 118, 119, 120, 121, 122, 123, 124, 125, 126, 127, 128, 129, 130, 131, 132, 133, 134, 135, 136, 137, 138, 139, 140, 141, 142, 143, 144, 145, 146, 147, 148, 149, 150, 151, 152, 153, 154, 155, 156, 157, 158, 159, 160, 161, 162, 163, 164, 165, 166, 167, 168, 169, 170, 171, 172, 173, 174, 175, 176, 177, 178, 179, 180, 181, 182, 183, 184, 185, 186, 187, 188, 189, 190, 191, 192, 193, 194, 195, 196, 197, 198, 199, 200, 201, 202, 203, 204, 205, 206, 207, 208, 209, 210, 211, 212, 213, 214, 215, 216, 217, 218, 219, 220, 221, 222, 223, 224, 225, 226, 227, 228, 229, 230, 231, 232, 233, 234, 235, 236, 237, 238, 239, 240, 241, 242, 243, 244, 245, 246, 247, 248, 249, 250, 251, 252, 253, 254, 255, 256, 257, 258, 259, 260, 261, 262, 263, 264, 265, 266, 267, 268, 269, 270, 271, 272, 273, 274, 275, 276, 277, 278, 279, 280, 281, 282, 283, 284, 285, 286, 287, 288, 289, 290, 291, 292, 293, 294, 295, 296, 297, 298, 299, 300, 301, 302, 303, 304, 305, 306, 307, 308, 309, 310, 311, 312, 313, 314, 315, 316, 317, 318, 319, 320, 321, 322, 323, 324, 325, 326, 327, 328, 329, 330, 331, 332, 333, 334, 335, 336, 337, 338, 339, 340, 341, 342, 343, 344, 345, 346, 347, 348, 349, 350, 351, 352, 353, 354, 355, 356, 357, 358, 359, 360, 361, 362, 363, 364, 365, 366, 367, 368, 369, 370, 371, 372, 373, 374, 375, 376, 377, 378, 379, 380, 381, 382, 383, 384, 385, 386, 387, 388, 389, 390, 391, 392, 393, 394, 395, 396, 397, 398, 399, 400, 401, 402, 403, 404, 405, 406, 407, 408, 409, 410, 411, 412, 413, 414, 415, 416, 417, 418, 419, 420, 421, 422, 423, 424, 425, 426, 427, 428, 429, 430, 431, 432, 433, 434, 435, 436, 437, 438, 439, 440, 441, 442, 443, 444, 445, 446, 447, 448, 449, 450, 451, 452, 453, 454, 455, 456, 457, 458, 459, 460, 461, 462, 463, 464, 465, 466, 467, 468, 469, 470, 471, 472, 473, 474, 475, 476, 477, 478, 479, 480, 481, 482, 483, 484, 485, 486, 487, 488, 489, 490, 491, 492, 493, 494, 495, 496, 497, 498, 499, 500, 501, 502, 503, 504, 505, 506, 507, 508, 509, 510, 511, 512, 513, 514, 515, 516, 517, 518, 519, 520, 521, 522, 523, 524, 525, 526, 527, 528, 529, 530, 531, 532, 533, 534, 535, 536, 537, 538, 539, 540, 541, 542, 543, 544, 545, 546, 547, 548, 549, 550, 551, 552, 553, 554, 555, 556, 557, 558, 559, 560, 561, 562, 563, 564, 565, 566, 567, 568, 569, 570, 571, 572, 573, 574, 575, 576, 577, 578, 579, 580, 581, 582, 583, 584, 585, 586, 587, 588, 589, 590, 591, 592, 593, 594, 595, 596, 597, 598, 599, 600, 601, 602, 603, 604, 605, 606, 607, 608, 609, 610, 611, 612, 613, 614, 615, 616, 617, 618, 619, 620, 621, 622, 623, 624, 625, 626, 627, 628, 629, 630, 631, 632, 633, 634, 635, 636, 637, 638, 639, 640, 641, 642, 643, 644, 645, 646, 647, 648, 649, 650, 651, 652, 653, 654, 655, 656, 657, 658, 659, 660, 661, 662, 663, 664, 665, 666, 667, 668, 669, 670, 671, 672, 673, 674, 675, 676, 677, 678, 679, 680, 681, 682, 683, 684, 685, 686, 687, 688, 689, 690, 691, 692, 693, 694, 695, 696, 697, 698, 699, 700, 701, 702, 703, 704, 705, 706, 707, 708, 709, 710, 711, 712, 713, 714, 715, 716, 717, 718, 719, 720, 721, 722, 723, 724, 725, 726, 727, 728, 729, 730, 731, 732, 733, 734, 735, 736, 737, 738, 739, 740, 741, 742, 743, 744, 745, 746, 747, 748, 749, 750, 751, 752, 753, 754, 755, 756, 757, 758, 759, 760, 761, 762, 763, 764, 765, 766, 767, 768, 769, 770, 771, 772, 773, 774, 775, 776, 777, 778, 779, 780, 781, 782, 783, 784, 785, 786, 787, 788, 789, 790, 791, 792, 793, 794, 795, 796, 797, 798, 799, 800, 801, 802, 803, 804, 805, 806, 807, 808, 809, 810, 811, 812, 813, 814, 815, 816, 817, 818, 819, 820, 821, 822, 823, 824, 825, 826, 827, 828, 829, 830, 831, 832, 833, 834, 835, 836, 837, 838, 839, 840, 841, 842, 843, 844, 845, 846, 847, 848, 849, 850, 851, 852, 853, 854, 855, 856, 857, 858, 859, 860, 861, 862, 863, 864, 865, 866, 867, 868, 869, 870, 871, 872],
      "AcquisitionTime": ["162523.070000", "162523.530000", "162523.990000", "162524.450000", "162524.910000", "162525.370000", "162525.830000", "162526.290000", "162526.750000", "162527.210000", "162527.670000", "162528.130000", "162528.590000", "162529.050000", "162529.510000", "162529.970000", "162530.430000", "162530.890000", "162531.350000", "162531.810000", "162532.270000", "162532.730000", "162533.190000", "162533.650000", "162534.110000", "162534.570000", "162535.030000", "162535.490000", "162535.950000", "162536.410000", "162536.870000", "162537.330000", "162537.790000", "162538.250000", "162538.710000", "162539.170000", "162539.630000", "162540.090000", "162540.550000", "162541.010000", "162541.470000", "162541.930000", "162542.390000", "162542.850000", "162543.310000", "162543.770000", "162544.230000", "162544.690000", "162545.150000", "162545.610000", "162546.070000", "162546.530000", "162546.990000", "162547.450000", "162547.910000", "162548.370000", "162548.830000", "162549.290000", "162549.750000", "162550.210000", "162550.670000", "162551.130000", "162551.590000", "162552.050000", "162552.510000", "162552.970000", "162553.430000", "162553.890000", "162554.350000", "162554.810000", "162555.270000", "162555.730000", "162556.190000", "162556.650000", "162557.110000", "162557.570000", "162558.030000", "162558.490000", "162558.950000", "162559.410000", "162559.870000", "162600.330000", "162600.790000", "162601.250000", "162601.710000", "162602.170000", "162602.630000", "162603.090000", "162603.550000", "162604.010000", "162604.470000", "162604.930000", "162605.390000", "162605.850000", "162606.310000", "162606.770000", "162607.230000", "162607.690000", "162608.150000", "162608.610000", "162609.070000", "162609.530000", "162609.990000", "162610.450000", "162610.910000", "162611.370000", "162611.830000", "162612.290000", "162612.750000", "162613.210000", "162613.670000", "162614.130000", "162614.590000", "162615.050000", "162615.510000", "162615.970000", "162616.430000", "162616.890000", "162617.350000", "162617.810000", "162618.270000", "162618.730000", "162619.190000", "162619.650000", "162620.110000", "162620.570000", "162621.030000", "162621.490000", "162621.950000", "162622.410000", "162622.870000", "162623.330000", "162623.790000", "162624.250000", "162624.710000", "162625.170000", "162625.630000", "162626.090000", "162626.550000", "162627.010000", "162627.470000", "162627.930000", "162628.390000", "162628.850000", "162629.310000", "162629.770000", "162630.230000", "162630.690000", "162631.150000", "162631.610000", "162632.070000", "162632.530000", "162632.990000", "162633.450000", "162633.910000", "162634.370000", "162634.830000", "162635.290000", "162635.750000", "162636.210000", "162636.670000", "162637.130000", "162637.590000", "162638.050000", "162638.510000", "162638.970000", "162639.430000", "162639.890000", "162640.350000", "162640.810000", "162641.270000", "162641.730000", "162642.190000", "162642.650000", "162643.110000", "162643.570000", "162644.030000", "162644.490000", "162644.950000", "162645.410000", "162645.870000", "162646.330000", "162646.790000", "162647.250000", "162647.710000", "162648.170000", "162648.630000", "162649.090000", "162649.550000", "162650.010000", "162650.470000", "162650.930000", "162651.390000", "162651.850000", "162652.310000", "162652.770000", "162653.230000", "162653.690000", "162654.150000", "162654.610000", "162655.070000", "162655.530000", "162655.990000", "162656.450000", "162656.910000", "162657.370000", "162657.830000", "162658.290000", "162658.750000", "162659.210000", "162659.670000", "162700.130000", "162700.590000", "162701.050000", "162701.510000", "162701.970000", "162702.430000", "162702.890000", "162703.350000", "162703.810000", "162704.270000", "162704.730000", "162705.190000", "162705.650000", "162706.110000", "162706.570000", "162707.030000", "162707.490000", "162707.950000", "162708.410000", "162708.870000", "162709.330000", "162709.790000", "162710.250000", "162710.710000", "162711.170000", "162711.630000", "162712.090000", "162712.550000", "162713.010000", "162713.470000", "162713.930000", "162714.390000", "162714.850000", "162715.310000", "162715.770000", "162716.230000", "162716.690000", "162717.150000", "162717.610000", "162718.070000", "162718.530000", "162718.990000", "162719.450000", "162719.910000", "162720.370000", "162720.830000", "162721.290000", "162721.750000", "162722.210000", "162722.670000", "162723.130000", "162723.590000", "162724.050000", "162724.510000", "162724.970000", "162725.430000", "162725.890000", "162726.350000", "162726.810000", "162727.270000", "162727.730000", "162728.190000", "162728.650000", "162729.110000", "162729.570000", "162730.030000", "162730.490000", "162730.950000", "162731.410000", "162731.870000", "162732.330000", "162732.790000", "162733.250000", "162733.710000", "162734.170000", "162734.630000", "162735.090000", "162735.550000", "162736.010000", "162736.470000", "162736.930000", "162737.390000", "162737.850000", "162738.310000", "162738.770000", "162739.230000", "162739.690000", "162740.150000", "162740.610000", "162741.070000", "162741.530000", "162741.990000", "162742.450000", "162742.910000", "162743.370000", "162743.830000", "162744.290000", "162744.750000", "162745.210000", "162745.670000", "162746.130000", "162746.590000", "162747.050000", "162747.510000", "162747.970000", "162748.430000", "162748.890000", "162749.350000", "162749.810000", "162750.270000", "162750.730000", "162751.190000", "162751.650000", "162752.110000", "162752.570000", "162753.030000", "162753.490000", "162753.950000", "162754.410000", "162754.870000", "162755.330000", "162755.790000", "162756.250000", "162756.710000", "162757.170000", "162757.630000", "162758.090000", "162758.550000", "162759.010000", "162759.470000", "162759.930000", "162800.390000", "162800.850000", "162801.310000", "162801.770000", "162802.230000", "162802.690000", "162803.150000", "162803.610000", "162804.070000", "162804.530000", "162804.990000", "162805.450000", "162805.910000", "162806.370000", "162806.830000", "162807.290000", "162807.750000", "162808.210000", "162808.670000", "162809.130000", "162809.590000", "162810.050000", "162810.510000", "162810.970000", "162811.430000", "162811.890000", "162812.350000", "162812.810000", "162813.270000", "162813.730000", "162814.190000", "162814.650000", "162815.110000", "162815.570000", "162816.030000", "162816.490000", "162816.950000", "162817.410000", "162817.870000", "162818.330000", "162818.790000", "162819.250000", "162819.710000", "162820.170000", "162820.630000", "162821.090000", "162821.550000", "162822.010000", "162822.470000", "162822.930000", "162823.390000", "162823.850000", "162824.310000", "162824.770000", "162825.230000", "162825.690000", "162826.150000", "162826.610000", "162827.070000", "162827.530000", "162827.990000", "162828.450000", "162828.910000", "162829.370000", "162829.830000", "162830.290000", "162830.750000", "162831.210000", "162831.670000", "162832.130000", "162832.590000", "162833.050000", "162833.510000", "162833.970000", "162834.430000", "162834.890000", "162835.350000", "162835.810000", "162836.270000", "162836.730000", "162837.190000", "162837.650000", "162838.110000", "162838.570000", "162839.030000", "162839.490000", "162839.950000", "162840.410000", "162840.870000", "162841.330000", "162841.790000", "162842.250000", "162842.710000", "162843.170000", "162843.630000", "162844.090000", "162844.550000", "162845.010000", "162845.470000", "162845.930000", "162846.390000", "162846.850000", "162847.310000", "162847.770000", "162848.230000", "162848.690000", "162849.150000", "162849.610000", "162850.070000", "162850.530000", "162850.990000", "162851.450000", "162851.910000", "162852.370000", "162852.830000", "162853.290000", "162853.750000", "162854.210000", "162854.670000", "162855.130000", "162855.590000", "162856.050000", "162856.510000", "162856.970000", "162857.430000", "162857.890000", "162858.350000", "162858.810000", "162859.270000", "162859.730000", "162900.190000", "162900.650000", "162901.110000", "162901.570000", "162902.030000", "162902.490000", "162902.950000", "162903.410000", "162903.870000", "162904.330000", "162904.790000", "162905.250000", "162905.710000", "162906.170000", "162906.630000", "162907.090000", "162907.550000", "162908.010000", "162908.470000", "162908.930000", "162909.390000", "162909.850000", "162910.310000", "162910.770000", "162911.230000", "162911.690000", "162912.150000", "162912.610000", "162913.070000", "162913.530000", "162913.990000", "162914.450000", "162914.910000", "162915.370000", "162915.830000", "162916.290000", "162916.750000", "162917.210000", "162917.670000", "162918.130000", "162918.590000", "162919.050000", "162919.510000", "162919.970000", "162920.430000", "162920.890000", "162921.350000", "162921.810000", "162922.270000", "162922.730000", "162923.190000", "162923.650000", "162924.110000", "162924.570000", "162925.030000", "162925.490000", "162925.950000", "162926.410000", "162926.870000", "162927.330000", "162927.790000", "162928.250000", "162928.710000", "162929.170000", "162929.630000", "162930.090000", "162930.550000", "162931.010000", "162931.470000", "162931.930000", "162932.390000", "162932.850000", "162933.310000", "162933.770000", "162934.230000", "162934.690000", "162935.150000", "162935.610000", "162936.070000", "162936.530000", "162936.990000", "162937.450000", "162937.910000", "162938.370000", "162938.830000", "162939.290000", "162939.750000", "162940.210000", "162940.670000", "162941.130000", "162941.590000", "162942.050000", "162942.510000", "162942.970000", "162943.430000", "162943.890000", "162944.350000", "162944.810000", "162945.270000", "162945.730000", "162946.190000", "162946.650000", "162947.110000", "162947.570000", "162948.030000", "162948.490000", "162948.950000", "162949.410000", "162949.870000", "162950.330000", "162950.790000", "162951.250000", "162951.710000", "162952.170000", "162952.630000", "162953.090000", "162953.550000", "162954.010000", "162954.470000", "162954.930000", "162955.390000", "162955.850000", "162956.310000", "162956.770000", "162957.230000", "162957.690000", "162958.150000", "162958.610000", "162959.070000", "162959.530000", "162959.990000", "163000.450000", "163000.910000", "163001.370000", "163001.830000", "163002.290000", "163002.750000", "163003.210000", "163003.670000", "163004.130000", "163004.590000", "163005.050000", "163005.510000", "163005.970000", "163006.430000", "163006.890000", "163007.350000", "163007.810000", "163008.270000", "163008.730000", "163009.190000", "163009.650000", "163010.110000", "163010.570000", "163011.030000", "163011.490000", "163011.950000", "163012.410000", "163012.870000", "163013.330000", "163013.790000", "163014.250000", "163014.710000", "163015.170000", "163015.630000", "163016.090000", "163016.550000", "163017.010000", "163017.470000", "163017.930000", "163018.390000", "163018.850000", "163019.310000", "163019.770000", "163020.230000", "163020.690000", "163021.150000", "163021.610000", "163022.070000", "163022.530000", "163022.990000", "163023.450000", "163023.910000", "163024.370000", "163024.830000", "163025.290000", "163025.750000", "163026.210000", "163026.670000", "163027.130000", "163027.590000", "163028.050000", "163028.510000", "163028.970000", "163029.430000", "163029.890000", "163030.350000", "163030.810000", "163031.270000", "163031.730000", "163032.190000", "163032.650000", "163033.110000", "163033.570000", "163034.030000", "163034.490000", "163034.950000", "163035.410000", "163035.870000", "163036.330000", "163036.790000", "163037.250000", "163037.710000", "163038.170000", "163038.630000", "163039.090000", "163039.550000", "163040.010000", "163040.470000", "163040.930000", "163041.390000", "163041.850000", "163042.310000", "163042.770000", "163043.230000", "163043.690000", "163044.150000", "163044.610000", "163045.070000", "163045.530000", "163045.990000", "163046.450000", "163046.910000", "163047.370000", "163047.830000", "163048.290000", "163048.750000", "163049.210000", "163049.670000", "163050.130000", "163050.590000", "163051.050000", "163051.510000", "163051.970000", "163052.430000", "163052.890000", "163053.350000", "163053.810000", "163054.270000", "163054.730000", "163055.190000", "163055.650000", "163056.110000", "163056.570000", "163057.030000", "163057.490000", "163057.950000", "163058.410000", "163058.870000", "163059.330000", "163059.790000", "163100.250000", "163100.710000", "163101.170000", "163101.630000", "163102.090000", "163102.550000", "163103.010000", "163103.470000", "163103.930000", "163104.390000", "163104.850000", "163105.310000", "163105.770000", "163106.230000", "163106.690000", "163107.150000", "163107.610000", "163108.070000", "163108.530000", "163108.990000", "163109.450000", "163109.910000", "163110.370000", "163110.830000", "163111.290000", "163111.750000", "163112.210000", "163112.670000", "163113.130000", "163113.590000", "163114.050000", "163114.510000", "163114.970000", "163115.430000", "163115.890000", "163116.350000", "163116.810000", "163117.270000", "163117.730000", "163118.190000", "163118.650000", "163119.110000", "163119.570000", "163120.030000", "163120.490000", "163120.950000", "163121.410000", "163121.870000", "163122.330000", "163122.790000", "163123.250000", "163123.710000", "163124.170000", "163124.630000", "163125.090000", "163125.550000", "163126.010000", "163126.470000", "163126.930000", "163127.390000", "163127.850000", "163128.310000", "163128.770000", "163129.230000", "163129.690000", "163130.150000", "163130.610000", "163131.070000", "163131.530000", "163131.990000", "163132.450000", "163132.910000", "163133.370000", "163133.830000", "163134.290000", "163134.750000", "163135.210000", "163135.670000", "163136.130000", "163136.590000", "163137.050000", "163137.510000", "163137.970000", "163138.430000", "163138.890000", "163139.350000", "163139.810000", "163140.270000", "163140.730000", "163141.190000", "163141.650000", "163142.110000", "163142.570000", "163143.030000", "163143.490000", "163143.950000", "163144.410000", "163144.870000", "163145.330000", "163145.790000", "163146.250000", "163146.710000", "163147.170000", "163147.630000", "163148.090000", "163148.550000", "163149.010000", "163149.470000", "163149.930000", "163150.390000", "163150.850000", "163151.310000", "163151.770000", "163152.230000", "163152.690000", "163153.150000", "163153.610000", "163154.070000", "163154.530000", "163154.990000", "163155.450000", "163155.910000", "163156.370000", "163156.830000", "163157.290000", "163157.750000", "163158.210000", "163158.670000", "163159.130000", "163159.590000", "163200.050000", "163200.510000", "163200.970000", "163201.430000", "163201.890000", "163202.350000", "163202.810000", "163203.270000", "163203.730000"],
