{
  "AcquisitionMatrixPE": 82,
  "AcquisitionNumber": 1,
  "AcquisitionTime": "19:18:8.507500",
  "BandwidthPerPixelPhaseEncode": 24.888,
  "BaseResolution": 82,
  "BodyPartExamined": "BRAIN",
  "ConsistencyInfo": "N4_VE11E_LATEST_20181129",
  "ConversionSoftware": "dcm2niix",
  "ConversionSoftwareVersion": "v1.0.20201102",
  "DerivedVendorReportedEchoSpacing": 0.00049,
  "DeviceSerialNumber": "66112",
  "DwellTime": 2e-06,
  "EchoTime": 0.0272,
  "EchoTrainLength": 82,
  "EffectiveEchoSpacing": 0.00049,
  "FlipAngle": 44,
  "ImageComments": "Unaliased MB8/PE3",
  "ImageOrientationPatientDICOM": [0.999841, 0.0125398, 0.0126645, -0.012565, 0.999919, 0.00191324],
  "ImageType": [
    "ORIGINAL",
    "PRIMARY",
    "M",
    "MB",
    "ND",
    "NORM",
    "MOSAIC"
],
  "ImagingFrequency": 123.252,
  "InPlanePhaseEncodingDirectionDICOM": "COL",
  "InstitutionAddress": "Maynard 3,Hanover,NH,US,03755",
  "InstitutionName": "Dartmouth College - PBS",
  "InstitutionalDepartmentName": "Department",
  "MRAcquisitionType": "2D",
  "MagneticFieldStrength": 3,
  "Manufacturer": "Siemens",
  "ManufacturersModelName": "Prisma",
  "Modality": "MR",
  "MultibandAccelerationFactor": 8,
  "PartialFourier": 1,
  "PatientPosition": "HFS",
  "PercentPhaseFOV": 100,
  "PercentSampling": 100,
  "PhaseEncodingDirection": "j-",
  "PhaseEncodingSteps": 82,
  "PhaseResolution": 1,
  "PixelBandwidth": 3050,
  "ProcedureStepDescription": "Wager_Wager^1076_spacetop",
  "ProtocolName": "func_run-06_task-social_acq-ap-mb8",
  "PulseSequenceDetails": "%CustomerSeq%\\cmrr_mbep2d_bold",
  "ReceiveCoilActiveElements": "HEA;HEP",
  "ReceiveCoilName": "Head_32",
  "ReconMatrixPE": 82,
  "RepetitionTime": 0.46,
  "SAR": 0.090673,
  "ScanOptions": "FS",
  "ScanningSequence": "EP",
  "SequenceName": "epfid2d1_82",
  "SequenceVariant": "SK\\SS",
  "SeriesDescription": "func_run-06_task-social_acq-ap-mb8",
  "SeriesNumber": 22,
  "ShimSetting": [4155, -7743, -7282, 517, -81, -262, -6, 57],
  "SliceThickness": 2.7,
  "SliceTiming": [0, 0.25, 0.0625, 0.3125, 0.125, 0.375, 0.1875, 0, 0.25, 0.0625, 0.3125, 0.125, 0.375, 0.1875, 0, 0.25, 0.0625, 0.3125, 0.125, 0.375, 0.1875, 0, 0.25, 0.0625, 0.3125, 0.125, 0.375, 0.1875, 0, 0.25, 0.0625, 0.3125, 0.125, 0.375, 0.1875, 0, 0.25, 0.0625, 0.3125, 0.125, 0.375, 0.1875, 0, 0.25, 0.0625, 0.3125, 0.125, 0.375, 0.1875, 0, 0.25, 0.0625, 0.3125, 0.125, 0.375, 0.1875],
  "SoftwareVersions": "syngo MR E11",
  "SpacingBetweenSlices": 2.7,
  "StationName": "AWP66112",
  "TaskName": "social",
  "TotalReadoutTime": 0.03969,
  "TxRefAmp": 259.308,
  "WipMemBlock": "83271ebc-659d-4712-954e-d5a8c60a5c79||Sequence: R016 ve11e/master r/434b28f1; Aug  7 2019 18:53:46 by eja",
  "dcmmeta_affine": [
    [-2.6825008392333984, -0.03371106833219528, 0.03412650525569916, 110.6178207397461],
    [-0.03364342451095581, 2.6827101707458496, 0.005594583228230476, -84.4381332397461],
    [0.033977821469306946, -0.005133089143782854, 2.6997785568237305, -83.8866958618164],
    [0.0, 0.0, 0.0, 1.0]
],
  "dcmmeta_reorient_transform": [
    [0.0, -1.0, 0.0, 81.0],
    [1.0, 0.0, 0.0, 0.0],
    [0.0, 0.0, 1.0, 0.0],
    [0.0, 0.0, 0.0, 1.0]
],
  "dcmmeta_shape": [82, 82, 56, 872],
  "dcmmeta_slice_dim": 2,
  "dcmmeta_version": 0.6,
  "global": {
    "const": {
      "AccessionNumber": "A003860",
      "AcquisitionMatrix": [82, 0, 0, 82],
      "AngioFlag": "N",
      "BitsAllocated": 16,
      "BitsStored": 16,
      "BodyPartExamined": "BRAIN",
      "Columns": 656,
      "EchoNumbers": 1,
      "EchoTime": 27.2,
      "EchoTrainLength": 82,
      "FlipAngle": 44.0,
      "HighBit": 15,
      "ImageOrientationPatient": [0.99984116954287, 0.01253982160256, 0.01266446056199, -0.0125650346091, 0.9999192264423, 0.00191324235339],
      "ImagePositionPatient": [-868.08986961002, -912.45487783934, -95.527307704391],
      "ImageType": [
        "ORIGINAL",
        "PRIMARY",
        "M",
        "MB",
        "ND",
        "NORM",
        "MOSAIC"
],
      "ImagedNucleus": "1H",
      "ImagingFrequency": 123.252321,
      "InPlanePhaseEncodingDirection": "COL",
      "MRAcquisitionType": "2D",
      "MagneticFieldStrength": 3.0,
      "Manufacturer": "SIEMENS",
      "ManufacturerModelName": "Prisma",
      "Modality": "MR",
      "NumberOfAverages": 1.0,
      "NumberOfPhaseEncodingSteps": 82,
      "PercentPhaseFieldOfView": 100.0,
      "PercentSampling": 100.0,
      "PerformedProcedureStepStartTime": "180133.330000",
      "PhotometricInterpretation": "MONOCHROME2",
      "PixelBandwidth": 3050.0,
      "PixelRepresentation": 0,
      "PixelSpacing": [2.6829268932343, 2.6829268932343],
      "ProtocolName": "func_run-06_task-social_acq-ap-mb8",
      "RepetitionTime": 460.0,
      "Rows": 656,
      "SAR": 0.09067295610691,
      "SamplesPerPixel": 1,
      "ScanOptions": "FS",
      "ScanningSequence": "EP",
      "SequenceName": "epfid2d1_82",
      "SequenceVariant": [
        "SK",
        "SS"
],
      "SeriesDescription": "func_run-06_task-social_acq-ap-mb8",
      "SeriesNumber": 22,
      "SeriesTime": "191829.148000",
      "SliceLocation": -82.656628441655,
      "SliceThickness": 2.7000000476837,
      "SmallestImagePixelValue": 0,
      "SoftwareVersions": "syngo MR E11",
      "SpacingBetweenSlices": 2.7000000841378,
      "SpecificCharacterSet": "ISO_IR 100",
      "StudyID": "1",
      "StudyTime": "180133.270000",
      "TransmitCoilName": "Body",
      "VariableFlipAngleFlag": "N",
      "WindowCenterWidthExplanation": "Algo1"
    },
    "slices": {}
  },
  "time": {
    "samples": {
      "AcquisitionNumber": [1, 2, 3, 4, 5, 6, 7, 8, 9, 10, 11, 12, 13, 14, 15, 16, 17, 18, 19, 20, 21, 22, 23, 24, 25, 26, 27, 28, 29, 30, 31, 32, 33, 34, 35, 36, 37, 38, 39, 40, 41, 42, 43, 44, 45, 46, 47, 48, 49, 50, 51, 52, 53, 54, 55, 56, 57, 58, 59, 60, 61, 62, 63, 64, 65, 66, 67, 68, 69, 70, 71, 72, 73, 74, 75, 76, 77, 78, 79, 80, 81, 82, 83, 84, 85, 86, 87, 88, 89, 90, 91, 92, 93, 94, 95, 96, 97, 98, 99, 100, 101, 102, 103, 104, 105, 106, 107, 108, 109, 110, 111, 112, 113, 114, 115, 116, 117, 118, 119, 120, 121, 122, 123, 124, 125, 126, 127, 128, 129, 130, 131, 132, 133, 134, 135, 136, 137, 138, 139, 140, 141, 142, 143, 144, 145, 146, 147, 148, 149, 150, 151, 152, 153, 154, 155, 156, 157, 158, 159, 160, 161, 162, 163, 164, 165, 166, 167, 168, 169, 170, 171, 172, 173, 174, 175, 176, 177, 178, 179, 180, 181, 182, 183, 184, 185, 186, 187, 188, 189, 190, 191, 192, 193, 194, 195, 196, 197, 198, 199, 200, 201, 202, 203, 204, 205, 206, 207, 208, 209, 210, 211, 212, 213, 214, 215, 216, 217, 218, 219, 220, 221, 222, 223, 224, 225, 226, 227, 228, 229, 230, 231, 232, 233, 234, 235, 236, 237, 238, 239, 240, 241, 242, 243, 244, 245, 246, 247, 248, 249, 250, 251, 252, 253, 254, 255, 256, 257, 258, 259, 260, 261, 262, 263, 264, 265, 266, 267, 268, 269, 270, 271, 272, 273, 274, 275, 276, 277, 278, 279, 280, 281, 282, 283, 284, 285, 286, 287, 288, 289, 290, 291, 292, 293, 294, 295, 296, 297, 298, 299, 300, 301, 302, 303, 304, 305, 306, 307, 308, 309, 310, 311, 312, 313, 314, 315, 316, 317, 318, 319, 320, 321, 322, 323, 324, 325, 326, 327, 328, 329, 330, 331, 332, 333, 334, 335, 336, 337, 338, 339, 340, 341, 342, 343, 344, 345, 346, 347, 348, 349, 350, 351, 352, 353, 354, 355, 356, 357, 358, 359, 360, 361, 362, 363, 364, 365, 366, 367, 368, 369, 370, 371, 372, 373, 374, 375, 376, 377, 378, 379, 380, 381, 382, 383, 384, 385, 386, 387, 388, 389, 390, 391, 392, 393, 394, 395, 396, 397, 398, 399, 400, 401, 402, 403, 404, 405, 406, 407, 408, 409, 410, 411, 412, 413, 414, 415, 416, 417, 418, 419, 420, 421, 422, 423, 424, 425, 426, 427, 428, 429, 430, 431, 432, 433, 434, 435, 436, 437, 438, 439, 440, 441, 442, 443, 444, 445, 446, 447, 448, 449, 450, 451, 452, 453, 454, 455, 456, 457, 458, 459, 460, 461, 462, 463, 464, 465, 466, 467, 468, 469, 470, 471, 472, 473, 474, 475, 476, 477, 478, 479, 480, 481, 482, 483, 484, 485, 486, 487, 488, 489, 490, 491, 492, 493, 494, 495, 496, 497, 498, 499, 500, 501, 502, 503, 504, 505, 506, 507, 508, 509, 510, 511, 512, 513, 514, 515, 516, 517, 518, 519, 520, 521, 522, 523, 524, 525, 526, 527, 528, 529, 530, 531, 532, 533, 534, 535, 536, 537, 538, 539, 540, 541, 542, 543, 544, 545, 546, 547, 548, 549, 550, 551, 552, 553, 554, 555, 556, 557, 558, 559, 560, 561, 562, 563, 564, 565, 566, 567, 568, 569, 570, 571, 572, 573, 574, 575, 576, 577, 578, 579, 580, 581, 582, 583, 584, 585, 586, 587, 588, 589, 590, 591, 592, 593, 594, 595, 596, 597, 598, 599, 600, 601, 602, 603, 604, 605, 606, 607, 608, 609, 610, 611, 612, 613, 614, 615, 616, 617, 618, 619, 620, 621, 622, 623, 624, 625, 626, 627, 628, 629, 630, 631, 632, 633, 634, 635, 636, 637, 638, 639, 640, 641, 642, 643, 644, 645, 646, 647, 648, 649, 650, 651, 652, 653, 654, 655, 656, 657, 658, 659, 660, 661, 662, 663, 664, 665, 666, 667, 668, 669, 670, 671, 672, 673, 674, 675, 676, 677, 678, 679, 680, 681, 682, 683, 684, 685, 686, 687, 688, 689, 690, 691, 692, 693, 694, 695, 696, 697, 698, 699, 700, 701, 702, 703, 704, 705, 706, 707, 708, 709, 710, 711, 712, 713, 714, 715, 716, 717, 718, 719, 720, 721, 722, 723, 724, 725, 726, 727, 728, 729, 730, 731, 732, 733, 734, 735, 736, 737, 738, 739, 740, 741, 742, 743, 744, 745, 746, 747, 748, 749, 750, 751, 752, 753, 754, 755, 756, 757, 758, 759, 760, 761, 762, 763, 764, 765, 766, 767, 768, 769, 770, 771, 772, 773, 774, 775, 776, 777, 778, 779, 780, 781, 782, 783, 784, 785, 786, 787, 788, 789, 790, 791, 792, 793, 794, 795, 796, 797, 798, 799, 800, 801, 802, 803, 804, 805, 806, 807, 808, 809, 810, 811, 812, 813, 814, 815, 816, 817, 818, 819, 820, 821, 822, 823, 824, 825, 826, 827, 828, 829, 830, 831, 832, 833, 834, 835, 836, 837, 838, 839, 840, 841, 842, 843, 844, 845, 846, 847, 848, 849, 850, 851, 852, 853, 854, 855, 856, 857, 858, 859, 860, 861, 862, 863, 864, 865, 866, 867, 868, 869, 870, 871, 872],
      "AcquisitionTime": ["191808.507500", "191808.967500", "191809.427500", "191809.887500", "191810.347500", "191810.807500", "191811.267500", "191811.727500", "191812.187500", "191812.647500", "191813.107500", "191813.567500", "191814.027500", "191814.487500", "191814.947500", "191815.407500", "191815.867500", "191816.327500", "191816.787500", "191817.247500", "191817.707500", "191818.167500", "191818.627500", "191819.087500", "191819.547500", "191820.007500", "191820.467500", "191820.927500", "191821.387500", "191821.847500", "191822.307500", "191822.767500", "191823.227500", "191823.687500", "191824.147500", "191824.607500", "191825.067500", "191825.527500", "191825.987500", "191826.447500", "191826.907500", "191827.367500", "191827.827500", "191828.287500", "191828.747500", "191829.207500", "191829.667500", "191830.127500", "191830.587500", "191831.047500", "191831.507500", "191831.967500", "191832.427500", "191832.887500", "191833.347500", "191833.807500", "191834.267500", "191834.727500", "191835.187500", "191835.647500", "191836.107500", "191836.567500", "191837.027500", "191837.487500", "191837.947500", "191838.407500", "191838.867500", "191839.327500", "191839.787500", "191840.247500", "191840.707500", "191841.167500", "191841.627500", "191842.087500", "191842.547500", "191843.007500", "191843.467500", "191843.927500", "191844.387500", "191844.847500", "191845.307500", "191845.767500", "191846.227500", "191846.687500", "191847.147500", "191847.607500", "191848.067500", "191848.527500", "191848.987500", "191849.447500", "191849.907500", "191850.367500", "191850.827500", "191851.287500", "191851.747500", "191852.207500", "191852.667500", "191853.127500", "191853.587500", "191854.047500", "191854.507500", "191854.967500", "191855.427500", "191855.887500", "191856.347500", "191856.807500", "191857.267500", "191857.727500", "191858.187500", "191858.647500", "191859.107500", "191859.567500", "191900.027500", "191900.487500", "191900.947500", "191901.407500", "191901.867500", "191902.327500", "191902.787500", "191903.247500", "191903.707500", "191904.167500", "191904.627500", "191905.087500", "191905.547500", "191906.007500", "191906.467500", "191906.927500", "191907.387500", "191907.847500", "191908.307500", "191908.767500", "191909.227500", "191909.687500", "191910.147500", "191910.607500", "191911.067500", "191911.527500", "191911.987500", "191912.447500", "191912.907500", "191913.367500", "191913.827500", "191914.287500", "191914.747500", "191915.207500", "191915.667500", "191916.127500", "191916.587500", "191917.047500", "191917.507500", "191917.967500", "191918.427500", "191918.887500", "191919.347500", "191919.807500", "191920.267500", "191920.727500", "191921.187500", "191921.647500", "191922.107500", "191922.567500", "191923.027500", "191923.487500", "191923.947500", "191924.407500", "191924.867500", "191925.327500", "191925.787500", "191926.247500", "191926.707500", "191927.167500", "191927.627500", "191928.087500", "191928.547500", "191929.007500", "191929.467500", "191929.927500", "191930.387500", "191930.847500", "191931.307500", "191931.767500", "191932.227500", "191932.687500", "191933.147500", "191933.607500", "191934.067500", "191934.527500", "191934.987500", "191935.447500", "191935.907500", "191936.367500", "191936.827500", "191937.287500", "191937.747500", "191938.207500", "191938.667500", "191939.127500", "191939.587500", "191940.047500", "191940.507500", "191940.967500", "191941.427500", "191941.887500", "191942.347500", "191942.807500", "191943.267500", "191943.727500", "191944.187500", "191944.647500", "191945.107500", "191945.567500", "191946.027500", "191946.487500", "191946.947500", "191947.407500", "191947.867500", "191948.327500", "191948.787500", "191949.247500", "191949.707500", "191950.167500", "191950.627500", "191951.087500", "191951.547500", "191952.007500", "191952.467500", "191952.927500", "191953.387500", "191953.847500", "191954.307500", "191954.767500", "191955.227500", "191955.687500", "191956.147500", "191956.607500", "191957.067500", "191957.527500", "191957.987500", "191958.447500", "191958.907500", "191959.367500", "191959.827500", "192000.287500", "192000.747500", "192001.207500", "192001.667500", "192002.127500", "192002.587500", "192003.047500", "192003.507500", "192003.967500", "192004.427500", "192004.887500", "192005.347500", "192005.807500", "192006.267500", "192006.727500", "192007.187500", "192007.647500", "192008.107500", "192008.567500", "192009.027500", "192009.487500", "192009.947500", "192010.407500", "192010.867500", "192011.327500", "192011.787500", "192012.247500", "192012.707500", "192013.167500", "192013.627500", "192014.087500", "192014.547500", "192015.007500", "192015.467500", "192015.927500", "192016.387500", "192016.847500", "192017.307500", "192017.767500", "192018.227500", "192018.687500", "192019.147500", "192019.607500", "192020.067500", "192020.527500", "192020.987500", "192021.447500", "192021.907500", "192022.367500", "192022.827500", "192023.287500", "192023.747500", "192024.207500", "192024.667500", "192025.127500", "192025.587500", "192026.047500", "192026.507500", "192026.967500", "192027.427500", "192027.887500", "192028.347500", "192028.807500", "192029.267500", "192029.727500", "192030.187500", "192030.647500", "192031.107500", "192031.567500", "192032.027500", "192032.487500", "192032.947500", "192033.407500", "192033.867500", "192034.327500", "192034.787500", "192035.247500", "192035.707500", "192036.167500", "192036.627500", "192037.087500", "192037.547500", "192038.007500", "192038.467500", "192038.927500", "192039.387500", "192039.847500", "192040.307500", "192040.767500", "192041.227500", "192041.687500", "192042.147500", "192042.607500", "192043.067500", "192043.527500", "192043.987500", "192044.447500", "192044.907500", "192045.367500", "192045.827500", "192046.287500", "192046.747500", "192047.207500", "192047.667500", "192048.127500", "192048.587500", "192049.047500", "192049.507500", "192049.967500", "192050.427500", "192050.887500", "192051.347500", "192051.807500", "192052.267500", "192052.727500", "192053.187500", "192053.647500", "192054.107500", "192054.567500", "192055.027500", "192055.487500", "192055.947500", "192056.407500", "192056.867500", "192057.327500", "192057.787500", "192058.247500", "192058.707500", "192059.167500", "192059.627500", "192100.087500", "192100.547500", "192101.007500", "192101.467500", "192101.927500", "192102.387500", "192102.847500", "192103.307500", "192103.767500", "192104.227500", "192104.687500", "192105.147500", "192105.607500", "192106.067500", "192106.527500", "192106.987500", "192107.447500", "192107.907500", "192108.367500", "192108.827500", "192109.287500", "192109.747500", "192110.207500", "192110.667500", "192111.127500", "192111.587500", "192112.047500", "192112.507500", "192112.967500", "192113.427500", "192113.887500", "192114.347500", "192114.807500", "192115.267500", "192115.727500", "192116.187500", "192116.647500", "192117.107500", "192117.567500", "192118.027500", "192118.487500", "192118.947500", "192119.407500", "192119.867500", "192120.327500", "192120.787500", "192121.247500", "192121.707500", "192122.167500", "192122.627500", "192123.087500", "192123.547500", "192124.007500", "192124.467500", "192124.927500", "192125.387500", "192125.847500", "192126.307500", "192126.767500", "192127.227500", "192127.687500", "192128.147500", "192128.607500", "192129.067500", "192129.527500", "192129.987500", "192130.447500", "192130.907500", "192131.367500", "192131.827500", "192132.287500", "192132.747500", "192133.207500", "192133.667500", "192134.127500", "192134.587500", "192135.047500", "192135.507500", "192135.967500", "192136.427500", "192136.887500", "192137.347500", "192137.807500", "192138.267500", "192138.727500", "192139.187500", "192139.647500", "192140.107500", "192140.567500", "192141.027500", "192141.487500", "192141.947500", "192142.407500", "192142.867500", "192143.327500", "192143.787500", "192144.247500", "192144.707500", "192145.167500", "192145.627500", "192146.087500", "192146.547500", "192147.007500", "192147.467500", "192147.927500", "192148.387500", "192148.847500", "192149.307500", "192149.767500", "192150.227500", "192150.687500", "192151.147500", "192151.607500", "192152.067500", "192152.527500", "192152.987500", "192153.447500", "192153.907500", "192154.367500", "192154.827500", "192155.287500", "192155.747500", "192156.207500", "192156.667500", "192157.127500", "192157.587500", "192158.047500", "192158.507500", "192158.967500", "192159.427500", "192159.887500", "192200.347500", "192200.807500", "192201.267500", "192201.727500", "192202.187500", "192202.647500", "192203.107500", "192203.567500", "192204.027500", "192204.487500", "192204.947500", "192205.407500", "192205.867500", "192206.327500", "192206.787500", "192207.247500", "192207.707500", "192208.167500", "192208.627500", "192209.087500", "192209.547500", "192210.007500", "192210.467500", "192210.927500", "192211.387500", "192211.847500", "192212.307500", "192212.767500", "192213.227500", "192213.687500", "192214.147500", "192214.607500", "192215.067500", "192215.527500", "192215.987500", "192216.447500", "192216.907500", "192217.367500", "192217.827500", "192218.287500", "192218.747500", "192219.207500", "192219.667500", "192220.127500", "192220.587500", "192221.047500", "192221.507500", "192221.967500", "192222.427500", "192222.887500", "192223.347500", "192223.807500", "192224.267500", "192224.727500", "192225.187500", "192225.647500", "192226.107500", "192226.567500", "192227.027500", "192227.487500", "192227.947500", "192228.407500", "192228.867500", "192229.327500", "192229.787500", "192230.247500", "192230.707500", "192231.167500", "192231.627500", "192232.087500", "192232.547500", "192233.007500", "192233.467500", "192233.927500", "192234.387500", "192234.847500", "192235.307500", "192235.767500", "192236.227500", "192236.687500", "192237.147500", "192237.607500", "192238.067500", "192238.527500", "192238.987500", "192239.447500", "192239.907500", "192240.367500", "192240.827500", "192241.287500", "192241.747500", "192242.207500", "192242.667500", "192243.127500", "192243.587500", "192244.047500", "192244.507500", "192244.967500", "192245.427500", "192245.887500", "192246.347500", "192246.807500", "192247.267500", "192247.727500", "192248.187500", "192248.647500", "192249.107500", "192249.567500", "192250.027500", "192250.487500", "192250.947500", "192251.407500", "192251.867500", "192252.327500", "192252.787500", "192253.247500", "192253.707500", "192254.167500", "192254.627500", "192255.087500", "192255.547500", "192256.007500", "192256.467500", "192256.927500", "192257.387500", "192257.847500", "192258.307500", "192258.767500", "192259.227500", "192259.687500", "192300.147500", "192300.607500", "192301.067500", "192301.527500", "192301.987500", "192302.447500", "192302.907500", "192303.367500", "192303.827500", "192304.287500", "192304.747500", "192305.207500", "192305.667500", "192306.127500", "192306.587500", "192307.047500", "192307.507500", "192307.967500", "192308.427500", "192308.887500", "192309.347500", "192309.807500", "192310.267500", "192310.727500", "192311.187500", "192311.647500", "192312.107500", "192312.567500", "192313.027500", "192313.487500", "192313.947500", "192314.407500", "192314.867500", "192315.327500", "192315.787500", "192316.247500", "192316.707500", "192317.167500", "192317.627500", "192318.087500", "192318.547500", "192319.007500", "192319.467500", "192319.927500", "192320.387500", "192320.847500", "192321.307500", "192321.767500", "192322.227500", "192322.687500", "192323.147500", "192323.607500", "192324.067500", "192324.527500", "192324.987500", "192325.447500", "192325.907500", "192326.367500", "192326.827500", "192327.287500", "192327.747500", "192328.207500", "192328.667500", "192329.127500", "192329.587500", "192330.047500", "192330.507500", "192330.967500", "192331.427500", "192331.887500", "192332.347500", "192332.807500", "192333.267500", "192333.727500", "192334.187500", "192334.647500", "192335.107500", "192335.567500", "192336.027500", "192336.487500", "192336.947500", "192337.407500", "192337.867500", "192338.327500", "192338.787500", "192339.247500", "192339.707500", "192340.167500", "192340.627500", "192341.087500", "192341.547500", "192342.007500", "192342.467500", "192342.927500", "192343.387500", "192343.847500", "192344.307500", "192344.767500", "192345.227500", "192345.687500", "192346.147500", "192346.607500", "192347.067500", "192347.527500", "192347.987500", "192348.447500", "192348.907500", "192349.367500", "192349.827500", "192350.287500", "192350.747500", "192351.207500", "192351.667500", "192352.127500", "192352.587500", "192353.047500", "192353.507500", "192353.967500", "192354.427500", "192354.887500", "192355.347500", "192355.807500", "192356.267500", "192356.727500", "192357.187500", "192357.647500", "192358.107500", "192358.567500", "192359.027500", "192359.487500", "192359.947500", "192400.407500", "192400.867500", "192401.327500", "192401.787500", "192402.247500", "192402.707500", "192403.167500", "192403.627500", "192404.087500", "192404.547500", "192405.007500", "192405.467500", "192405.927500", "192406.387500", "192406.847500", "192407.307500", "192407.767500", "192408.227500", "192408.687500", "192409.147500", "192409.607500", "192410.067500", "192410.527500", "192410.987500", "192411.447500", "192411.907500", "192412.367500", "192412.827500", "192413.287500", "192413.747500", "192414.207500", "192414.667500", "192415.127500", "192415.587500", "192416.047500", "192416.507500", "192416.967500", "192417.427500", "192417.887500", "192418.347500", "192418.807500", "192419.267500", "192419.727500", "192420.187500", "192420.647500", "192421.107500", "192421.567500", "192422.027500", "192422.487500", "192422.947500", "192423.407500", "192423.867500", "192424.327500", "192424.787500", "192425.247500", "192425.707500", "192426.167500", "192426.627500", "192427.087500", "192427.547500", "192428.007500", "192428.467500", "192428.927500", "192429.387500", "192429.847500", "192430.307500", "192430.767500", "192431.227500", "192431.687500", "192432.147500", "192432.607500", "192433.067500", "192433.527500", "192433.987500", "192434.447500", "192434.907500", "192435.367500", "192435.827500", "192436.287500", "192436.747500", "192437.207500", "192437.667500", "192438.127500", "192438.587500", "192439.047500", "192439.507500", "192439.967500", "192440.427500", "192440.887500", "192441.347500", "192441.807500", "192442.267500", "192442.727500", "192443.187500", "192443.647500", "192444.107500", "192444.567500", "192445.027500", "192445.487500", "192445.947500", "192446.407500", "192446.867500", "192447.327500", "192447.787500", "192448.247500", "192448.707500", "192449.167500"],
