{
  "AcquisitionMatrixPE": 82,
  "AcquisitionNumber": 1,
  "AcquisitionTime": "19:29:44.302500",
  "BandwidthPerPixelPhaseEncode": 24.888,
  "BaseResolution": 82,
  "BodyPartExamined": "BRAIN",
  "ConsistencyInfo": "N4_VE11E_LATEST_20181129",
  "ConversionSoftware": "dcm2niix",
  "ConversionSoftwareVersion": "v1.0.20201102",
  "DerivedVendorReportedEchoSpacing": 0.00049,
  "DeviceSerialNumber": "66112",
  "DwellTime": 2e-06,
  "EchoTime": 0.0272,
  "EchoTrainLength": 82,
  "EffectiveEchoSpacing": 0.00049,
  "FlipAngle": 44,
  "ImageComments": "Unaliased MB8/PE3",
  "ImageOrientationPatientDICOM": [0.998695, 0.0067581, -0.0506132, 0.00592648, 0.969163, 0.246348],
  "ImageType": [
    "ORIGINAL",
    "PRIMARY",
    "M",
    "MB",
    "ND",
    "NORM",
    "MOSAIC"
],
  "ImagingFrequency": 123.252,
  "InPlanePhaseEncodingDirectionDICOM": "COL",
  "InstitutionAddress": "Maynard 3,Hanover,NH,US,03755",
  "InstitutionName": "Dartmouth College - PBS",
  "InstitutionalDepartmentName": "Department",
  "MRAcquisitionType": "2D",
  "MagneticFieldStrength": 3,
  "Manufacturer": "Siemens",
  "ManufacturersModelName": "Prisma",
  "Modality": "MR",
  "MultibandAccelerationFactor": 8,
  "PartialFourier": 1,
  "PatientPosition": "HFS",
  "PercentPhaseFOV": 100,
  "PercentSampling": 100,
  "PhaseEncodingDirection": "j-",
  "PhaseEncodingSteps": 82,
  "PhaseResolution": 1,
  "PixelBandwidth": 3050,
  "ProcedureStepDescription": "Wager_Wager^1076_spacetop",
  "ProtocolName": "func_run-03_task-faces_acq-ap-mb8",
  "PulseSequenceDetails": "%CustomerSeq%\\cmrr_mbep2d_bold",
  "ReceiveCoilActiveElements": "HEA;HEP",
  "ReceiveCoilName": "Head_32",
  "ReconMatrixPE": 82,
  "RepetitionTime": 0.46,
  "SAR": 0.0953388,
  "ScanOptions": "FS",
  "ScanningSequence": "EP",
  "SequenceName": "epfid2d1_82",
  "SequenceVariant": "SK\\SS",
  "SeriesDescription": "func_run-03_task-faces_acq-ap-mb8",
  "SeriesNumber": 20,
  "ShimSetting": [4137, -7820, -7282, 572, -100, -284, -127, 98],
  "SliceThickness": 2.7,
  "SliceTiming": [0, 0.25, 0.0625, 0.3125, 0.125, 0.3775, 0.1875, 0, 0.25, 0.0625, 0.3125, 0.125, 0.3775, 0.1875, 0, 0.25, 0.0625, 0.3125, 0.125, 0.3775, 0.1875, 0, 0.25, 0.0625, 0.3125, 0.125, 0.3775, 0.1875, 0, 0.25, 0.0625, 0.3125, 0.125, 0.3775, 0.1875, 0, 0.25, 0.0625, 0.3125, 0.125, 0.3775, 0.1875, 0, 0.25, 0.0625, 0.3125, 0.125, 0.3775, 0.1875, 0, 0.25, 0.0625, 0.3125, 0.125, 0.3775, 0.1875],
  "SoftwareVersions": "syngo MR E11",
  "SpacingBetweenSlices": 2.7,
  "StationName": "AWP66112",
  "TaskName": "faces",
  "TotalReadoutTime": 0.03969,
  "TxRefAmp": 237.56,
  "WipMemBlock": "8fc119f0-4d98-4aa8-b372-6c7d0ebcdc42||Sequence: R016 ve11e/master r/434b28f1; Aug  7 2019 18:53:46 by eja",
  "dcmmeta_affine": [
    [-2.679426908493042, 0.01590031199157238, -0.13693667948246002, 114.54539489746094],
    [-0.018131490796804428, 2.6001944541931152, 0.6650815010070801, -95.25707244873047],
    [-0.13579148054122925, -0.6609333753585815, 2.6132192611694336, -40.2331428527832],
    [0.0, 0.0, 0.0, 1.0]
],
  "dcmmeta_reorient_transform": [
    [0.0, -1.0, 0.0, 81.0],
    [1.0, 0.0, 0.0, 0.0],
    [0.0, 0.0, 1.0, 0.0],
    [0.0, 0.0, 0.0, 1.0]
],
  "dcmmeta_shape": [82, 82, 56, 914],
  "dcmmeta_slice_dim": 2,
  "dcmmeta_version": 0.6,
  "global": {
    "const": {
      "AccessionNumber": "A004044",
      "AcquisitionMatrix": [82, 0, 0, 82],
      "AngioFlag": "N",
      "BitsAllocated": 16,
      "BitsStored": 16,
      "BodyPartExamined": "BRAIN",
      "Columns": 656,
      "EchoNumbers": 1,
      "EchoTime": 27.2,
      "EchoTrainLength": 82,
      "FlipAngle": 44.0,
      "HighBit": 15,
      "ImageOrientationPatient": [0.99869546569621, 0.0067581010337, -0.050613188679, 0.00592647987219, 0.96916334662258, 0.24634789302863],
      "ImagePositionPatient": [-889.39224048085, -866.8182081415, -244.48447423223],
      "ImageType": [
        "ORIGINAL",
        "PRIMARY",
        "M",
        "MB",
        "ND",
        "NORM",
        "MOSAIC"
],
      "ImagedNucleus": "1H",
      "ImagingFrequency": 123.252204,
      "InPlanePhaseEncodingDirection": "COL",
      "MRAcquisitionType": "2D",
      "MagneticFieldStrength": 3.0,
      "Manufacturer": "SIEMENS",
      "ManufacturerModelName": "Prisma",
      "Modality": "MR",
      "NumberOfAverages": 1.0,
      "NumberOfPhaseEncodingSteps": 82,
      "PercentPhaseFieldOfView": 100.0,
      "PercentSampling": 100.0,
      "PerformedProcedureStepStartTime": "181501.204000",
      "PhotometricInterpretation": "MONOCHROME2",
      "PixelBandwidth": 3050.0,
      "PixelRepresentation": 0,
      "PixelSpacing": [2.6829268932343, 2.6829268932343],
      "ProtocolName": "func_run-03_task-faces_acq-ap-mb8",
      "RepetitionTime": 460.0,
      "Rows": 656,
      "SAR": 0.09533882060779,
      "SamplesPerPixel": 1,
      "ScanOptions": "FS",
      "ScanningSequence": "EP",
      "SequenceName": "epfid2d1_82",
      "SequenceVariant": [
        "SK",
        "SS"
],
      "SeriesDescription": "func_run-03_task-faces_acq-ap-mb8",
      "SeriesNumber": 20,
      "SeriesTime": "193012.624000",
      "SliceLocation": -68.213781571621,
      "SliceThickness": 2.7000000476837,
      "SmallestImagePixelValue": 0,
      "SoftwareVersions": "syngo MR E11",
      "SpacingBetweenSlices": 2.6999999747806,
      "SpecificCharacterSet": "ISO_IR 100",
      "StudyID": "2",
      "StudyTime": "181501.162000",
      "TransmitCoilName": "Body",
      "VariableFlipAngleFlag": "N",
      "WindowCenterWidthExplanation": "Algo1"
    },
    "slices": {}
  },
  "time": {
    "samples": {
      "AcquisitionNumber": [1, 2, 3, 4, 5, 6, 7, 8, 9, 10, 11, 12, 13, 14, 15, 16, 17, 18, 19, 20, 21, 22, 23, 24, 25, 26, 27, 28, 29, 30, 31, 32, 33, 34, 35, 36, 37, 38, 39, 40, 41, 42, 43, 44, 45, 46, 47, 48, 49, 50, 51, 52, 53, 54, 55, 56, 57, 58, 59, 60, 61, 62, 63, 64, 65, 66, 67, 68, 69, 70, 71, 72, 73, 74, 75, 76, 77, 78, 79, 80, 81, 82, 83, 84, 85, 86, 87, 88, 89, 90, 91, 92, 93, 94, 95, 96, 97, 98, 99, 100, 101, 102, 103, 104, 105, 106, 107, 108, 109, 110, 111, 112, 113, 114, 115, 116, 117, 118, 119, 120, 121, 122, 123, 124, 125, 126, 127, 128, 129, 130, 131, 132, 133, 134, 135, 136, 137, 138, 139, 140, 141, 142, 143, 144, 145, 146, 147, 148, 149, 150, 151, 152, 153, 154, 155, 156, 157, 158, 159, 160, 161, 162, 163, 164, 165, 166, 167, 168, 169, 170, 171, 172, 173, 174, 175, 176, 177, 178, 179, 180, 181, 182, 183, 184, 185, 186, 187, 188, 189, 190, 191, 192, 193, 194, 195, 196, 197, 198, 199, 200, 201, 202, 203, 204, 205, 206, 207, 208, 209, 210, 211, 212, 213, 214, 215, 216, 217, 218, 219, 220, 221, 222, 223, 224, 225, 226, 227, 228, 229, 230, 231, 232, 233, 234, 235, 236, 237, 238, 239, 240, 241, 242, 243, 244, 245, 246, 247, 248, 249, 250, 251, 252, 253, 254, 255, 256, 257, 258, 259, 260, 261, 262, 263, 264, 265, 266, 267, 268, 269, 270, 271, 272, 273, 274, 275, 276, 277, 278, 279, 280, 281, 282, 283, 284, 285, 286, 287, 288, 289, 290, 291, 292, 293, 294, 295, 296, 297, 298, 299, 300, 301, 302, 303, 304, 305, 306, 307, 308, 309, 310, 311, 312, 313, 314, 315, 316, 317, 318, 319, 320, 321, 322, 323, 324, 325, 326, 327, 328, 329, 330, 331, 332, 333, 334, 335, 336, 337, 338, 339, 340, 341, 342, 343, 344, 345, 346, 347, 348, 349, 350, 351, 352, 353, 354, 355, 356, 357, 358, 359, 360, 361, 362, 363, 364, 365, 366, 367, 368, 369, 370, 371, 372, 373, 374, 375, 376, 377, 378, 379, 380, 381, 382, 383, 384, 385, 386, 387, 388, 389, 390, 391, 392, 393, 394, 395, 396, 397, 398, 399, 400, 401, 402, 403, 404, 405, 406, 407, 408, 409, 410, 411, 412, 413, 414, 415, 416, 417, 418, 419, 420, 421, 422, 423, 424, 425, 426, 427, 428, 429, 430, 431, 432, 433, 434, 435, 436, 437, 438, 439, 440, 441, 442, 443, 444, 445, 446, 447, 448, 449, 450, 451, 452, 453, 454, 455, 456, 457, 458, 459, 460, 461, 462, 463, 464, 465, 466, 467, 468, 469, 470, 471, 472, 473, 474, 475, 476, 477, 478, 479, 480, 481, 482, 483, 484, 485, 486, 487, 488, 489, 490, 491, 492, 493, 494, 495, 496, 497, 498, 499, 500, 501, 502, 503, 504, 505, 506, 507, 508, 509, 510, 511, 512, 513, 514, 515, 516, 517, 518, 519, 520, 521, 522, 523, 524, 525, 526, 527, 528, 529, 530, 531, 532, 533, 534, 535, 536, 537, 538, 539, 540, 541, 542, 543, 544, 545, 546, 547, 548, 549, 550, 551, 552, 553, 554, 555, 556, 557, 558, 559, 560, 561, 562, 563, 564, 565, 566, 567, 568, 569, 570, 571, 572, 573, 574, 575, 576, 577, 578, 579, 580, 581, 582, 583, 584, 585, 586, 587, 588, 589, 590, 591, 592, 593, 594, 595, 596, 597, 598, 599, 600, 601, 602, 603, 604, 605, 606, 607, 608, 609, 610, 611, 612, 613, 614, 615, 616, 617, 618, 619, 620, 621, 622, 623, 624, 625, 626, 627, 628, 629, 630, 631, 632, 633, 634, 635, 636, 637, 638, 639, 640, 641, 642, 643, 644, 645, 646, 647, 648, 649, 650, 651, 652, 653, 654, 655, 656, 657, 658, 659, 660, 661, 662, 663, 664, 665, 666, 667, 668, 669, 670, 671, 672, 673, 674, 675, 676, 677, 678, 679, 680, 681, 682, 683, 684, 685, 686, 687, 688, 689, 690, 691, 692, 693, 694, 695, 696, 697, 698, 699, 700, 701, 702, 703, 704, 705, 706, 707, 708, 709, 710, 711, 712, 713, 714, 715, 716, 717, 718, 719, 720, 721, 722, 723, 724, 725, 726, 727, 728, 729, 730, 731, 732, 733, 734, 735, 736, 737, 738, 739, 740, 741, 742, 743, 744, 745, 746, 747, 748, 749, 750, 751, 752, 753, 754, 755, 756, 757, 758, 759, 760, 761, 762, 763, 764, 765, 766, 767, 768, 769, 770, 771, 772, 773, 774, 775, 776, 777, 778, 779, 780, 781, 782, 783, 784, 785, 786, 787, 788, 789, 790, 791, 792, 793, 794, 795, 796, 797, 798, 799, 800, 801, 802, 803, 804, 805, 806, 807, 808, 809, 810, 811, 812, 813, 814, 815, 816, 817, 818, 819, 820, 821, 822, 823, 824, 825, 826, 827, 828, 829, 830, 831, 832, 833, 834, 835, 836, 837, 838, 839, 840, 841, 842, 843, 844, 845, 846, 847, 848, 849, 850, 851, 852, 853, 854, 855, 856, 857, 858, 859, 860, 861, 862, 863, 864, 865, 866, 867, 868, 869, 870, 871, 872, 873, 874, 875, 876, 877, 878, 879, 880, 881, 882, 883, 884, 885, 886, 887, 888, 889, 890, 891, 892, 893, 894, 895, 896, 897, 898, 899, 900, 901, 902, 903, 904, 905, 906, 907, 908, 909, 910, 911, 912, 913, 914],
      "AcquisitionTime": ["192944.302500", "192944.762500", "192945.222500", "192945.682500", "192946.142500", "192946.602500", "192947.062500", "192947.522500", "192947.982500", "192948.442500", "192948.902500", "192949.362500", "192949.822500", "192950.282500", "192950.742500", "192951.202500", "192951.662500", "192952.122500", "192952.582500", "192953.042500", "192953.502500", "192953.962500", "192954.422500", "192954.882500", "192955.342500", "192955.802500", "192956.262500", "192956.722500", "192957.182500", "192957.642500", "192958.102500", "192958.562500", "192959.022500", "192959.482500", "192959.942500", "193000.402500", "193000.862500", "193001.322500", "193001.782500", "193002.242500", "193002.702500", "193003.162500", "193003.622500", "193004.082500", "193004.542500", "193005.002500", "193005.462500", "193005.922500", "193006.382500", "193006.842500", "193007.302500", "193007.762500", "193008.222500", "193008.682500", "193009.142500", "193009.602500", "193010.062500", "193010.522500", "193010.982500", "193011.442500", "193011.902500", "193012.362500", "193012.822500", "193013.282500", "193013.742500", "193014.202500", "193014.662500", "193015.122500", "193015.582500", "193016.042500", "193016.502500", "193016.962500", "193017.422500", "193017.882500", "193018.342500", "193018.802500", "193019.262500", "193019.722500", "193020.182500", "193020.642500", "193021.102500", "193021.562500", "193022.022500", "193022.482500", "193022.942500", "193023.402500", "193023.862500", "193024.322500", "193024.782500", "193025.242500", "193025.702500", "193026.162500", "193026.622500", "193027.082500", "193027.542500", "193028.002500", "193028.462500", "193028.922500", "193029.382500", "193029.842500", "193030.302500", "193030.762500", "193031.222500", "193031.682500", "193032.142500", "193032.602500", "193033.062500", "193033.522500", "193033.982500", "193034.442500", "193034.902500", "193035.362500", "193035.822500", "193036.282500", "193036.742500", "193037.202500", "193037.662500", "193038.122500", "193038.582500", "193039.042500", "193039.502500", "193039.962500", "193040.422500", "193040.882500", "193041.342500", "193041.802500", "193042.262500", "193042.722500", "193043.182500", "193043.642500", "193044.102500", "193044.562500", "193045.022500", "193045.482500", "193045.942500", "193046.402500", "193046.862500", "193047.322500", "193047.782500", "193048.242500", "193048.702500", "193049.162500", "193049.622500", "193050.082500", "193050.542500", "193051.002500", "193051.462500", "193051.922500", "193052.382500", "193052.842500", "193053.302500", "193053.762500", "193054.222500", "193054.682500", "193055.142500", "193055.602500", "193056.062500", "193056.522500", "193056.982500", "193057.442500", "193057.902500", "193058.362500", "193058.822500", "193059.282500", "193059.742500", "193100.202500", "193100.662500", "193101.122500", "193101.582500", "193102.042500", "193102.502500", "193102.962500", "193103.422500", "193103.882500", "193104.342500", "193104.802500", "193105.262500", "193105.722500", "193106.182500", "193106.642500", "193107.102500", "193107.562500", "193108.022500", "193108.482500", "193108.942500", "193109.402500", "193109.862500", "193110.322500", "193110.782500", "193111.242500", "193111.702500", "193112.162500", "193112.622500", "193113.082500", "193113.542500", "193114.002500", "193114.462500", "193114.922500", "193115.382500", "193115.842500", "193116.302500", "193116.762500", "193117.222500", "193117.682500", "193118.142500", "193118.602500", "193119.062500", "193119.522500", "193119.982500", "193120.442500", "193120.902500", "193121.362500", "193121.822500", "193122.282500", "193122.742500", "193123.202500", "193123.662500", "193124.122500", "193124.582500", "193125.042500", "193125.502500", "193125.962500", "193126.422500", "193126.882500", "193127.342500", "193127.802500", "193128.262500", "193128.722500", "193129.182500", "193129.642500", "193130.102500", "193130.562500", "193131.022500", "193131.482500", "193131.942500", "193132.402500", "193132.862500", "193133.322500", "193133.782500", "193134.242500", "193134.702500", "193135.162500", "193135.622500", "193136.082500", "193136.542500", "193137.002500", "193137.462500", "193137.922500", "193138.382500", "193138.842500", "193139.302500", "193139.762500", "193140.222500", "193140.682500", "193141.142500", "193141.602500", "193142.062500", "193142.522500", "193142.982500", "193143.442500", "193143.902500", "193144.362500", "193144.822500", "193145.282500", "193145.742500", "193146.202500", "193146.662500", "193147.122500", "193147.582500", "193148.042500", "193148.502500", "193148.962500", "193149.422500", "193149.882500", "193150.342500", "193150.802500", "193151.262500", "193151.722500", "193152.182500", "193152.642500", "193153.102500", "193153.562500", "193154.022500", "193154.482500", "193154.942500", "193155.402500", "193155.862500", "193156.322500", "193156.782500", "193157.242500", "193157.702500", "193158.162500", "193158.622500", "193159.082500", "193159.542500", "193200.002500", "193200.462500", "193200.922500", "193201.382500", "193201.842500", "193202.302500", "193202.762500", "193203.222500", "193203.682500", "193204.142500", "193204.602500", "193205.062500", "193205.522500", "193205.982500", "193206.442500", "193206.902500", "193207.362500", "193207.822500", "193208.282500", "193208.742500", "193209.202500", "193209.662500", "193210.122500", "193210.582500", "193211.042500", "193211.502500", "193211.962500", "193212.422500", "193212.882500", "193213.342500", "193213.802500", "193214.262500", "193214.722500", "193215.182500", "193215.642500", "193216.102500", "193216.562500", "193217.022500", "193217.482500", "193217.942500", "193218.402500", "193218.862500", "193219.322500", "193219.782500", "193220.242500", "193220.702500", "193221.162500", "193221.622500", "193222.082500", "193222.542500", "193223.002500", "193223.462500", "193223.922500", "193224.382500", "193224.842500", "193225.302500", "193225.762500", "193226.222500", "193226.682500", "193227.142500", "193227.602500", "193228.062500", "193228.522500", "193228.982500", "193229.442500", "193229.902500", "193230.362500", "193230.822500", "193231.282500", "193231.742500", "193232.202500", "193232.662500", "193233.122500", "193233.582500", "193234.042500", "193234.502500", "193234.962500", "193235.422500", "193235.882500", "193236.342500", "193236.802500", "193237.262500", "193237.722500", "193238.182500", "193238.642500", "193239.102500", "193239.562500", "193240.022500", "193240.482500", "193240.942500", "193241.402500", "193241.862500", "193242.322500", "193242.782500", "193243.242500", "193243.702500", "193244.162500", "193244.622500", "193245.082500", "193245.542500", "193246.002500", "193246.462500", "193246.922500", "193247.382500", "193247.842500", "193248.302500", "193248.762500", "193249.222500", "193249.682500", "193250.142500", "193250.602500", "193251.062500", "193251.522500", "193251.982500", "193252.442500", "193252.902500", "193253.362500", "193253.822500", "193254.282500", "193254.742500", "193255.202500", "193255.662500", "193256.122500", "193256.582500", "193257.042500", "193257.502500", "193257.962500", "193258.422500", "193258.882500", "193259.342500", "193259.802500", "193300.262500", "193300.722500", "193301.182500", "193301.642500", "193302.102500", "193302.562500", "193303.022500", "193303.482500", "193303.942500", "193304.402500", "193304.862500", "193305.322500", "193305.782500", "193306.242500", "193306.702500", "193307.162500", "193307.622500", "193308.082500", "193308.542500", "193309.002500", "193309.462500", "193309.922500", "193310.382500", "193310.842500", "193311.302500", "193311.762500", "193312.222500", "193312.682500", "193313.142500", "193313.602500", "193314.062500", "193314.522500", "193314.982500", "193315.442500", "193315.902500", "193316.362500", "193316.822500", "193317.282500", "193317.742500", "193318.202500", "193318.662500", "193319.122500", "193319.582500", "193320.042500", "193320.502500", "193320.962500", "193321.422500", "193321.882500", "193322.342500", "193322.802500", "193323.262500", "193323.722500", "193324.182500", "193324.642500", "193325.102500", "193325.562500", "193326.022500", "193326.482500", "193326.942500", "193327.402500", "193327.862500", "193328.322500", "193328.782500", "193329.242500", "193329.702500", "193330.162500", "193330.622500", "193331.082500", "193331.542500", "193332.002500", "193332.462500", "193332.922500", "193333.382500", "193333.842500", "193334.302500", "193334.762500", "193335.222500", "193335.682500", "193336.142500", "193336.602500", "193337.062500", "193337.522500", "193337.982500", "193338.442500", "193338.902500", "193339.362500", "193339.822500", "193340.282500", "193340.742500", "193341.202500", "193341.662500", "193342.122500", "193342.582500", "193343.042500", "193343.502500", "193343.962500", "193344.422500", "193344.882500", "193345.342500", "193345.802500", "193346.262500", "193346.722500", "193347.182500", "193347.642500", "193348.102500", "193348.562500", "193349.022500", "193349.482500", "193349.942500", "193350.402500", "193350.862500", "193351.322500", "193351.782500", "193352.242500", "193352.702500", "193353.162500", "193353.622500", "193354.082500", "193354.542500", "193355.002500", "193355.462500", "193355.922500", "193356.382500", "193356.842500", "193357.302500", "193357.762500", "193358.222500", "193358.682500", "193359.142500", "193359.602500", "193400.062500", "193400.522500", "193400.982500", "193401.442500", "193401.902500", "193402.362500", "193402.822500", "193403.282500", "193403.742500", "193404.202500", "193404.662500", "193405.122500", "193405.582500", "193406.042500", "193406.502500", "193406.962500", "193407.422500", "193407.882500", "193408.342500", "193408.802500", "193409.262500", "193409.722500", "193410.182500", "193410.642500", "193411.102500", "193411.562500", "193412.022500", "193412.482500", "193412.942500", "193413.402500", "193413.862500", "193414.322500", "193414.782500", "193415.242500", "193415.702500", "193416.162500", "193416.622500", "193417.082500", "193417.542500", "193418.002500", "193418.462500", "193418.922500", "193419.382500", "193419.842500", "193420.302500", "193420.762500", "193421.222500", "193421.682500", "193422.142500", "193422.602500", "193423.062500", "193423.522500", "193423.982500", "193424.442500", "193424.902500", "193425.362500", "193425.822500", "193426.282500", "193426.742500", "193427.202500", "193427.662500", "193428.122500", "193428.582500", "193429.042500", "193429.502500", "193429.962500", "193430.422500", "193430.882500", "193431.342500", "193431.802500", "193432.262500", "193432.722500", "193433.182500", "193433.642500", "193434.102500", "193434.562500", "193435.022500", "193435.482500", "193435.942500", "193436.402500", "193436.862500", "193437.322500", "193437.782500", "193438.242500", "193438.702500", "193439.162500", "193439.622500", "193440.082500", "193440.542500", "193441.002500", "193441.462500", "193441.922500", "193442.382500", "193442.842500", "193443.302500", "193443.762500", "193444.222500", "193444.682500", "193445.142500", "193445.602500", "193446.062500", "193446.522500", "193446.982500", "193447.442500", "193447.902500", "193448.362500", "193448.822500", "193449.282500", "193449.742500", "193450.202500", "193450.662500", "193451.122500", "193451.582500", "193452.042500", "193452.502500", "193452.962500", "193453.422500", "193453.882500", "193454.342500", "193454.802500", "193455.262500", "193455.722500", "193456.182500", "193456.642500", "193457.102500", "193457.562500", "193458.022500", "193458.482500", "193458.942500", "193459.402500", "193459.862500", "193500.322500", "193500.782500", "193501.242500", "193501.702500", "193502.162500", "193502.622500", "193503.082500", "193503.542500", "193504.002500", "193504.462500", "193504.922500", "193505.382500", "193505.842500", "193506.302500", "193506.762500", "193507.222500", "193507.682500", "193508.142500", "193508.602500", "193509.062500", "193509.522500", "193509.982500", "193510.442500", "193510.902500", "193511.362500", "193511.822500", "193512.282500", "193512.742500", "193513.202500", "193513.662500", "193514.122500", "193514.582500", "193515.042500", "193515.502500", "193515.962500", "193516.422500", "193516.882500", "193517.342500", "193517.802500", "193518.262500", "193518.722500", "193519.182500", "193519.642500", "193520.102500", "193520.562500", "193521.022500", "193521.482500", "193521.942500", "193522.402500", "193522.862500", "193523.322500", "193523.782500", "193524.242500", "193524.702500", "193525.162500", "193525.622500", "193526.082500", "193526.542500", "193527.002500", "193527.462500", "193527.922500", "193528.382500", "193528.842500", "193529.302500", "193529.762500", "193530.222500", "193530.682500", "193531.142500", "193531.602500", "193532.062500", "193532.522500", "193532.982500", "193533.442500", "193533.902500", "193534.362500", "193534.822500", "193535.282500", "193535.742500", "193536.202500", "193536.662500", "193537.122500", "193537.582500", "193538.042500", "193538.502500", "193538.962500", "193539.422500", "193539.882500", "193540.342500", "193540.802500", "193541.262500", "193541.722500", "193542.182500", "193542.642500", "193543.102500", "193543.562500", "193544.022500", "193544.482500", "193544.942500", "193545.402500", "193545.862500", "193546.322500", "193546.782500", "193547.242500", "193547.702500", "193548.162500", "193548.622500", "193549.082500", "193549.542500", "193550.002500", "193550.462500", "193550.922500", "193551.382500", "193551.842500", "193552.302500", "193552.762500", "193553.222500", "193553.682500", "193554.142500", "193554.602500", "193555.062500", "193555.522500", "193555.982500", "193556.442500", "193556.902500", "193557.362500", "193557.822500", "193558.282500", "193558.742500", "193559.202500", "193559.662500", "193600.122500", "193600.582500", "193601.042500", "193601.502500", "193601.962500", "193602.422500", "193602.882500", "193603.342500", "193603.802500", "193604.262500", "193604.722500", "193605.182500", "193605.642500", "193606.102500", "193606.562500", "193607.022500", "193607.482500", "193607.942500", "193608.402500", "193608.862500", "193609.322500", "193609.782500", "193610.242500", "193610.702500", "193611.162500", "193611.622500", "193612.082500", "193612.542500", "193613.002500", "193613.462500", "193613.922500", "193614.382500", "193614.842500", "193615.302500", "193615.762500", "193616.222500", "193616.682500", "193617.142500", "193617.602500", "193618.062500", "193618.522500", "193618.982500", "193619.442500", "193619.902500", "193620.362500", "193620.822500", "193621.282500", "193621.742500", "193622.202500", "193622.662500", "193623.122500", "193623.582500", "193624.042500", "193624.502500", "193624.962500", "193625.422500", "193625.882500", "193626.342500", "193626.802500", "193627.262500", "193627.722500", "193628.182500", "193628.642500", "193629.102500", "193629.562500", "193630.022500", "193630.482500", "193630.942500", "193631.402500", "193631.862500", "193632.322500", "193632.782500", "193633.242500", "193633.702500", "193634.162500", "193634.622500", "193635.082500", "193635.542500", "193636.002500", "193636.462500", "193636.922500", "193637.382500", "193637.842500", "193638.302500", "193638.762500", "193639.222500", "193639.682500", "193640.142500", "193640.602500", "193641.062500", "193641.522500", "193641.982500", "193642.442500", "193642.902500", "193643.362500", "193643.822500", "193644.282500"],
