{
  "AcquisitionMatrixPE": 82,
  "AcquisitionNumber": 1,
  "AcquisitionTime": "14:05:24.405000",
  "BandwidthPerPixelPhaseEncode": 24.888,
  "BaseResolution": 82,
  "BodyPartExamined": "BRAIN",
  "ConsistencyInfo": "N4_VE11E_LATEST_20181129",
  "ConversionSoftware": "dcm2niix",
  "ConversionSoftwareVersion": "v1.0.20201102",
  "DerivedVendorReportedEchoSpacing": 0.00049,
  "DeviceSerialNumber": "66112",
  "DwellTime": 2e-06,
  "EchoTime": 0.0272,
  "EchoTrainLength": 82,
  "EffectiveEchoSpacing": 0.00049,
  "FlipAngle": 44,
  "ImageComments": "Unaliased MB8/PE3",
  "ImageOrientationPatientDICOM": [0.999037, 0.0298197, 0.0321938, -0.0310469, 0.998783, 0.0383168],
  "ImageType": [
    "ORIGINAL",
    "PRIMARY",
    "M",
    "MB",
    "ND",
    "NORM",
    "MOSAIC"
],
  "ImagingFrequency": 123.252,
  "InPlanePhaseEncodingDirectionDICOM": "COL",
  "InstitutionAddress": "Maynard 3,Hanover,NH,US,03755",
  "InstitutionName": "dartmouth_brain_imaging_center",
  "InstitutionalDepartmentName": "Department",
  "MRAcquisitionType": "2D",
  "MagneticFieldStrength": 3,
  "Manufacturer": "Siemens",
  "ManufacturersModelName": "Prisma",
  "Modality": "MR",
  "MultibandAccelerationFactor": 8,
  "PartialFourier": 1,
  "PatientPosition": "HFS",
  "PercentPhaseFOV": 100,
  "PercentSampling": 100,
  "PhaseEncodingDirection": "j-",
  "PhaseEncodingSteps": 82,
  "PhaseResolution": 1,
  "PixelBandwidth": 3050,
  "ProcedureStepDescription": "Wager_Wager^1076_spacetop",
  "ProtocolName": "func_run-03_task-faces_acq-ap-mb8",
  "PulseSequenceDetails": "%CustomerSeq%\\cmrr_mbep2d_bold",
  "ReceiveCoilActiveElements": "HEA;HEP",
  "ReceiveCoilName": "Head_32",
  "ReconMatrixPE": 82,
  "RepetitionTime": 0.46,
  "SAR": 0.123101,
  "ScanOptions": "FS",
  "ScanningSequence": "EP",
  "SequenceName": "epfid2d1_82",
  "SequenceVariant": "SK\\SS",
  "SeriesDescription": "func_run-03_task-faces_acq-ap-mb8",
  "SeriesNumber": 22,
  "ShimSetting": [4142, -7767, -7252, 475, -57, -101, 4, 35],
  "SliceThickness": 2.7,
  "SliceTiming": [0, 0.25, 0.0625, 0.3125, 0.125, 0.375, 0.1875, 0, 0.25, 0.0625, 0.3125, 0.125, 0.375, 0.1875, 0, 0.25, 0.0625, 0.3125, 0.125, 0.375, 0.1875, 0, 0.25, 0.0625, 0.3125, 0.125, 0.375, 0.1875, 0, 0.25, 0.0625, 0.3125, 0.125, 0.375, 0.1875, 0, 0.25, 0.0625, 0.3125, 0.125, 0.375, 0.1875, 0, 0.25, 0.0625, 0.3125, 0.125, 0.375, 0.1875, 0, 0.25, 0.0625, 0.3125, 0.125, 0.375, 0.1875],
  "SoftwareVersions": "syngo MR E11",
  "SpacingBetweenSlices": 2.7,
  "StationName": "AWP66112",
  "TaskName": "faces",
  "TotalReadoutTime": 0.03969,
  "TxRefAmp": 269.146,
  "WipMemBlock": "3985474c-3a89-437e-b10f-58187b2e2054||Sequence: R016 ve11e/master r/434b28f1; Aug  7 2019 18:53:46 by eja",
  "dcmmeta_affine": [
    [-2.680342435836792, -0.08329656720161438, 0.08373238891363144, 118.11659240722656],
    [-0.08000411838293076, 2.6796624660491943, 0.10605449229478836, -94.88450622558594],
    [0.08637352287769318, -0.10280126333236694, 2.6966166496276855, -43.06901168823242],
    [0.0, 0.0, 0.0, 1.0]
],
  "dcmmeta_reorient_transform": [
    [0.0, -1.0, 0.0, 81.0],
    [1.0, 0.0, 0.0, 0.0],
    [0.0, 0.0, 1.0, 0.0],
    [0.0, 0.0, 0.0, 1.0]
],
  "dcmmeta_shape": [82, 82, 56, 914],
  "dcmmeta_slice_dim": 2,
  "dcmmeta_version": 0.6,
  "global": {
    "const": {
      "AccessionNumber": "A003899",
      "AcquisitionMatrix": [82, 0, 0, 82],
      "AngioFlag": "N",
      "BitsAllocated": 16,
      "BitsStored": 16,
      "BodyPartExamined": "BRAIN",
      "Columns": 656,
      "EchoNumbers": 1,
      "EchoTime": 27.2,
      "EchoTrainLength": 82,
      "FlipAngle": 44.0,
      "HighBit": 15,
      "ImageOrientationPatient": [0.99903670901785, 0.02981971579724, 0.03219376623751, -0.0310469020279, 0.99878321474184, 0.03831683473899],
      "ImagePositionPatient": [-856.72173697234, -914.19241861635, -105.68907795832],
      "ImageType": [
        "ORIGINAL",
        "PRIMARY",
        "M",
        "MB",
        "ND",
        "NORM",
        "MOSAIC"
],
      "ImagedNucleus": "1H",
      "ImagingFrequency": 123.252175,
      "InPlanePhaseEncodingDirection": "COL",
      "MRAcquisitionType": "2D",
      "MagneticFieldStrength": 3.0,
      "Manufacturer": "SIEMENS",
      "ManufacturerModelName": "Prisma",
      "Modality": "MR",
      "NumberOfAverages": 1.0,
      "NumberOfPhaseEncodingSteps": 82,
      "PercentPhaseFieldOfView": 100.0,
      "PercentSampling": 100.0,
      "PerformedProcedureStepStartTime": "124447.648000",
      "PhotometricInterpretation": "MONOCHROME2",
      "PixelBandwidth": 3050.0,
      "PixelRepresentation": 0,
      "PixelSpacing": [2.6829268932343, 2.6829268932343],
      "ProtocolName": "func_run-03_task-faces_acq-ap-mb8",
      "RepetitionTime": 460.0,
      "Rows": 656,
      "SAR": 0.12310075703756,
      "SamplesPerPixel": 1,
      "ScanOptions": "FS",
      "ScanningSequence": "EP",
      "SequenceName": "epfid2d1_82",
      "SequenceVariant": [
        "SK",
        "SS"
],
      "SeriesDescription": "func_run-03_task-faces_acq-ap-mb8",
      "SeriesNumber": 22,
      "SeriesTime": "140552.795000",
      "SliceLocation": -43.07902097202,
      "SliceThickness": 2.7000000476837,
      "SmallestImagePixelValue": 0,
      "SoftwareVersions": "syngo MR E11",
      "SpacingBetweenSlices": 2.7000000644077,
      "SpecificCharacterSet": "ISO_IR 100",
      "StudyID": "2",
      "StudyTime": "124447.571000",
      "TransmitCoilName": "Body",
      "VariableFlipAngleFlag": "N",
      "WindowCenterWidthExplanation": "Algo1"
    },
    "slices": {}
  },
  "time": {
    "samples": {
      "AcquisitionNumber": [1, 2, 3, 4, 5, 6, 7, 8, 9, 10, 11, 12, 13, 14, 15, 16, 17, 18, 19, 20, 21, 22, 23, 24, 25, 26, 27, 28, 29, 30, 31, 32, 33, 34, 35, 36, 37, 38, 39, 40, 41, 42, 43, 44, 45, 46, 47, 48, 49, 50, 51, 52, 53, 54, 55, 56, 57, 58, 59, 60, 61, 62, 63, 64, 65, 66, 67, 68, 69, 70, 71, 72, 73, 74, 75, 76, 77, 78, 79, 80, 81, 82, 83, 84, 85, 86, 87, 88, 89, 90, 91, 92, 93, 94, 95, 96, 97, 98, 99, 100, 101, 102, 103, 104, 105, 106, 107, 108, 109, 110, 111, 112, 113, 114, 115, 116, 117, 118, 119, 120, 121, 122, 123, 124, 125, 126, 127, 128, 129, 130, 131, 132, 133, 134, 135, 136, 137, 138, 139, 140, 141, 142, 143, 144, 145, 146, 147, 148, 149, 150, 151, 152, 153, 154, 155, 156, 157, 158, 159, 160, 161, 162, 163, 164, 165, 166, 167, 168, 169, 170, 171, 172, 173, 174, 175, 176, 177, 178, 179, 180, 181, 182, 183, 184, 185, 186, 187, 188, 189, 190, 191, 192, 193, 194, 195, 196, 197, 198, 199, 200, 201, 202, 203, 204, 205, 206, 207, 208, 209, 210, 211, 212, 213, 214, 215, 216, 217, 218, 219, 220, 221, 222, 223, 224, 225, 226, 227, 228, 229, 230, 231, 232, 233, 234, 235, 236, 237, 238, 239, 240, 241, 242, 243, 244, 245, 246, 247, 248, 249, 250, 251, 252, 253, 254, 255, 256, 257, 258, 259, 260, 261, 262, 263, 264, 265, 266, 267, 268, 269, 270, 271, 272, 273, 274, 275, 276, 277, 278, 279, 280, 281, 282, 283, 284, 285, 286, 287, 288, 289, 290, 291, 292, 293, 294, 295, 296, 297, 298, 299, 300, 301, 302, 303, 304, 305, 306, 307, 308, 309, 310, 311, 312, 313, 314, 315, 316, 317, 318, 319, 320, 321, 322, 323, 324, 325, 326, 327, 328, 329, 330, 331, 332, 333, 334, 335, 336, 337, 338, 339, 340, 341, 342, 343, 344, 345, 346, 347, 348, 349, 350, 351, 352, 353, 354, 355, 356, 357, 358, 359, 360, 361, 362, 363, 364, 365, 366, 367, 368, 369, 370, 371, 372, 373, 374, 375, 376, 377, 378, 379, 380, 381, 382, 383, 384, 385, 386, 387, 388, 389, 390, 391, 392, 393, 394, 395, 396, 397, 398, 399, 400, 401, 402, 403, 404, 405, 406, 407, 408, 409, 410, 411, 412, 413, 414, 415, 416, 417, 418, 419, 420, 421, 422, 423, 424, 425, 426, 427, 428, 429, 430, 431, 432, 433, 434, 435, 436, 437, 438, 439, 440, 441, 442, 443, 444, 445, 446, 447, 448, 449, 450, 451, 452, 453, 454, 455, 456, 457, 458, 459, 460, 461, 462, 463, 464, 465, 466, 467, 468, 469, 470, 471, 472, 473, 474, 475, 476, 477, 478, 479, 480, 481, 482, 483, 484, 485, 486, 487, 488, 489, 490, 491, 492, 493, 494, 495, 496, 497, 498, 499, 500, 501, 502, 503, 504, 505, 506, 507, 508, 509, 510, 511, 512, 513, 514, 515, 516, 517, 518, 519, 520, 521, 522, 523, 524, 525, 526, 527, 528, 529, 530, 531, 532, 533, 534, 535, 536, 537, 538, 539, 540, 541, 542, 543, 544, 545, 546, 547, 548, 549, 550, 551, 552, 553, 554, 555, 556, 557, 558, 559, 560, 561, 562, 563, 564, 565, 566, 567, 568, 569, 570, 571, 572, 573, 574, 575, 576, 577, 578, 579, 580, 581, 582, 583, 584, 585, 586, 587, 588, 589, 590, 591, 592, 593, 594, 595, 596, 597, 598, 599, 600, 601, 602, 603, 604, 605, 606, 607, 608, 609, 610, 611, 612, 613, 614, 615, 616, 617, 618, 619, 620, 621, 622, 623, 624, 625, 626, 627, 628, 629, 630, 631, 632, 633, 634, 635, 636, 637, 638, 639, 640, 641, 642, 643, 644, 645, 646, 647, 648, 649, 650, 651, 652, 653, 654, 655, 656, 657, 658, 659, 660, 661, 662, 663, 664, 665, 666, 667, 668, 669, 670, 671, 672, 673, 674, 675, 676, 677, 678, 679, 680, 681, 682, 683, 684, 685, 686, 687, 688, 689, 690, 691, 692, 693, 694, 695, 696, 697, 698, 699, 700, 701, 702, 703, 704, 705, 706, 707, 708, 709, 710, 711, 712, 713, 714, 715, 716, 717, 718, 719, 720, 721, 722, 723, 724, 725, 726, 727, 728, 729, 730, 731, 732, 733, 734, 735, 736, 737, 738, 739, 740, 741, 742, 743, 744, 745, 746, 747, 748, 749, 750, 751, 752, 753, 754, 755, 756, 757, 758, 759, 760, 761, 762, 763, 764, 765, 766, 767, 768, 769, 770, 771, 772, 773, 774, 775, 776, 777, 778, 779, 780, 781, 782, 783, 784, 785, 786, 787, 788, 789, 790, 791, 792, 793, 794, 795, 796, 797, 798, 799, 800, 801, 802, 803, 804, 805, 806, 807, 808, 809, 810, 811, 812, 813, 814, 815, 816, 817, 818, 819, 820, 821, 822, 823, 824, 825, 826, 827, 828, 829, 830, 831, 832, 833, 834, 835, 836, 837, 838, 839, 840, 841, 842, 843, 844, 845, 846, 847, 848, 849, 850, 851, 852, 853, 854, 855, 856, 857, 858, 859, 860, 861, 862, 863, 864, 865, 866, 867, 868, 869, 870, 871, 872, 873, 874, 875, 876, 877, 878, 879, 880, 881, 882, 883, 884, 885, 886, 887, 888, 889, 890, 891, 892, 893, 894, 895, 896, 897, 898, 899, 900, 901, 902, 903, 904, 905, 906, 907, 908, 909, 910, 911, 912, 913, 914],
      "AcquisitionTime": ["140524.405000", "140524.865000", "140525.325000", "140525.785000", "140526.245000", "140526.705000", "140527.165000", "140527.625000", "140528.085000", "140528.545000", "140529.005000", "140529.465000", "140529.925000", "140530.385000", "140530.845000", "140531.305000", "140531.765000", "140532.225000", "140532.685000", "140533.145000", "140533.605000", "140534.065000", "140534.525000", "140534.985000", "140535.445000", "140535.905000", "140536.365000", "140536.825000", "140537.285000", "140537.745000", "140538.205000", "140538.665000", "140539.125000", "140539.585000", "140540.045000", "140540.505000", "140540.965000", "140541.425000", "140541.885000", "140542.345000", "140542.805000", "140543.265000", "140543.725000", "140544.185000", "140544.645000", "140545.105000", "140545.565000", "140546.025000", "140546.485000", "140546.945000", "140547.405000", "140547.865000", "140548.325000", "140548.785000", "140549.245000", "140549.705000", "140550.165000", "140550.625000", "140551.085000", "140551.545000", "140552.005000", "140552.465000", "140552.925000", "140553.385000", "140553.845000", "140554.305000", "140554.765000", "140555.225000", "140555.685000", "140556.145000", "140556.605000", "140557.065000", "140557.525000", "140557.985000", "140558.445000", "140558.905000", "140559.365000", "140559.825000", "140600.285000", "140600.745000", "140601.205000", "140601.665000", "140602.125000", "140602.585000", "140603.045000", "140603.505000", "140603.965000", "140604.425000", "140604.885000", "140605.345000", "140605.805000", "140606.265000", "140606.725000", "140607.185000", "140607.645000", "140608.105000", "140608.565000", "140609.025000", "140609.485000", "140609.945000", "140610.405000", "140610.865000", "140611.325000", "140611.785000", "140612.245000", "140612.705000", "140613.165000", "140613.625000", "140614.085000", "140614.545000", "140615.005000", "140615.465000", "140615.925000", "140616.385000", "140616.845000", "140617.305000", "140617.765000", "140618.225000", "140618.685000", "140619.145000", "140619.605000", "140620.065000", "140620.525000", "140620.985000", "140621.445000", "140621.905000", "140622.365000", "140622.825000", "140623.285000", "140623.745000", "140624.205000", "140624.665000", "140625.125000", "140625.585000", "140626.045000", "140626.505000", "140626.965000", "140627.425000", "140627.885000", "140628.345000", "140628.805000", "140629.265000", "140629.725000", "140630.185000", "140630.645000", "140631.105000", "140631.565000", "140632.025000", "140632.485000", "140632.945000", "140633.405000", "140633.865000", "140634.325000", "140634.785000", "140635.245000", "140635.705000", "140636.165000", "140636.625000", "140637.085000", "140637.545000", "140638.005000", "140638.465000", "140638.925000", "140639.385000", "140639.845000", "140640.305000", "140640.765000", "140641.225000", "140641.685000", "140642.145000", "140642.605000", "140643.065000", "140643.525000", "140643.985000", "140644.445000", "140644.905000", "140645.365000", "140645.825000", "140646.285000", "140646.745000", "140647.205000", "140647.665000", "140648.125000", "140648.585000", "140649.045000", "140649.505000", "140649.965000", "140650.425000", "140650.885000", "140651.345000", "140651.805000", "140652.265000", "140652.725000", "140653.185000", "140653.645000", "140654.105000", "140654.565000", "140655.025000", "140655.485000", "140655.945000", "140656.405000", "140656.865000", "140657.325000", "140657.785000", "140658.245000", "140658.705000", "140659.165000", "140659.625000", "140700.085000", "140700.545000", "140701.005000", "140701.465000", "140701.925000", "140702.385000", "140702.845000", "140703.305000", "140703.765000", "140704.225000", "140704.685000", "140705.145000", "140705.605000", "140706.065000", "140706.525000", "140706.985000", "140707.445000", "140707.905000", "140708.365000", "140708.825000", "140709.285000", "140709.745000", "140710.205000", "140710.665000", "140711.125000", "140711.585000", "140712.045000", "140712.505000", "140712.965000", "140713.425000", "140713.885000", "140714.345000", "140714.805000", "140715.265000", "140715.725000", "140716.185000", "140716.645000", "140717.105000", "140717.565000", "140718.025000", "140718.485000", "140718.945000", "140719.405000", "140719.865000", "140720.325000", "140720.785000", "140721.245000", "140721.705000", "140722.165000", "140722.625000", "140723.085000", "140723.545000", "140724.005000", "140724.465000", "140724.925000", "140725.385000", "140725.845000", "140726.305000", "140726.765000", "140727.225000", "140727.685000", "140728.145000", "140728.605000", "140729.065000", "140729.525000", "140729.985000", "140730.445000", "140730.905000", "140731.365000", "140731.825000", "140732.285000", "140732.745000", "140733.205000", "140733.665000", "140734.125000", "140734.585000", "140735.045000", "140735.505000", "140735.965000", "140736.425000", "140736.885000", "140737.345000", "140737.805000", "140738.265000", "140738.725000", "140739.185000", "140739.645000", "140740.105000", "140740.565000", "140741.025000", "140741.485000", "140741.945000", "140742.405000", "140742.865000", "140743.325000", "140743.785000", "140744.245000", "140744.705000", "140745.165000", "140745.625000", "140746.085000", "140746.545000", "140747.005000", "140747.465000", "140747.925000", "140748.385000", "140748.845000", "140749.305000", "140749.765000", "140750.225000", "140750.685000", "140751.145000", "140751.605000", "140752.065000", "140752.525000", "140752.985000", "140753.445000", "140753.905000", "140754.365000", "140754.825000", "140755.285000", "140755.745000", "140756.205000", "140756.665000", "140757.125000", "140757.585000", "140758.045000", "140758.505000", "140758.965000", "140759.425000", "140759.885000", "140800.345000", "140800.805000", "140801.265000", "140801.725000", "140802.185000", "140802.645000", "140803.105000", "140803.565000", "140804.025000", "140804.485000", "140804.945000", "140805.405000", "140805.865000", "140806.325000", "140806.785000", "140807.245000", "140807.705000", "140808.165000", "140808.625000", "140809.085000", "140809.545000", "140810.005000", "140810.465000", "140810.925000", "140811.385000", "140811.845000", "140812.305000", "140812.765000", "140813.225000", "140813.685000", "140814.145000", "140814.605000", "140815.065000", "140815.525000", "140815.985000", "140816.445000", "140816.905000", "140817.365000", "140817.825000", "140818.285000", "140818.745000", "140819.205000", "140819.665000", "140820.125000", "140820.585000", "140821.045000", "140821.505000", "140821.965000", "140822.425000", "140822.885000", "140823.345000", "140823.805000", "140824.265000", "140824.725000", "140825.185000", "140825.645000", "140826.105000", "140826.565000", "140827.025000", "140827.485000", "140827.945000", "140828.405000", "140828.865000", "140829.325000", "140829.785000", "140830.245000", "140830.705000", "140831.165000", "140831.625000", "140832.085000", "140832.545000", "140833.005000", "140833.465000", "140833.925000", "140834.385000", "140834.845000", "140835.305000", "140835.765000", "140836.225000", "140836.685000", "140837.145000", "140837.605000", "140838.065000", "140838.525000", "140838.985000", "140839.445000", "140839.905000", "140840.365000", "140840.825000", "140841.285000", "140841.745000", "140842.205000", "140842.665000", "140843.125000", "140843.585000", "140844.045000", "140844.505000", "140844.965000", "140845.425000", "140845.885000", "140846.345000", "140846.805000", "140847.265000", "140847.725000", "140848.185000", "140848.645000", "140849.105000", "140849.565000", "140850.025000", "140850.485000", "140850.945000", "140851.405000", "140851.865000", "140852.325000", "140852.785000", "140853.245000", "140853.705000", "140854.165000", "140854.625000", "140855.085000", "140855.545000", "140856.005000", "140856.465000", "140856.925000", "140857.385000", "140857.845000", "140858.305000", "140858.765000", "140859.225000", "140859.685000", "140900.145000", "140900.605000", "140901.065000", "140901.525000", "140901.985000", "140902.445000", "140902.905000", "140903.365000", "140903.825000", "140904.285000", "140904.745000", "140905.205000", "140905.665000", "140906.125000", "140906.585000", "140907.045000", "140907.505000", "140907.965000", "140908.425000", "140908.885000", "140909.345000", "140909.805000", "140910.265000", "140910.725000", "140911.185000", "140911.645000", "140912.105000", "140912.565000", "140913.025000", "140913.485000", "140913.945000", "140914.405000", "140914.865000", "140915.325000", "140915.785000", "140916.245000", "140916.705000", "140917.165000", "140917.625000", "140918.085000", "140918.545000", "140919.005000", "140919.465000", "140919.925000", "140920.385000", "140920.845000", "140921.305000", "140921.765000", "140922.225000", "140922.685000", "140923.145000", "140923.605000", "140924.065000", "140924.525000", "140924.985000", "140925.445000", "140925.905000", "140926.365000", "140926.825000", "140927.285000", "140927.745000", "140928.205000", "140928.665000", "140929.125000", "140929.585000", "140930.045000", "140930.505000", "140930.965000", "140931.425000", "140931.885000", "140932.345000", "140932.805000", "140933.265000", "140933.725000", "140934.185000", "140934.645000", "140935.105000", "140935.565000", "140936.025000", "140936.485000", "140936.945000", "140937.405000", "140937.865000", "140938.325000", "140938.785000", "140939.245000", "140939.705000", "140940.165000", "140940.625000", "140941.085000", "140941.545000", "140942.005000", "140942.465000", "140942.925000", "140943.385000", "140943.845000", "140944.305000", "140944.765000", "140945.225000", "140945.685000", "140946.145000", "140946.605000", "140947.065000", "140947.525000", "140947.985000", "140948.445000", "140948.905000", "140949.365000", "140949.825000", "140950.285000", "140950.745000", "140951.205000", "140951.665000", "140952.125000", "140952.585000", "140953.045000", "140953.505000", "140953.965000", "140954.425000", "140954.885000", "140955.345000", "140955.805000", "140956.265000", "140956.725000", "140957.185000", "140957.645000", "140958.105000", "140958.565000", "140959.025000", "140959.485000", "140959.945000", "141000.405000", "141000.865000", "141001.325000", "141001.785000", "141002.245000", "141002.705000", "141003.165000", "141003.625000", "141004.085000", "141004.545000", "141005.005000", "141005.465000", "141005.925000", "141006.385000", "141006.845000", "141007.305000", "141007.765000", "141008.225000", "141008.685000", "141009.145000", "141009.605000", "141010.065000", "141010.525000", "141010.985000", "141011.445000", "141011.905000", "141012.365000", "141012.825000", "141013.285000", "141013.745000", "141014.205000", "141014.665000", "141015.125000", "141015.585000", "141016.045000", "141016.505000", "141016.965000", "141017.425000", "141017.885000", "141018.345000", "141018.805000", "141019.265000", "141019.725000", "141020.185000", "141020.645000", "141021.105000", "141021.565000", "141022.025000", "141022.485000", "141022.945000", "141023.405000", "141023.865000", "141024.325000", "141024.785000", "141025.245000", "141025.705000", "141026.165000", "141026.625000", "141027.085000", "141027.545000", "141028.005000", "141028.465000", "141028.925000", "141029.385000", "141029.845000", "141030.305000", "141030.765000", "141031.225000", "141031.685000", "141032.145000", "141032.605000", "141033.065000", "141033.525000", "141033.985000", "141034.445000", "141034.905000", "141035.365000", "141035.825000", "141036.285000", "141036.745000", "141037.205000", "141037.665000", "141038.125000", "141038.585000", "141039.045000", "141039.505000", "141039.965000", "141040.425000", "141040.885000", "141041.345000", "141041.805000", "141042.265000", "141042.725000", "141043.185000", "141043.645000", "141044.105000", "141044.565000", "141045.025000", "141045.485000", "141045.945000", "141046.405000", "141046.865000", "141047.325000", "141047.785000", "141048.245000", "141048.705000", "141049.165000", "141049.625000", "141050.085000", "141050.545000", "141051.005000", "141051.465000", "141051.925000", "141052.385000", "141052.845000", "141053.305000", "141053.765000", "141054.225000", "141054.685000", "141055.145000", "141055.605000", "141056.065000", "141056.525000", "141056.985000", "141057.445000", "141057.905000", "141058.365000", "141058.825000", "141059.285000", "141059.745000", "141100.205000", "141100.665000", "141101.125000", "141101.585000", "141102.045000", "141102.505000", "141102.965000", "141103.425000", "141103.885000", "141104.345000", "141104.805000", "141105.265000", "141105.725000", "141106.185000", "141106.645000", "141107.105000", "141107.565000", "141108.025000", "141108.485000", "141108.945000", "141109.405000", "141109.865000", "141110.325000", "141110.785000", "141111.245000", "141111.705000", "141112.165000", "141112.625000", "141113.085000", "141113.545000", "141114.005000", "141114.465000", "141114.925000", "141115.385000", "141115.845000", "141116.305000", "141116.765000", "141117.225000", "141117.685000", "141118.145000", "141118.605000", "141119.065000", "141119.525000", "141119.985000", "141120.445000", "141120.905000", "141121.365000", "141121.825000", "141122.285000", "141122.745000", "141123.205000", "141123.665000", "141124.125000", "141124.585000", "141125.045000", "141125.505000", "141125.965000", "141126.425000", "141126.885000", "141127.345000", "141127.805000", "141128.265000", "141128.725000", "141129.185000", "141129.645000", "141130.105000", "141130.565000", "141131.025000", "141131.485000", "141131.945000", "141132.405000", "141132.865000", "141133.325000", "141133.785000", "141134.245000", "141134.705000", "141135.165000", "141135.625000", "141136.085000", "141136.545000", "141137.005000", "141137.465000", "141137.925000", "141138.385000", "141138.845000", "141139.305000", "141139.765000", "141140.225000", "141140.685000", "141141.145000", "141141.605000", "141142.065000", "141142.525000", "141142.985000", "141143.445000", "141143.905000", "141144.365000", "141144.825000", "141145.285000", "141145.745000", "141146.205000", "141146.665000", "141147.125000", "141147.585000", "141148.045000", "141148.505000", "141148.965000", "141149.425000", "141149.885000", "141150.345000", "141150.805000", "141151.265000", "141151.725000", "141152.185000", "141152.645000", "141153.105000", "141153.565000", "141154.025000", "141154.485000", "141154.945000", "141155.405000", "141155.865000", "141156.325000", "141156.785000", "141157.245000", "141157.705000", "141158.165000", "141158.625000", "141159.085000", "141159.545000", "141200.005000", "141200.465000", "141200.925000", "141201.385000", "141201.845000", "141202.305000", "141202.765000", "141203.225000", "141203.685000", "141204.145000", "141204.605000", "141205.065000", "141205.525000", "141205.985000", "141206.445000", "141206.905000", "141207.365000", "141207.825000", "141208.285000", "141208.745000", "141209.205000", "141209.665000", "141210.125000", "141210.585000", "141211.045000", "141211.505000", "141211.965000", "141212.425000", "141212.885000", "141213.345000", "141213.805000", "141214.265000", "141214.725000", "141215.185000", "141215.645000", "141216.105000", "141216.565000", "141217.025000", "141217.485000", "141217.945000", "141218.405000", "141218.865000", "141219.325000", "141219.785000", "141220.245000", "141220.705000", "141221.165000", "141221.625000", "141222.085000", "141222.545000", "141223.005000", "141223.465000", "141223.925000", "141224.385000"],
