{
  "AcquisitionMatrixPE": 82,
  "AcquisitionNumber": 1,
  "AcquisitionTime": "14:15:35.415000",
  "BandwidthPerPixelPhaseEncode": 24.888,
  "BaseResolution": 82,
  "BodyPartExamined": "BRAIN",
  "ConsistencyInfo": "N4_VE11E_LATEST_20181129",
  "ConversionSoftware": "dcm2niix",
  "ConversionSoftwareVersion": "v1.0.20201102",
  "DerivedVendorReportedEchoSpacing": 0.00049,
  "DeviceSerialNumber": "66112",
  "DwellTime": 2e-06,
  "EchoTime": 0.0272,
  "EchoTrainLength": 82,
  "EffectiveEchoSpacing": 0.00049,
  "FlipAngle": 44,
  "ImageComments": "Unaliased MB8/PE3",
  "ImageOrientationPatientDICOM": [0.999357, -0.0308641, 0.0182307, 0.0300094, 0.998517, 0.0454289],
  "ImageType": [
    "ORIGINAL",
    "PRIMARY",
    "M",
    "MB",
    "ND",
    "NORM",
    "MOSAIC"
],
  "ImagingFrequency": 123.252,
  "InPlanePhaseEncodingDirectionDICOM": "COL",
  "InstitutionAddress": "Maynard 3,Hanover,NH,US,03755",
  "InstitutionName": "dartmouth_brain_imaging_center",
  "InstitutionalDepartmentName": "Department",
  "MRAcquisitionType": "2D",
  "MagneticFieldStrength": 3,
  "Manufacturer": "Siemens",
  "ManufacturersModelName": "Prisma",
  "Modality": "MR",
  "MultibandAccelerationFactor": 8,
  "PartialFourier": 1,
  "PatientPosition": "HFS",
  "PercentPhaseFOV": 100,
  "PercentSampling": 100,
  "PhaseEncodingDirection": "j-",
  "PhaseEncodingSteps": 82,
  "PhaseResolution": 1,
  "PixelBandwidth": 3050,
  "ProcedureStepDescription": "Wager_Wager^1076_spacetop",
  "ProtocolName": "func_run-01_task-alignvideo_acq-ap-mb8",
  "PulseSequenceDetails": "%CustomerSeq%\\cmrr_mbep2d_bold",
  "ReceiveCoilActiveElements": "HEA;HEP",
  "ReceiveCoilName": "Head_32",
  "ReconMatrixPE": 82,
  "RepetitionTime": 0.46,
  "SAR": 0.123036,
  "ScanOptions": "FS",
  "ScanningSequence": "EP",
  "SequenceName": "epfid2d1_82",
  "SequenceVariant": "SK\\SS",
  "SeriesDescription": "func_run-01_task-alignvideo_acq-ap-mb8",
  "SeriesNumber": 30,
  "ShimSetting": [4142, -7768, -7254, 477, -52, -105, -5, 35],
  "SliceThickness": 2.7,
  "SliceTiming": [0, 0.2525, 0.0625, 0.315, 0.125, 0.3775, 0.19, 0, 0.2525, 0.0625, 0.315, 0.125, 0.3775, 0.19, 0, 0.2525, 0.0625, 0.315, 0.125, 0.3775, 0.19, 0, 0.2525, 0.0625, 0.315, 0.125, 0.3775, 0.19, 0, 0.2525, 0.0625, 0.315, 0.125, 0.3775, 0.19, 0, 0.2525, 0.0625, 0.315, 0.125, 0.3775, 0.19, 0, 0.2525, 0.0625, 0.315, 0.125, 0.3775, 0.19, 0, 0.2525, 0.0625, 0.315, 0.125, 0.3775, 0.19],
  "SoftwareVersions": "syngo MR E11",
  "SpacingBetweenSlices": 2.7,
  "StationName": "AWP66112",
  "TaskName": "alignvideo",
  "TotalReadoutTime": 0.03969,
  "TxRefAmp": 269.146,
  "WipMemBlock": "15840151-b3cc-4aad-9116-76a93c70d6b1||Sequence: R016 ve11e/master r/434b28f1; Aug  7 2019 18:53:46 by eja",
  "dcmmeta_affine": [
    [-2.6812026500701904, 0.08051304519176483, 0.05293568596243858, 112.7358169555664],
    [0.08280613273382187, 2.6789474487304688, 0.12110214680433273, -100.4349594116211],
    [0.04891170933842659, -0.12188251316547394, 2.696763277053833, -46.480892181396484],
    [0.0, 0.0, 0.0, 1.0]
],
  "dcmmeta_reorient_transform": [
    [0.0, -1.0, 0.0, 81.0],
    [1.0, 0.0, 0.0, 0.0],
    [0.0, 0.0, 1.0, 0.0],
    [0.0, 0.0, 0.0, 1.0]
],
  "dcmmeta_shape": [82, 82, 56, 839],
  "dcmmeta_slice_dim": 2,
  "dcmmeta_version": 0.6,
  "global": {
    "const": {
      "AccessionNumber": "A003899",
      "AcquisitionMatrix": [82, 0, 0, 82],
      "AngioFlag": "N",
      "BitsAllocated": 16,
      "BitsStored": 16,
      "BodyPartExamined": "BRAIN",
      "Columns": 656,
      "EchoNumbers": 1,
      "EchoTime": 27.2,
      "EchoTrainLength": 82,
      "FlipAngle": 44.0,
      "HighBit": 15,
      "ImageOrientationPatient": [0.99935731735438, -0.0308641026351, 0.01823072732488, 0.03000940660167, 0.99851672354831, 0.04542893692099],
      "ImagePositionPatient": [-911.86977153047, -861.65231147747, -105.37131687664],
      "ImageType": [
        "ORIGINAL",
        "PRIMARY",
        "M",
        "MB",
        "ND",
        "NORM",
        "MOSAIC"
],
      "ImagedNucleus": "1H",
      "ImagingFrequency": 123.252177,
      "InPlanePhaseEncodingDirection": "COL",
      "MRAcquisitionType": "2D",
      "MagneticFieldStrength": 3.0,
      "Manufacturer": "SIEMENS",
      "ManufacturerModelName": "Prisma",
      "Modality": "MR",
      "NumberOfAverages": 1.0,
      "NumberOfPhaseEncodingSteps": 82,
      "PercentPhaseFieldOfView": 100.0,
      "PercentSampling": 100.0,
      "PerformedProcedureStepStartTime": "124447.648000",
      "PhotometricInterpretation": "MONOCHROME2",
      "PixelBandwidth": 3050.0,
      "PixelRepresentation": 0,
      "PixelSpacing": [2.6829268932343, 2.6829268932343],
      "ProtocolName": "func_run-01_task-alignvideo_acq-ap-mb8",
      "RepetitionTime": 460.0,
      "Rows": 656,
      "SAR": 0.12303562029925,
      "SamplesPerPixel": 1,
      "ScanOptions": "FS",
      "ScanningSequence": "EP",
      "SequenceName": "epfid2d1_82",
      "SequenceVariant": [
        "SK",
        "SS"
],
      "SeriesDescription": "func_run-01_task-alignvideo_acq-ap-mb8",
      "SeriesNumber": 30,
      "SeriesTime": "141552.889000",
      "SliceLocation": -48.719666367238,
      "SliceThickness": 2.7000000476837,
      "SmallestImagePixelValue": 0,
      "SoftwareVersions": "syngo MR E11",
      "SpacingBetweenSlices": 2.7000000033628,
      "SpecificCharacterSet": "ISO_IR 100",
      "StudyID": "2",
      "StudyTime": "124447.571000",
      "TransmitCoilName": "Body",
      "VariableFlipAngleFlag": "N",
      "WindowCenterWidthExplanation": "Algo1"
    },
    "slices": {}
  },
  "time": {
    "samples": {
      "AcquisitionNumber": [1, 2, 3, 4, 5, 6, 7, 8, 9, 10, 11, 12, 13, 14, 15, 16, 17, 18, 19, 20, 21, 22, 23, 24, 25, 26, 27, 28, 29, 30, 31, 32, 33, 34, 35, 36, 37, 38, 39, 40, 41, 42, 43, 44, 45, 46, 47, 48, 49, 50, 51, 52, 53, 54, 55, 56, 57, 58, 59, 60, 61, 62, 63, 64, 65, 66, 67, 68, 69, 70, 71, 72, 73, 74, 75, 76, 77, 78, 79, 80, 81, 82, 83, 84, 85, 86, 87, 88, 89, 90, 91, 92, 93, 94, 95, 96, 97, 98, 99, 100, 101, 102, 103, 104, 105, 106, 107, 108, 109, 110, 111, 112, 113, 114, 115, 116, 117, 118, 119, 120, 121, 122, 123, 124, 125, 126, 127, 128, 129, 130, 131, 132, 133, 134, 135, 136, 137, 138, 139, 140, 141, 142, 143, 144, 145, 146, 147, 148, 149, 150, 151, 152, 153, 154, 155, 156, 157, 158, 159, 160, 161, 162, 163, 164, 165, 166, 167, 168, 169, 170, 171, 172, 173, 174, 175, 176, 177, 178, 179, 180, 181, 182, 183, 184, 185, 186, 187, 188, 189, 190, 191, 192, 193, 194, 195, 196, 197, 198, 199, 200, 201, 202, 203, 204, 205, 206, 207, 208, 209, 210, 211, 212, 213, 214, 215, 216, 217, 218, 219, 220, 221, 222, 223, 224, 225, 226, 227, 228, 229, 230, 231, 232, 233, 234, 235, 236, 237, 238, 239, 240, 241, 242, 243, 244, 245, 246, 247, 248, 249, 250, 251, 252, 253, 254, 255, 256, 257, 258, 259, 260, 261, 262, 263, 264, 265, 266, 267, 268, 269, 270, 271, 272, 273, 274, 275, 276, 277, 278, 279, 280, 281, 282, 283, 284, 285, 286, 287, 288, 289, 290, 291, 292, 293, 294, 295, 296, 297, 298, 299, 300, 301, 302, 303, 304, 305, 306, 307, 308, 309, 310, 311, 312, 313, 314, 315, 316, 317, 318, 319, 320, 321, 322, 323, 324, 325, 326, 327, 328, 329, 330, 331, 332, 333, 334, 335, 336, 337, 338, 339, 340, 341, 342, 343, 344, 345, 346, 347, 348, 349, 350, 351, 352, 353, 354, 355, 356, 357, 358, 359, 360, 361, 362, 363, 364, 365, 366, 367, 368, 369, 370, 371, 372, 373, 374, 375, 376, 377, 378, 379, 380, 381, 382, 383, 384, 385, 386, 387, 388, 389, 390, 391, 392, 393, 394, 395, 396, 397, 398, 399, 400, 401, 402, 403, 404, 405, 406, 407, 408, 409, 410, 411, 412, 413, 414, 415, 416, 417, 418, 419, 420, 421, 422, 423, 424, 425, 426, 427, 428, 429, 430, 431, 432, 433, 434, 435, 436, 437, 438, 439, 440, 441, 442, 443, 444, 445, 446, 447, 448, 449, 450, 451, 452, 453, 454, 455, 456, 457, 458, 459, 460, 461, 462, 463, 464, 465, 466, 467, 468, 469, 470, 471, 472, 473, 474, 475, 476, 477, 478, 479, 480, 481, 482, 483, 484, 485, 486, 487, 488, 489, 490, 491, 492, 493, 494, 495, 496, 497, 498, 499, 500, 501, 502, 503, 504, 505, 506, 507, 508, 509, 510, 511, 512, 513, 514, 515, 516, 517, 518, 519, 520, 521, 522, 523, 524, 525, 526, 527, 528, 529, 530, 531, 532, 533, 534, 535, 536, 537, 538, 539, 540, 541, 542, 543, 544, 545, 546, 547, 548, 549, 550, 551, 552, 553, 554, 555, 556, 557, 558, 559, 560, 561, 562, 563, 564, 565, 566, 567, 568, 569, 570, 571, 572, 573, 574, 575, 576, 577, 578, 579, 580, 581, 582, 583, 584, 585, 586, 587, 588, 589, 590, 591, 592, 593, 594, 595, 596, 597, 598, 599, 600, 601, 602, 603, 604, 605, 606, 607, 608, 609, 610, 611, 612, 613, 614, 615, 616, 617, 618, 619, 620, 621, 622, 623, 624, 625, 626, 627, 628, 629, 630, 631, 632, 633, 634, 635, 636, 637, 638, 639, 640, 641, 642, 643, 644, 645, 646, 647, 648, 649, 650, 651, 652, 653, 654, 655, 656, 657, 658, 659, 660, 661, 662, 663, 664, 665, 666, 667, 668, 669, 670, 671, 672, 673, 674, 675, 676, 677, 678, 679, 680, 681, 682, 683, 684, 685, 686, 687, 688, 689, 690, 691, 692, 693, 694, 695, 696, 697, 698, 699, 700, 701, 702, 703, 704, 705, 706, 707, 708, 709, 710, 711, 712, 713, 714, 715, 716, 717, 718, 719, 720, 721, 722, 723, 724, 725, 726, 727, 728, 729, 730, 731, 732, 733, 734, 735, 736, 737, 738, 739, 740, 741, 742, 743, 744, 745, 746, 747, 748, 749, 750, 751, 752, 753, 754, 755, 756, 757, 758, 759, 760, 761, 762, 763, 764, 765, 766, 767, 768, 769, 770, 771, 772, 773, 774, 775, 776, 777, 778, 779, 780, 781, 782, 783, 784, 785, 786, 787, 788, 789, 790, 791, 792, 793, 794, 795, 796, 797, 798, 799, 800, 801, 802, 803, 804, 805, 806, 807, 808, 809, 810, 811, 812, 813, 814, 815, 816, 817, 818, 819, 820, 821, 822, 823, 824, 825, 826, 827, 828, 829, 830, 831, 832, 833, 834, 835, 836, 837, 838, 839],
      "AcquisitionTime": ["141535.415000", "141535.875000", "141536.335000", "141536.795000", "141537.255000", "141537.715000", "141538.175000", "141538.635000", "141539.095000", "141539.555000", "141540.015000", "141540.475000", "141540.935000", "141541.395000", "141541.855000", "141542.315000", "141542.775000", "141543.235000", "141543.695000", "141544.155000", "141544.615000", "141545.075000", "141545.535000", "141545.995000", "141546.455000", "141546.915000", "141547.375000", "141547.835000", "141548.295000", "141548.755000", "141549.215000", "141549.675000", "141550.135000", "141550.595000", "141551.055000", "141551.515000", "141551.975000", "141552.435000", "141552.895000", "141553.355000", "141553.815000", "141554.275000", "141554.735000", "141555.195000", "141555.655000", "141556.115000", "141556.575000", "141557.035000", "141557.495000", "141557.955000", "141558.415000", "141558.875000", "141559.335000", "141559.795000", "141600.255000", "141600.715000", "141601.175000", "141601.635000", "141602.095000", "141602.555000", "141603.015000", "141603.475000", "141603.935000", "141604.395000", "141604.855000", "141605.315000", "141605.775000", "141606.235000", "141606.695000", "141607.155000", "141607.615000", "141608.075000", "141608.535000", "141608.995000", "141609.455000", "141609.915000", "141610.375000", "141610.835000", "141611.295000", "141611.755000", "141612.215000", "141612.675000", "141613.135000", "141613.595000", "141614.055000", "141614.515000", "141614.975000", "141615.435000", "141615.895000", "141616.355000", "141616.815000", "141617.275000", "141617.735000", "141618.195000", "141618.655000", "141619.115000", "141619.575000", "141620.035000", "141620.495000", "141620.955000", "141621.415000", "141621.875000", "141622.335000", "141622.795000", "141623.255000", "141623.715000", "141624.175000", "141624.635000", "141625.095000", "141625.555000", "141626.015000", "141626.475000", "141626.935000", "141627.395000", "141627.855000", "141628.315000", "141628.775000", "141629.235000", "141629.695000", "141630.155000", "141630.615000", "141631.075000", "141631.535000", "141631.995000", "141632.455000", "141632.915000", "141633.375000", "141633.835000", "141634.295000", "141634.755000", "141635.215000", "141635.675000", "141636.135000", "141636.595000", "141637.055000", "141637.515000", "141637.975000", "141638.435000", "141638.895000", "141639.355000", "141639.815000", "141640.275000", "141640.735000", "141641.195000", "141641.655000", "141642.115000", "141642.575000", "141643.035000", "141643.495000", "141643.955000", "141644.415000", "141644.875000", "141645.335000", "141645.795000", "141646.255000", "141646.715000", "141647.175000", "141647.635000", "141648.095000", "141648.555000", "141649.015000", "141649.475000", "141649.935000", "141650.395000", "141650.855000", "141651.315000", "141651.775000", "141652.235000", "141652.695000", "141653.155000", "141653.615000", "141654.075000", "141654.535000", "141654.995000", "141655.455000", "141655.915000", "141656.375000", "141656.835000", "141657.295000", "141657.755000", "141658.215000", "141658.675000", "141659.135000", "141659.595000", "141700.055000", "141700.515000", "141700.975000", "141701.435000", "141701.895000", "141702.355000", "141702.815000", "141703.275000", "141703.735000", "141704.195000", "141704.655000", "141705.115000", "141705.575000", "141706.035000", "141706.495000", "141706.955000", "141707.415000", "141707.875000", "141708.335000", "141708.795000", "141709.255000", "141709.715000", "141710.175000", "141710.635000", "141711.095000", "141711.555000", "141712.015000", "141712.475000", "141712.935000", "141713.395000", "141713.855000", "141714.315000", "141714.775000", "141715.235000", "141715.695000", "141716.155000", "141716.615000", "141717.075000", "141717.535000", "141717.995000", "141718.455000", "141718.915000", "141719.375000", "141719.835000", "141720.295000", "141720.755000", "141721.215000", "141721.675000", "141722.135000", "141722.595000", "141723.055000", "141723.515000", "141723.975000", "141724.435000", "141724.895000", "141725.355000", "141725.815000", "141726.275000", "141726.735000", "141727.195000", "141727.655000", "141728.115000", "141728.575000", "141729.035000", "141729.495000", "141729.955000", "141730.415000", "141730.875000", "141731.335000", "141731.795000", "141732.255000", "141732.715000", "141733.175000", "141733.635000", "141734.095000", "141734.555000", "141735.015000", "141735.475000", "141735.935000", "141736.395000", "141736.855000", "141737.315000", "141737.775000", "141738.235000", "141738.695000", "141739.155000", "141739.615000", "141740.075000", "141740.535000", "141740.995000", "141741.455000", "141741.915000", "141742.375000", "141742.835000", "141743.295000", "141743.755000", "141744.215000", "141744.675000", "141745.135000", "141745.595000", "141746.055000", "141746.515000", "141746.975000", "141747.435000", "141747.895000", "141748.355000", "141748.815000", "141749.275000", "141749.735000", "141750.195000", "141750.655000", "141751.115000", "141751.575000", "141752.035000", "141752.495000", "141752.955000", "141753.415000", "141753.875000", "141754.335000", "141754.795000", "141755.255000", "141755.715000", "141756.175000", "141756.635000", "141757.095000", "141757.555000", "141758.015000", "141758.475000", "141758.935000", "141759.395000", "141759.855000", "141800.315000", "141800.775000", "141801.235000", "141801.695000", "141802.155000", "141802.615000", "141803.075000", "141803.535000", "141803.995000", "141804.455000", "141804.915000", "141805.375000", "141805.835000", "141806.295000", "141806.755000", "141807.215000", "141807.675000", "141808.135000", "141808.595000", "141809.055000", "141809.515000", "141809.975000", "141810.435000", "141810.895000", "141811.355000", "141811.815000", "141812.275000", "141812.735000", "141813.195000", "141813.655000", "141814.115000", "141814.575000", "141815.035000", "141815.495000", "141815.955000", "141816.415000", "141816.875000", "141817.335000", "141817.795000", "141818.255000", "141818.715000", "141819.175000", "141819.635000", "141820.095000", "141820.555000", "141821.015000", "141821.475000", "141821.935000", "141822.395000", "141822.855000", "141823.315000", "141823.775000", "141824.235000", "141824.695000", "141825.155000", "141825.615000", "141826.075000", "141826.535000", "141826.995000", "141827.455000", "141827.915000", "141828.375000", "141828.835000", "141829.295000", "141829.755000", "141830.215000", "141830.675000", "141831.135000", "141831.595000", "141832.055000", "141832.515000", "141832.975000", "141833.435000", "141833.895000", "141834.355000", "141834.815000", "141835.275000", "141835.735000", "141836.195000", "141836.655000", "141837.115000", "141837.575000", "141838.035000", "141838.495000", "141838.955000", "141839.415000", "141839.875000", "141840.335000", "141840.795000", "141841.255000", "141841.715000", "141842.175000", "141842.635000", "141843.095000", "141843.555000", "141844.015000", "141844.475000", "141844.935000", "141845.395000", "141845.855000", "141846.315000", "141846.775000", "141847.235000", "141847.695000", "141848.155000", "141848.615000", "141849.075000", "141849.535000", "141849.995000", "141850.455000", "141850.915000", "141851.375000", "141851.835000", "141852.295000", "141852.755000", "141853.215000", "141853.675000", "141854.135000", "141854.595000", "141855.055000", "141855.515000", "141855.975000", "141856.435000", "141856.895000", "141857.355000", "141857.815000", "141858.275000", "141858.735000", "141859.195000", "141859.655000", "141900.115000", "141900.575000", "141901.035000", "141901.495000", "141901.955000", "141902.415000", "141902.875000", "141903.335000", "141903.795000", "141904.255000", "141904.715000", "141905.175000", "141905.635000", "141906.095000", "141906.555000", "141907.015000", "141907.475000", "141907.935000", "141908.395000", "141908.855000", "141909.315000", "141909.775000", "141910.235000", "141910.695000", "141911.155000", "141911.615000", "141912.075000", "141912.535000", "141912.995000", "141913.455000", "141913.915000", "141914.375000", "141914.835000", "141915.295000", "141915.755000", "141916.215000", "141916.675000", "141917.135000", "141917.595000", "141918.055000", "141918.515000", "141918.975000", "141919.435000", "141919.895000", "141920.355000", "141920.815000", "141921.275000", "141921.735000", "141922.195000", "141922.655000", "141923.115000", "141923.575000", "141924.035000", "141924.495000", "141924.955000", "141925.415000", "141925.875000", "141926.335000", "141926.795000", "141927.255000", "141927.715000", "141928.175000", "141928.635000", "141929.095000", "141929.555000", "141930.015000", "141930.475000", "141930.935000", "141931.395000", "141931.855000", "141932.315000", "141932.775000", "141933.235000", "141933.695000", "141934.155000", "141934.615000", "141935.075000", "141935.535000", "141935.995000", "141936.455000", "141936.915000", "141937.375000", "141937.835000", "141938.295000", "141938.755000", "141939.215000", "141939.675000", "141940.135000", "141940.595000", "141941.055000", "141941.515000", "141941.975000", "141942.435000", "141942.895000", "141943.355000", "141943.815000", "141944.275000", "141944.735000", "141945.195000", "141945.655000", "141946.115000", "141946.575000", "141947.035000", "141947.495000", "141947.955000", "141948.415000", "141948.875000", "141949.335000", "141949.795000", "141950.255000", "141950.715000", "141951.175000", "141951.635000", "141952.095000", "141952.555000", "141953.015000", "141953.475000", "141953.935000", "141954.395000", "141954.855000", "141955.315000", "141955.775000", "141956.235000", "141956.695000", "141957.155000", "141957.615000", "141958.075000", "141958.535000", "141958.995000", "141959.455000", "141959.915000", "142000.375000", "142000.835000", "142001.295000", "142001.755000", "142002.215000", "142002.675000", "142003.135000", "142003.595000", "142004.055000", "142004.515000", "142004.975000", "142005.435000", "142005.895000", "142006.355000", "142006.815000", "142007.275000", "142007.735000", "142008.195000", "142008.655000", "142009.115000", "142009.575000", "142010.035000", "142010.495000", "142010.955000", "142011.415000", "142011.875000", "142012.335000", "142012.795000", "142013.255000", "142013.715000", "142014.175000", "142014.635000", "142015.095000", "142015.555000", "142016.015000", "142016.475000", "142016.935000", "142017.395000", "142017.855000", "142018.315000", "142018.775000", "142019.235000", "142019.695000", "142020.155000", "142020.615000", "142021.075000", "142021.535000", "142021.995000", "142022.455000", "142022.915000", "142023.375000", "142023.835000", "142024.295000", "142024.755000", "142025.215000", "142025.675000", "142026.135000", "142026.595000", "142027.055000", "142027.515000", "142027.975000", "142028.435000", "142028.895000", "142029.355000", "142029.815000", "142030.275000", "142030.735000", "142031.195000", "142031.655000", "142032.115000", "142032.575000", "142033.035000", "142033.495000", "142033.955000", "142034.415000", "142034.875000", "142035.335000", "142035.795000", "142036.255000", "142036.715000", "142037.175000", "142037.635000", "142038.095000", "142038.555000", "142039.015000", "142039.475000", "142039.935000", "142040.395000", "142040.855000", "142041.315000", "142041.775000", "142042.235000", "142042.695000", "142043.155000", "142043.615000", "142044.075000", "142044.535000", "142044.995000", "142045.455000", "142045.915000", "142046.375000", "142046.835000", "142047.295000", "142047.755000", "142048.215000", "142048.675000", "142049.135000", "142049.595000", "142050.055000", "142050.515000", "142050.975000", "142051.435000", "142051.895000", "142052.355000", "142052.815000", "142053.275000", "142053.735000", "142054.195000", "142054.655000", "142055.115000", "142055.575000", "142056.035000", "142056.495000", "142056.955000", "142057.415000", "142057.875000", "142058.335000", "142058.795000", "142059.255000", "142059.715000", "142100.175000", "142100.635000", "142101.095000", "142101.555000", "142102.015000", "142102.475000", "142102.935000", "142103.395000", "142103.855000", "142104.315000", "142104.775000", "142105.235000", "142105.695000", "142106.155000", "142106.615000", "142107.075000", "142107.535000", "142107.995000", "142108.455000", "142108.915000", "142109.375000", "142109.835000", "142110.295000", "142110.755000", "142111.215000", "142111.675000", "142112.135000", "142112.595000", "142113.055000", "142113.515000", "142113.975000", "142114.435000", "142114.895000", "142115.355000", "142115.815000", "142116.275000", "142116.735000", "142117.195000", "142117.655000", "142118.115000", "142118.575000", "142119.035000", "142119.495000", "142119.955000", "142120.415000", "142120.875000", "142121.335000", "142121.795000", "142122.255000", "142122.715000", "142123.175000", "142123.635000", "142124.095000", "142124.555000", "142125.015000", "142125.475000", "142125.935000", "142126.395000", "142126.855000", "142127.315000", "142127.775000", "142128.235000", "142128.695000", "142129.155000", "142129.615000", "142130.075000", "142130.535000", "142130.995000", "142131.455000", "142131.915000", "142132.375000", "142132.835000", "142133.295000", "142133.755000", "142134.215000", "142134.675000", "142135.135000", "142135.595000", "142136.055000", "142136.515000", "142136.975000", "142137.435000", "142137.895000", "142138.355000", "142138.815000", "142139.275000", "142139.735000", "142140.195000", "142140.655000", "142141.115000", "142141.575000", "142142.035000", "142142.495000", "142142.955000", "142143.415000", "142143.875000", "142144.335000", "142144.795000", "142145.255000", "142145.715000", "142146.175000", "142146.635000", "142147.095000", "142147.555000", "142148.015000", "142148.475000", "142148.935000", "142149.395000", "142149.855000", "142150.315000", "142150.775000", "142151.235000", "142151.695000", "142152.155000", "142152.615000", "142153.075000", "142153.535000", "142153.995000", "142154.455000", "142154.915000", "142155.375000", "142155.835000", "142156.295000", "142156.755000", "142157.215000", "142157.675000", "142158.135000", "142158.595000", "142159.055000", "142159.515000", "142159.975000", "142200.435000", "142200.895000"],
