{
  "AcquisitionMatrixPE": 82,
  "AcquisitionNumber": 1,
  "AcquisitionTime": "09:58:35.707500",
  "BandwidthPerPixelPhaseEncode": 24.888,
  "BaseResolution": 82,
  "BodyPartExamined": "BRAIN",
  "ConsistencyInfo": "N4_VE11E_LATEST_20181129",
  "ConversionSoftware": "dcm2niix",
  "ConversionSoftwareVersion": "v1.0.20201102",
  "DerivedVendorReportedEchoSpacing": 0.00049,
  "DeviceSerialNumber": "66112",
  "DwellTime": 2e-06,
  "EchoTime": 0.0272,
  "EchoTrainLength": 82,
  "EffectiveEchoSpacing": 0.00049,
  "FlipAngle": 44,
  "ImageComments": "Unaliased MB8/PE3",
  "ImageOrientationPatientDICOM": [0.998268, -0.0458341, 0.0368764, 0.0451565, 0.998799, 0.0190042],
  "ImageType": [
    "ORIGINAL",
    "PRIMARY",
    "M",
    "MB",
    "ND",
    "NORM",
    "MOSAIC"
],
  "ImagingFrequency": 123.252,
  "InPlanePhaseEncodingDirectionDICOM": "COL",
  "InstitutionAddress": "Maynard 3,Hanover,NH,US,03755",
  "InstitutionName": "Dartmouth College - PBS",
  "InstitutionalDepartmentName": "Department",
  "MRAcquisitionType": "2D",
  "MagneticFieldStrength": 3,
  "Manufacturer": "Siemens",
  "ManufacturersModelName": "Prisma",
  "Modality": "MR",
  "MultibandAccelerationFactor": 8,
  "PartialFourier": 1,
  "PatientPosition": "HFS",
  "PercentPhaseFOV": 100,
  "PercentSampling": 100,
  "PhaseEncodingDirection": "j-",
  "PhaseEncodingSteps": 82,
  "PhaseResolution": 1,
  "PixelBandwidth": 3050,
  "ProcedureStepDescription": "Wager_Wager^1076_spacetop",
  "ProtocolName": "func_run-01_task-alignvideo_acq-ap-mb8",
  "PulseSequenceDetails": "%CustomerSeq%\\cmrr_mbep2d_bold",
  "ReceiveCoilActiveElements": "HEA;HEP",
  "ReceiveCoilName": "Head_32",
  "ReconMatrixPE": 82,
  "RepetitionTime": 0.46,
  "SAR": 0.0813952,
  "ScanOptions": "FS",
  "ScanningSequence": "EP",
  "SequenceName": "epfid2d1_82",
  "SequenceVariant": "SK\\SS",
  "SeriesDescription": "func_run-01_task-alignvideo_acq-ap-mb8",
  "SeriesNumber": 30,
  "ShimSetting": [4149, -7821, -7196, 507, -40, -240, -16, 83],
  "SliceThickness": 2.7,
  "SliceTiming": [0, 0.2525, 0.0625, 0.315, 0.125, 0.3775, 0.1875, 0, 0.2525, 0.0625, 0.315, 0.125, 0.3775, 0.1875, 0, 0.2525, 0.0625, 0.315, 0.125, 0.3775, 0.1875, 0, 0.2525, 0.0625, 0.315, 0.125, 0.3775, 0.1875, 0, 0.2525, 0.0625, 0.315, 0.125, 0.3775, 0.1875, 0, 0.2525, 0.0625, 0.315, 0.125, 0.3775, 0.1875, 0, 0.2525, 0.0625, 0.315, 0.125, 0.3775, 0.1875, 0, 0.2525, 0.0625, 0.315, 0.125, 0.3775, 0.1875],
  "SoftwareVersions": "syngo MR E11",
  "SpacingBetweenSlices": 2.7,
  "StationName": "AWP66112",
  "TaskName": "alignvideo",
  "TotalReadoutTime": 0.03969,
  "TxRefAmp": 251.173,
  "WipMemBlock": "074f4e2d-35e6-49f6-8925-56078b28655c||Sequence: R016 ve11e/master r/434b28f1; Aug  7 2019 18:53:46 by eja",
  "dcmmeta_affine": [
    [-2.6782805919647217, 0.12115158885717392, 0.10179860889911652, 107.29946899414062],
    [0.12296965718269348, 2.6797051429748535, 0.046726327389478683, -89.04743957519531],
    [0.0989367738366127, -0.050986796617507935, 2.6976757049560547, -80.34261322021484],
    [0.0, 0.0, 0.0, 1.0]
],
  "dcmmeta_reorient_transform": [
    [0.0, -1.0, 0.0, 81.0],
    [1.0, 0.0, 0.0, 0.0],
    [0.0, 0.0, 1.0, 0.0],
    [0.0, 0.0, 0.0, 1.0]
],
  "dcmmeta_shape": [82, 82, 56, 1073],
  "dcmmeta_slice_dim": 2,
  "dcmmeta_version": 0.6,
  "global": {
    "const": {
      "AccessionNumber": "A004105",
      "AcquisitionMatrix": [82, 0, 0, 82],
      "AngioFlag": "N",
      "BitsAllocated": 16,
      "BitsStored": 16,
      "BodyPartExamined": "BRAIN",
      "Columns": 656,
      "EchoNumbers": 1,
      "EchoTime": 27.2,
      "EchoTrainLength": 82,
      "FlipAngle": 44.0,
      "HighBit": 15,
      "ImageOrientationPatient": [0.99826818037539, -0.0458341444817, 0.03687643217065, 0.04515650128454, 0.99879914495011, 0.01900416898124],
      "ImagePositionPatient": [-920.54977485851, -861.79174031893, -127.50060615044],
      "ImageType": [
        "ORIGINAL",
        "PRIMARY",
        "M",
        "MB",
        "ND",
        "NORM",
        "MOSAIC"
],
      "ImagedNucleus": "1H",
      "ImagingFrequency": 123.252167,
      "InPlanePhaseEncodingDirection": "COL",
      "MRAcquisitionType": "2D",
      "MagneticFieldStrength": 3.0,
      "Manufacturer": "SIEMENS",
      "ManufacturerModelName": "Prisma",
      "Modality": "MR",
      "NumberOfAverages": 1.0,
      "NumberOfPhaseEncodingSteps": 82,
      "PercentPhaseFieldOfView": 100.0,
      "PercentSampling": 100.0,
      "PerformedProcedureStepStartTime": "083141.826000",
      "PhotometricInterpretation": "MONOCHROME2",
      "PixelBandwidth": 3050.0,
      "PixelRepresentation": 0,
      "PixelSpacing": [2.6829268932343, 2.6829268932343],
      "ProtocolName": "func_run-01_task-alignvideo_acq-ap-mb8",
      "RepetitionTime": 460.0,
      "Rows": 656,
      "SAR": 0.08139523951217,
      "SamplesPerPixel": 1,
      "ScanOptions": "FS",
      "ScanningSequence": "EP",
      "SequenceName": "epfid2d1_82",
      "SequenceVariant": [
        "SK",
        "SS"
],
      "SeriesDescription": "func_run-01_task-alignvideo_acq-ap-mb8",
      "SeriesNumber": 30,
      "SeriesTime": "095905.442000",
      "SliceLocation": -77.768972867559,
      "SliceThickness": 2.7000000476837,
      "SmallestImagePixelValue": 0,
      "SoftwareVersions": "syngo MR E11",
      "SpacingBetweenSlices": 2.700000060253,
      "SpecificCharacterSet": "ISO_IR 100",
      "StudyID": "1",
      "StudyTime": "083141.663000",
      "TransmitCoilName": "Body",
      "VariableFlipAngleFlag": "N",
      "WindowCenterWidthExplanation": "Algo1"
    },
    "slices": {}
  },
  "time": {
    "samples": {
      "AcquisitionNumber": [1, 2, 3, 4, 5, 6, 7, 8, 9, 10, 11, 12, 13, 14, 15, 16, 17, 18, 19, 20, 21, 22, 23, 24, 25, 26, 27, 28, 29, 30, 31, 32, 33, 34, 35, 36, 37, 38, 39, 40, 41, 42, 43, 44, 45, 46, 47, 48, 49, 50, 51, 52, 53, 54, 55, 56, 57, 58, 59, 60, 61, 62, 63, 64, 65, 66, 67, 68, 69, 70, 71, 72, 73, 74, 75, 76, 77, 78, 79, 80, 81, 82, 83, 84, 85, 86, 87, 88, 89, 90, 91, 92, 93, 94, 95, 96, 97, 98, 99, 100, 101, 102, 103, 104, 105, 106, 107, 108, 109, 110, 111, 112, 113, 114, 115, 116, 117, 118, 119, 120, 121, 122, 123, 124, 125, 126, 127, 128, 129, 130, 131, 132, 133, 134, 135, 136, 137, 138, 139, 140, 141, 142, 143, 144, 145, 146, 147, 148, 149, 150, 151, 152, 153, 154, 155, 156, 157, 158, 159, 160, 161, 162, 163, 164, 165, 166, 167, 168, 169, 170, 171, 172, 173, 174, 175, 176, 177, 178, 179, 180, 181, 182, 183, 184, 185, 186, 187, 188, 189, 190, 191, 192, 193, 194, 195, 196, 197, 198, 199, 200, 201, 202, 203, 204, 205, 206, 207, 208, 209, 210, 211, 212, 213, 214, 215, 216, 217, 218, 219, 220, 221, 222, 223, 224, 225, 226, 227, 228, 229, 230, 231, 232, 233, 234, 235, 236, 237, 238, 239, 240, 241, 242, 243, 244, 245, 246, 247, 248, 249, 250, 251, 252, 253, 254, 255, 256, 257, 258, 259, 260, 261, 262, 263, 264, 265, 266, 267, 268, 269, 270, 271, 272, 273, 274, 275, 276, 277, 278, 279, 280, 281, 282, 283, 284, 285, 286, 287, 288, 289, 290, 291, 292, 293, 294, 295, 296, 297, 298, 299, 300, 301, 302, 303, 304, 305, 306, 307, 308, 309, 310, 311, 312, 313, 314, 315, 316, 317, 318, 319, 320, 321, 322, 323, 324, 325, 326, 327, 328, 329, 330, 331, 332, 333, 334, 335, 336, 337, 338, 339, 340, 341, 342, 343, 344, 345, 346, 347, 348, 349, 350, 351, 352, 353, 354, 355, 356, 357, 358, 359, 360, 361, 362, 363, 364, 365, 366, 367, 368, 369, 370, 371, 372, 373, 374, 375, 376, 377, 378, 379, 380, 381, 382, 383, 384, 385, 386, 387, 388, 389, 390, 391, 392, 393, 394, 395, 396, 397, 398, 399, 400, 401, 402, 403, 404, 405, 406, 407, 408, 409, 410, 411, 412, 413, 414, 415, 416, 417, 418, 419, 420, 421, 422, 423, 424, 425, 426, 427, 428, 429, 430, 431, 432, 433, 434, 435, 436, 437, 438, 439, 440, 441, 442, 443, 444, 445, 446, 447, 448, 449, 450, 451, 452, 453, 454, 455, 456, 457, 458, 459, 460, 461, 462, 463, 464, 465, 466, 467, 468, 469, 470, 471, 472, 473, 474, 475, 476, 477, 478, 479, 480, 481, 482, 483, 484, 485, 486, 487, 488, 489, 490, 491, 492, 493, 494, 495, 496, 497, 498, 499, 500, 501, 502, 503, 504, 505, 506, 507, 508, 509, 510, 511, 512, 513, 514, 515, 516, 517, 518, 519, 520, 521, 522, 523, 524, 525, 526, 527, 528, 529, 530, 531, 532, 533, 534, 535, 536, 537, 538, 539, 540, 541, 542, 543, 544, 545, 546, 547, 548, 549, 550, 551, 552, 553, 554, 555, 556, 557, 558, 559, 560, 561, 562, 563, 564, 565, 566, 567, 568, 569, 570, 571, 572, 573, 574, 575, 576, 577, 578, 579, 580, 581, 582, 583, 584, 585, 586, 587, 588, 589, 590, 591, 592, 593, 594, 595, 596, 597, 598, 599, 600, 601, 602, 603, 604, 605, 606, 607, 608, 609, 610, 611, 612, 613, 614, 615, 616, 617, 618, 619, 620, 621, 622, 623, 624, 625, 626, 627, 628, 629, 630, 631, 632, 633, 634, 635, 636, 637, 638, 639, 640, 641, 642, 643, 644, 645, 646, 647, 648, 649, 650, 651, 652, 653, 654, 655, 656, 657, 658, 659, 660, 661, 662, 663, 664, 665, 666, 667, 668, 669, 670, 671, 672, 673, 674, 675, 676, 677, 678, 679, 680, 681, 682, 683, 684, 685, 686, 687, 688, 689, 690, 691, 692, 693, 694, 695, 696, 697, 698, 699, 700, 701, 702, 703, 704, 705, 706, 707, 708, 709, 710, 711, 712, 713, 714, 715, 716, 717, 718, 719, 720, 721, 722, 723, 724, 725, 726, 727, 728, 729, 730, 731, 732, 733, 734, 735, 736, 737, 738, 739, 740, 741, 742, 743, 744, 745, 746, 747, 748, 749, 750, 751, 752, 753, 754, 755, 756, 757, 758, 759, 760, 761, 762, 763, 764, 765, 766, 767, 768, 769, 770, 771, 772, 773, 774, 775, 776, 777, 778, 779, 780, 781, 782, 783, 784, 785, 786, 787, 788, 789, 790, 791, 792, 793, 794, 795, 796, 797, 798, 799, 800, 801, 802, 803, 804, 805, 806, 807, 808, 809, 810, 811, 812, 813, 814, 815, 816, 817, 818, 819, 820, 821, 822, 823, 824, 825, 826, 827, 828, 829, 830, 831, 832, 833, 834, 835, 836, 837, 838, 839, 840, 841, 842, 843, 844, 845, 846, 847, 848, 849, 850, 851, 852, 853, 854, 855, 856, 857, 858, 859, 860, 861, 862, 863, 864, 865, 866, 867, 868, 869, 870, 871, 872, 873, 874, 875, 876, 877, 878, 879, 880, 881, 882, 883, 884, 885, 886, 887, 888, 889, 890, 891, 892, 893, 894, 895, 896, 897, 898, 899, 900, 901, 902, 903, 904, 905, 906, 907, 908, 909, 910, 911, 912, 913, 914, 915, 916, 917, 918, 919, 920, 921, 922, 923, 924, 925, 926, 927, 928, 929, 930, 931, 932, 933, 934, 935, 936, 937, 938, 939, 940, 941, 942, 943, 944, 945, 946, 947, 948, 949, 950, 951, 952, 953, 954, 955, 956, 957, 958, 959, 960, 961, 962, 963, 964, 965, 966, 967, 968, 969, 970, 971, 972, 973, 974, 975, 976, 977, 978, 979, 980, 981, 982, 983, 984, 985, 986, 987, 988, 989, 990, 991, 992, 993, 994, 995, 996, 997, 998, 999, 1000, 1001, 1002, 1003, 1004, 1005, 1006, 1007, 1008, 1009, 1010, 1011, 1012, 1013, 1014, 1015, 1016, 1017, 1018, 1019, 1020, 1021, 1022, 1023, 1024, 1025, 1026, 1027, 1028, 1029, 1030, 1031, 1032, 1033, 1034, 1035, 1036, 1037, 1038, 1039, 1040, 1041, 1042, 1043, 1044, 1045, 1046, 1047, 1048, 1049, 1050, 1051, 1052, 1053, 1054, 1055, 1056, 1057, 1058, 1059, 1060, 1061, 1062, 1063, 1064, 1065, 1066, 1067, 1068, 1069, 1070, 1071, 1072, 1073],
      "AcquisitionTime": ["095835.707500", "095836.167500", "095836.627500", "095837.087500", "095837.547500", "095838.007500", "095838.467500", "095838.927500", "095839.387500", "095839.847500", "095840.307500", "095840.767500", "095841.227500", "095841.687500", "095842.147500", "095842.607500", "095843.067500", "095843.527500", "095843.987500", "095844.447500", "095844.907500", "095845.367500", "095845.827500", "095846.287500", "095846.747500", "095847.207500", "095847.667500", "095848.127500", "095848.587500", "095849.047500", "095849.507500", "095849.967500", "095850.427500", "095850.887500", "095851.347500", "095851.807500", "095852.267500", "095852.727500", "095853.187500", "095853.647500", "095854.107500", "095854.567500", "095855.027500", "095855.487500", "095855.947500", "095856.407500", "095856.867500", "095857.327500", "095857.787500", "095858.247500", "095858.707500", "095859.167500", "095859.627500", "095900.087500", "095900.547500", "095901.007500", "095901.467500", "095901.927500", "095902.387500", "095902.847500", "095903.307500", "095903.767500", "095904.227500", "095904.687500", "095905.147500", "095905.607500", "095906.067500", "095906.527500", "095906.987500", "095907.447500", "095907.907500", "095908.367500", "095908.827500", "095909.287500", "095909.747500", "095910.207500", "095910.667500", "095911.127500", "095911.587500", "095912.047500", "095912.507500", "095912.967500", "095913.427500", "095913.887500", "095914.347500", "095914.807500", "095915.267500", "095915.727500", "095916.187500", "095916.647500", "095917.107500", "095917.567500", "095918.027500", "095918.487500", "095918.947500", "095919.407500", "095919.867500", "095920.327500", "095920.787500", "095921.247500", "095921.707500", "095922.167500", "095922.627500", "095923.087500", "095923.547500", "095924.007500", "095924.467500", "095924.927500", "095925.387500", "095925.847500", "095926.307500", "095926.767500", "095927.227500", "095927.687500", "095928.147500", "095928.607500", "095929.067500", "095929.527500", "095929.987500", "095930.447500", "095930.907500", "095931.367500", "095931.827500", "095932.287500", "095932.747500", "095933.207500", "095933.667500", "095934.127500", "095934.587500", "095935.047500", "095935.507500", "095935.967500", "095936.427500", "095936.887500", "095937.347500", "095937.807500", "095938.267500", "095938.727500", "095939.187500", "095939.647500", "095940.107500", "095940.567500", "095941.027500", "095941.487500", "095941.947500", "095942.407500", "095942.867500", "095943.327500", "095943.787500", "095944.247500", "095944.707500", "095945.167500", "095945.627500", "095946.087500", "095946.547500", "095947.007500", "095947.467500", "095947.927500", "095948.387500", "095948.847500", "095949.307500", "095949.767500", "095950.227500", "095950.687500", "095951.147500", "095951.607500", "095952.067500", "095952.527500", "095952.987500", "095953.447500", "095953.907500", "095954.367500", "095954.827500", "095955.287500", "095955.747500", "095956.207500", "095956.667500", "095957.127500", "095957.587500", "095958.047500", "095958.507500", "095958.967500", "095959.427500", "095959.887500", "100000.347500", "100000.807500", "100001.267500", "100001.727500", "100002.187500", "100002.647500", "100003.107500", "100003.567500", "100004.027500", "100004.487500", "100004.947500", "100005.407500", "100005.867500", "100006.327500", "100006.787500", "100007.247500", "100007.707500", "100008.167500", "100008.627500", "100009.087500", "100009.547500", "100010.007500", "100010.467500", "100010.927500", "100011.387500", "100011.847500", "100012.307500", "100012.767500", "100013.227500", "100013.687500", "100014.147500", "100014.607500", "100015.067500", "100015.527500", "100015.987500", "100016.447500", "100016.907500", "100017.367500", "100017.827500", "100018.287500", "100018.747500", "100019.207500", "100019.667500", "100020.127500", "100020.587500", "100021.047500", "100021.507500", "100021.967500", "100022.427500", "100022.887500", "100023.347500", "100023.807500", "100024.267500", "100024.727500", "100025.187500", "100025.647500", "100026.107500", "100026.567500", "100027.027500", "100027.487500", "100027.947500", "100028.407500", "100028.867500", "100029.327500", "100029.787500", "100030.247500", "100030.707500", "100031.167500", "100031.627500", "100032.087500", "100032.547500", "100033.007500", "100033.467500", "100033.927500", "100034.387500", "100034.847500", "100035.307500", "100035.767500", "100036.227500", "100036.687500", "100037.147500", "100037.607500", "100038.067500", "100038.527500", "100038.987500", "100039.447500", "100039.907500", "100040.367500", "100040.827500", "100041.287500", "100041.747500", "100042.207500", "100042.667500", "100043.127500", "100043.587500", "100044.047500", "100044.507500", "100044.967500", "100045.427500", "100045.887500", "100046.347500", "100046.807500", "100047.267500", "100047.727500", "100048.187500", "100048.647500", "100049.107500", "100049.567500", "100050.027500", "100050.487500", "100050.947500", "100051.407500", "100051.867500", "100052.327500", "100052.787500", "100053.247500", "100053.707500", "100054.167500", "100054.627500", "100055.087500", "100055.547500", "100056.007500", "100056.467500", "100056.927500", "100057.387500", "100057.847500", "100058.307500", "100058.767500", "100059.227500", "100059.687500", "100100.147500", "100100.607500", "100101.067500", "100101.527500", "100101.987500", "100102.447500", "100102.907500", "100103.367500", "100103.827500", "100104.287500", "100104.747500", "100105.207500", "100105.667500", "100106.127500", "100106.587500", "100107.047500", "100107.507500", "100107.967500", "100108.427500", "100108.887500", "100109.347500", "100109.807500", "100110.267500", "100110.727500", "100111.187500", "100111.647500", "100112.107500", "100112.567500", "100113.027500", "100113.487500", "100113.947500", "100114.407500", "100114.867500", "100115.327500", "100115.787500", "100116.247500", "100116.707500", "100117.167500", "100117.627500", "100118.087500", "100118.547500", "100119.007500", "100119.467500", "100119.927500", "100120.387500", "100120.847500", "100121.307500", "100121.767500", "100122.227500", "100122.687500", "100123.147500", "100123.607500", "100124.067500", "100124.527500", "100124.987500", "100125.447500", "100125.907500", "100126.367500", "100126.827500", "100127.287500", "100127.747500", "100128.207500", "100128.667500", "100129.127500", "100129.587500", "100130.047500", "100130.507500", "100130.967500", "100131.427500", "100131.887500", "100132.347500", "100132.807500", "100133.267500", "100133.727500", "100134.187500", "100134.647500", "100135.107500", "100135.567500", "100136.027500", "100136.487500", "100136.947500", "100137.407500", "100137.867500", "100138.327500", "100138.787500", "100139.247500", "100139.707500", "100140.167500", "100140.627500", "100141.087500", "100141.547500", "100142.007500", "100142.467500", "100142.927500", "100143.387500", "100143.847500", "100144.307500", "100144.767500", "100145.227500", "100145.687500", "100146.147500", "100146.607500", "100147.067500", "100147.527500", "100147.987500", "100148.447500", "100148.907500", "100149.367500", "100149.827500", "100150.287500", "100150.747500", "100151.207500", "100151.667500", "100152.127500", "100152.587500", "100153.047500", "100153.507500", "100153.967500", "100154.427500", "100154.887500", "100155.347500", "100155.807500", "100156.267500", "100156.727500", "100157.187500", "100157.647500", "100158.107500", "100158.567500", "100159.027500", "100159.487500", "100159.947500", "100200.407500", "100200.867500", "100201.327500", "100201.787500", "100202.247500", "100202.707500", "100203.167500", "100203.627500", "100204.087500", "100204.547500", "100205.007500", "100205.467500", "100205.927500", "100206.387500", "100206.847500", "100207.307500", "100207.767500", "100208.227500", "100208.687500", "100209.147500", "100209.607500", "100210.067500", "100210.527500", "100210.987500", "100211.447500", "100211.907500", "100212.367500", "100212.827500", "100213.287500", "100213.747500", "100214.207500", "100214.667500", "100215.127500", "100215.587500", "100216.047500", "100216.507500", "100216.967500", "100217.427500", "100217.887500", "100218.347500", "100218.807500", "100219.267500", "100219.727500", "100220.187500", "100220.647500", "100221.107500", "100221.567500", "100222.027500", "100222.487500", "100222.947500", "100223.407500", "100223.867500", "100224.327500", "100224.787500", "100225.247500", "100225.707500", "100226.167500", "100226.627500", "100227.087500", "100227.547500", "100228.007500", "100228.467500", "100228.927500", "100229.387500", "100229.847500", "100230.307500", "100230.767500", "100231.227500", "100231.687500", "100232.147500", "100232.607500", "100233.067500", "100233.527500", "100233.987500", "100234.447500", "100234.907500", "100235.367500", "100235.827500", "100236.287500", "100236.747500", "100237.207500", "100237.667500", "100238.127500", "100238.587500", "100239.047500", "100239.507500", "100239.967500", "100240.427500", "100240.887500", "100241.347500", "100241.807500", "100242.267500", "100242.727500", "100243.187500", "100243.647500", "100244.107500", "100244.567500", "100245.027500", "100245.487500", "100245.947500", "100246.407500", "100246.867500", "100247.327500", "100247.787500", "100248.247500", "100248.707500", "100249.167500", "100249.627500", "100250.087500", "100250.547500", "100251.007500", "100251.467500", "100251.927500", "100252.387500", "100252.847500", "100253.307500", "100253.767500", "100254.227500", "100254.687500", "100255.147500", "100255.607500", "100256.067500", "100256.527500", "100256.987500", "100257.447500", "100257.907500", "100258.367500", "100258.827500", "100259.287500", "100259.747500", "100300.207500", "100300.667500", "100301.127500", "100301.587500", "100302.047500", "100302.507500", "100302.967500", "100303.427500", "100303.887500", "100304.347500", "100304.807500", "100305.267500", "100305.727500", "100306.187500", "100306.647500", "100307.107500", "100307.567500", "100308.027500", "100308.487500", "100308.947500", "100309.407500", "100309.867500", "100310.327500", "100310.787500", "100311.247500", "100311.707500", "100312.167500", "100312.627500", "100313.087500", "100313.547500", "100314.007500", "100314.467500", "100314.927500", "100315.387500", "100315.847500", "100316.307500", "100316.767500", "100317.227500", "100317.687500", "100318.147500", "100318.607500", "100319.067500", "100319.527500", "100319.987500", "100320.447500", "100320.907500", "100321.367500", "100321.827500", "100322.287500", "100322.747500", "100323.207500", "100323.667500", "100324.127500", "100324.587500", "100325.047500", "100325.507500", "100325.967500", "100326.427500", "100326.887500", "100327.347500", "100327.807500", "100328.267500", "100328.727500", "100329.187500", "100329.647500", "100330.107500", "100330.567500", "100331.027500", "100331.487500", "100331.947500", "100332.407500", "100332.867500", "100333.327500", "100333.787500", "100334.247500", "100334.707500", "100335.167500", "100335.627500", "100336.087500", "100336.547500", "100337.007500", "100337.467500", "100337.927500", "100338.387500", "100338.847500", "100339.307500", "100339.767500", "100340.227500", "100340.687500", "100341.147500", "100341.607500", "100342.067500", "100342.527500", "100342.987500", "100343.447500", "100343.907500", "100344.367500", "100344.827500", "100345.287500", "100345.747500", "100346.207500", "100346.667500", "100347.127500", "100347.587500", "100348.047500", "100348.507500", "100348.967500", "100349.427500", "100349.887500", "100350.347500", "100350.807500", "100351.267500", "100351.727500", "100352.187500", "100352.647500", "100353.107500", "100353.567500", "100354.027500", "100354.487500", "100354.947500", "100355.407500", "100355.867500", "100356.327500", "100356.787500", "100357.247500", "100357.707500", "100358.167500", "100358.627500", "100359.087500", "100359.547500", "100400.007500", "100400.467500", "100400.927500", "100401.387500", "100401.847500", "100402.307500", "100402.767500", "100403.227500", "100403.687500", "100404.147500", "100404.607500", "100405.067500", "100405.527500", "100405.987500", "100406.447500", "100406.907500", "100407.367500", "100407.827500", "100408.287500", "100408.747500", "100409.207500", "100409.667500", "100410.127500", "100410.587500", "100411.047500", "100411.507500", "100411.967500", "100412.427500", "100412.887500", "100413.347500", "100413.807500", "100414.267500", "100414.727500", "100415.187500", "100415.647500", "100416.107500", "100416.567500", "100417.027500", "100417.487500", "100417.947500", "100418.407500", "100418.867500", "100419.327500", "100419.787500", "100420.247500", "100420.707500", "100421.167500", "100421.627500", "100422.087500", "100422.547500", "100423.007500", "100423.467500", "100423.927500", "100424.387500", "100424.847500", "100425.307500", "100425.767500", "100426.227500", "100426.687500", "100427.147500", "100427.607500", "100428.067500", "100428.527500", "100428.987500", "100429.447500", "100429.907500", "100430.367500", "100430.827500", "100431.287500", "100431.747500", "100432.207500", "100432.667500", "100433.127500", "100433.587500", "100434.047500", "100434.507500", "100434.967500", "100435.427500", "100435.887500", "100436.347500", "100436.807500", "100437.267500", "100437.727500", "100438.187500", "100438.647500", "100439.107500", "100439.567500", "100440.027500", "100440.487500", "100440.947500", "100441.407500", "100441.867500", "100442.327500", "100442.787500", "100443.247500", "100443.707500", "100444.167500", "100444.627500", "100445.087500", "100445.547500", "100446.007500", "100446.467500", "100446.927500", "100447.387500", "100447.847500", "100448.307500", "100448.767500", "100449.227500", "100449.687500", "100450.147500", "100450.607500", "100451.067500", "100451.527500", "100451.987500", "100452.447500", "100452.907500", "100453.367500", "100453.827500", "100454.287500", "100454.747500", "100455.207500", "100455.667500", "100456.127500", "100456.587500", "100457.047500", "100457.507500", "100457.967500", "100458.427500", "100458.887500", "100459.347500", "100459.807500", "100500.267500", "100500.727500", "100501.187500", "100501.647500", "100502.107500", "100502.567500", "100503.027500", "100503.487500", "100503.947500", "100504.407500", "100504.867500", "100505.327500", "100505.787500", "100506.247500", "100506.707500", "100507.167500", "100507.627500", "100508.087500", "100508.547500", "100509.007500", "100509.467500", "100509.927500", "100510.387500", "100510.847500", "100511.307500", "100511.767500", "100512.227500", "100512.687500", "100513.147500", "100513.607500", "100514.067500", "100514.527500", "100514.987500", "100515.447500", "100515.907500", "100516.367500", "100516.827500", "100517.287500", "100517.747500", "100518.207500", "100518.667500", "100519.127500", "100519.587500", "100520.047500", "100520.507500", "100520.967500", "100521.427500", "100521.887500", "100522.347500", "100522.807500", "100523.267500", "100523.727500", "100524.187500", "100524.647500", "100525.107500", "100525.567500", "100526.027500", "100526.487500", "100526.947500", "100527.407500", "100527.867500", "100528.327500", "100528.787500", "100529.247500", "100529.707500", "100530.167500", "100530.627500", "100531.087500", "100531.547500", "100532.007500", "100532.467500", "100532.927500", "100533.387500", "100533.847500", "100534.307500", "100534.767500", "100535.227500", "100535.687500", "100536.147500", "100536.607500", "100537.067500", "100537.527500", "100537.987500", "100538.447500", "100538.907500", "100539.367500", "100539.827500", "100540.287500", "100540.747500", "100541.207500", "100541.667500", "100542.127500", "100542.587500", "100543.047500", "100543.507500", "100543.967500", "100544.427500", "100544.887500", "100545.347500", "100545.807500", "100546.267500", "100546.727500", "100547.187500", "100547.647500", "100548.107500", "100548.567500", "100549.027500", "100549.487500", "100549.947500", "100550.407500", "100550.867500", "100551.327500", "100551.787500", "100552.247500", "100552.707500", "100553.167500", "100553.627500", "100554.087500", "100554.547500", "100555.007500", "100555.467500", "100555.927500", "100556.387500", "100556.847500", "100557.307500", "100557.767500", "100558.227500", "100558.687500", "100559.147500", "100559.607500", "100600.067500", "100600.527500", "100600.987500", "100601.447500", "100601.907500", "100602.367500", "100602.827500", "100603.287500", "100603.747500", "100604.207500", "100604.667500", "100605.127500", "100605.587500", "100606.047500", "100606.507500", "100606.967500", "100607.427500", "100607.887500", "100608.347500", "100608.807500", "100609.267500", "100609.727500", "100610.187500", "100610.647500", "100611.107500", "100611.567500", "100612.027500", "100612.487500", "100612.947500", "100613.407500", "100613.867500", "100614.327500", "100614.787500", "100615.247500", "100615.707500", "100616.167500", "100616.627500", "100617.087500", "100617.547500", "100618.007500", "100618.467500", "100618.927500", "100619.387500", "100619.847500", "100620.307500", "100620.767500", "100621.227500", "100621.687500", "100622.147500", "100622.607500", "100623.067500", "100623.527500", "100623.987500", "100624.447500", "100624.907500", "100625.367500", "100625.827500", "100626.287500", "100626.747500", "100627.207500", "100627.667500", "100628.127500", "100628.587500", "100629.047500", "100629.507500", "100629.967500", "100630.427500", "100630.887500", "100631.347500", "100631.807500", "100632.267500", "100632.727500", "100633.187500", "100633.647500", "100634.107500", "100634.567500", "100635.027500", "100635.487500", "100635.947500", "100636.407500", "100636.867500", "100637.327500", "100637.787500", "100638.247500", "100638.707500", "100639.167500", "100639.627500", "100640.087500", "100640.547500", "100641.007500", "100641.467500", "100641.927500", "100642.387500", "100642.847500", "100643.307500", "100643.767500", "100644.227500", "100644.687500", "100645.147500", "100645.607500", "100646.067500", "100646.527500", "100646.987500", "100647.447500", "100647.907500", "100648.367500", "100648.827500"],
