{
  "AcquisitionMatrixPE": 82,
  "AcquisitionNumber": 1,
  "AcquisitionTime": "12:05:14.920000",
  "BandwidthPerPixelPhaseEncode": 24.888,
  "BaseResolution": 82,
  "BodyPartExamined": "BRAIN",
  "ConsistencyInfo": "N4_VE11E_LATEST_20181129",
  "ConversionSoftware": "dcm2niix",
  "ConversionSoftwareVersion": "v1.0.20201102",
  "DerivedVendorReportedEchoSpacing": 0.00049,
  "DeviceSerialNumber": "66112",
  "DwellTime": 2e-06,
  "EchoTime": 0.0272,
  "EchoTrainLength": 82,
  "EffectiveEchoSpacing": 0.00049,
  "FlipAngle": 44,
  "ImageComments": "Unaliased MB8/PE3",
  "ImageOrientationPatientDICOM": [0.999504, 0.0283799, -0.0136307, -0.0265221, 0.992277, 0.121176],
  "ImageType": [
    "ORIGINAL",
    "PRIMARY",
    "M",
    "MB",
    "ND",
    "NORM",
    "MOSAIC"
],
  "ImagingFrequency": 123.252,
  "InPlanePhaseEncodingDirectionDICOM": "COL",
  "InstitutionAddress": "Maynard 3,Hanover,NH,US,03755",
  "InstitutionName": "Dartmouth College - PBS",
  "InstitutionalDepartmentName": "Department",
  "MRAcquisitionType": "2D",
  "MagneticFieldStrength": 3,
  "Manufacturer": "Siemens",
  "ManufacturersModelName": "Prisma",
  "Modality": "MR",
  "MultibandAccelerationFactor": 8,
  "PartialFourier": 1,
  "PatientPosition": "HFS",
  "PercentPhaseFOV": 100,
  "PercentSampling": 100,
  "PhaseEncodingDirection": "j-",
  "PhaseEncodingSteps": 82,
  "PhaseResolution": 1,
  "PixelBandwidth": 3050,
  "ProcedureStepDescription": "Wager_Wager^1076_spacetop",
  "ProtocolName": "func_run-03_task-alignvideo_acq-ap-mb8",
  "PulseSequenceDetails": "%CustomerSeq%\\cmrr_mbep2d_bold",
  "ReceiveCoilActiveElements": "HEA;HEP",
  "ReceiveCoilName": "Head_32",
  "ReconMatrixPE": 82,
  "RepetitionTime": 0.46,
  "SAR": 0.081891,
  "ScanOptions": "FS",
  "ScanningSequence": "EP",
  "SequenceName": "epfid2d1_82",
  "SequenceVariant": "SK\\SS",
  "SeriesDescription": "func_run-03_task-alignvideo_acq-ap-mb8",
  "SeriesNumber": 32,
  "ShimSetting": [4138, -7764, -7215, 737, -54, -169, -35, 104],
  "SliceThickness": 2.7,
  "SliceTiming": [0, 0.2525, 0.065, 0.315, 0.1275, 0.3775, 0.19, 0, 0.2525, 0.065, 0.315, 0.1275, 0.3775, 0.19, 0, 0.2525, 0.065, 0.315, 0.1275, 0.3775, 0.19, 0, 0.2525, 0.065, 0.315, 0.1275, 0.3775, 0.19, 0, 0.2525, 0.065, 0.315, 0.1275, 0.3775, 0.19, 0, 0.2525, 0.065, 0.315, 0.1275, 0.3775, 0.19, 0, 0.2525, 0.065, 0.315, 0.1275, 0.3775, 0.19, 0, 0.2525, 0.065, 0.315, 0.1275, 0.3775, 0.19],
  "SoftwareVersions": "syngo MR E11",
  "SpacingBetweenSlices": 2.7,
  "StationName": "AWP66112",
  "TaskName": "alignvideo",
  "TotalReadoutTime": 0.03969,
  "TxRefAmp": 234.869,
  "WipMemBlock": "6e04e0f0-4289-4424-8600-1c3e7c23c6dc||Sequence: R016 ve11e/master r/434b28f1; Aug  7 2019 18:53:46 by eja",
  "dcmmeta_affine": [
    [-2.6815969944000244, -0.07115685939788818, -0.04580378532409668, 117.13214111328125],
    [-0.07614108920097351, 2.662205696105957, 0.32603806257247925, -107.58740234375],
    [-0.03657009080052376, -0.32510748505592346, 2.6798510551452637, -35.782562255859375],
    [0.0, 0.0, 0.0, 1.0]
],
  "dcmmeta_reorient_transform": [
    [0.0, -1.0, 0.0, 81.0],
    [1.0, 0.0, 0.0, 0.0],
    [0.0, 0.0, 1.0, 0.0],
    [0.0, 0.0, 0.0, 1.0]
],
  "dcmmeta_shape": [82, 82, 56, 1065],
  "dcmmeta_slice_dim": 2,
  "dcmmeta_version": 0.6,
  "global": {
    "const": {
      "AccessionNumber": "A004074",
      "AcquisitionMatrix": [82, 0, 0, 82],
      "AngioFlag": "N",
      "BitsAllocated": 16,
      "BitsStored": 16,
      "BodyPartExamined": "BRAIN",
      "Columns": 656,
      "EchoNumbers": 1,
      "EchoTime": 27.2,
      "EchoTrainLength": 82,
      "FlipAngle": 44.0,
      "HighBit": 15,
      "ImageOrientationPatient": [0.99950427133181, 0.02837985956066, -0.013630669858, -0.0265221025227, 0.99227660081215, 0.12117642327807],
      "ImagePositionPatient": [-860.5647229861, -893.95674544839, -144.92650107543],
      "ImageType": [
        "ORIGINAL",
        "PRIMARY",
        "M",
        "MB",
        "ND",
        "NORM",
        "MOSAIC"
],
      "ImagedNucleus": "1H",
      "ImagingFrequency": 123.252186,
      "InPlanePhaseEncodingDirection": "COL",
      "MRAcquisitionType": "2D",
      "MagneticFieldStrength": 3.0,
      "Manufacturer": "SIEMENS",
      "ManufacturerModelName": "Prisma",
      "Modality": "MR",
      "NumberOfAverages": 1.0,
      "NumberOfPhaseEncodingSteps": 82,
      "PercentPhaseFieldOfView": 100.0,
      "PercentSampling": 100.0,
      "PerformedProcedureStepStartTime": "103622.370000",
      "PhotometricInterpretation": "MONOCHROME2",
      "PixelBandwidth": 3050.0,
      "PixelRepresentation": 0,
      "PixelSpacing": [2.6829268932343, 2.6829268932343],
      "ProtocolName": "func_run-03_task-alignvideo_acq-ap-mb8",
      "RepetitionTime": 460.0,
      "Rows": 656,
      "SAR": 0.08189097438112,
      "SamplesPerPixel": 1,
      "ScanOptions": "FS",
      "ScanningSequence": "EP",
      "SequenceName": "epfid2d1_82",
      "SequenceVariant": [
        "SK",
        "SS"
],
      "SeriesDescription": "func_run-03_task-alignvideo_acq-ap-mb8",
      "SeriesNumber": 32,
      "SeriesTime": "120536.817000",
      "SliceLocation": -50.494302966867,
      "SliceThickness": 2.7000000476837,
      "SmallestImagePixelValue": 0,
      "SoftwareVersions": "syngo MR E11",
      "SpacingBetweenSlices": 2.7000000112264,
      "SpecificCharacterSet": "ISO_IR 100",
      "StudyID": "3",
      "StudyTime": "103622.260000",
      "TransmitCoilName": "Body",
      "VariableFlipAngleFlag": "N",
      "WindowCenterWidthExplanation": "Algo1"
    },
    "slices": {}
  },
  "time": {
    "samples": {
      "AcquisitionNumber": [1, 2, 3, 4, 5, 6, 7, 8, 9, 10, 11, 12, 13, 14, 15, 16, 17, 18, 19, 20, 21, 22, 23, 24, 25, 26, 27, 28, 29, 30, 31, 32, 33, 34, 35, 36, 37, 38, 39, 40, 41, 42, 43, 44, 45, 46, 47, 48, 49, 50, 51, 52, 53, 54, 55, 56, 57, 58, 59, 60, 61, 62, 63, 64, 65, 66, 67, 68, 69, 70, 71, 72, 73, 74, 75, 76, 77, 78, 79, 80, 81, 82, 83, 84, 85, 86, 87, 88, 89, 90, 91, 92, 93, 94, 95, 96, 97, 98, 99, 100, 101, 102, 103, 104, 105, 106, 107, 108, 109, 110, 111, 112, 113, 114, 115, 116, 117, 118, 119, 120, 121, 122, 123, 124, 125, 126, 127, 128, 129, 130, 131, 132, 133, 134, 135, 136, 137, 138, 139, 140, 141, 142, 143, 144, 145, 146, 147, 148, 149, 150, 151, 152, 153, 154, 155, 156, 157, 158, 159, 160, 161, 162, 163, 164, 165, 166, 167, 168, 169, 170, 171, 172, 173, 174, 175, 176, 177, 178, 179, 180, 181, 182, 183, 184, 185, 186, 187, 188, 189, 190, 191, 192, 193, 194, 195, 196, 197, 198, 199, 200, 201, 202, 203, 204, 205, 206, 207, 208, 209, 210, 211, 212, 213, 214, 215, 216, 217, 218, 219, 220, 221, 222, 223, 224, 225, 226, 227, 228, 229, 230, 231, 232, 233, 234, 235, 236, 237, 238, 239, 240, 241, 242, 243, 244, 245, 246, 247, 248, 249, 250, 251, 252, 253, 254, 255, 256, 257, 258, 259, 260, 261, 262, 263, 264, 265, 266, 267, 268, 269, 270, 271, 272, 273, 274, 275, 276, 277, 278, 279, 280, 281, 282, 283, 284, 285, 286, 287, 288, 289, 290, 291, 292, 293, 294, 295, 296, 297, 298, 299, 300, 301, 302, 303, 304, 305, 306, 307, 308, 309, 310, 311, 312, 313, 314, 315, 316, 317, 318, 319, 320, 321, 322, 323, 324, 325, 326, 327, 328, 329, 330, 331, 332, 333, 334, 335, 336, 337, 338, 339, 340, 341, 342, 343, 344, 345, 346, 347, 348, 349, 350, 351, 352, 353, 354, 355, 356, 357, 358, 359, 360, 361, 362, 363, 364, 365, 366, 367, 368, 369, 370, 371, 372, 373, 374, 375, 376, 377, 378, 379, 380, 381, 382, 383, 384, 385, 386, 387, 388, 389, 390, 391, 392, 393, 394, 395, 396, 397, 398, 399, 400, 401, 402, 403, 404, 405, 406, 407, 408, 409, 410, 411, 412, 413, 414, 415, 416, 417, 418, 419, 420, 421, 422, 423, 424, 425, 426, 427, 428, 429, 430, 431, 432, 433, 434, 435, 436, 437, 438, 439, 440, 441, 442, 443, 444, 445, 446, 447, 448, 449, 450, 451, 452, 453, 454, 455, 456, 457, 458, 459, 460, 461, 462, 463, 464, 465, 466, 467, 468, 469, 470, 471, 472, 473, 474, 475, 476, 477, 478, 479, 480, 481, 482, 483, 484, 485, 486, 487, 488, 489, 490, 491, 492, 493, 494, 495, 496, 497, 498, 499, 500, 501, 502, 503, 504, 505, 506, 507, 508, 509, 510, 511, 512, 513, 514, 515, 516, 517, 518, 519, 520, 521, 522, 523, 524, 525, 526, 527, 528, 529, 530, 531, 532, 533, 534, 535, 536, 537, 538, 539, 540, 541, 542, 543, 544, 545, 546, 547, 548, 549, 550, 551, 552, 553, 554, 555, 556, 557, 558, 559, 560, 561, 562, 563, 564, 565, 566, 567, 568, 569, 570, 571, 572, 573, 574, 575, 576, 577, 578, 579, 580, 581, 582, 583, 584, 585, 586, 587, 588, 589, 590, 591, 592, 593, 594, 595, 596, 597, 598, 599, 600, 601, 602, 603, 604, 605, 606, 607, 608, 609, 610, 611, 612, 613, 614, 615, 616, 617, 618, 619, 620, 621, 622, 623, 624, 625, 626, 627, 628, 629, 630, 631, 632, 633, 634, 635, 636, 637, 638, 639, 640, 641, 642, 643, 644, 645, 646, 647, 648, 649, 650, 651, 652, 653, 654, 655, 656, 657, 658, 659, 660, 661, 662, 663, 664, 665, 666, 667, 668, 669, 670, 671, 672, 673, 674, 675, 676, 677, 678, 679, 680, 681, 682, 683, 684, 685, 686, 687, 688, 689, 690, 691, 692, 693, 694, 695, 696, 697, 698, 699, 700, 701, 702, 703, 704, 705, 706, 707, 708, 709, 710, 711, 712, 713, 714, 715, 716, 717, 718, 719, 720, 721, 722, 723, 724, 725, 726, 727, 728, 729, 730, 731, 732, 733, 734, 735, 736, 737, 738, 739, 740, 741, 742, 743, 744, 745, 746, 747, 748, 749, 750, 751, 752, 753, 754, 755, 756, 757, 758, 759, 760, 761, 762, 763, 764, 765, 766, 767, 768, 769, 770, 771, 772, 773, 774, 775, 776, 777, 778, 779, 780, 781, 782, 783, 784, 785, 786, 787, 788, 789, 790, 791, 792, 793, 794, 795, 796, 797, 798, 799, 800, 801, 802, 803, 804, 805, 806, 807, 808, 809, 810, 811, 812, 813, 814, 815, 816, 817, 818, 819, 820, 821, 822, 823, 824, 825, 826, 827, 828, 829, 830, 831, 832, 833, 834, 835, 836, 837, 838, 839, 840, 841, 842, 843, 844, 845, 846, 847, 848, 849, 850, 851, 852, 853, 854, 855, 856, 857, 858, 859, 860, 861, 862, 863, 864, 865, 866, 867, 868, 869, 870, 871, 872, 873, 874, 875, 876, 877, 878, 879, 880, 881, 882, 883, 884, 885, 886, 887, 888, 889, 890, 891, 892, 893, 894, 895, 896, 897, 898, 899, 900, 901, 902, 903, 904, 905, 906, 907, 908, 909, 910, 911, 912, 913, 914, 915, 916, 917, 918, 919, 920, 921, 922, 923, 924, 925, 926, 927, 928, 929, 930, 931, 932, 933, 934, 935, 936, 937, 938, 939, 940, 941, 942, 943, 944, 945, 946, 947, 948, 949, 950, 951, 952, 953, 954, 955, 956, 957, 958, 959, 960, 961, 962, 963, 964, 965, 966, 967, 968, 969, 970, 971, 972, 973, 974, 975, 976, 977, 978, 979, 980, 981, 982, 983, 984, 985, 986, 987, 988, 989, 990, 991, 992, 993, 994, 995, 996, 997, 998, 999, 1000, 1001, 1002, 1003, 1004, 1005, 1006, 1007, 1008, 1009, 1010, 1011, 1012, 1013, 1014, 1015, 1016, 1017, 1018, 1019, 1020, 1021, 1022, 1023, 1024, 1025, 1026, 1027, 1028, 1029, 1030, 1031, 1032, 1033, 1034, 1035, 1036, 1037, 1038, 1039, 1040, 1041, 1042, 1043, 1044, 1045, 1046, 1047, 1048, 1049, 1050, 1051, 1052, 1053, 1054, 1055, 1056, 1057, 1058, 1059, 1060, 1061, 1062, 1063, 1064, 1065],
      "AcquisitionTime": ["120514.920000", "120515.380000", "120515.840000", "120516.300000", "120516.760000", "120517.220000", "120517.680000", "120518.140000", "120518.600000", "120519.060000", "120519.520000", "120519.980000", "120520.440000", "120520.900000", "120521.360000", "120521.820000", "120522.280000", "120522.740000", "120523.200000", "120523.660000", "120524.120000", "120524.580000", "120525.040000", "120525.500000", "120525.960000", "120526.420000", "120526.880000", "120527.340000", "120527.800000", "120528.260000", "120528.720000", "120529.180000", "120529.640000", "120530.100000", "120530.560000", "120531.020000", "120531.480000", "120531.940000", "120532.400000", "120532.860000", "120533.320000", "120533.780000", "120534.240000", "120534.700000", "120535.160000", "120535.620000", "120536.080000", "120536.540000", "120537.000000", "120537.460000", "120537.920000", "120538.380000", "120538.840000", "120539.300000", "120539.760000", "120540.220000", "120540.680000", "120541.140000", "120541.600000", "120542.060000", "120542.520000", "120542.980000", "120543.440000", "120543.900000", "120544.360000", "120544.820000", "120545.280000", "120545.740000", "120546.200000", "120546.660000", "120547.120000", "120547.580000", "120548.040000", "120548.500000", "120548.960000", "120549.420000", "120549.880000", "120550.340000", "120550.800000", "120551.260000", "120551.720000", "120552.180000", "120552.640000", "120553.100000", "120553.560000", "120554.020000", "120554.480000", "120554.940000", "120555.400000", "120555.860000", "120556.320000", "120556.780000", "120557.240000", "120557.700000", "120558.160000", "120558.620000", "120559.080000", "120559.540000", "120600.000000", "120600.460000", "120600.920000", "120601.380000", "120601.840000", "120602.300000", "120602.760000", "120603.220000", "120603.680000", "120604.140000", "120604.600000", "120605.060000", "120605.520000", "120605.980000", "120606.440000", "120606.900000", "120607.360000", "120607.820000", "120608.280000", "120608.740000", "120609.200000", "120609.660000", "120610.120000", "120610.580000", "120611.040000", "120611.500000", "120611.960000", "120612.420000", "120612.880000", "120613.340000", "120613.800000", "120614.260000", "120614.720000", "120615.180000", "120615.640000", "120616.100000", "120616.560000", "120617.020000", "120617.480000", "120617.940000", "120618.400000", "120618.860000", "120619.320000", "120619.780000", "120620.240000", "120620.700000", "120621.160000", "120621.620000", "120622.080000", "120622.540000", "120623.000000", "120623.460000", "120623.920000", "120624.380000", "120624.840000", "120625.300000", "120625.760000", "120626.220000", "120626.680000", "120627.140000", "120627.600000", "120628.060000", "120628.520000", "120628.980000", "120629.440000", "120629.900000", "120630.360000", "120630.820000", "120631.280000", "120631.740000", "120632.200000", "120632.660000", "120633.120000", "120633.580000", "120634.040000", "120634.500000", "120634.960000", "120635.420000", "120635.880000", "120636.340000", "120636.800000", "120637.260000", "120637.720000", "120638.180000", "120638.640000", "120639.100000", "120639.560000", "120640.020000", "120640.480000", "120640.940000", "120641.400000", "120641.860000", "120642.320000", "120642.780000", "120643.240000", "120643.700000", "120644.160000", "120644.620000", "120645.080000", "120645.540000", "120646.000000", "120646.460000", "120646.920000", "120647.380000", "120647.840000", "120648.300000", "120648.760000", "120649.220000", "120649.680000", "120650.140000", "120650.600000", "120651.060000", "120651.520000", "120651.980000", "120652.440000", "120652.900000", "120653.360000", "120653.820000", "120654.280000", "120654.740000", "120655.200000", "120655.660000", "120656.120000", "120656.580000", "120657.040000", "120657.500000", "120657.960000", "120658.420000", "120658.880000", "120659.340000", "120659.800000", "120700.260000", "120700.720000", "120701.180000", "120701.640000", "120702.100000", "120702.560000", "120703.020000", "120703.480000", "120703.940000", "120704.400000", "120704.860000", "120705.320000", "120705.780000", "120706.240000", "120706.700000", "120707.160000", "120707.620000", "120708.080000", "120708.540000", "120709.000000", "120709.460000", "120709.920000", "120710.380000", "120710.840000", "120711.300000", "120711.760000", "120712.220000", "120712.680000", "120713.140000", "120713.600000", "120714.060000", "120714.520000", "120714.980000", "120715.440000", "120715.900000", "120716.360000", "120716.820000", "120717.280000", "120717.740000", "120718.200000", "120718.660000", "120719.120000", "120719.580000", "120720.040000", "120720.500000", "120720.960000", "120721.420000", "120721.880000", "120722.340000", "120722.800000", "120723.260000", "120723.720000", "120724.180000", "120724.640000", "120725.100000", "120725.560000", "120726.020000", "120726.480000", "120726.940000", "120727.400000", "120727.860000", "120728.320000", "120728.780000", "120729.240000", "120729.700000", "120730.160000", "120730.620000", "120731.080000", "120731.540000", "120732.000000", "120732.460000", "120732.920000", "120733.380000", "120733.840000", "120734.300000", "120734.760000", "120735.220000", "120735.680000", "120736.140000", "120736.600000", "120737.060000", "120737.520000", "120737.980000", "120738.440000", "120738.900000", "120739.360000", "120739.820000", "120740.280000", "120740.740000", "120741.200000", "120741.660000", "120742.120000", "120742.580000", "120743.040000", "120743.500000", "120743.960000", "120744.420000", "120744.880000", "120745.340000", "120745.800000", "120746.260000", "120746.720000", "120747.180000", "120747.640000", "120748.100000", "120748.560000", "120749.020000", "120749.480000", "120749.940000", "120750.400000", "120750.860000", "120751.320000", "120751.780000", "120752.240000", "120752.700000", "120753.160000", "120753.620000", "120754.080000", "120754.540000", "120755.000000", "120755.460000", "120755.920000", "120756.380000", "120756.840000", "120757.300000", "120757.760000", "120758.220000", "120758.680000", "120759.140000", "120759.600000", "120800.060000", "120800.520000", "120800.980000", "120801.440000", "120801.900000", "120802.360000", "120802.820000", "120803.280000", "120803.740000", "120804.200000", "120804.660000", "120805.120000", "120805.580000", "120806.040000", "120806.500000", "120806.960000", "120807.420000", "120807.880000", "120808.340000", "120808.800000", "120809.260000", "120809.720000", "120810.180000", "120810.640000", "120811.100000", "120811.560000", "120812.020000", "120812.480000", "120812.940000", "120813.400000", "120813.860000", "120814.320000", "120814.780000", "120815.240000", "120815.700000", "120816.160000", "120816.620000", "120817.080000", "120817.540000", "120818.000000", "120818.460000", "120818.920000", "120819.380000", "120819.840000", "120820.300000", "120820.760000", "120821.220000", "120821.680000", "120822.140000", "120822.600000", "120823.060000", "120823.520000", "120823.980000", "120824.440000", "120824.900000", "120825.360000", "120825.820000", "120826.280000", "120826.740000", "120827.200000", "120827.660000", "120828.120000", "120828.580000", "120829.040000", "120829.500000", "120829.960000", "120830.420000", "120830.880000", "120831.340000", "120831.800000", "120832.260000", "120832.720000", "120833.180000", "120833.640000", "120834.100000", "120834.560000", "120835.020000", "120835.480000", "120835.940000", "120836.400000", "120836.860000", "120837.320000", "120837.780000", "120838.240000", "120838.700000", "120839.160000", "120839.620000", "120840.080000", "120840.540000", "120841.000000", "120841.460000", "120841.920000", "120842.380000", "120842.840000", "120843.300000", "120843.760000", "120844.220000", "120844.680000", "120845.140000", "120845.600000", "120846.060000", "120846.520000", "120846.980000", "120847.440000", "120847.900000", "120848.360000", "120848.820000", "120849.280000", "120849.740000", "120850.200000", "120850.660000", "120851.120000", "120851.580000", "120852.040000", "120852.500000", "120852.960000", "120853.420000", "120853.880000", "120854.340000", "120854.800000", "120855.260000", "120855.720000", "120856.180000", "120856.640000", "120857.100000", "120857.560000", "120858.020000", "120858.480000", "120858.940000", "120859.400000", "120859.860000", "120900.320000", "120900.780000", "120901.240000", "120901.700000", "120902.160000", "120902.620000", "120903.080000", "120903.540000", "120904.000000", "120904.460000", "120904.920000", "120905.380000", "120905.840000", "120906.300000", "120906.760000", "120907.220000", "120907.680000", "120908.140000", "120908.600000", "120909.060000", "120909.520000", "120909.980000", "120910.440000", "120910.900000", "120911.360000", "120911.820000", "120912.280000", "120912.740000", "120913.200000", "120913.660000", "120914.120000", "120914.580000", "120915.040000", "120915.500000", "120915.960000", "120916.420000", "120916.880000", "120917.340000", "120917.800000", "120918.260000", "120918.720000", "120919.180000", "120919.640000", "120920.100000", "120920.560000", "120921.020000", "120921.480000", "120921.940000", "120922.400000", "120922.860000", "120923.320000", "120923.780000", "120924.240000", "120924.700000", "120925.160000", "120925.620000", "120926.080000", "120926.540000", "120927.000000", "120927.460000", "120927.920000", "120928.380000", "120928.840000", "120929.300000", "120929.760000", "120930.220000", "120930.680000", "120931.140000", "120931.600000", "120932.060000", "120932.520000", "120932.980000", "120933.440000", "120933.900000", "120934.360000", "120934.820000", "120935.280000", "120935.740000", "120936.200000", "120936.660000", "120937.120000", "120937.580000", "120938.040000", "120938.500000", "120938.960000", "120939.420000", "120939.880000", "120940.340000", "120940.800000", "120941.260000", "120941.720000", "120942.180000", "120942.640000", "120943.100000", "120943.560000", "120944.020000", "120944.480000", "120944.940000", "120945.400000", "120945.860000", "120946.320000", "120946.780000", "120947.240000", "120947.700000", "120948.160000", "120948.620000", "120949.080000", "120949.540000", "120950.000000", "120950.460000", "120950.920000", "120951.380000", "120951.840000", "120952.300000", "120952.760000", "120953.220000", "120953.680000", "120954.140000", "120954.600000", "120955.060000", "120955.520000", "120955.980000", "120956.440000", "120956.900000", "120957.360000", "120957.820000", "120958.280000", "120958.740000", "120959.200000", "120959.660000", "121000.120000", "121000.580000", "121001.040000", "121001.500000", "121001.960000", "121002.420000", "121002.880000", "121003.340000", "121003.800000", "121004.260000", "121004.720000", "121005.180000", "121005.640000", "121006.100000", "121006.560000", "121007.020000", "121007.480000", "121007.940000", "121008.400000", "121008.860000", "121009.320000", "121009.780000", "121010.240000", "121010.700000", "121011.160000", "121011.620000", "121012.080000", "121012.540000", "121013.000000", "121013.460000", "121013.920000", "121014.380000", "121014.840000", "121015.300000", "121015.760000", "121016.220000", "121016.680000", "121017.140000", "121017.600000", "121018.060000", "121018.520000", "121018.980000", "121019.440000", "121019.900000", "121020.360000", "121020.820000", "121021.280000", "121021.740000", "121022.200000", "121022.660000", "121023.120000", "121023.580000", "121024.040000", "121024.500000", "121024.960000", "121025.420000", "121025.880000", "121026.340000", "121026.800000", "121027.260000", "121027.720000", "121028.180000", "121028.640000", "121029.100000", "121029.560000", "121030.020000", "121030.480000", "121030.940000", "121031.400000", "121031.860000", "121032.320000", "121032.780000", "121033.240000", "121033.700000", "121034.160000", "121034.620000", "121035.080000", "121035.540000", "121036.000000", "121036.460000", "121036.920000", "121037.380000", "121037.840000", "121038.300000", "121038.760000", "121039.220000", "121039.680000", "121040.140000", "121040.600000", "121041.060000", "121041.520000", "121041.980000", "121042.440000", "121042.900000", "121043.360000", "121043.820000", "121044.280000", "121044.740000", "121045.200000", "121045.660000", "121046.120000", "121046.580000", "121047.040000", "121047.500000", "121047.960000", "121048.420000", "121048.880000", "121049.340000", "121049.800000", "121050.260000", "121050.720000", "121051.180000", "121051.640000", "121052.100000", "121052.560000", "121053.020000", "121053.480000", "121053.940000", "121054.400000", "121054.860000", "121055.320000", "121055.780000", "121056.240000", "121056.700000", "121057.160000", "121057.620000", "121058.080000", "121058.540000", "121059.000000", "121059.460000", "121059.920000", "121100.380000", "121100.840000", "121101.300000", "121101.760000", "121102.220000", "121102.680000", "121103.140000", "121103.600000", "121104.060000", "121104.520000", "121104.980000", "121105.440000", "121105.900000", "121106.360000", "121106.820000", "121107.280000", "121107.740000", "121108.200000", "121108.660000", "121109.120000", "121109.580000", "121110.040000", "121110.500000", "121110.960000", "121111.420000", "121111.880000", "121112.340000", "121112.800000", "121113.260000", "121113.720000", "121114.180000", "121114.640000", "121115.100000", "121115.560000", "121116.020000", "121116.480000", "121116.940000", "121117.400000", "121117.860000", "121118.320000", "121118.780000", "121119.240000", "121119.700000", "121120.160000", "121120.620000", "121121.080000", "121121.540000", "121122.000000", "121122.460000", "121122.920000", "121123.380000", "121123.840000", "121124.300000", "121124.760000", "121125.220000", "121125.680000", "121126.140000", "121126.600000", "121127.060000", "121127.520000", "121127.980000", "121128.440000", "121128.900000", "121129.360000", "121129.820000", "121130.280000", "121130.740000", "121131.200000", "121131.660000", "121132.120000", "121132.580000", "121133.040000", "121133.500000", "121133.960000", "121134.420000", "121134.880000", "121135.340000", "121135.800000", "121136.260000", "121136.720000", "121137.180000", "121137.640000", "121138.100000", "121138.560000", "121139.020000", "121139.480000", "121139.940000", "121140.400000", "121140.860000", "121141.320000", "121141.780000", "121142.240000", "121142.700000", "121143.160000", "121143.620000", "121144.080000", "121144.540000", "121145.000000", "121145.460000", "121145.920000", "121146.380000", "121146.840000", "121147.300000", "121147.760000", "121148.220000", "121148.680000", "121149.140000", "121149.600000", "121150.060000", "121150.520000", "121150.980000", "121151.440000", "121151.900000", "121152.360000", "121152.820000", "121153.280000", "121153.740000", "121154.200000", "121154.660000", "121155.120000", "121155.580000", "121156.040000", "121156.500000", "121156.960000", "121157.420000", "121157.880000", "121158.340000", "121158.800000", "121159.260000", "121159.720000", "121200.180000", "121200.640000", "121201.100000", "121201.560000", "121202.020000", "121202.480000", "121202.940000", "121203.400000", "121203.860000", "121204.320000", "121204.780000", "121205.240000", "121205.700000", "121206.160000", "121206.620000", "121207.080000", "121207.540000", "121208.000000", "121208.460000", "121208.920000", "121209.380000", "121209.840000", "121210.300000", "121210.760000", "121211.220000", "121211.680000", "121212.140000", "121212.600000", "121213.060000", "121213.520000", "121213.980000", "121214.440000", "121214.900000", "121215.360000", "121215.820000", "121216.280000", "121216.740000", "121217.200000", "121217.660000", "121218.120000", "121218.580000", "121219.040000", "121219.500000", "121219.960000", "121220.420000", "121220.880000", "121221.340000", "121221.800000", "121222.260000", "121222.720000", "121223.180000", "121223.640000", "121224.100000", "121224.560000", "121225.020000", "121225.480000", "121225.940000", "121226.400000", "121226.860000", "121227.320000", "121227.780000", "121228.240000", "121228.700000", "121229.160000", "121229.620000", "121230.080000", "121230.540000", "121231.000000", "121231.460000", "121231.920000", "121232.380000", "121232.840000", "121233.300000", "121233.760000", "121234.220000", "121234.680000", "121235.140000", "121235.600000", "121236.060000", "121236.520000", "121236.980000", "121237.440000", "121237.900000", "121238.360000", "121238.820000", "121239.280000", "121239.740000", "121240.200000", "121240.660000", "121241.120000", "121241.580000", "121242.040000", "121242.500000", "121242.960000", "121243.420000", "121243.880000", "121244.340000", "121244.800000", "121245.260000", "121245.720000", "121246.180000", "121246.640000", "121247.100000", "121247.560000", "121248.020000", "121248.480000", "121248.940000", "121249.400000", "121249.860000", "121250.320000", "121250.780000", "121251.240000", "121251.700000", "121252.160000", "121252.620000", "121253.080000", "121253.540000", "121254.000000", "121254.460000", "121254.920000", "121255.380000", "121255.840000", "121256.300000", "121256.760000", "121257.220000", "121257.680000", "121258.140000", "121258.600000", "121259.060000", "121259.520000", "121259.980000", "121300.440000", "121300.900000", "121301.360000", "121301.820000", "121302.280000", "121302.740000", "121303.200000", "121303.660000", "121304.120000", "121304.580000", "121305.040000", "121305.500000", "121305.960000", "121306.420000", "121306.880000", "121307.340000", "121307.800000", "121308.260000", "121308.720000", "121309.180000", "121309.640000", "121310.100000", "121310.560000", "121311.020000", "121311.480000", "121311.940000", "121312.400000", "121312.860000", "121313.320000", "121313.780000", "121314.240000", "121314.700000", "121315.160000", "121315.620000", "121316.080000", "121316.540000", "121317.000000", "121317.460000", "121317.920000", "121318.380000", "121318.840000", "121319.300000", "121319.760000", "121320.220000", "121320.680000", "121321.140000", "121321.600000", "121322.060000", "121322.520000", "121322.980000", "121323.440000", "121323.900000", "121324.360000"],
