{
  "AcquisitionMatrixPE": 82,
  "AcquisitionNumber": 1,
  "AcquisitionTime": "13:54:32.937500",
  "BandwidthPerPixelPhaseEncode": 24.888,
  "BaseResolution": 82,
  "BodyPartExamined": "BRAIN",
  "ConsistencyInfo": "N4_VE11C_LATEST_20160120",
  "ConversionSoftware": "dcm2niix",
  "ConversionSoftwareVersion": "v1.0.20201102",
  "DerivedVendorReportedEchoSpacing": 0.00049,
  "DeviceSerialNumber": "66112",
  "DwellTime": 2e-06,
  "EchoTime": 0.0272,
  "EchoTrainLength": 82,
  "EffectiveEchoSpacing": 0.00049,
  "FlipAngle": 44,
  "ImageComments": "Unaliased MB8/PE3",
  "ImageOrientationPatientDICOM": [0.999882, 0.0129988, -0.00814337, -0.0122165, 0.995895, 0.0896927],
  "ImageType": [
    "ORIGINAL",
    "PRIMARY",
    "M",
    "MB",
    "ND",
    "NORM",
    "MOSAIC"
],
  "ImagingFrequency": 123.252,
  "InPlanePhaseEncodingDirectionDICOM": "COL",
  "InstitutionAddress": "Maynard 3,Hanover,NH,US,03755",
  "InstitutionName": "Dartmouth College - PBS",
  "InstitutionalDepartmentName": "Department",
  "MRAcquisitionType": "2D",
  "MagneticFieldStrength": 3,
  "Manufacturer": "Siemens",
  "ManufacturersModelName": "Prisma",
  "Modality": "MR",
  "MultibandAccelerationFactor": 8,
  "PartialFourier": 1,
  "PatientPosition": "HFS",
  "PercentPhaseFOV": 100,
  "PercentSampling": 100,
  "PhaseEncodingDirection": "j-",
  "PhaseEncodingSteps": 82,
  "PhaseResolution": 1,
  "PixelBandwidth": 3050,
  "ProcedureStepDescription": "Wager_Wager^1076_spacetop",
  "ProtocolName": "func_run-02_task-faces_acq-ap-mb8",
  "PulseSequenceDetails": "%CustomerSeq%\\cmrr_mbep2d_bold",
  "ReceiveCoilActiveElements": "HEA;HEP",
  "ReceiveCoilName": "Head_32",
  "ReconMatrixPE": 82,
  "RepetitionTime": 0.46,
  "SAR": 0.0959734,
  "ScanOptions": "FS",
  "ScanningSequence": "EP",
  "SequenceName": "epfid2d1_82",
  "SequenceVariant": "SK\\SS",
  "SeriesDescription": "func_run-02_task-faces_acq-ap-mb8",
  "SeriesNumber": 20,
  "ShimSetting": [4121, -7733, -7269, 430, -105, -17, 8, 121],
  "SliceThickness": 2.7,
  "SliceTiming": [0, 0.25, 0.0625, 0.3125, 0.125, 0.375, 0.1875, 0, 0.25, 0.0625, 0.3125, 0.125, 0.375, 0.1875, 0, 0.25, 0.0625, 0.3125, 0.125, 0.375, 0.1875, 0, 0.25, 0.0625, 0.3125, 0.125, 0.375, 0.1875, 0, 0.25, 0.0625, 0.3125, 0.125, 0.375, 0.1875, 0, 0.25, 0.0625, 0.3125, 0.125, 0.375, 0.1875, 0, 0.25, 0.0625, 0.3125, 0.125, 0.375, 0.1875, 0, 0.25, 0.0625, 0.3125, 0.125, 0.375, 0.1875],
  "SoftwareVersions": "syngo MR E11",
  "SpacingBetweenSlices": 2.7,
  "StationName": "AWP66112",
  "TaskName": "faces",
  "TotalReadoutTime": 0.03969,
  "TxRefAmp": 230.116,
  "WipMemBlock": "34a20df9-bc51-4645-b832-1eae28674ffb||Sequence: R016 ve11c/master r/e634e98; Dec 19 2017 11:00:25 by eja",
  "dcmmeta_affine": [
    [-2.6826112270355225, -0.032775867730379105, -0.0250447615981102, 113.64314270019531],
    [-0.034874800592660904, 2.67191219329834, 0.24187323451042175, -98.60343933105469],
    [-0.021848075091838837, -0.24063900113105774, 2.689027786254883, -59.68867492675781],
    [0.0, 0.0, 0.0, 1.0]
],
  "dcmmeta_reorient_transform": [
    [0.0, -1.0, 0.0, 81.0],
    [1.0, 0.0, 0.0, 0.0],
    [0.0, 0.0, 1.0, 0.0],
    [0.0, 0.0, 0.0, 1.0]
],
  "dcmmeta_shape": [82, 82, 56, 914],
  "dcmmeta_slice_dim": 2,
  "dcmmeta_version": 0.6,
  "global": {
    "const": {
      "AccessionNumber": "A003834",
      "AcquisitionMatrix": [82, 0, 0, 82],
      "AngioFlag": "N",
      "BitsAllocated": 16,
      "BitsStored": 16,
      "BodyPartExamined": "BRAIN",
      "Columns": 656,
      "EchoNumbers": 1,
      "EchoTime": 27.2,
      "EchoTrainLength": 82,
      "FlipAngle": 44.0,
      "HighBit": 15,
      "ImageOrientationPatient": [0.99988235154904, 0.01299878957957, -0.0081433733937, -0.0122164598213, 0.99589456028605, 0.08969271376251],
      "ImagePositionPatient": [-871.49105315479, -894.66935256662, -141.97342794937],
      "ImageType": [
        "ORIGINAL",
        "PRIMARY",
        "M",
        "MB",
        "ND",
        "NORM",
        "MOSAIC"
],
      "ImagedNucleus": "1H",
      "ImagingFrequency": 123.252281,
      "InPlanePhaseEncodingDirection": "COL",
      "MRAcquisitionType": "2D",
      "MagneticFieldStrength": 3.0,
      "Manufacturer": "SIEMENS",
      "ManufacturerModelName": "Prisma",
      "Modality": "MR",
      "NumberOfAverages": 1.0,
      "NumberOfPhaseEncodingSteps": 82,
      "PercentPhaseFieldOfView": 100.0,
      "PercentSampling": 100.0,
      "PerformedProcedureStepStartTime": "125017.912000",
      "PhotometricInterpretation": "MONOCHROME2",
      "PixelBandwidth": 3050.0,
      "PixelRepresentation": 0,
      "PixelSpacing": [2.6829268932343, 2.6829268932343],
      "ProtocolName": "func_run-02_task-faces_acq-ap-mb8",
      "RepetitionTime": 460.0,
      "Rows": 656,
      "SAR": 0.09597340560248,
      "SamplesPerPixel": 1,
      "ScanOptions": "FS",
      "ScanningSequence": "EP",
      "SequenceName": "epfid2d1_82",
      "SequenceVariant": [
        "SK",
        "SS"
],
      "SeriesDescription": "func_run-02_task-faces_acq-ap-mb8",
      "SeriesNumber": 20,
      "SeriesTime": "135447.342000",
      "SliceLocation": -69.333408443662,
      "SliceThickness": 2.7000000476837,
      "SmallestImagePixelValue": 0,
      "SoftwareVersions": "syngo MR E11",
      "SpacingBetweenSlices": 2.6999999590992,
      "SpecificCharacterSet": "ISO_IR 100",
      "StudyID": "2",
      "StudyTime": "125017.838000",
      "TransmitCoilName": "Body",
      "VariableFlipAngleFlag": "N",
      "WindowCenterWidthExplanation": "Algo1",
      "dBdt": 0.0},
    "slices": {}
  },
  "time": {
    "samples": {
      "AcquisitionNumber": [1, 2, 3, 4, 5, 6, 7, 8, 9, 10, 11, 12, 13, 14, 15, 16, 17, 18, 19, 20, 21, 22, 23, 24, 25, 26, 27, 28, 29, 30, 31, 32, 33, 34, 35, 36, 37, 38, 39, 40, 41, 42, 43, 44, 45, 46, 47, 48, 49, 50, 51, 52, 53, 54, 55, 56, 57, 58, 59, 60, 61, 62, 63, 64, 65, 66, 67, 68, 69, 70, 71, 72, 73, 74, 75, 76, 77, 78, 79, 80, 81, 82, 83, 84, 85, 86, 87, 88, 89, 90, 91, 92, 93, 94, 95, 96, 97, 98, 99, 100, 101, 102, 103, 104, 105, 106, 107, 108, 109, 110, 111, 112, 113, 114, 115, 116, 117, 118, 119, 120, 121, 122, 123, 124, 125, 126, 127, 128, 129, 130, 131, 132, 133, 134, 135, 136, 137, 138, 139, 140, 141, 142, 143, 144, 145, 146, 147, 148, 149, 150, 151, 152, 153, 154, 155, 156, 157, 158, 159, 160, 161, 162, 163, 164, 165, 166, 167, 168, 169, 170, 171, 172, 173, 174, 175, 176, 177, 178, 179, 180, 181, 182, 183, 184, 185, 186, 187, 188, 189, 190, 191, 192, 193, 194, 195, 196, 197, 198, 199, 200, 201, 202, 203, 204, 205, 206, 207, 208, 209, 210, 211, 212, 213, 214, 215, 216, 217, 218, 219, 220, 221, 222, 223, 224, 225, 226, 227, 228, 229, 230, 231, 232, 233, 234, 235, 236, 237, 238, 239, 240, 241, 242, 243, 244, 245, 246, 247, 248, 249, 250, 251, 252, 253, 254, 255, 256, 257, 258, 259, 260, 261, 262, 263, 264, 265, 266, 267, 268, 269, 270, 271, 272, 273, 274, 275, 276, 277, 278, 279, 280, 281, 282, 283, 284, 285, 286, 287, 288, 289, 290, 291, 292, 293, 294, 295, 296, 297, 298, 299, 300, 301, 302, 303, 304, 305, 306, 307, 308, 309, 310, 311, 312, 313, 314, 315, 316, 317, 318, 319, 320, 321, 322, 323, 324, 325, 326, 327, 328, 329, 330, 331, 332, 333, 334, 335, 336, 337, 338, 339, 340, 341, 342, 343, 344, 345, 346, 347, 348, 349, 350, 351, 352, 353, 354, 355, 356, 357, 358, 359, 360, 361, 362, 363, 364, 365, 366, 367, 368, 369, 370, 371, 372, 373, 374, 375, 376, 377, 378, 379, 380, 381, 382, 383, 384, 385, 386, 387, 388, 389, 390, 391, 392, 393, 394, 395, 396, 397, 398, 399, 400, 401, 402, 403, 404, 405, 406, 407, 408, 409, 410, 411, 412, 413, 414, 415, 416, 417, 418, 419, 420, 421, 422, 423, 424, 425, 426, 427, 428, 429, 430, 431, 432, 433, 434, 435, 436, 437, 438, 439, 440, 441, 442, 443, 444, 445, 446, 447, 448, 449, 450, 451, 452, 453, 454, 455, 456, 457, 458, 459, 460, 461, 462, 463, 464, 465, 466, 467, 468, 469, 470, 471, 472, 473, 474, 475, 476, 477, 478, 479, 480, 481, 482, 483, 484, 485, 486, 487, 488, 489, 490, 491, 492, 493, 494, 495, 496, 497, 498, 499, 500, 501, 502, 503, 504, 505, 506, 507, 508, 509, 510, 511, 512, 513, 514, 515, 516, 517, 518, 519, 520, 521, 522, 523, 524, 525, 526, 527, 528, 529, 530, 531, 532, 533, 534, 535, 536, 537, 538, 539, 540, 541, 542, 543, 544, 545, 546, 547, 548, 549, 550, 551, 552, 553, 554, 555, 556, 557, 558, 559, 560, 561, 562, 563, 564, 565, 566, 567, 568, 569, 570, 571, 572, 573, 574, 575, 576, 577, 578, 579, 580, 581, 582, 583, 584, 585, 586, 587, 588, 589, 590, 591, 592, 593, 594, 595, 596, 597, 598, 599, 600, 601, 602, 603, 604, 605, 606, 607, 608, 609, 610, 611, 612, 613, 614, 615, 616, 617, 618, 619, 620, 621, 622, 623, 624, 625, 626, 627, 628, 629, 630, 631, 632, 633, 634, 635, 636, 637, 638, 639, 640, 641, 642, 643, 644, 645, 646, 647, 648, 649, 650, 651, 652, 653, 654, 655, 656, 657, 658, 659, 660, 661, 662, 663, 664, 665, 666, 667, 668, 669, 670, 671, 672, 673, 674, 675, 676, 677, 678, 679, 680, 681, 682, 683, 684, 685, 686, 687, 688, 689, 690, 691, 692, 693, 694, 695, 696, 697, 698, 699, 700, 701, 702, 703, 704, 705, 706, 707, 708, 709, 710, 711, 712, 713, 714, 715, 716, 717, 718, 719, 720, 721, 722, 723, 724, 725, 726, 727, 728, 729, 730, 731, 732, 733, 734, 735, 736, 737, 738, 739, 740, 741, 742, 743, 744, 745, 746, 747, 748, 749, 750, 751, 752, 753, 754, 755, 756, 757, 758, 759, 760, 761, 762, 763, 764, 765, 766, 767, 768, 769, 770, 771, 772, 773, 774, 775, 776, 777, 778, 779, 780, 781, 782, 783, 784, 785, 786, 787, 788, 789, 790, 791, 792, 793, 794, 795, 796, 797, 798, 799, 800, 801, 802, 803, 804, 805, 806, 807, 808, 809, 810, 811, 812, 813, 814, 815, 816, 817, 818, 819, 820, 821, 822, 823, 824, 825, 826, 827, 828, 829, 830, 831, 832, 833, 834, 835, 836, 837, 838, 839, 840, 841, 842, 843, 844, 845, 846, 847, 848, 849, 850, 851, 852, 853, 854, 855, 856, 857, 858, 859, 860, 861, 862, 863, 864, 865, 866, 867, 868, 869, 870, 871, 872, 873, 874, 875, 876, 877, 878, 879, 880, 881, 882, 883, 884, 885, 886, 887, 888, 889, 890, 891, 892, 893, 894, 895, 896, 897, 898, 899, 900, 901, 902, 903, 904, 905, 906, 907, 908, 909, 910, 911, 912, 913, 914],
      "AcquisitionTime": ["135432.937500", "135433.397500", "135433.857500", "135434.317500", "135434.777500", "135435.237500", "135435.697500", "135436.157500", "135436.617500", "135437.077500", "135437.537500", "135437.997500", "135438.457500", "135438.917500", "135439.377500", "135439.837500", "135440.297500", "135440.757500", "135441.217500", "135441.677500", "135442.137500", "135442.597500", "135443.057500", "135443.517500", "135443.977500", "135444.437500", "135444.897500", "135445.357500", "135445.817500", "135446.277500", "135446.737500", "135447.197500", "135447.657500", "135448.117500", "135448.577500", "135449.037500", "135449.497500", "135449.957500", "135450.417500", "135450.877500", "135451.337500", "135451.797500", "135452.257500", "135452.717500", "135453.177500", "135453.637500", "135454.097500", "135454.557500", "135455.017500", "135455.477500", "135455.937500", "135456.397500", "135456.857500", "135457.317500", "135457.777500", "135458.237500", "135458.697500", "135459.157500", "135459.617500", "135500.077500", "135500.537500", "135500.997500", "135501.457500", "135501.917500", "135502.377500", "135502.837500", "135503.297500", "135503.757500", "135504.217500", "135504.677500", "135505.137500", "135505.597500", "135506.057500", "135506.517500", "135506.977500", "135507.437500", "135507.897500", "135508.357500", "135508.817500", "135509.277500", "135509.737500", "135510.197500", "135510.657500", "135511.117500", "135511.577500", "135512.037500", "135512.497500", "135512.957500", "135513.417500", "135513.877500", "135514.337500", "135514.797500", "135515.257500", "135515.717500", "135516.177500", "135516.637500", "135517.097500", "135517.557500", "135518.017500", "135518.477500", "135518.937500", "135519.397500", "135519.857500", "135520.317500", "135520.777500", "135521.237500", "135521.697500", "135522.157500", "135522.617500", "135523.077500", "135523.537500", "135523.997500", "135524.457500", "135524.917500", "135525.377500", "135525.837500", "135526.297500", "135526.757500", "135527.217500", "135527.677500", "135528.137500", "135528.597500", "135529.057500", "135529.517500", "135529.977500", "135530.437500", "135530.897500", "135531.357500", "135531.817500", "135532.277500", "135532.737500", "135533.197500", "135533.657500", "135534.117500", "135534.577500", "135535.037500", "135535.497500", "135535.957500", "135536.417500", "135536.877500", "135537.337500", "135537.797500", "135538.257500", "135538.717500", "135539.177500", "135539.637500", "135540.097500", "135540.557500", "135541.017500", "135541.477500", "135541.937500", "135542.397500", "135542.857500", "135543.317500", "135543.777500", "135544.237500", "135544.697500", "135545.157500", "135545.617500", "135546.077500", "135546.537500", "135546.997500", "135547.457500", "135547.917500", "135548.377500", "135548.837500", "135549.297500", "135549.757500", "135550.217500", "135550.677500", "135551.137500", "135551.597500", "135552.057500", "135552.517500", "135552.977500", "135553.437500", "135553.897500", "135554.357500", "135554.817500", "135555.277500", "135555.737500", "135556.197500", "135556.657500", "135557.117500", "135557.577500", "135558.037500", "135558.497500", "135558.957500", "135559.417500", "135559.877500", "135600.337500", "135600.797500", "135601.257500", "135601.717500", "135602.177500", "135602.637500", "135603.097500", "135603.557500", "135604.017500", "135604.477500", "135604.937500", "135605.397500", "135605.857500", "135606.317500", "135606.777500", "135607.237500", "135607.697500", "135608.157500", "135608.617500", "135609.077500", "135609.537500", "135609.997500", "135610.457500", "135610.917500", "135611.377500", "135611.837500", "135612.297500", "135612.757500", "135613.217500", "135613.677500", "135614.137500", "135614.597500", "135615.057500", "135615.517500", "135615.977500", "135616.437500", "135616.897500", "135617.357500", "135617.817500", "135618.277500", "135618.737500", "135619.197500", "135619.657500", "135620.117500", "135620.577500", "135621.037500", "135621.497500", "135621.957500", "135622.417500", "135622.877500", "135623.337500", "135623.797500", "135624.257500", "135624.717500", "135625.177500", "135625.637500", "135626.097500", "135626.557500", "135627.017500", "135627.477500", "135627.937500", "135628.397500", "135628.857500", "135629.317500", "135629.777500", "135630.237500", "135630.697500", "135631.157500", "135631.617500", "135632.077500", "135632.537500", "135632.997500", "135633.457500", "135633.917500", "135634.377500", "135634.837500", "135635.297500", "135635.757500", "135636.217500", "135636.677500", "135637.137500", "135637.597500", "135638.057500", "135638.517500", "135638.977500", "135639.437500", "135639.897500", "135640.357500", "135640.817500", "135641.277500", "135641.737500", "135642.197500", "135642.657500", "135643.117500", "135643.577500", "135644.037500", "135644.497500", "135644.957500", "135645.417500", "135645.877500", "135646.337500", "135646.797500", "135647.257500", "135647.717500", "135648.177500", "135648.637500", "135649.097500", "135649.557500", "135650.017500", "135650.477500", "135650.937500", "135651.397500", "135651.857500", "135652.317500", "135652.777500", "135653.237500", "135653.697500", "135654.157500", "135654.617500", "135655.077500", "135655.537500", "135655.997500", "135656.457500", "135656.917500", "135657.377500", "135657.837500", "135658.297500", "135658.757500", "135659.217500", "135659.677500", "135700.137500", "135700.597500", "135701.057500", "135701.517500", "135701.977500", "135702.437500", "135702.897500", "135703.357500", "135703.817500", "135704.277500", "135704.737500", "135705.197500", "135705.657500", "135706.117500", "135706.577500", "135707.037500", "135707.497500", "135707.957500", "135708.417500", "135708.877500", "135709.337500", "135709.797500", "135710.257500", "135710.717500", "135711.177500", "135711.637500", "135712.097500", "135712.557500", "135713.017500", "135713.477500", "135713.937500", "135714.397500", "135714.857500", "135715.317500", "135715.777500", "135716.237500", "135716.697500", "135717.157500", "135717.617500", "135718.077500", "135718.537500", "135718.997500", "135719.457500", "135719.917500", "135720.377500", "135720.837500", "135721.297500", "135721.757500", "135722.217500", "135722.677500", "135723.137500", "135723.597500", "135724.057500", "135724.517500", "135724.977500", "135725.437500", "135725.897500", "135726.357500", "135726.817500", "135727.277500", "135727.737500", "135728.197500", "135728.657500", "135729.117500", "135729.577500", "135730.037500", "135730.497500", "135730.957500", "135731.417500", "135731.877500", "135732.337500", "135732.797500", "135733.257500", "135733.717500", "135734.177500", "135734.637500", "135735.097500", "135735.557500", "135736.017500", "135736.477500", "135736.937500", "135737.397500", "135737.857500", "135738.317500", "135738.777500", "135739.237500", "135739.697500", "135740.157500", "135740.617500", "135741.077500", "135741.537500", "135741.997500", "135742.457500", "135742.917500", "135743.377500", "135743.837500", "135744.297500", "135744.757500", "135745.217500", "135745.677500", "135746.137500", "135746.597500", "135747.057500", "135747.517500", "135747.977500", "135748.437500", "135748.897500", "135749.357500", "135749.817500", "135750.277500", "135750.737500", "135751.197500", "135751.657500", "135752.117500", "135752.577500", "135753.037500", "135753.497500", "135753.957500", "135754.417500", "135754.877500", "135755.337500", "135755.797500", "135756.257500", "135756.717500", "135757.177500", "135757.637500", "135758.097500", "135758.557500", "135759.017500", "135759.477500", "135759.937500", "135800.397500", "135800.857500", "135801.317500", "135801.777500", "135802.237500", "135802.697500", "135803.157500", "135803.617500", "135804.077500", "135804.537500", "135804.997500", "135805.457500", "135805.917500", "135806.377500", "135806.837500", "135807.297500", "135807.757500", "135808.217500", "135808.677500", "135809.137500", "135809.597500", "135810.057500", "135810.517500", "135810.977500", "135811.437500", "135811.897500", "135812.357500", "135812.817500", "135813.277500", "135813.737500", "135814.197500", "135814.657500", "135815.117500", "135815.577500", "135816.037500", "135816.497500", "135816.957500", "135817.417500", "135817.877500", "135818.337500", "135818.797500", "135819.257500", "135819.717500", "135820.177500", "135820.637500", "135821.097500", "135821.557500", "135822.017500", "135822.477500", "135822.937500", "135823.397500", "135823.857500", "135824.317500", "135824.777500", "135825.237500", "135825.697500", "135826.157500", "135826.617500", "135827.077500", "135827.537500", "135827.997500", "135828.457500", "135828.917500", "135829.377500", "135829.837500", "135830.297500", "135830.757500", "135831.217500", "135831.677500", "135832.137500", "135832.597500", "135833.057500", "135833.517500", "135833.977500", "135834.437500", "135834.897500", "135835.357500", "135835.817500", "135836.277500", "135836.737500", "135837.197500", "135837.657500", "135838.117500", "135838.577500", "135839.037500", "135839.497500", "135839.957500", "135840.417500", "135840.877500", "135841.337500", "135841.797500", "135842.257500", "135842.717500", "135843.177500", "135843.637500", "135844.097500", "135844.557500", "135845.017500", "135845.477500", "135845.937500", "135846.397500", "135846.857500", "135847.317500", "135847.777500", "135848.237500", "135848.697500", "135849.157500", "135849.617500", "135850.077500", "135850.537500", "135850.997500", "135851.457500", "135851.917500", "135852.377500", "135852.837500", "135853.297500", "135853.757500", "135854.217500", "135854.677500", "135855.137500", "135855.597500", "135856.057500", "135856.517500", "135856.977500", "135857.437500", "135857.897500", "135858.357500", "135858.817500", "135859.277500", "135859.737500", "135900.197500", "135900.657500", "135901.117500", "135901.577500", "135902.037500", "135902.497500", "135902.957500", "135903.417500", "135903.877500", "135904.337500", "135904.797500", "135905.257500", "135905.717500", "135906.177500", "135906.637500", "135907.097500", "135907.557500", "135908.017500", "135908.477500", "135908.937500", "135909.397500", "135909.857500", "135910.317500", "135910.777500", "135911.237500", "135911.697500", "135912.157500", "135912.617500", "135913.077500", "135913.537500", "135913.997500", "135914.457500", "135914.917500", "135915.377500", "135915.837500", "135916.297500", "135916.757500", "135917.217500", "135917.677500", "135918.137500", "135918.597500", "135919.057500", "135919.517500", "135919.977500", "135920.437500", "135920.897500", "135921.357500", "135921.817500", "135922.277500", "135922.737500", "135923.197500", "135923.657500", "135924.117500", "135924.577500", "135925.037500", "135925.497500", "135925.957500", "135926.417500", "135926.877500", "135927.337500", "135927.797500", "135928.257500", "135928.717500", "135929.177500", "135929.637500", "135930.097500", "135930.557500", "135931.017500", "135931.477500", "135931.937500", "135932.397500", "135932.857500", "135933.317500", "135933.777500", "135934.237500", "135934.697500", "135935.157500", "135935.617500", "135936.077500", "135936.537500", "135936.997500", "135937.457500", "135937.917500", "135938.377500", "135938.837500", "135939.297500", "135939.757500", "135940.217500", "135940.677500", "135941.137500", "135941.597500", "135942.057500", "135942.517500", "135942.977500", "135943.437500", "135943.897500", "135944.357500", "135944.817500", "135945.277500", "135945.737500", "135946.197500", "135946.657500", "135947.117500", "135947.577500", "135948.037500", "135948.497500", "135948.957500", "135949.417500", "135949.877500", "135950.337500", "135950.797500", "135951.257500", "135951.717500", "135952.177500", "135952.637500", "135953.097500", "135953.557500", "135954.017500", "135954.477500", "135954.937500", "135955.397500", "135955.857500", "135956.317500", "135956.777500", "135957.237500", "135957.697500", "135958.157500", "135958.617500", "135959.077500", "135959.537500", "135959.997500", "140000.457500", "140000.917500", "140001.377500", "140001.837500", "140002.297500", "140002.757500", "140003.217500", "140003.677500", "140004.137500", "140004.597500", "140005.057500", "140005.517500", "140005.977500", "140006.437500", "140006.897500", "140007.357500", "140007.817500", "140008.277500", "140008.737500", "140009.197500", "140009.657500", "140010.117500", "140010.577500", "140011.037500", "140011.497500", "140011.957500", "140012.417500", "140012.877500", "140013.337500", "140013.797500", "140014.257500", "140014.717500", "140015.177500", "140015.637500", "140016.097500", "140016.557500", "140017.017500", "140017.477500", "140017.937500", "140018.397500", "140018.857500", "140019.317500", "140019.777500", "140020.237500", "140020.697500", "140021.157500", "140021.617500", "140022.077500", "140022.537500", "140022.997500", "140023.457500", "140023.917500", "140024.377500", "140024.837500", "140025.297500", "140025.757500", "140026.217500", "140026.677500", "140027.137500", "140027.597500", "140028.057500", "140028.517500", "140028.977500", "140029.437500", "140029.897500", "140030.357500", "140030.817500", "140031.277500", "140031.737500", "140032.197500", "140032.657500", "140033.117500", "140033.577500", "140034.037500", "140034.497500", "140034.957500", "140035.417500", "140035.877500", "140036.337500", "140036.797500", "140037.257500", "140037.717500", "140038.177500", "140038.637500", "140039.097500", "140039.557500", "140040.017500", "140040.477500", "140040.937500", "140041.397500", "140041.857500", "140042.317500", "140042.777500", "140043.237500", "140043.697500", "140044.157500", "140044.617500", "140045.077500", "140045.537500", "140045.997500", "140046.457500", "140046.917500", "140047.377500", "140047.837500", "140048.297500", "140048.757500", "140049.217500", "140049.677500", "140050.137500", "140050.597500", "140051.057500", "140051.517500", "140051.977500", "140052.437500", "140052.897500", "140053.357500", "140053.817500", "140054.277500", "140054.737500", "140055.197500", "140055.657500", "140056.117500", "140056.577500", "140057.037500", "140057.497500", "140057.957500", "140058.417500", "140058.877500", "140059.337500", "140059.797500", "140100.257500", "140100.717500", "140101.177500", "140101.637500", "140102.097500", "140102.557500", "140103.017500", "140103.477500", "140103.937500", "140104.397500", "140104.857500", "140105.317500", "140105.777500", "140106.237500", "140106.697500", "140107.157500", "140107.617500", "140108.077500", "140108.537500", "140108.997500", "140109.457500", "140109.917500", "140110.377500", "140110.837500", "140111.297500", "140111.757500", "140112.217500", "140112.677500", "140113.137500", "140113.597500", "140114.057500", "140114.517500", "140114.977500", "140115.437500", "140115.897500", "140116.357500", "140116.817500", "140117.277500", "140117.737500", "140118.197500", "140118.657500", "140119.117500", "140119.577500", "140120.037500", "140120.497500", "140120.957500", "140121.417500", "140121.877500", "140122.337500", "140122.797500", "140123.257500", "140123.717500", "140124.177500", "140124.637500", "140125.097500", "140125.557500", "140126.017500", "140126.477500", "140126.937500", "140127.397500", "140127.857500", "140128.317500", "140128.777500", "140129.237500", "140129.697500", "140130.157500", "140130.617500", "140131.077500", "140131.537500", "140131.997500", "140132.457500", "140132.917500"],
