{
  "AcquisitionMatrixPE": 82,
  "AcquisitionNumber": 1,
  "AcquisitionTime": "14:02:8.957500",
  "BandwidthPerPixelPhaseEncode": 24.888,
  "BaseResolution": 82,
  "BodyPartExamined": "BRAIN",
  "ConsistencyInfo": "N4_VE11C_LATEST_20160120",
  "ConversionSoftware": "dcm2niix",
  "ConversionSoftwareVersion": "v1.0.20201102",
  "DerivedVendorReportedEchoSpacing": 0.00049,
  "DeviceSerialNumber": "66112",
  "DwellTime": 2e-06,
  "EchoTime": 0.0272,
  "EchoTrainLength": 82,
  "EffectiveEchoSpacing": 0.00049,
  "FlipAngle": 44,
  "ImageComments": "Unaliased MB8/PE3",
  "ImageOrientationPatientDICOM": [0.999882, 0.0129988, -0.00814337, -0.0122165, 0.995895, 0.0896927],
  "ImageType": [
    "ORIGINAL",
    "PRIMARY",
    "M",
    "MB",
    "ND",
    "NORM",
    "MOSAIC"
],
  "ImagingFrequency": 123.252,
  "InPlanePhaseEncodingDirectionDICOM": "COL",
  "InstitutionAddress": "Maynard 3,Hanover,NH,US,03755",
  "InstitutionName": "Dartmouth College - PBS",
  "InstitutionalDepartmentName": "Department",
  "MRAcquisitionType": "2D",
  "MagneticFieldStrength": 3,
  "Manufacturer": "Siemens",
  "ManufacturersModelName": "Prisma",
  "Modality": "MR",
  "MultibandAccelerationFactor": 8,
  "PartialFourier": 1,
  "PatientPosition": "HFS",
  "PercentPhaseFOV": 100,
  "PercentSampling": 100,
  "PhaseEncodingDirection": "j-",
  "PhaseEncodingSteps": 82,
  "PhaseResolution": 1,
  "PixelBandwidth": 3050,
  "ProcedureStepDescription": "Wager_Wager^1076_spacetop",
  "ProtocolName": "func_run-03_task-faces_acq-ap-mb8",
  "PulseSequenceDetails": "%CustomerSeq%\\cmrr_mbep2d_bold",
  "ReceiveCoilActiveElements": "HEA;HEP",
  "ReceiveCoilName": "Head_32",
  "ReconMatrixPE": 82,
  "RepetitionTime": 0.46,
  "SAR": 0.0959734,
  "ScanOptions": "FS",
  "ScanningSequence": "EP",
  "SequenceName": "epfid2d1_82",
  "SequenceVariant": "SK\\SS",
  "SeriesDescription": "func_run-03_task-faces_acq-ap-mb8",
  "SeriesNumber": 22,
  "ShimSetting": [4121, -7733, -7269, 430, -105, -17, 8, 121],
  "SliceThickness": 2.7,
  "SliceTiming": [0, 0.2525, 0.0625, 0.315, 0.1275, 0.3775, 0.19, 0, 0.2525, 0.0625, 0.315, 0.1275, 0.3775, 0.19, 0, 0.2525, 0.0625, 0.315, 0.1275, 0.3775, 0.19, 0, 0.2525, 0.0625, 0.315, 0.1275, 0.3775, 0.19, 0, 0.2525, 0.0625, 0.315, 0.1275, 0.3775, 0.19, 0, 0.2525, 0.0625, 0.315, 0.1275, 0.3775, 0.19, 0, 0.2525, 0.0625, 0.315, 0.1275, 0.3775, 0.19, 0, 0.2525, 0.0625, 0.315, 0.1275, 0.3775, 0.19],
  "SoftwareVersions": "syngo MR E11",
  "SpacingBetweenSlices": 2.7,
  "StationName": "AWP66112",
  "TaskName": "faces",
  "TotalReadoutTime": 0.03969,
  "TxRefAmp": 230.116,
  "WipMemBlock": "70388209-b5d0-444c-8a69-c7a8aa86630d||Sequence: R016 ve11c/master r/e634e98; Dec 19 2017 11:00:25 by eja",
  "dcmmeta_affine": [
    [-2.6826112270355225, -0.032775867730379105, -0.0250447615981102, 113.64314270019531],
    [-0.034874800592660904, 2.67191219329834, 0.24187323451042175, -98.60343933105469],
    [-0.021848075091838837, -0.24063900113105774, 2.689027786254883, -59.68867492675781],
    [0.0, 0.0, 0.0, 1.0]
],
  "dcmmeta_reorient_transform": [
    [0.0, -1.0, 0.0, 81.0],
    [1.0, 0.0, 0.0, 0.0],
    [0.0, 0.0, 1.0, 0.0],
    [0.0, 0.0, 0.0, 1.0]
],
  "dcmmeta_shape": [82, 82, 56, 914],
  "dcmmeta_slice_dim": 2,
  "dcmmeta_version": 0.6,
  "global": {
    "const": {
      "AccessionNumber": "A003834",
      "AcquisitionMatrix": [82, 0, 0, 82],
      "AngioFlag": "N",
      "BitsAllocated": 16,
      "BitsStored": 16,
      "BodyPartExamined": "BRAIN",
      "Columns": 656,
      "EchoNumbers": 1,
      "EchoTime": 27.2,
      "EchoTrainLength": 82,
      "FlipAngle": 44.0,
      "HighBit": 15,
      "ImageOrientationPatient": [0.99988235154904, 0.01299878957957, -0.0081433733937, -0.0122164598213, 0.99589456028605, 0.08969271376251],
      "ImagePositionPatient": [-871.49105315479, -894.66935256662, -141.97342794937],
      "ImageType": [
        "ORIGINAL",
        "PRIMARY",
        "M",
        "MB",
        "ND",
        "NORM",
        "MOSAIC"
],
      "ImagedNucleus": "1H",
      "ImagingFrequency": 123.252284,
      "InPlanePhaseEncodingDirection": "COL",
      "MRAcquisitionType": "2D",
      "MagneticFieldStrength": 3.0,
      "Manufacturer": "SIEMENS",
      "ManufacturerModelName": "Prisma",
      "Modality": "MR",
      "NumberOfAverages": 1.0,
      "NumberOfPhaseEncodingSteps": 82,
      "PercentPhaseFieldOfView": 100.0,
      "PercentSampling": 100.0,
      "PerformedProcedureStepStartTime": "125017.912000",
      "PhotometricInterpretation": "MONOCHROME2",
      "PixelBandwidth": 3050.0,
      "PixelRepresentation": 0,
      "PixelSpacing": [2.6829268932343, 2.6829268932343],
      "ProtocolName": "func_run-03_task-faces_acq-ap-mb8",
      "RepetitionTime": 460.0,
      "Rows": 656,
      "SAR": 0.09597340560248,
      "SamplesPerPixel": 1,
      "ScanOptions": "FS",
      "ScanningSequence": "EP",
      "SequenceName": "epfid2d1_82",
      "SequenceVariant": [
        "SK",
        "SS"
],
      "SeriesDescription": "func_run-03_task-faces_acq-ap-mb8",
      "SeriesNumber": 22,
      "SeriesTime": "140227.425000",
      "SliceLocation": -69.333408443662,
      "SliceThickness": 2.7000000476837,
      "SmallestImagePixelValue": 0,
      "SoftwareVersions": "syngo MR E11",
      "SpacingBetweenSlices": 2.6999999590992,
      "SpecificCharacterSet": "ISO_IR 100",
      "StudyID": "2",
      "StudyTime": "125017.838000",
      "TransmitCoilName": "Body",
      "VariableFlipAngleFlag": "N",
      "WindowCenterWidthExplanation": "Algo1",
      "dBdt": 0.0},
    "slices": {}
  },
  "time": {
    "samples": {
      "AcquisitionNumber": [1, 2, 3, 4, 5, 6, 7, 8, 9, 10, 11, 12, 13, 14, 15, 16, 17, 18, 19, 20, 21, 22, 23, 24, 25, 26, 27, 28, 29, 30, 31, 32, 33, 34, 35, 36, 37, 38, 39, 40, 41, 42, 43, 44, 45, 46, 47, 48, 49, 50, 51, 52, 53, 54, 55, 56, 57, 58, 59, 60, 61, 62, 63, 64, 65, 66, 67, 68, 69, 70, 71, 72, 73, 74, 75, 76, 77, 78, 79, 80, 81, 82, 83, 84, 85, 86, 87, 88, 89, 90, 91, 92, 93, 94, 95, 96, 97, 98, 99, 100, 101, 102, 103, 104, 105, 106, 107, 108, 109, 110, 111, 112, 113, 114, 115, 116, 117, 118, 119, 120, 121, 122, 123, 124, 125, 126, 127, 128, 129, 130, 131, 132, 133, 134, 135, 136, 137, 138, 139, 140, 141, 142, 143, 144, 145, 146, 147, 148, 149, 150, 151, 152, 153, 154, 155, 156, 157, 158, 159, 160, 161, 162, 163, 164, 165, 166, 167, 168, 169, 170, 171, 172, 173, 174, 175, 176, 177, 178, 179, 180, 181, 182, 183, 184, 185, 186, 187, 188, 189, 190, 191, 192, 193, 194, 195, 196, 197, 198, 199, 200, 201, 202, 203, 204, 205, 206, 207, 208, 209, 210, 211, 212, 213, 214, 215, 216, 217, 218, 219, 220, 221, 222, 223, 224, 225, 226, 227, 228, 229, 230, 231, 232, 233, 234, 235, 236, 237, 238, 239, 240, 241, 242, 243, 244, 245, 246, 247, 248, 249, 250, 251, 252, 253, 254, 255, 256, 257, 258, 259, 260, 261, 262, 263, 264, 265, 266, 267, 268, 269, 270, 271, 272, 273, 274, 275, 276, 277, 278, 279, 280, 281, 282, 283, 284, 285, 286, 287, 288, 289, 290, 291, 292, 293, 294, 295, 296, 297, 298, 299, 300, 301, 302, 303, 304, 305, 306, 307, 308, 309, 310, 311, 312, 313, 314, 315, 316, 317, 318, 319, 320, 321, 322, 323, 324, 325, 326, 327, 328, 329, 330, 331, 332, 333, 334, 335, 336, 337, 338, 339, 340, 341, 342, 343, 344, 345, 346, 347, 348, 349, 350, 351, 352, 353, 354, 355, 356, 357, 358, 359, 360, 361, 362, 363, 364, 365, 366, 367, 368, 369, 370, 371, 372, 373, 374, 375, 376, 377, 378, 379, 380, 381, 382, 383, 384, 385, 386, 387, 388, 389, 390, 391, 392, 393, 394, 395, 396, 397, 398, 399, 400, 401, 402, 403, 404, 405, 406, 407, 408, 409, 410, 411, 412, 413, 414, 415, 416, 417, 418, 419, 420, 421, 422, 423, 424, 425, 426, 427, 428, 429, 430, 431, 432, 433, 434, 435, 436, 437, 438, 439, 440, 441, 442, 443, 444, 445, 446, 447, 448, 449, 450, 451, 452, 453, 454, 455, 456, 457, 458, 459, 460, 461, 462, 463, 464, 465, 466, 467, 468, 469, 470, 471, 472, 473, 474, 475, 476, 477, 478, 479, 480, 481, 482, 483, 484, 485, 486, 487, 488, 489, 490, 491, 492, 493, 494, 495, 496, 497, 498, 499, 500, 501, 502, 503, 504, 505, 506, 507, 508, 509, 510, 511, 512, 513, 514, 515, 516, 517, 518, 519, 520, 521, 522, 523, 524, 525, 526, 527, 528, 529, 530, 531, 532, 533, 534, 535, 536, 537, 538, 539, 540, 541, 542, 543, 544, 545, 546, 547, 548, 549, 550, 551, 552, 553, 554, 555, 556, 557, 558, 559, 560, 561, 562, 563, 564, 565, 566, 567, 568, 569, 570, 571, 572, 573, 574, 575, 576, 577, 578, 579, 580, 581, 582, 583, 584, 585, 586, 587, 588, 589, 590, 591, 592, 593, 594, 595, 596, 597, 598, 599, 600, 601, 602, 603, 604, 605, 606, 607, 608, 609, 610, 611, 612, 613, 614, 615, 616, 617, 618, 619, 620, 621, 622, 623, 624, 625, 626, 627, 628, 629, 630, 631, 632, 633, 634, 635, 636, 637, 638, 639, 640, 641, 642, 643, 644, 645, 646, 647, 648, 649, 650, 651, 652, 653, 654, 655, 656, 657, 658, 659, 660, 661, 662, 663, 664, 665, 666, 667, 668, 669, 670, 671, 672, 673, 674, 675, 676, 677, 678, 679, 680, 681, 682, 683, 684, 685, 686, 687, 688, 689, 690, 691, 692, 693, 694, 695, 696, 697, 698, 699, 700, 701, 702, 703, 704, 705, 706, 707, 708, 709, 710, 711, 712, 713, 714, 715, 716, 717, 718, 719, 720, 721, 722, 723, 724, 725, 726, 727, 728, 729, 730, 731, 732, 733, 734, 735, 736, 737, 738, 739, 740, 741, 742, 743, 744, 745, 746, 747, 748, 749, 750, 751, 752, 753, 754, 755, 756, 757, 758, 759, 760, 761, 762, 763, 764, 765, 766, 767, 768, 769, 770, 771, 772, 773, 774, 775, 776, 777, 778, 779, 780, 781, 782, 783, 784, 785, 786, 787, 788, 789, 790, 791, 792, 793, 794, 795, 796, 797, 798, 799, 800, 801, 802, 803, 804, 805, 806, 807, 808, 809, 810, 811, 812, 813, 814, 815, 816, 817, 818, 819, 820, 821, 822, 823, 824, 825, 826, 827, 828, 829, 830, 831, 832, 833, 834, 835, 836, 837, 838, 839, 840, 841, 842, 843, 844, 845, 846, 847, 848, 849, 850, 851, 852, 853, 854, 855, 856, 857, 858, 859, 860, 861, 862, 863, 864, 865, 866, 867, 868, 869, 870, 871, 872, 873, 874, 875, 876, 877, 878, 879, 880, 881, 882, 883, 884, 885, 886, 887, 888, 889, 890, 891, 892, 893, 894, 895, 896, 897, 898, 899, 900, 901, 902, 903, 904, 905, 906, 907, 908, 909, 910, 911, 912, 913, 914],
      "AcquisitionTime": ["140208.957500", "140209.417500", "140209.877500", "140210.337500", "140210.797500", "140211.257500", "140211.717500", "140212.177500", "140212.637500", "140213.097500", "140213.557500", "140214.017500", "140214.477500", "140214.937500", "140215.397500", "140215.857500", "140216.317500", "140216.777500", "140217.237500", "140217.697500", "140218.157500", "140218.617500", "140219.077500", "140219.537500", "140219.997500", "140220.457500", "140220.917500", "140221.377500", "140221.837500", "140222.297500", "140222.757500", "140223.217500", "140223.677500", "140224.137500", "140224.597500", "140225.057500", "140225.517500", "140225.977500", "140226.437500", "140226.897500", "140227.357500", "140227.817500", "140228.277500", "140228.737500", "140229.197500", "140229.657500", "140230.117500", "140230.577500", "140231.037500", "140231.497500", "140231.957500", "140232.417500", "140232.877500", "140233.337500", "140233.797500", "140234.257500", "140234.717500", "140235.177500", "140235.637500", "140236.097500", "140236.557500", "140237.017500", "140237.477500", "140237.937500", "140238.397500", "140238.857500", "140239.317500", "140239.777500", "140240.237500", "140240.697500", "140241.157500", "140241.617500", "140242.077500", "140242.537500", "140242.997500", "140243.457500", "140243.917500", "140244.377500", "140244.837500", "140245.297500", "140245.757500", "140246.217500", "140246.677500", "140247.137500", "140247.597500", "140248.057500", "140248.517500", "140248.977500", "140249.437500", "140249.897500", "140250.357500", "140250.817500", "140251.277500", "140251.737500", "140252.197500", "140252.657500", "140253.117500", "140253.577500", "140254.037500", "140254.497500", "140254.957500", "140255.417500", "140255.877500", "140256.337500", "140256.797500", "140257.257500", "140257.717500", "140258.177500", "140258.637500", "140259.097500", "140259.557500", "140300.017500", "140300.477500", "140300.937500", "140301.397500", "140301.857500", "140302.317500", "140302.777500", "140303.237500", "140303.697500", "140304.157500", "140304.617500", "140305.077500", "140305.537500", "140305.997500", "140306.457500", "140306.917500", "140307.377500", "140307.837500", "140308.297500", "140308.757500", "140309.217500", "140309.677500", "140310.137500", "140310.597500", "140311.057500", "140311.517500", "140311.977500", "140312.437500", "140312.897500", "140313.357500", "140313.817500", "140314.277500", "140314.737500", "140315.197500", "140315.657500", "140316.117500", "140316.577500", "140317.037500", "140317.497500", "140317.957500", "140318.417500", "140318.877500", "140319.337500", "140319.797500", "140320.257500", "140320.717500", "140321.177500", "140321.637500", "140322.097500", "140322.557500", "140323.017500", "140323.477500", "140323.937500", "140324.397500", "140324.857500", "140325.317500", "140325.777500", "140326.237500", "140326.697500", "140327.157500", "140327.617500", "140328.077500", "140328.537500", "140328.997500", "140329.457500", "140329.917500", "140330.377500", "140330.837500", "140331.297500", "140331.757500", "140332.217500", "140332.677500", "140333.137500", "140333.597500", "140334.057500", "140334.517500", "140334.977500", "140335.437500", "140335.897500", "140336.357500", "140336.817500", "140337.277500", "140337.737500", "140338.197500", "140338.657500", "140339.117500", "140339.577500", "140340.037500", "140340.497500", "140340.957500", "140341.417500", "140341.877500", "140342.337500", "140342.797500", "140343.257500", "140343.717500", "140344.177500", "140344.637500", "140345.097500", "140345.557500", "140346.017500", "140346.477500", "140346.937500", "140347.397500", "140347.857500", "140348.317500", "140348.777500", "140349.237500", "140349.697500", "140350.157500", "140350.617500", "140351.077500", "140351.537500", "140351.997500", "140352.457500", "140352.917500", "140353.377500", "140353.837500", "140354.297500", "140354.757500", "140355.217500", "140355.677500", "140356.137500", "140356.597500", "140357.057500", "140357.517500", "140357.977500", "140358.437500", "140358.897500", "140359.357500", "140359.817500", "140400.277500", "140400.737500", "140401.197500", "140401.657500", "140402.117500", "140402.577500", "140403.037500", "140403.497500", "140403.957500", "140404.417500", "140404.877500", "140405.337500", "140405.797500", "140406.257500", "140406.717500", "140407.177500", "140407.637500", "140408.097500", "140408.557500", "140409.017500", "140409.477500", "140409.937500", "140410.397500", "140410.857500", "140411.317500", "140411.777500", "140412.237500", "140412.697500", "140413.157500", "140413.617500", "140414.077500", "140414.537500", "140414.997500", "140415.457500", "140415.917500", "140416.377500", "140416.837500", "140417.297500", "140417.757500", "140418.217500", "140418.677500", "140419.137500", "140419.597500", "140420.057500", "140420.517500", "140420.977500", "140421.437500", "140421.897500", "140422.357500", "140422.817500", "140423.277500", "140423.737500", "140424.197500", "140424.657500", "140425.117500", "140425.577500", "140426.037500", "140426.497500", "140426.957500", "140427.417500", "140427.877500", "140428.337500", "140428.797500", "140429.257500", "140429.717500", "140430.177500", "140430.637500", "140431.097500", "140431.557500", "140432.017500", "140432.477500", "140432.937500", "140433.397500", "140433.857500", "140434.317500", "140434.777500", "140435.237500", "140435.697500", "140436.157500", "140436.617500", "140437.077500", "140437.537500", "140437.997500", "140438.457500", "140438.917500", "140439.377500", "140439.837500", "140440.297500", "140440.757500", "140441.217500", "140441.677500", "140442.137500", "140442.597500", "140443.057500", "140443.517500", "140443.977500", "140444.437500", "140444.897500", "140445.357500", "140445.817500", "140446.277500", "140446.737500", "140447.197500", "140447.657500", "140448.117500", "140448.577500", "140449.037500", "140449.497500", "140449.957500", "140450.417500", "140450.877500", "140451.337500", "140451.797500", "140452.257500", "140452.717500", "140453.177500", "140453.637500", "140454.097500", "140454.557500", "140455.017500", "140455.477500", "140455.937500", "140456.397500", "140456.857500", "140457.317500", "140457.777500", "140458.237500", "140458.697500", "140459.157500", "140459.617500", "140500.077500", "140500.537500", "140500.997500", "140501.457500", "140501.917500", "140502.377500", "140502.837500", "140503.297500", "140503.757500", "140504.217500", "140504.677500", "140505.137500", "140505.597500", "140506.057500", "140506.517500", "140506.977500", "140507.437500", "140507.897500", "140508.357500", "140508.817500", "140509.277500", "140509.737500", "140510.197500", "140510.657500", "140511.117500", "140511.577500", "140512.037500", "140512.497500", "140512.957500", "140513.417500", "140513.877500", "140514.337500", "140514.797500", "140515.257500", "140515.717500", "140516.177500", "140516.637500", "140517.097500", "140517.557500", "140518.017500", "140518.477500", "140518.937500", "140519.397500", "140519.857500", "140520.317500", "140520.777500", "140521.237500", "140521.697500", "140522.157500", "140522.617500", "140523.077500", "140523.537500", "140523.997500", "140524.457500", "140524.917500", "140525.377500", "140525.837500", "140526.297500", "140526.757500", "140527.217500", "140527.677500", "140528.137500", "140528.597500", "140529.057500", "140529.517500", "140529.977500", "140530.437500", "140530.897500", "140531.357500", "140531.817500", "140532.277500", "140532.737500", "140533.197500", "140533.657500", "140534.117500", "140534.577500", "140535.037500", "140535.497500", "140535.957500", "140536.417500", "140536.877500", "140537.337500", "140537.797500", "140538.257500", "140538.717500", "140539.177500", "140539.637500", "140540.097500", "140540.557500", "140541.017500", "140541.477500", "140541.937500", "140542.397500", "140542.857500", "140543.317500", "140543.777500", "140544.237500", "140544.697500", "140545.157500", "140545.617500", "140546.077500", "140546.537500", "140546.997500", "140547.457500", "140547.917500", "140548.377500", "140548.837500", "140549.297500", "140549.757500", "140550.217500", "140550.677500", "140551.137500", "140551.597500", "140552.057500", "140552.517500", "140552.977500", "140553.437500", "140553.897500", "140554.357500", "140554.817500", "140555.277500", "140555.737500", "140556.197500", "140556.657500", "140557.117500", "140557.577500", "140558.037500", "140558.497500", "140558.957500", "140559.417500", "140559.877500", "140600.337500", "140600.797500", "140601.257500", "140601.717500", "140602.177500", "140602.637500", "140603.097500", "140603.557500", "140604.017500", "140604.477500", "140604.937500", "140605.397500", "140605.857500", "140606.317500", "140606.777500", "140607.237500", "140607.697500", "140608.157500", "140608.617500", "140609.077500", "140609.537500", "140609.997500", "140610.457500", "140610.917500", "140611.377500", "140611.837500", "140612.297500", "140612.757500", "140613.217500", "140613.677500", "140614.137500", "140614.597500", "140615.057500", "140615.517500", "140615.977500", "140616.437500", "140616.897500", "140617.357500", "140617.817500", "140618.277500", "140618.737500", "140619.197500", "140619.657500", "140620.117500", "140620.577500", "140621.037500", "140621.497500", "140621.957500", "140622.417500", "140622.877500", "140623.337500", "140623.797500", "140624.257500", "140624.717500", "140625.177500", "140625.637500", "140626.097500", "140626.557500", "140627.017500", "140627.477500", "140627.937500", "140628.397500", "140628.857500", "140629.317500", "140629.777500", "140630.237500", "140630.697500", "140631.157500", "140631.617500", "140632.077500", "140632.537500", "140632.997500", "140633.457500", "140633.917500", "140634.377500", "140634.837500", "140635.297500", "140635.757500", "140636.217500", "140636.677500", "140637.137500", "140637.597500", "140638.057500", "140638.517500", "140638.977500", "140639.437500", "140639.897500", "140640.357500", "140640.817500", "140641.277500", "140641.737500", "140642.197500", "140642.657500", "140643.117500", "140643.577500", "140644.037500", "140644.497500", "140644.957500", "140645.417500", "140645.877500", "140646.337500", "140646.797500", "140647.257500", "140647.717500", "140648.177500", "140648.637500", "140649.097500", "140649.557500", "140650.017500", "140650.477500", "140650.937500", "140651.397500", "140651.857500", "140652.317500", "140652.777500", "140653.237500", "140653.697500", "140654.157500", "140654.617500", "140655.077500", "140655.537500", "140655.997500", "140656.457500", "140656.917500", "140657.377500", "140657.837500", "140658.297500", "140658.757500", "140659.217500", "140659.677500", "140700.137500", "140700.597500", "140701.057500", "140701.517500", "140701.977500", "140702.437500", "140702.897500", "140703.357500", "140703.817500", "140704.277500", "140704.737500", "140705.197500", "140705.657500", "140706.117500", "140706.577500", "140707.037500", "140707.497500", "140707.957500", "140708.417500", "140708.877500", "140709.337500", "140709.797500", "140710.257500", "140710.717500", "140711.177500", "140711.637500", "140712.097500", "140712.557500", "140713.017500", "140713.477500", "140713.937500", "140714.397500", "140714.857500", "140715.317500", "140715.777500", "140716.237500", "140716.697500", "140717.157500", "140717.617500", "140718.077500", "140718.537500", "140718.997500", "140719.457500", "140719.917500", "140720.377500", "140720.837500", "140721.297500", "140721.757500", "140722.217500", "140722.677500", "140723.137500", "140723.597500", "140724.057500", "140724.517500", "140724.977500", "140725.437500", "140725.897500", "140726.357500", "140726.817500", "140727.277500", "140727.737500", "140728.197500", "140728.657500", "140729.117500", "140729.577500", "140730.037500", "140730.497500", "140730.957500", "140731.417500", "140731.877500", "140732.337500", "140732.797500", "140733.257500", "140733.717500", "140734.177500", "140734.637500", "140735.097500", "140735.557500", "140736.017500", "140736.477500", "140736.937500", "140737.397500", "140737.857500", "140738.317500", "140738.777500", "140739.237500", "140739.697500", "140740.157500", "140740.617500", "140741.077500", "140741.537500", "140741.997500", "140742.457500", "140742.917500", "140743.377500", "140743.837500", "140744.297500", "140744.757500", "140745.217500", "140745.677500", "140746.137500", "140746.597500", "140747.057500", "140747.517500", "140747.977500", "140748.437500", "140748.897500", "140749.357500", "140749.817500", "140750.277500", "140750.737500", "140751.197500", "140751.657500", "140752.117500", "140752.577500", "140753.037500", "140753.497500", "140753.957500", "140754.417500", "140754.877500", "140755.337500", "140755.797500", "140756.257500", "140756.717500", "140757.177500", "140757.637500", "140758.097500", "140758.557500", "140759.017500", "140759.477500", "140759.937500", "140800.397500", "140800.857500", "140801.317500", "140801.777500", "140802.237500", "140802.697500", "140803.157500", "140803.617500", "140804.077500", "140804.537500", "140804.997500", "140805.457500", "140805.917500", "140806.377500", "140806.837500", "140807.297500", "140807.757500", "140808.217500", "140808.677500", "140809.137500", "140809.597500", "140810.057500", "140810.517500", "140810.977500", "140811.437500", "140811.897500", "140812.357500", "140812.817500", "140813.277500", "140813.737500", "140814.197500", "140814.657500", "140815.117500", "140815.577500", "140816.037500", "140816.497500", "140816.957500", "140817.417500", "140817.877500", "140818.337500", "140818.797500", "140819.257500", "140819.717500", "140820.177500", "140820.637500", "140821.097500", "140821.557500", "140822.017500", "140822.477500", "140822.937500", "140823.397500", "140823.857500", "140824.317500", "140824.777500", "140825.237500", "140825.697500", "140826.157500", "140826.617500", "140827.077500", "140827.537500", "140827.997500", "140828.457500", "140828.917500", "140829.377500", "140829.837500", "140830.297500", "140830.757500", "140831.217500", "140831.677500", "140832.137500", "140832.597500", "140833.057500", "140833.517500", "140833.977500", "140834.437500", "140834.897500", "140835.357500", "140835.817500", "140836.277500", "140836.737500", "140837.197500", "140837.657500", "140838.117500", "140838.577500", "140839.037500", "140839.497500", "140839.957500", "140840.417500", "140840.877500", "140841.337500", "140841.797500", "140842.257500", "140842.717500", "140843.177500", "140843.637500", "140844.097500", "140844.557500", "140845.017500", "140845.477500", "140845.937500", "140846.397500", "140846.857500", "140847.317500", "140847.777500", "140848.237500", "140848.697500", "140849.157500", "140849.617500", "140850.077500", "140850.537500", "140850.997500", "140851.457500", "140851.917500", "140852.377500", "140852.837500", "140853.297500", "140853.757500", "140854.217500", "140854.677500", "140855.137500", "140855.597500", "140856.057500", "140856.517500", "140856.977500", "140857.437500", "140857.897500", "140858.357500", "140858.817500", "140859.277500", "140859.737500", "140900.197500", "140900.657500", "140901.117500", "140901.577500", "140902.037500", "140902.497500", "140902.957500", "140903.417500", "140903.877500", "140904.337500", "140904.797500", "140905.257500", "140905.717500", "140906.177500", "140906.637500", "140907.097500", "140907.557500", "140908.017500", "140908.477500", "140908.937500"],
