{
  "AcquisitionMatrixPE": 82,
  "AcquisitionNumber": 1,
  "AcquisitionTime": "14:12:3.625000",
  "BandwidthPerPixelPhaseEncode": 24.888,
  "BaseResolution": 82,
  "BodyPartExamined": "BRAIN",
  "ConsistencyInfo": "N4_VE11C_LATEST_20160120",
  "ConversionSoftware": "dcm2niix",
  "ConversionSoftwareVersion": "v1.0.20201102",
  "DerivedVendorReportedEchoSpacing": 0.00049,
  "DeviceSerialNumber": "66112",
  "DwellTime": 2e-06,
  "EchoTime": 0.0272,
  "EchoTrainLength": 82,
  "EffectiveEchoSpacing": 0.00049,
  "FlipAngle": 44,
  "ImageComments": "Unaliased MB8/PE3",
  "ImageOrientationPatientDICOM": [0.999891, 0.00041791, -0.0147312, 0.000523557, 0.997959, 0.063848],
  "ImageType": [
    "ORIGINAL",
    "PRIMARY",
    "M",
    "MB",
    "ND",
    "NORM",
    "MOSAIC"
],
  "ImagingFrequency": 123.252,
  "InPlanePhaseEncodingDirectionDICOM": "COL",
  "InstitutionAddress": "Maynard 3,Hanover,NH,US,03755",
  "InstitutionName": "Dartmouth College - PBS",
  "InstitutionalDepartmentName": "Department",
  "MRAcquisitionType": "2D",
  "MagneticFieldStrength": 3,
  "Manufacturer": "Siemens",
  "ManufacturersModelName": "Prisma",
  "Modality": "MR",
  "MultibandAccelerationFactor": 8,
  "PartialFourier": 1,
  "PatientPosition": "HFS",
  "PercentPhaseFOV": 100,
  "PercentSampling": 100,
  "PhaseEncodingDirection": "j-",
  "PhaseEncodingSteps": 82,
  "PhaseResolution": 1,
  "PixelBandwidth": 3050,
  "ProcedureStepDescription": "Wager_Wager^1076_spacetop",
  "ProtocolName": "func_run-01_task-alignvideo_acq-ap-mb8",
  "PulseSequenceDetails": "%CustomerSeq%\\cmrr_mbep2d_bold",
  "ReceiveCoilActiveElements": "HEA;HEP",
  "ReceiveCoilName": "Head_32",
  "ReconMatrixPE": 82,
  "RepetitionTime": 0.46,
  "SAR": 0.0959226,
  "ScanOptions": "FS",
  "ScanningSequence": "EP",
  "SequenceName": "epfid2d1_82",
  "SequenceVariant": "SK\\SS",
  "SeriesDescription": "func_run-01_task-alignvideo_acq-ap-mb8",
  "SeriesNumber": 30,
  "ShimSetting": [4121, -7735, -7266, 433, -109, -39, 9, 120],
  "SliceThickness": 2.7,
  "SliceTiming": [0, 0.2525, 0.065, 0.315, 0.1275, 0.3775, 0.19, 0, 0.2525, 0.065, 0.315, 0.1275, 0.3775, 0.19, 0, 0.2525, 0.065, 0.315, 0.1275, 0.3775, 0.19, 0, 0.2525, 0.065, 0.315, 0.1275, 0.3775, 0.19, 0, 0.2525, 0.065, 0.315, 0.1275, 0.3775, 0.19, 0, 0.2525, 0.065, 0.315, 0.1275, 0.3775, 0.19, 0, 0.2525, 0.065, 0.315, 0.1275, 0.3775, 0.19, 0, 0.2525, 0.065, 0.315, 0.1275, 0.3775, 0.19],
  "SoftwareVersions": "syngo MR E11",
  "SpacingBetweenSlices": 2.7,
  "StationName": "AWP66112",
  "TaskName": "alignvideo",
  "TotalReadoutTime": 0.03969,
  "TxRefAmp": 230.116,
  "WipMemBlock": "d7ef2f18-2cd9-49e1-a299-4636e5de2b0f||Sequence: R016 ve11c/master r/e634e98; Dec 19 2017 11:00:25 by eja",
  "dcmmeta_affine": [
    [-2.682635545730591, 0.0014046651776880026, -0.03976510092616081, 113.01078033447266],
    [-0.0011212207609787583, 2.677452325820923, 0.17239168286323547, -100.03107452392578],
    [-0.03952270746231079, -0.1712995022535324, 2.694197416305542, -66.20437622070312],
    [0.0, 0.0, 0.0, 1.0]
],
  "dcmmeta_reorient_transform": [
    [0.0, -1.0, 0.0, 81.0],
    [1.0, 0.0, 0.0, 0.0],
    [0.0, 0.0, 1.0, 0.0],
    [0.0, 0.0, 0.0, 1.0]
],
  "dcmmeta_shape": [82, 82, 56, 839],
  "dcmmeta_slice_dim": 2,
  "dcmmeta_version": 0.6,
  "global": {
    "const": {
      "AccessionNumber": "A003834",
      "AcquisitionMatrix": [82, 0, 0, 82],
      "AngioFlag": "N",
      "BitsAllocated": 16,
      "BitsStored": 16,
      "BodyPartExamined": "BRAIN",
      "Columns": 656,
      "EchoNumbers": 1,
      "EchoTime": 27.2,
      "EchoTrainLength": 82,
      "FlipAngle": 44.0,
      "HighBit": 15,
      "ImageOrientationPatient": [0.99989140278717, 0.00041790953988, -0.0147311908524, 0.00052355702981, 0.99795949802697, 0.06384799280946],
      "ImagePositionPatient": [-883.44409764821, -885.59318767462, -117.89957508283],
      "ImageType": [
        "ORIGINAL",
        "PRIMARY",
        "M",
        "MB",
        "ND",
        "NORM",
        "MOSAIC"
],
      "ImagedNucleus": "1H",
      "ImagingFrequency": 123.252279,
      "InPlanePhaseEncodingDirection": "COL",
      "MRAcquisitionType": "2D",
      "MagneticFieldStrength": 3.0,
      "Manufacturer": "SIEMENS",
      "ManufacturerModelName": "Prisma",
      "Modality": "MR",
      "NumberOfAverages": 1.0,
      "NumberOfPhaseEncodingSteps": 82,
      "PercentPhaseFieldOfView": 100.0,
      "PercentSampling": 100.0,
      "PerformedProcedureStepStartTime": "125017.912000",
      "PhotometricInterpretation": "MONOCHROME2",
      "PixelBandwidth": 3050.0,
      "PixelRepresentation": 0,
      "PixelSpacing": [2.6829268932343, 2.6829268932343],
      "ProtocolName": "func_run-01_task-alignvideo_acq-ap-mb8",
      "RepetitionTime": 460.0,
      "Rows": 656,
      "SAR": 0.09592261562361,
      "SamplesPerPixel": 1,
      "ScanOptions": "FS",
      "ScanningSequence": "EP",
      "SequenceName": "epfid2d1_82",
      "SequenceVariant": [
        "SK",
        "SS"
],
      "SeriesDescription": "func_run-01_task-alignvideo_acq-ap-mb8",
      "SeriesNumber": 30,
      "SeriesTime": "141227.493000",
      "SliceLocation": -74.113361063454,
      "SliceThickness": 2.7000000476837,
      "SmallestImagePixelValue": 0,
      "SoftwareVersions": "syngo MR E11",
      "SpacingBetweenSlices": 2.7000000582144,
      "SpecificCharacterSet": "ISO_IR 100",
      "StudyID": "2",
      "StudyTime": "125017.838000",
      "TransmitCoilName": "Body",
      "VariableFlipAngleFlag": "N",
      "WindowCenterWidthExplanation": "Algo1",
      "dBdt": 0.0},
    "slices": {}
  },
  "time": {
    "samples": {
      "AcquisitionNumber": [1, 2, 3, 4, 5, 6, 7, 8, 9, 10, 11, 12, 13, 14, 15, 16, 17, 18, 19, 20, 21, 22, 23, 24, 25, 26, 27, 28, 29, 30, 31, 32, 33, 34, 35, 36, 37, 38, 39, 40, 41, 42, 43, 44, 45, 46, 47, 48, 49, 50, 51, 52, 53, 54, 55, 56, 57, 58, 59, 60, 61, 62, 63, 64, 65, 66, 67, 68, 69, 70, 71, 72, 73, 74, 75, 76, 77, 78, 79, 80, 81, 82, 83, 84, 85, 86, 87, 88, 89, 90, 91, 92, 93, 94, 95, 96, 97, 98, 99, 100, 101, 102, 103, 104, 105, 106, 107, 108, 109, 110, 111, 112, 113, 114, 115, 116, 117, 118, 119, 120, 121, 122, 123, 124, 125, 126, 127, 128, 129, 130, 131, 132, 133, 134, 135, 136, 137, 138, 139, 140, 141, 142, 143, 144, 145, 146, 147, 148, 149, 150, 151, 152, 153, 154, 155, 156, 157, 158, 159, 160, 161, 162, 163, 164, 165, 166, 167, 168, 169, 170, 171, 172, 173, 174, 175, 176, 177, 178, 179, 180, 181, 182, 183, 184, 185, 186, 187, 188, 189, 190, 191, 192, 193, 194, 195, 196, 197, 198, 199, 200, 201, 202, 203, 204, 205, 206, 207, 208, 209, 210, 211, 212, 213, 214, 215, 216, 217, 218, 219, 220, 221, 222, 223, 224, 225, 226, 227, 228, 229, 230, 231, 232, 233, 234, 235, 236, 237, 238, 239, 240, 241, 242, 243, 244, 245, 246, 247, 248, 249, 250, 251, 252, 253, 254, 255, 256, 257, 258, 259, 260, 261, 262, 263, 264, 265, 266, 267, 268, 269, 270, 271, 272, 273, 274, 275, 276, 277, 278, 279, 280, 281, 282, 283, 284, 285, 286, 287, 288, 289, 290, 291, 292, 293, 294, 295, 296, 297, 298, 299, 300, 301, 302, 303, 304, 305, 306, 307, 308, 309, 310, 311, 312, 313, 314, 315, 316, 317, 318, 319, 320, 321, 322, 323, 324, 325, 326, 327, 328, 329, 330, 331, 332, 333, 334, 335, 336, 337, 338, 339, 340, 341, 342, 343, 344, 345, 346, 347, 348, 349, 350, 351, 352, 353, 354, 355, 356, 357, 358, 359, 360, 361, 362, 363, 364, 365, 366, 367, 368, 369, 370, 371, 372, 373, 374, 375, 376, 377, 378, 379, 380, 381, 382, 383, 384, 385, 386, 387, 388, 389, 390, 391, 392, 393, 394, 395, 396, 397, 398, 399, 400, 401, 402, 403, 404, 405, 406, 407, 408, 409, 410, 411, 412, 413, 414, 415, 416, 417, 418, 419, 420, 421, 422, 423, 424, 425, 426, 427, 428, 429, 430, 431, 432, 433, 434, 435, 436, 437, 438, 439, 440, 441, 442, 443, 444, 445, 446, 447, 448, 449, 450, 451, 452, 453, 454, 455, 456, 457, 458, 459, 460, 461, 462, 463, 464, 465, 466, 467, 468, 469, 470, 471, 472, 473, 474, 475, 476, 477, 478, 479, 480, 481, 482, 483, 484, 485, 486, 487, 488, 489, 490, 491, 492, 493, 494, 495, 496, 497, 498, 499, 500, 501, 502, 503, 504, 505, 506, 507, 508, 509, 510, 511, 512, 513, 514, 515, 516, 517, 518, 519, 520, 521, 522, 523, 524, 525, 526, 527, 528, 529, 530, 531, 532, 533, 534, 535, 536, 537, 538, 539, 540, 541, 542, 543, 544, 545, 546, 547, 548, 549, 550, 551, 552, 553, 554, 555, 556, 557, 558, 559, 560, 561, 562, 563, 564, 565, 566, 567, 568, 569, 570, 571, 572, 573, 574, 575, 576, 577, 578, 579, 580, 581, 582, 583, 584, 585, 586, 587, 588, 589, 590, 591, 592, 593, 594, 595, 596, 597, 598, 599, 600, 601, 602, 603, 604, 605, 606, 607, 608, 609, 610, 611, 612, 613, 614, 615, 616, 617, 618, 619, 620, 621, 622, 623, 624, 625, 626, 627, 628, 629, 630, 631, 632, 633, 634, 635, 636, 637, 638, 639, 640, 641, 642, 643, 644, 645, 646, 647, 648, 649, 650, 651, 652, 653, 654, 655, 656, 657, 658, 659, 660, 661, 662, 663, 664, 665, 666, 667, 668, 669, 670, 671, 672, 673, 674, 675, 676, 677, 678, 679, 680, 681, 682, 683, 684, 685, 686, 687, 688, 689, 690, 691, 692, 693, 694, 695, 696, 697, 698, 699, 700, 701, 702, 703, 704, 705, 706, 707, 708, 709, 710, 711, 712, 713, 714, 715, 716, 717, 718, 719, 720, 721, 722, 723, 724, 725, 726, 727, 728, 729, 730, 731, 732, 733, 734, 735, 736, 737, 738, 739, 740, 741, 742, 743, 744, 745, 746, 747, 748, 749, 750, 751, 752, 753, 754, 755, 756, 757, 758, 759, 760, 761, 762, 763, 764, 765, 766, 767, 768, 769, 770, 771, 772, 773, 774, 775, 776, 777, 778, 779, 780, 781, 782, 783, 784, 785, 786, 787, 788, 789, 790, 791, 792, 793, 794, 795, 796, 797, 798, 799, 800, 801, 802, 803, 804, 805, 806, 807, 808, 809, 810, 811, 812, 813, 814, 815, 816, 817, 818, 819, 820, 821, 822, 823, 824, 825, 826, 827, 828, 829, 830, 831, 832, 833, 834, 835, 836, 837, 838, 839],
      "AcquisitionTime": ["141203.625000", "141204.085000", "141204.545000", "141205.005000", "141205.465000", "141205.925000", "141206.385000", "141206.845000", "141207.305000", "141207.765000", "141208.225000", "141208.685000", "141209.145000", "141209.605000", "141210.065000", "141210.525000", "141210.985000", "141211.445000", "141211.905000", "141212.365000", "141212.825000", "141213.285000", "141213.745000", "141214.205000", "141214.665000", "141215.125000", "141215.585000", "141216.045000", "141216.505000", "141216.965000", "141217.425000", "141217.885000", "141218.345000", "141218.805000", "141219.265000", "141219.725000", "141220.185000", "141220.645000", "141221.105000", "141221.565000", "141222.025000", "141222.485000", "141222.945000", "141223.405000", "141223.865000", "141224.325000", "141224.785000", "141225.245000", "141225.705000", "141226.165000", "141226.625000", "141227.085000", "141227.545000", "141228.005000", "141228.465000", "141228.925000", "141229.385000", "141229.845000", "141230.305000", "141230.765000", "141231.225000", "141231.685000", "141232.145000", "141232.605000", "141233.065000", "141233.525000", "141233.985000", "141234.445000", "141234.905000", "141235.365000", "141235.825000", "141236.285000", "141236.745000", "141237.205000", "141237.665000", "141238.125000", "141238.585000", "141239.045000", "141239.505000", "141239.965000", "141240.425000", "141240.885000", "141241.345000", "141241.805000", "141242.265000", "141242.725000", "141243.185000", "141243.645000", "141244.105000", "141244.565000", "141245.025000", "141245.485000", "141245.945000", "141246.405000", "141246.865000", "141247.325000", "141247.785000", "141248.245000", "141248.705000", "141249.165000", "141249.625000", "141250.085000", "141250.545000", "141251.005000", "141251.465000", "141251.925000", "141252.385000", "141252.845000", "141253.305000", "141253.765000", "141254.225000", "141254.685000", "141255.145000", "141255.605000", "141256.065000", "141256.525000", "141256.985000", "141257.445000", "141257.905000", "141258.365000", "141258.825000", "141259.285000", "141259.745000", "141300.205000", "141300.665000", "141301.125000", "141301.585000", "141302.045000", "141302.505000", "141302.965000", "141303.425000", "141303.885000", "141304.345000", "141304.805000", "141305.265000", "141305.725000", "141306.185000", "141306.645000", "141307.105000", "141307.565000", "141308.025000", "141308.485000", "141308.945000", "141309.405000", "141309.865000", "141310.325000", "141310.785000", "141311.245000", "141311.705000", "141312.165000", "141312.625000", "141313.085000", "141313.545000", "141314.005000", "141314.465000", "141314.925000", "141315.385000", "141315.845000", "141316.305000", "141316.765000", "141317.225000", "141317.685000", "141318.145000", "141318.605000", "141319.065000", "141319.525000", "141319.985000", "141320.445000", "141320.905000", "141321.365000", "141321.825000", "141322.285000", "141322.745000", "141323.205000", "141323.665000", "141324.125000", "141324.585000", "141325.045000", "141325.505000", "141325.965000", "141326.425000", "141326.885000", "141327.345000", "141327.805000", "141328.265000", "141328.725000", "141329.185000", "141329.645000", "141330.105000", "141330.565000", "141331.025000", "141331.485000", "141331.945000", "141332.405000", "141332.865000", "141333.325000", "141333.785000", "141334.245000", "141334.705000", "141335.165000", "141335.625000", "141336.085000", "141336.545000", "141337.005000", "141337.465000", "141337.925000", "141338.385000", "141338.845000", "141339.305000", "141339.765000", "141340.225000", "141340.685000", "141341.145000", "141341.605000", "141342.065000", "141342.525000", "141342.985000", "141343.445000", "141343.905000", "141344.365000", "141344.825000", "141345.285000", "141345.745000", "141346.205000", "141346.665000", "141347.125000", "141347.585000", "141348.045000", "141348.505000", "141348.965000", "141349.425000", "141349.885000", "141350.345000", "141350.805000", "141351.265000", "141351.725000", "141352.185000", "141352.645000", "141353.105000", "141353.565000", "141354.025000", "141354.485000", "141354.945000", "141355.405000", "141355.865000", "141356.325000", "141356.785000", "141357.245000", "141357.705000", "141358.165000", "141358.625000", "141359.085000", "141359.545000", "141400.005000", "141400.465000", "141400.925000", "141401.385000", "141401.845000", "141402.305000", "141402.765000", "141403.225000", "141403.685000", "141404.145000", "141404.605000", "141405.065000", "141405.525000", "141405.985000", "141406.445000", "141406.905000", "141407.365000", "141407.825000", "141408.285000", "141408.745000", "141409.205000", "141409.665000", "141410.125000", "141410.585000", "141411.045000", "141411.505000", "141411.965000", "141412.425000", "141412.885000", "141413.345000", "141413.805000", "141414.265000", "141414.725000", "141415.185000", "141415.645000", "141416.105000", "141416.565000", "141417.025000", "141417.485000", "141417.945000", "141418.405000", "141418.865000", "141419.325000", "141419.785000", "141420.245000", "141420.705000", "141421.165000", "141421.625000", "141422.085000", "141422.545000", "141423.005000", "141423.465000", "141423.925000", "141424.385000", "141424.845000", "141425.305000", "141425.765000", "141426.225000", "141426.685000", "141427.145000", "141427.605000", "141428.065000", "141428.525000", "141428.985000", "141429.445000", "141429.905000", "141430.365000", "141430.825000", "141431.285000", "141431.745000", "141432.205000", "141432.665000", "141433.125000", "141433.585000", "141434.045000", "141434.505000", "141434.965000", "141435.425000", "141435.885000", "141436.345000", "141436.805000", "141437.265000", "141437.725000", "141438.185000", "141438.645000", "141439.105000", "141439.565000", "141440.025000", "141440.485000", "141440.945000", "141441.405000", "141441.865000", "141442.325000", "141442.785000", "141443.245000", "141443.705000", "141444.165000", "141444.625000", "141445.085000", "141445.545000", "141446.005000", "141446.465000", "141446.925000", "141447.385000", "141447.845000", "141448.305000", "141448.765000", "141449.225000", "141449.685000", "141450.145000", "141450.605000", "141451.065000", "141451.525000", "141451.985000", "141452.445000", "141452.905000", "141453.365000", "141453.825000", "141454.285000", "141454.745000", "141455.205000", "141455.665000", "141456.125000", "141456.585000", "141457.045000", "141457.505000", "141457.965000", "141458.425000", "141458.885000", "141459.345000", "141459.805000", "141500.265000", "141500.725000", "141501.185000", "141501.645000", "141502.105000", "141502.565000", "141503.025000", "141503.485000", "141503.945000", "141504.405000", "141504.865000", "141505.325000", "141505.785000", "141506.245000", "141506.705000", "141507.165000", "141507.625000", "141508.085000", "141508.545000", "141509.005000", "141509.465000", "141509.925000", "141510.385000", "141510.845000", "141511.305000", "141511.765000", "141512.225000", "141512.685000", "141513.145000", "141513.605000", "141514.065000", "141514.525000", "141514.985000", "141515.445000", "141515.905000", "141516.365000", "141516.825000", "141517.285000", "141517.745000", "141518.205000", "141518.665000", "141519.125000", "141519.585000", "141520.045000", "141520.505000", "141520.965000", "141521.425000", "141521.885000", "141522.345000", "141522.805000", "141523.265000", "141523.725000", "141524.185000", "141524.645000", "141525.105000", "141525.565000", "141526.025000", "141526.485000", "141526.945000", "141527.405000", "141527.865000", "141528.325000", "141528.785000", "141529.245000", "141529.705000", "141530.165000", "141530.625000", "141531.085000", "141531.545000", "141532.005000", "141532.465000", "141532.925000", "141533.385000", "141533.845000", "141534.305000", "141534.765000", "141535.225000", "141535.685000", "141536.145000", "141536.605000", "141537.065000", "141537.525000", "141537.985000", "141538.445000", "141538.905000", "141539.365000", "141539.825000", "141540.285000", "141540.745000", "141541.205000", "141541.665000", "141542.125000", "141542.585000", "141543.045000", "141543.505000", "141543.965000", "141544.425000", "141544.885000", "141545.345000", "141545.805000", "141546.265000", "141546.725000", "141547.185000", "141547.645000", "141548.105000", "141548.565000", "141549.025000", "141549.485000", "141549.945000", "141550.405000", "141550.865000", "141551.325000", "141551.785000", "141552.245000", "141552.705000", "141553.165000", "141553.625000", "141554.085000", "141554.545000", "141555.005000", "141555.465000", "141555.925000", "141556.385000", "141556.845000", "141557.305000", "141557.765000", "141558.225000", "141558.685000", "141559.145000", "141559.605000", "141600.065000", "141600.525000", "141600.985000", "141601.445000", "141601.905000", "141602.365000", "141602.825000", "141603.285000", "141603.745000", "141604.205000", "141604.665000", "141605.125000", "141605.585000", "141606.045000", "141606.505000", "141606.965000", "141607.425000", "141607.885000", "141608.345000", "141608.805000", "141609.265000", "141609.725000", "141610.185000", "141610.645000", "141611.105000", "141611.565000", "141612.025000", "141612.485000", "141612.945000", "141613.405000", "141613.865000", "141614.325000", "141614.785000", "141615.245000", "141615.705000", "141616.165000", "141616.625000", "141617.085000", "141617.545000", "141618.005000", "141618.465000", "141618.925000", "141619.385000", "141619.845000", "141620.305000", "141620.765000", "141621.225000", "141621.685000", "141622.145000", "141622.605000", "141623.065000", "141623.525000", "141623.985000", "141624.445000", "141624.905000", "141625.365000", "141625.825000", "141626.285000", "141626.745000", "141627.205000", "141627.665000", "141628.125000", "141628.585000", "141629.045000", "141629.505000", "141629.965000", "141630.425000", "141630.885000", "141631.345000", "141631.805000", "141632.265000", "141632.725000", "141633.185000", "141633.645000", "141634.105000", "141634.565000", "141635.025000", "141635.485000", "141635.945000", "141636.405000", "141636.865000", "141637.325000", "141637.785000", "141638.245000", "141638.705000", "141639.165000", "141639.625000", "141640.085000", "141640.545000", "141641.005000", "141641.465000", "141641.925000", "141642.385000", "141642.845000", "141643.305000", "141643.765000", "141644.225000", "141644.685000", "141645.145000", "141645.605000", "141646.065000", "141646.525000", "141646.985000", "141647.445000", "141647.905000", "141648.365000", "141648.825000", "141649.285000", "141649.745000", "141650.205000", "141650.665000", "141651.125000", "141651.585000", "141652.045000", "141652.505000", "141652.965000", "141653.425000", "141653.885000", "141654.345000", "141654.805000", "141655.265000", "141655.725000", "141656.185000", "141656.645000", "141657.105000", "141657.565000", "141658.025000", "141658.485000", "141658.945000", "141659.405000", "141659.865000", "141700.325000", "141700.785000", "141701.245000", "141701.705000", "141702.165000", "141702.625000", "141703.085000", "141703.545000", "141704.005000", "141704.465000", "141704.925000", "141705.385000", "141705.845000", "141706.305000", "141706.765000", "141707.225000", "141707.685000", "141708.145000", "141708.605000", "141709.065000", "141709.525000", "141709.985000", "141710.445000", "141710.905000", "141711.365000", "141711.825000", "141712.285000", "141712.745000", "141713.205000", "141713.665000", "141714.125000", "141714.585000", "141715.045000", "141715.505000", "141715.965000", "141716.425000", "141716.885000", "141717.345000", "141717.805000", "141718.265000", "141718.725000", "141719.185000", "141719.645000", "141720.105000", "141720.565000", "141721.025000", "141721.485000", "141721.945000", "141722.405000", "141722.865000", "141723.325000", "141723.785000", "141724.245000", "141724.705000", "141725.165000", "141725.625000", "141726.085000", "141726.545000", "141727.005000", "141727.465000", "141727.925000", "141728.385000", "141728.845000", "141729.305000", "141729.765000", "141730.225000", "141730.685000", "141731.145000", "141731.605000", "141732.065000", "141732.525000", "141732.985000", "141733.445000", "141733.905000", "141734.365000", "141734.825000", "141735.285000", "141735.745000", "141736.205000", "141736.665000", "141737.125000", "141737.585000", "141738.045000", "141738.505000", "141738.965000", "141739.425000", "141739.885000", "141740.345000", "141740.805000", "141741.265000", "141741.725000", "141742.185000", "141742.645000", "141743.105000", "141743.565000", "141744.025000", "141744.485000", "141744.945000", "141745.405000", "141745.865000", "141746.325000", "141746.785000", "141747.245000", "141747.705000", "141748.165000", "141748.625000", "141749.085000", "141749.545000", "141750.005000", "141750.465000", "141750.925000", "141751.385000", "141751.845000", "141752.305000", "141752.765000", "141753.225000", "141753.685000", "141754.145000", "141754.605000", "141755.065000", "141755.525000", "141755.985000", "141756.445000", "141756.905000", "141757.365000", "141757.825000", "141758.285000", "141758.745000", "141759.205000", "141759.665000", "141800.125000", "141800.585000", "141801.045000", "141801.505000", "141801.965000", "141802.425000", "141802.885000", "141803.345000", "141803.805000", "141804.265000", "141804.725000", "141805.185000", "141805.645000", "141806.105000", "141806.565000", "141807.025000", "141807.485000", "141807.945000", "141808.405000", "141808.865000", "141809.325000", "141809.785000", "141810.245000", "141810.705000", "141811.165000", "141811.625000", "141812.085000", "141812.545000", "141813.005000", "141813.465000", "141813.925000", "141814.385000", "141814.845000", "141815.305000", "141815.765000", "141816.225000", "141816.685000", "141817.145000", "141817.605000", "141818.065000", "141818.525000", "141818.985000", "141819.445000", "141819.905000", "141820.365000", "141820.825000", "141821.285000", "141821.745000", "141822.205000", "141822.665000", "141823.125000", "141823.585000", "141824.045000", "141824.505000", "141824.965000", "141825.425000", "141825.885000", "141826.345000", "141826.805000", "141827.265000", "141827.725000", "141828.185000", "141828.645000", "141829.105000"],
