{
  "AcquisitionMatrixPE": 82,
  "AcquisitionNumber": 1,
  "AcquisitionTime": "13:03:7.020000",
  "BandwidthPerPixelPhaseEncode": 24.888,
  "BaseResolution": 82,
  "BodyPartExamined": "BRAIN",
  "ConsistencyInfo": "N4_VE11C_LATEST_20160120",
  "ConversionSoftware": "dcm2niix",
  "ConversionSoftwareVersion": "v1.0.20201102",
  "DerivedVendorReportedEchoSpacing": 0.00049,
  "DeviceSerialNumber": "66112",
  "DwellTime": 2e-06,
  "EchoTime": 0.0272,
  "EchoTrainLength": 82,
  "EffectiveEchoSpacing": 0.00049,
  "FlipAngle": 44,
  "ImageComments": "Unaliased MB8/PE3",
  "ImageOrientationPatientDICOM": [0.999882, 0.0129988, -0.00814337, -0.0122165, 0.995895, 0.0896927],
  "ImageType": [
    "ORIGINAL",
    "PRIMARY",
    "M",
    "MB",
    "ND",
    "NORM",
    "MOSAIC"
],
  "ImagingFrequency": 123.252,
  "InPlanePhaseEncodingDirectionDICOM": "COL",
  "InstitutionAddress": "Maynard 3,Hanover,NH,US,03755",
  "InstitutionName": "Dartmouth College - PBS",
  "InstitutionalDepartmentName": "Department",
  "MRAcquisitionType": "2D",
  "MagneticFieldStrength": 3,
  "Manufacturer": "Siemens",
  "ManufacturersModelName": "Prisma",
  "Modality": "MR",
  "MultibandAccelerationFactor": 8,
  "PartialFourier": 1,
  "PatientPosition": "HFS",
  "PercentPhaseFOV": 100,
  "PercentSampling": 100,
  "PhaseEncodingDirection": "j-",
  "PhaseEncodingSteps": 82,
  "PhaseResolution": 1,
  "PixelBandwidth": 3050,
  "ProcedureStepDescription": "Wager_Wager^1076_spacetop",
  "ProtocolName": "func_run-01_task-narratives_acq-ap-mb8",
  "PulseSequenceDetails": "%CustomerSeq%\\cmrr_mbep2d_bold",
  "ReceiveCoilActiveElements": "HEA;HEP",
  "ReceiveCoilName": "Head_32",
  "ReconMatrixPE": 82,
  "RepetitionTime": 0.46,
  "SAR": 0.0960046,
  "ScanOptions": "FS",
  "ScanningSequence": "EP",
  "SequenceName": "epfid2d1_82",
  "SequenceVariant": "SK\\SS",
  "SeriesDescription": "func_run-01_task-narratives_acq-ap-mb8",
  "SeriesNumber": 8,
  "ShimSetting": [4121, -7733, -7269, 430, -105, -17, 8, 121],
  "SliceThickness": 2.7,
  "SliceTiming": [0, 0.2525, 0.0625, 0.315, 0.125, 0.3775, 0.19, 0, 0.2525, 0.0625, 0.315, 0.125, 0.3775, 0.19, 0, 0.2525, 0.0625, 0.315, 0.125, 0.3775, 0.19, 0, 0.2525, 0.0625, 0.315, 0.125, 0.3775, 0.19, 0, 0.2525, 0.0625, 0.315, 0.125, 0.3775, 0.19, 0, 0.2525, 0.0625, 0.315, 0.125, 0.3775, 0.19, 0, 0.2525, 0.0625, 0.315, 0.125, 0.3775, 0.19, 0, 0.2525, 0.0625, 0.315, 0.125, 0.3775, 0.19],
  "SoftwareVersions": "syngo MR E11",
  "SpacingBetweenSlices": 2.7,
  "StationName": "AWP66112",
  "TaskName": "narratives",
  "TotalReadoutTime": 0.03969,
  "TxRefAmp": 230.116,
  "WipMemBlock": "331dc9c1-b49f-4b23-afca-0184133054e5||Sequence: R016 ve11c/master r/e634e98; Dec 19 2017 11:00:25 by eja",
  "dcmmeta_affine": [
    [-2.6826112270355225, -0.032775867730379105, -0.0250447615981102, 113.64314270019531],
    [-0.034874800592660904, 2.67191219329834, 0.24187323451042175, -98.60343933105469],
    [-0.021848075091838837, -0.24063900113105774, 2.689027786254883, -59.68867492675781],
    [0.0, 0.0, 0.0, 1.0]
],
  "dcmmeta_reorient_transform": [
    [0.0, -1.0, 0.0, 81.0],
    [1.0, 0.0, 0.0, 0.0],
    [0.0, 0.0, 1.0, 0.0],
    [0.0, 0.0, 0.0, 1.0]
],
  "dcmmeta_shape": [82, 82, 56, 967],
  "dcmmeta_slice_dim": 2,
  "dcmmeta_version": 0.6,
  "global": {
    "const": {
      "AccessionNumber": "A003834",
      "AcquisitionMatrix": [82, 0, 0, 82],
      "AngioFlag": "N",
      "BitsAllocated": 16,
      "BitsStored": 16,
      "BodyPartExamined": "BRAIN",
      "Columns": 656,
      "EchoNumbers": 1,
      "EchoTime": 27.2,
      "EchoTrainLength": 82,
      "FlipAngle": 44.0,
      "HighBit": 15,
      "ImageOrientationPatient": [0.99988235154904, 0.01299878957957, -0.0081433733937, -0.0122164598213, 0.99589456028605, 0.08969271376251],
      "ImagePositionPatient": [-871.49105315479, -894.66935256662, -141.97342794937],
      "ImageType": [
        "ORIGINAL",
        "PRIMARY",
        "M",
        "MB",
        "ND",
        "NORM",
        "MOSAIC"
],
      "ImagedNucleus": "1H",
      "ImagingFrequency": 123.252261,
      "InPlanePhaseEncodingDirection": "COL",
      "MRAcquisitionType": "2D",
      "MagneticFieldStrength": 3.0,
      "Manufacturer": "SIEMENS",
      "ManufacturerModelName": "Prisma",
      "Modality": "MR",
      "NumberOfAverages": 1.0,
      "NumberOfPhaseEncodingSteps": 82,
      "PercentPhaseFieldOfView": 100.0,
      "PercentSampling": 100.0,
      "PerformedProcedureStepStartTime": "125017.912000",
      "PhotometricInterpretation": "MONOCHROME2",
      "PixelBandwidth": 3050.0,
      "PixelRepresentation": 0,
      "PixelSpacing": [2.6829268932343, 2.6829268932343],
      "ProtocolName": "func_run-01_task-narratives_acq-ap-mb8",
      "RepetitionTime": 460.0,
      "Rows": 656,
      "SAR": 0.09600461239516,
      "SamplesPerPixel": 1,
      "ScanOptions": "FS",
      "ScanningSequence": "EP",
      "SequenceName": "epfid2d1_82",
      "SequenceVariant": [
        "SK",
        "SS"
],
      "SeriesDescription": "func_run-01_task-narratives_acq-ap-mb8",
      "SeriesNumber": 8,
      "SeriesTime": "130327.346000",
      "SliceLocation": -69.333408443662,
      "SliceThickness": 2.7000000476837,
      "SmallestImagePixelValue": 0,
      "SoftwareVersions": "syngo MR E11",
      "SpacingBetweenSlices": 2.6999999590992,
      "SpecificCharacterSet": "ISO_IR 100",
      "StudyID": "2",
      "StudyTime": "125017.838000",
      "TransmitCoilName": "Body",
      "VariableFlipAngleFlag": "N",
      "WindowCenterWidthExplanation": "Algo1",
      "dBdt": 0.0},
    "slices": {}
  },
  "time": {
    "samples": {
      "AcquisitionNumber": [1, 2, 3, 4, 5, 6, 7, 8, 9, 10, 11, 12, 13, 14, 15, 16, 17, 18, 19, 20, 21, 22, 23, 24, 25, 26, 27, 28, 29, 30, 31, 32, 33, 34, 35, 36, 37, 38, 39, 40, 41, 42, 43, 44, 45, 46, 47, 48, 49, 50, 51, 52, 53, 54, 55, 56, 57, 58, 59, 60, 61, 62, 63, 64, 65, 66, 67, 68, 69, 70, 71, 72, 73, 74, 75, 76, 77, 78, 79, 80, 81, 82, 83, 84, 85, 86, 87, 88, 89, 90, 91, 92, 93, 94, 95, 96, 97, 98, 99, 100, 101, 102, 103, 104, 105, 106, 107, 108, 109, 110, 111, 112, 113, 114, 115, 116, 117, 118, 119, 120, 121, 122, 123, 124, 125, 126, 127, 128, 129, 130, 131, 132, 133, 134, 135, 136, 137, 138, 139, 140, 141, 142, 143, 144, 145, 146, 147, 148, 149, 150, 151, 152, 153, 154, 155, 156, 157, 158, 159, 160, 161, 162, 163, 164, 165, 166, 167, 168, 169, 170, 171, 172, 173, 174, 175, 176, 177, 178, 179, 180, 181, 182, 183, 184, 185, 186, 187, 188, 189, 190, 191, 192, 193, 194, 195, 196, 197, 198, 199, 200, 201, 202, 203, 204, 205, 206, 207, 208, 209, 210, 211, 212, 213, 214, 215, 216, 217, 218, 219, 220, 221, 222, 223, 224, 225, 226, 227, 228, 229, 230, 231, 232, 233, 234, 235, 236, 237, 238, 239, 240, 241, 242, 243, 244, 245, 246, 247, 248, 249, 250, 251, 252, 253, 254, 255, 256, 257, 258, 259, 260, 261, 262, 263, 264, 265, 266, 267, 268, 269, 270, 271, 272, 273, 274, 275, 276, 277, 278, 279, 280, 281, 282, 283, 284, 285, 286, 287, 288, 289, 290, 291, 292, 293, 294, 295, 296, 297, 298, 299, 300, 301, 302, 303, 304, 305, 306, 307, 308, 309, 310, 311, 312, 313, 314, 315, 316, 317, 318, 319, 320, 321, 322, 323, 324, 325, 326, 327, 328, 329, 330, 331, 332, 333, 334, 335, 336, 337, 338, 339, 340, 341, 342, 343, 344, 345, 346, 347, 348, 349, 350, 351, 352, 353, 354, 355, 356, 357, 358, 359, 360, 361, 362, 363, 364, 365, 366, 367, 368, 369, 370, 371, 372, 373, 374, 375, 376, 377, 378, 379, 380, 381, 382, 383, 384, 385, 386, 387, 388, 389, 390, 391, 392, 393, 394, 395, 396, 397, 398, 399, 400, 401, 402, 403, 404, 405, 406, 407, 408, 409, 410, 411, 412, 413, 414, 415, 416, 417, 418, 419, 420, 421, 422, 423, 424, 425, 426, 427, 428, 429, 430, 431, 432, 433, 434, 435, 436, 437, 438, 439, 440, 441, 442, 443, 444, 445, 446, 447, 448, 449, 450, 451, 452, 453, 454, 455, 456, 457, 458, 459, 460, 461, 462, 463, 464, 465, 466, 467, 468, 469, 470, 471, 472, 473, 474, 475, 476, 477, 478, 479, 480, 481, 482, 483, 484, 485, 486, 487, 488, 489, 490, 491, 492, 493, 494, 495, 496, 497, 498, 499, 500, 501, 502, 503, 504, 505, 506, 507, 508, 509, 510, 511, 512, 513, 514, 515, 516, 517, 518, 519, 520, 521, 522, 523, 524, 525, 526, 527, 528, 529, 530, 531, 532, 533, 534, 535, 536, 537, 538, 539, 540, 541, 542, 543, 544, 545, 546, 547, 548, 549, 550, 551, 552, 553, 554, 555, 556, 557, 558, 559, 560, 561, 562, 563, 564, 565, 566, 567, 568, 569, 570, 571, 572, 573, 574, 575, 576, 577, 578, 579, 580, 581, 582, 583, 584, 585, 586, 587, 588, 589, 590, 591, 592, 593, 594, 595, 596, 597, 598, 599, 600, 601, 602, 603, 604, 605, 606, 607, 608, 609, 610, 611, 612, 613, 614, 615, 616, 617, 618, 619, 620, 621, 622, 623, 624, 625, 626, 627, 628, 629, 630, 631, 632, 633, 634, 635, 636, 637, 638, 639, 640, 641, 642, 643, 644, 645, 646, 647, 648, 649, 650, 651, 652, 653, 654, 655, 656, 657, 658, 659, 660, 661, 662, 663, 664, 665, 666, 667, 668, 669, 670, 671, 672, 673, 674, 675, 676, 677, 678, 679, 680, 681, 682, 683, 684, 685, 686, 687, 688, 689, 690, 691, 692, 693, 694, 695, 696, 697, 698, 699, 700, 701, 702, 703, 704, 705, 706, 707, 708, 709, 710, 711, 712, 713, 714, 715, 716, 717, 718, 719, 720, 721, 722, 723, 724, 725, 726, 727, 728, 729, 730, 731, 732, 733, 734, 735, 736, 737, 738, 739, 740, 741, 742, 743, 744, 745, 746, 747, 748, 749, 750, 751, 752, 753, 754, 755, 756, 757, 758, 759, 760, 761, 762, 763, 764, 765, 766, 767, 768, 769, 770, 771, 772, 773, 774, 775, 776, 777, 778, 779, 780, 781, 782, 783, 784, 785, 786, 787, 788, 789, 790, 791, 792, 793, 794, 795, 796, 797, 798, 799, 800, 801, 802, 803, 804, 805, 806, 807, 808, 809, 810, 811, 812, 813, 814, 815, 816, 817, 818, 819, 820, 821, 822, 823, 824, 825, 826, 827, 828, 829, 830, 831, 832, 833, 834, 835, 836, 837, 838, 839, 840, 841, 842, 843, 844, 845, 846, 847, 848, 849, 850, 851, 852, 853, 854, 855, 856, 857, 858, 859, 860, 861, 862, 863, 864, 865, 866, 867, 868, 869, 870, 871, 872, 873, 874, 875, 876, 877, 878, 879, 880, 881, 882, 883, 884, 885, 886, 887, 888, 889, 890, 891, 892, 893, 894, 895, 896, 897, 898, 899, 900, 901, 902, 903, 904, 905, 906, 907, 908, 909, 910, 911, 912, 913, 914, 915, 916, 917, 918, 919, 920, 921, 922, 923, 924, 925, 926, 927, 928, 929, 930, 931, 932, 933, 934, 935, 936, 937, 938, 939, 940, 941, 942, 943, 944, 945, 946, 947, 948, 949, 950, 951, 952, 953, 954, 955, 956, 957, 958, 959, 960, 961, 962, 963, 964, 965, 966, 967],
      "AcquisitionTime": ["130307.020000", "130307.480000", "130307.940000", "130308.400000", "130308.860000", "130309.320000", "130309.780000", "130310.240000", "130310.700000", "130311.160000", "130311.620000", "130312.080000", "130312.540000", "130313.000000", "130313.460000", "130313.920000", "130314.380000", "130314.840000", "130315.300000", "130315.760000", "130316.220000", "130316.680000", "130317.140000", "130317.600000", "130318.060000", "130318.520000", "130318.980000", "130319.440000", "130319.900000", "130320.360000", "130320.820000", "130321.280000", "130321.740000", "130322.200000", "130322.660000", "130323.120000", "130323.580000", "130324.040000", "130324.500000", "130324.960000", "130325.420000", "130325.880000", "130326.340000", "130326.800000", "130327.260000", "130327.720000", "130328.180000", "130328.640000", "130329.100000", "130329.560000", "130330.020000", "130330.480000", "130330.940000", "130331.400000", "130331.860000", "130332.320000", "130332.780000", "130333.240000", "130333.700000", "130334.160000", "130334.620000", "130335.080000", "130335.540000", "130336.000000", "130336.460000", "130336.920000", "130337.380000", "130337.840000", "130338.300000", "130338.760000", "130339.220000", "130339.680000", "130340.140000", "130340.600000", "130341.060000", "130341.520000", "130341.980000", "130342.440000", "130342.900000", "130343.360000", "130343.820000", "130344.280000", "130344.740000", "130345.200000", "130345.660000", "130346.120000", "130346.580000", "130347.040000", "130347.500000", "130347.960000", "130348.420000", "130348.880000", "130349.340000", "130349.800000", "130350.260000", "130350.720000", "130351.180000", "130351.640000", "130352.100000", "130352.560000", "130353.020000", "130353.480000", "130353.940000", "130354.400000", "130354.860000", "130355.320000", "130355.780000", "130356.240000", "130356.700000", "130357.160000", "130357.620000", "130358.080000", "130358.540000", "130359.000000", "130359.460000", "130359.920000", "130400.380000", "130400.840000", "130401.300000", "130401.760000", "130402.220000", "130402.680000", "130403.140000", "130403.600000", "130404.060000", "130404.520000", "130404.980000", "130405.440000", "130405.900000", "130406.360000", "130406.820000", "130407.280000", "130407.740000", "130408.200000", "130408.660000", "130409.120000", "130409.580000", "130410.040000", "130410.500000", "130410.960000", "130411.420000", "130411.880000", "130412.340000", "130412.800000", "130413.260000", "130413.720000", "130414.180000", "130414.640000", "130415.100000", "130415.560000", "130416.020000", "130416.480000", "130416.940000", "130417.400000", "130417.860000", "130418.320000", "130418.780000", "130419.240000", "130419.700000", "130420.160000", "130420.620000", "130421.080000", "130421.540000", "130422.000000", "130422.460000", "130422.920000", "130423.380000", "130423.840000", "130424.300000", "130424.760000", "130425.220000", "130425.680000", "130426.140000", "130426.600000", "130427.060000", "130427.520000", "130427.980000", "130428.440000", "130428.900000", "130429.360000", "130429.820000", "130430.280000", "130430.740000", "130431.200000", "130431.660000", "130432.120000", "130432.580000", "130433.040000", "130433.500000", "130433.960000", "130434.420000", "130434.880000", "130435.340000", "130435.800000", "130436.260000", "130436.720000", "130437.180000", "130437.640000", "130438.100000", "130438.560000", "130439.020000", "130439.480000", "130439.940000", "130440.400000", "130440.860000", "130441.320000", "130441.780000", "130442.240000", "130442.700000", "130443.160000", "130443.620000", "130444.080000", "130444.540000", "130445.000000", "130445.460000", "130445.920000", "130446.380000", "130446.840000", "130447.300000", "130447.760000", "130448.220000", "130448.680000", "130449.140000", "130449.600000", "130450.060000", "130450.520000", "130450.980000", "130451.440000", "130451.900000", "130452.360000", "130452.820000", "130453.280000", "130453.740000", "130454.200000", "130454.660000", "130455.120000", "130455.580000", "130456.040000", "130456.500000", "130456.960000", "130457.420000", "130457.880000", "130458.340000", "130458.800000", "130459.260000", "130459.720000", "130500.180000", "130500.640000", "130501.100000", "130501.560000", "130502.020000", "130502.480000", "130502.940000", "130503.400000", "130503.860000", "130504.320000", "130504.780000", "130505.240000", "130505.700000", "130506.160000", "130506.620000", "130507.080000", "130507.540000", "130508.000000", "130508.460000", "130508.920000", "130509.380000", "130509.840000", "130510.300000", "130510.760000", "130511.220000", "130511.680000", "130512.140000", "130512.600000", "130513.060000", "130513.520000", "130513.980000", "130514.440000", "130514.900000", "130515.360000", "130515.820000", "130516.280000", "130516.740000", "130517.200000", "130517.660000", "130518.120000", "130518.580000", "130519.040000", "130519.500000", "130519.960000", "130520.420000", "130520.880000", "130521.340000", "130521.800000", "130522.260000", "130522.720000", "130523.180000", "130523.640000", "130524.100000", "130524.560000", "130525.020000", "130525.480000", "130525.940000", "130526.400000", "130526.860000", "130527.320000", "130527.780000", "130528.240000", "130528.700000", "130529.160000", "130529.620000", "130530.080000", "130530.540000", "130531.000000", "130531.460000", "130531.920000", "130532.380000", "130532.840000", "130533.300000", "130533.760000", "130534.220000", "130534.680000", "130535.140000", "130535.600000", "130536.060000", "130536.520000", "130536.980000", "130537.440000", "130537.900000", "130538.360000", "130538.820000", "130539.280000", "130539.740000", "130540.200000", "130540.660000", "130541.120000", "130541.580000", "130542.040000", "130542.500000", "130542.960000", "130543.420000", "130543.880000", "130544.340000", "130544.800000", "130545.260000", "130545.720000", "130546.180000", "130546.640000", "130547.100000", "130547.560000", "130548.020000", "130548.480000", "130548.940000", "130549.400000", "130549.860000", "130550.320000", "130550.780000", "130551.240000", "130551.700000", "130552.160000", "130552.620000", "130553.080000", "130553.540000", "130554.000000", "130554.460000", "130554.920000", "130555.380000", "130555.840000", "130556.300000", "130556.760000", "130557.220000", "130557.680000", "130558.140000", "130558.600000", "130559.060000", "130559.520000", "130559.980000", "130600.440000", "130600.900000", "130601.360000", "130601.820000", "130602.280000", "130602.740000", "130603.200000", "130603.660000", "130604.120000", "130604.580000", "130605.040000", "130605.500000", "130605.960000", "130606.420000", "130606.880000", "130607.340000", "130607.800000", "130608.260000", "130608.720000", "130609.180000", "130609.640000", "130610.100000", "130610.560000", "130611.020000", "130611.480000", "130611.940000", "130612.400000", "130612.860000", "130613.320000", "130613.780000", "130614.240000", "130614.700000", "130615.160000", "130615.620000", "130616.080000", "130616.540000", "130617.000000", "130617.460000", "130617.920000", "130618.380000", "130618.840000", "130619.300000", "130619.760000", "130620.220000", "130620.680000", "130621.140000", "130621.600000", "130622.060000", "130622.520000", "130622.980000", "130623.440000", "130623.900000", "130624.360000", "130624.820000", "130625.280000", "130625.740000", "130626.200000", "130626.660000", "130627.120000", "130627.580000", "130628.040000", "130628.500000", "130628.960000", "130629.420000", "130629.880000", "130630.340000", "130630.800000", "130631.260000", "130631.720000", "130632.180000", "130632.640000", "130633.100000", "130633.560000", "130634.020000", "130634.480000", "130634.940000", "130635.400000", "130635.860000", "130636.320000", "130636.780000", "130637.240000", "130637.700000", "130638.160000", "130638.620000", "130639.080000", "130639.540000", "130640.000000", "130640.460000", "130640.920000", "130641.380000", "130641.840000", "130642.300000", "130642.760000", "130643.220000", "130643.680000", "130644.140000", "130644.600000", "130645.060000", "130645.520000", "130645.980000", "130646.440000", "130646.900000", "130647.360000", "130647.820000", "130648.280000", "130648.740000", "130649.200000", "130649.660000", "130650.120000", "130650.580000", "130651.040000", "130651.500000", "130651.960000", "130652.420000", "130652.880000", "130653.340000", "130653.800000", "130654.260000", "130654.720000", "130655.180000", "130655.640000", "130656.100000", "130656.560000", "130657.020000", "130657.480000", "130657.940000", "130658.400000", "130658.860000", "130659.320000", "130659.780000", "130700.240000", "130700.700000", "130701.160000", "130701.620000", "130702.080000", "130702.540000", "130703.000000", "130703.460000", "130703.920000", "130704.380000", "130704.840000", "130705.300000", "130705.760000", "130706.220000", "130706.680000", "130707.140000", "130707.600000", "130708.060000", "130708.520000", "130708.980000", "130709.440000", "130709.900000", "130710.360000", "130710.820000", "130711.280000", "130711.740000", "130712.200000", "130712.660000", "130713.120000", "130713.580000", "130714.040000", "130714.500000", "130714.960000", "130715.420000", "130715.880000", "130716.340000", "130716.800000", "130717.260000", "130717.720000", "130718.180000", "130718.640000", "130719.100000", "130719.560000", "130720.020000", "130720.480000", "130720.940000", "130721.400000", "130721.860000", "130722.320000", "130722.780000", "130723.240000", "130723.700000", "130724.160000", "130724.620000", "130725.080000", "130725.540000", "130726.000000", "130726.460000", "130726.920000", "130727.380000", "130727.840000", "130728.300000", "130728.760000", "130729.220000", "130729.680000", "130730.140000", "130730.600000", "130731.060000", "130731.520000", "130731.980000", "130732.440000", "130732.900000", "130733.360000", "130733.820000", "130734.280000", "130734.740000", "130735.200000", "130735.660000", "130736.120000", "130736.580000", "130737.040000", "130737.500000", "130737.960000", "130738.420000", "130738.880000", "130739.340000", "130739.800000", "130740.260000", "130740.720000", "130741.180000", "130741.640000", "130742.100000", "130742.560000", "130743.020000", "130743.480000", "130743.940000", "130744.400000", "130744.860000", "130745.320000", "130745.780000", "130746.240000", "130746.700000", "130747.160000", "130747.620000", "130748.080000", "130748.540000", "130749.000000", "130749.460000", "130749.920000", "130750.380000", "130750.840000", "130751.300000", "130751.760000", "130752.220000", "130752.680000", "130753.140000", "130753.600000", "130754.060000", "130754.520000", "130754.980000", "130755.440000", "130755.900000", "130756.360000", "130756.820000", "130757.280000", "130757.740000", "130758.200000", "130758.660000", "130759.120000", "130759.580000", "130800.040000", "130800.500000", "130800.960000", "130801.420000", "130801.880000", "130802.340000", "130802.800000", "130803.260000", "130803.720000", "130804.180000", "130804.640000", "130805.100000", "130805.560000", "130806.020000", "130806.480000", "130806.940000", "130807.400000", "130807.860000", "130808.320000", "130808.780000", "130809.240000", "130809.700000", "130810.160000", "130810.620000", "130811.080000", "130811.540000", "130812.000000", "130812.460000", "130812.920000", "130813.380000", "130813.840000", "130814.300000", "130814.760000", "130815.220000", "130815.680000", "130816.140000", "130816.600000", "130817.060000", "130817.520000", "130817.980000", "130818.440000", "130818.900000", "130819.360000", "130819.820000", "130820.280000", "130820.740000", "130821.200000", "130821.660000", "130822.120000", "130822.580000", "130823.040000", "130823.500000", "130823.960000", "130824.420000", "130824.880000", "130825.340000", "130825.800000", "130826.260000", "130826.720000", "130827.180000", "130827.640000", "130828.100000", "130828.560000", "130829.020000", "130829.480000", "130829.940000", "130830.400000", "130830.860000", "130831.320000", "130831.780000", "130832.240000", "130832.700000", "130833.160000", "130833.620000", "130834.080000", "130834.540000", "130835.000000", "130835.460000", "130835.920000", "130836.380000", "130836.840000", "130837.300000", "130837.760000", "130838.220000", "130838.680000", "130839.140000", "130839.600000", "130840.060000", "130840.520000", "130840.980000", "130841.440000", "130841.900000", "130842.360000", "130842.820000", "130843.280000", "130843.740000", "130844.200000", "130844.660000", "130845.120000", "130845.580000", "130846.040000", "130846.500000", "130846.960000", "130847.420000", "130847.880000", "130848.340000", "130848.800000", "130849.260000", "130849.720000", "130850.180000", "130850.640000", "130851.100000", "130851.560000", "130852.020000", "130852.480000", "130852.940000", "130853.400000", "130853.860000", "130854.320000", "130854.780000", "130855.240000", "130855.700000", "130856.160000", "130856.620000", "130857.080000", "130857.540000", "130858.000000", "130858.460000", "130858.920000", "130859.380000", "130859.840000", "130900.300000", "130900.760000", "130901.220000", "130901.680000", "130902.140000", "130902.600000", "130903.060000", "130903.520000", "130903.980000", "130904.440000", "130904.900000", "130905.360000", "130905.820000", "130906.280000", "130906.740000", "130907.200000", "130907.660000", "130908.120000", "130908.580000", "130909.040000", "130909.500000", "130909.960000", "130910.420000", "130910.880000", "130911.340000", "130911.800000", "130912.260000", "130912.720000", "130913.180000", "130913.640000", "130914.100000", "130914.560000", "130915.020000", "130915.480000", "130915.940000", "130916.400000", "130916.860000", "130917.320000", "130917.780000", "130918.240000", "130918.700000", "130919.160000", "130919.620000", "130920.080000", "130920.540000", "130921.000000", "130921.460000", "130921.920000", "130922.380000", "130922.840000", "130923.300000", "130923.760000", "130924.220000", "130924.680000", "130925.140000", "130925.600000", "130926.060000", "130926.520000", "130926.980000", "130927.440000", "130927.900000", "130928.360000", "130928.820000", "130929.280000", "130929.740000", "130930.200000", "130930.660000", "130931.120000", "130931.580000", "130932.040000", "130932.500000", "130932.960000", "130933.420000", "130933.880000", "130934.340000", "130934.800000", "130935.260000", "130935.720000", "130936.180000", "130936.640000", "130937.100000", "130937.560000", "130938.020000", "130938.480000", "130938.940000", "130939.400000", "130939.860000", "130940.320000", "130940.780000", "130941.240000", "130941.700000", "130942.160000", "130942.620000", "130943.080000", "130943.540000", "130944.000000", "130944.460000", "130944.920000", "130945.380000", "130945.840000", "130946.300000", "130946.760000", "130947.220000", "130947.680000", "130948.140000", "130948.600000", "130949.060000", "130949.520000", "130949.980000", "130950.440000", "130950.900000", "130951.360000", "130951.820000", "130952.280000", "130952.740000", "130953.200000", "130953.660000", "130954.120000", "130954.580000", "130955.040000", "130955.500000", "130955.960000", "130956.420000", "130956.880000", "130957.340000", "130957.800000", "130958.260000", "130958.720000", "130959.180000", "130959.640000", "131000.100000", "131000.560000", "131001.020000", "131001.480000", "131001.940000", "131002.400000", "131002.860000", "131003.320000", "131003.780000", "131004.240000", "131004.700000", "131005.160000", "131005.620000", "131006.080000", "131006.540000", "131007.000000", "131007.460000", "131007.920000", "131008.380000", "131008.840000", "131009.300000", "131009.760000", "131010.220000", "131010.680000", "131011.140000", "131011.600000", "131012.060000", "131012.520000", "131012.980000", "131013.440000", "131013.900000", "131014.360000", "131014.820000", "131015.280000", "131015.740000", "131016.200000", "131016.660000", "131017.120000", "131017.580000", "131018.040000", "131018.500000", "131018.960000", "131019.420000", "131019.880000", "131020.340000", "131020.800000", "131021.260000", "131021.720000", "131022.180000", "131022.640000", "131023.100000", "131023.560000", "131024.020000", "131024.480000", "131024.940000", "131025.400000", "131025.860000", "131026.320000", "131026.780000", "131027.240000", "131027.700000", "131028.160000", "131028.620000", "131029.080000", "131029.540000", "131030.000000", "131030.460000", "131030.920000", "131031.380000"],
