{
  "AcquisitionMatrixPE": 82,
  "AcquisitionNumber": 1,
  "AcquisitionTime": "18:08:57.470000",
  "BandwidthPerPixelPhaseEncode": 24.888,
  "BaseResolution": 82,
  "BodyPartExamined": "BRAIN",
  "ConsistencyInfo": "N4_VE11E_LATEST_20181129",
  "ConversionSoftware": "dcm2niix",
  "ConversionSoftwareVersion": "v1.0.20201102",
  "DerivedVendorReportedEchoSpacing": 0.00049,
  "DeviceSerialNumber": "66112",
  "DwellTime": 2e-06,
  "EchoTime": 0.0272,
  "EchoTrainLength": 82,
  "EffectiveEchoSpacing": 0.00049,
  "FlipAngle": 44,
  "ImageComments": "Unaliased MB8/PE3",
  "ImageOrientationPatientDICOM": [0.999764, 0.0138395, 0.016766, -0.00959738, 0.972948, -0.230825],
  "ImageType": [
    "ORIGINAL",
    "PRIMARY",
    "M",
    "MB",
    "ND",
    "NORM",
    "MOSAIC"
],
  "ImagingFrequency": 123.252,
  "InPlanePhaseEncodingDirectionDICOM": "COL",
  "InstitutionAddress": "Maynard 3,Hanover,NH,US,03755",
  "InstitutionName": "Dartmouth College - PBS",
  "InstitutionalDepartmentName": "Department",
  "MRAcquisitionType": "2D",
  "MagneticFieldStrength": 3,
  "Manufacturer": "Siemens",
  "ManufacturersModelName": "Prisma",
  "Modality": "MR",
  "MultibandAccelerationFactor": 8,
  "PartialFourier": 1,
  "PatientPosition": "HFS",
  "PercentPhaseFOV": 100,
  "PercentSampling": 100,
  "PhaseEncodingDirection": "j-",
  "PhaseEncodingSteps": 82,
  "PhaseResolution": 1,
  "PixelBandwidth": 3050,
  "ProcedureStepDescription": "Wager_Wager^1076_spacetop",
  "ProtocolName": "func_run-01_task-narratives_acq-ap-mb8",
  "PulseSequenceDetails": "%CustomerSeq%\\cmrr_mbep2d_bold",
  "ReceiveCoilActiveElements": "HEA;HEP",
  "ReceiveCoilName": "Head_32",
  "ReconMatrixPE": 82,
  "RepetitionTime": 0.46,
  "SAR": 0.12056,
  "ScanOptions": "FS",
  "ScanningSequence": "EP",
  "SequenceName": "epfid2d1_82",
  "SequenceVariant": "SK\\SS",
  "SeriesDescription": "func_run-01_task-narratives_acq-ap-mb8",
  "SeriesNumber": 8,
  "ShimSetting": [4141, -7701, -7225, 557, -62, -156, -101, 83],
  "SliceThickness": 2.7,
  "SliceTiming": [0, 0.25, 0.0625, 0.315, 0.125, 0.3775, 0.1875, 0, 0.25, 0.0625, 0.315, 0.125, 0.3775, 0.1875, 0, 0.25, 0.0625, 0.315, 0.125, 0.3775, 0.1875, 0, 0.25, 0.0625, 0.315, 0.125, 0.3775, 0.1875, 0, 0.25, 0.0625, 0.315, 0.125, 0.3775, 0.1875, 0, 0.25, 0.0625, 0.315, 0.125, 0.3775, 0.1875, 0, 0.25, 0.0625, 0.315, 0.125, 0.3775, 0.1875, 0, 0.25, 0.0625, 0.315, 0.125, 0.3775, 0.1875],
  "SoftwareVersions": "syngo MR E11",
  "SpacingBetweenSlices": 2.7,
  "StationName": "AWP66112",
  "TaskName": "narratives",
  "TotalReadoutTime": 0.03969,
  "TxRefAmp": 271.759,
  "WipMemBlock": "cb1a8a17-a72d-43cc-b0f6-7650361353d9||Sequence: R016 ve11e/master r/434b28f1; Aug  7 2019 18:53:46 by eja",
  "dcmmeta_affine": [
    [-2.6822926998138428, -0.02574906498193741, 0.05266882851719856, 112.7123031616211],
    [-0.03713040426373482, 2.6103482246398926, -0.6226456761360168, -74.4144515991211],
    [0.04498201608657837, 0.6192865371704102, 2.626697301864624, -87.26700592041016],
    [0.0, 0.0, 0.0, 1.0]
],
  "dcmmeta_reorient_transform": [
    [0.0, -1.0, 0.0, 81.0],
    [1.0, 0.0, 0.0, 0.0],
    [0.0, 0.0, 1.0, 0.0],
    [0.0, 0.0, 0.0, 1.0]
],
  "dcmmeta_shape": [82, 82, 56, 967],
  "dcmmeta_slice_dim": 2,
  "dcmmeta_version": 0.6,
  "global": {
    "const": {
      "AccessionNumber": "A004228",
      "AcquisitionMatrix": [82, 0, 0, 82],
      "AngioFlag": "N",
      "BitsAllocated": 16,
      "BitsStored": 16,
      "BodyPartExamined": "BRAIN",
      "Columns": 656,
      "EchoNumbers": 1,
      "EchoTime": 27.2,
      "EchoTrainLength": 82,
      "FlipAngle": 44.0,
      "HighBit": 15,
      "ImageOrientationPatient": [0.99976365621035, 0.01383951461981, 0.01676602385773, -0.0095973786963, 0.97294795425153, -0.2308249740386],
      "ImagePositionPatient": [-873.05468134015, -896.85012801499, 127.72059738615],
      "ImageType": [
        "ORIGINAL",
        "PRIMARY",
        "M",
        "MB",
        "ND",
        "NORM",
        "MOSAIC"
],
      "ImagedNucleus": "1H",
      "ImagingFrequency": 123.252147,
      "InPlanePhaseEncodingDirection": "COL",
      "MRAcquisitionType": "2D",
      "MagneticFieldStrength": 3.0,
      "Manufacturer": "SIEMENS",
      "ManufacturerModelName": "Prisma",
      "Modality": "MR",
      "NumberOfAverages": 1.0,
      "NumberOfPhaseEncodingSteps": 82,
      "PercentPhaseFieldOfView": 100.0,
      "PercentSampling": 100.0,
      "PerformedProcedureStepStartTime": "172953.254000",
      "PhotometricInterpretation": "MONOCHROME2",
      "PixelBandwidth": 3050.0,
      "PixelRepresentation": 0,
      "PixelSpacing": [2.6829268932343, 2.6829268932343],
      "ProtocolName": "func_run-01_task-narratives_acq-ap-mb8",
      "RepetitionTime": 460.0,
      "Rows": 656,
      "SAR": 0.12056006332291,
      "SamplesPerPixel": 1,
      "ScanOptions": "FS",
      "ScanningSequence": "EP",
      "SequenceName": "epfid2d1_82",
      "SequenceVariant": [
        "SK",
        "SS"
],
      "SeriesDescription": "func_run-01_task-narratives_acq-ap-mb8",
      "SeriesNumber": 8,
      "SeriesTime": "180910.770000",
      "SliceLocation": -65.538424699026,
      "SliceThickness": 2.7000000476837,
      "SmallestImagePixelValue": 0,
      "SoftwareVersions": "syngo MR E11",
      "SpacingBetweenSlices": 2.6999999642151,
      "SpecificCharacterSet": "ISO_IR 100",
      "StudyID": "3",
      "StudyTime": "172953.171000",
      "TransmitCoilName": "Body",
      "VariableFlipAngleFlag": "N",
      "WindowCenterWidthExplanation": "Algo1"
    },
    "slices": {}
  },
  "time": {
    "samples": {
      "AcquisitionNumber": [1, 2, 3, 4, 5, 6, 7, 8, 9, 10, 11, 12, 13, 14, 15, 16, 17, 18, 19, 20, 21, 22, 23, 24, 25, 26, 27, 28, 29, 30, 31, 32, 33, 34, 35, 36, 37, 38, 39, 40, 41, 42, 43, 44, 45, 46, 47, 48, 49, 50, 51, 52, 53, 54, 55, 56, 57, 58, 59, 60, 61, 62, 63, 64, 65, 66, 67, 68, 69, 70, 71, 72, 73, 74, 75, 76, 77, 78, 79, 80, 81, 82, 83, 84, 85, 86, 87, 88, 89, 90, 91, 92, 93, 94, 95, 96, 97, 98, 99, 100, 101, 102, 103, 104, 105, 106, 107, 108, 109, 110, 111, 112, 113, 114, 115, 116, 117, 118, 119, 120, 121, 122, 123, 124, 125, 126, 127, 128, 129, 130, 131, 132, 133, 134, 135, 136, 137, 138, 139, 140, 141, 142, 143, 144, 145, 146, 147, 148, 149, 150, 151, 152, 153, 154, 155, 156, 157, 158, 159, 160, 161, 162, 163, 164, 165, 166, 167, 168, 169, 170, 171, 172, 173, 174, 175, 176, 177, 178, 179, 180, 181, 182, 183, 184, 185, 186, 187, 188, 189, 190, 191, 192, 193, 194, 195, 196, 197, 198, 199, 200, 201, 202, 203, 204, 205, 206, 207, 208, 209, 210, 211, 212, 213, 214, 215, 216, 217, 218, 219, 220, 221, 222, 223, 224, 225, 226, 227, 228, 229, 230, 231, 232, 233, 234, 235, 236, 237, 238, 239, 240, 241, 242, 243, 244, 245, 246, 247, 248, 249, 250, 251, 252, 253, 254, 255, 256, 257, 258, 259, 260, 261, 262, 263, 264, 265, 266, 267, 268, 269, 270, 271, 272, 273, 274, 275, 276, 277, 278, 279, 280, 281, 282, 283, 284, 285, 286, 287, 288, 289, 290, 291, 292, 293, 294, 295, 296, 297, 298, 299, 300, 301, 302, 303, 304, 305, 306, 307, 308, 309, 310, 311, 312, 313, 314, 315, 316, 317, 318, 319, 320, 321, 322, 323, 324, 325, 326, 327, 328, 329, 330, 331, 332, 333, 334, 335, 336, 337, 338, 339, 340, 341, 342, 343, 344, 345, 346, 347, 348, 349, 350, 351, 352, 353, 354, 355, 356, 357, 358, 359, 360, 361, 362, 363, 364, 365, 366, 367, 368, 369, 370, 371, 372, 373, 374, 375, 376, 377, 378, 379, 380, 381, 382, 383, 384, 385, 386, 387, 388, 389, 390, 391, 392, 393, 394, 395, 396, 397, 398, 399, 400, 401, 402, 403, 404, 405, 406, 407, 408, 409, 410, 411, 412, 413, 414, 415, 416, 417, 418, 419, 420, 421, 422, 423, 424, 425, 426, 427, 428, 429, 430, 431, 432, 433, 434, 435, 436, 437, 438, 439, 440, 441, 442, 443, 444, 445, 446, 447, 448, 449, 450, 451, 452, 453, 454, 455, 456, 457, 458, 459, 460, 461, 462, 463, 464, 465, 466, 467, 468, 469, 470, 471, 472, 473, 474, 475, 476, 477, 478, 479, 480, 481, 482, 483, 484, 485, 486, 487, 488, 489, 490, 491, 492, 493, 494, 495, 496, 497, 498, 499, 500, 501, 502, 503, 504, 505, 506, 507, 508, 509, 510, 511, 512, 513, 514, 515, 516, 517, 518, 519, 520, 521, 522, 523, 524, 525, 526, 527, 528, 529, 530, 531, 532, 533, 534, 535, 536, 537, 538, 539, 540, 541, 542, 543, 544, 545, 546, 547, 548, 549, 550, 551, 552, 553, 554, 555, 556, 557, 558, 559, 560, 561, 562, 563, 564, 565, 566, 567, 568, 569, 570, 571, 572, 573, 574, 575, 576, 577, 578, 579, 580, 581, 582, 583, 584, 585, 586, 587, 588, 589, 590, 591, 592, 593, 594, 595, 596, 597, 598, 599, 600, 601, 602, 603, 604, 605, 606, 607, 608, 609, 610, 611, 612, 613, 614, 615, 616, 617, 618, 619, 620, 621, 622, 623, 624, 625, 626, 627, 628, 629, 630, 631, 632, 633, 634, 635, 636, 637, 638, 639, 640, 641, 642, 643, 644, 645, 646, 647, 648, 649, 650, 651, 652, 653, 654, 655, 656, 657, 658, 659, 660, 661, 662, 663, 664, 665, 666, 667, 668, 669, 670, 671, 672, 673, 674, 675, 676, 677, 678, 679, 680, 681, 682, 683, 684, 685, 686, 687, 688, 689, 690, 691, 692, 693, 694, 695, 696, 697, 698, 699, 700, 701, 702, 703, 704, 705, 706, 707, 708, 709, 710, 711, 712, 713, 714, 715, 716, 717, 718, 719, 720, 721, 722, 723, 724, 725, 726, 727, 728, 729, 730, 731, 732, 733, 734, 735, 736, 737, 738, 739, 740, 741, 742, 743, 744, 745, 746, 747, 748, 749, 750, 751, 752, 753, 754, 755, 756, 757, 758, 759, 760, 761, 762, 763, 764, 765, 766, 767, 768, 769, 770, 771, 772, 773, 774, 775, 776, 777, 778, 779, 780, 781, 782, 783, 784, 785, 786, 787, 788, 789, 790, 791, 792, 793, 794, 795, 796, 797, 798, 799, 800, 801, 802, 803, 804, 805, 806, 807, 808, 809, 810, 811, 812, 813, 814, 815, 816, 817, 818, 819, 820, 821, 822, 823, 824, 825, 826, 827, 828, 829, 830, 831, 832, 833, 834, 835, 836, 837, 838, 839, 840, 841, 842, 843, 844, 845, 846, 847, 848, 849, 850, 851, 852, 853, 854, 855, 856, 857, 858, 859, 860, 861, 862, 863, 864, 865, 866, 867, 868, 869, 870, 871, 872, 873, 874, 875, 876, 877, 878, 879, 880, 881, 882, 883, 884, 885, 886, 887, 888, 889, 890, 891, 892, 893, 894, 895, 896, 897, 898, 899, 900, 901, 902, 903, 904, 905, 906, 907, 908, 909, 910, 911, 912, 913, 914, 915, 916, 917, 918, 919, 920, 921, 922, 923, 924, 925, 926, 927, 928, 929, 930, 931, 932, 933, 934, 935, 936, 937, 938, 939, 940, 941, 942, 943, 944, 945, 946, 947, 948, 949, 950, 951, 952, 953, 954, 955, 956, 957, 958, 959, 960, 961, 962, 963, 964, 965, 966, 967],
      "AcquisitionTime": ["180857.470000", "180857.930000", "180858.390000", "180858.850000", "180859.310000", "180859.770000", "180900.230000", "180900.690000", "180901.150000", "180901.610000", "180902.070000", "180902.530000", "180902.990000", "180903.450000", "180903.910000", "180904.370000", "180904.830000", "180905.290000", "180905.750000", "180906.210000", "180906.670000", "180907.130000", "180907.590000", "180908.050000", "180908.510000", "180908.970000", "180909.430000", "180909.890000", "180910.350000", "180910.810000", "180911.270000", "180911.730000", "180912.190000", "180912.650000", "180913.110000", "180913.570000", "180914.030000", "180914.490000", "180914.950000", "180915.410000", "180915.870000", "180916.330000", "180916.790000", "180917.250000", "180917.710000", "180918.170000", "180918.630000", "180919.090000", "180919.550000", "180920.010000", "180920.470000", "180920.930000", "180921.390000", "180921.850000", "180922.310000", "180922.770000", "180923.230000", "180923.690000", "180924.150000", "180924.610000", "180925.070000", "180925.530000", "180925.990000", "180926.450000", "180926.910000", "180927.370000", "180927.830000", "180928.290000", "180928.750000", "180929.210000", "180929.670000", "180930.130000", "180930.590000", "180931.050000", "180931.510000", "180931.970000", "180932.430000", "180932.890000", "180933.350000", "180933.810000", "180934.270000", "180934.730000", "180935.190000", "180935.650000", "180936.110000", "180936.570000", "180937.030000", "180937.490000", "180937.950000", "180938.410000", "180938.870000", "180939.330000", "180939.790000", "180940.250000", "180940.710000", "180941.170000", "180941.630000", "180942.090000", "180942.550000", "180943.010000", "180943.470000", "180943.930000", "180944.390000", "180944.850000", "180945.310000", "180945.770000", "180946.230000", "180946.690000", "180947.150000", "180947.610000", "180948.070000", "180948.530000", "180948.990000", "180949.450000", "180949.910000", "180950.370000", "180950.830000", "180951.290000", "180951.750000", "180952.210000", "180952.670000", "180953.130000", "180953.590000", "180954.050000", "180954.510000", "180954.970000", "180955.430000", "180955.890000", "180956.350000", "180956.810000", "180957.270000", "180957.730000", "180958.190000", "180958.650000", "180959.110000", "180959.570000", "181000.030000", "181000.490000", "181000.950000", "181001.410000", "181001.870000", "181002.330000", "181002.790000", "181003.250000", "181003.710000", "181004.170000", "181004.630000", "181005.090000", "181005.550000", "181006.010000", "181006.470000", "181006.930000", "181007.390000", "181007.850000", "181008.310000", "181008.770000", "181009.230000", "181009.690000", "181010.150000", "181010.610000", "181011.070000", "181011.530000", "181011.990000", "181012.450000", "181012.910000", "181013.370000", "181013.830000", "181014.290000", "181014.750000", "181015.210000", "181015.670000", "181016.130000", "181016.590000", "181017.050000", "181017.510000", "181017.970000", "181018.430000", "181018.890000", "181019.350000", "181019.810000", "181020.270000", "181020.730000", "181021.190000", "181021.650000", "181022.110000", "181022.570000", "181023.030000", "181023.490000", "181023.950000", "181024.410000", "181024.870000", "181025.330000", "181025.790000", "181026.250000", "181026.710000", "181027.170000", "181027.630000", "181028.090000", "181028.550000", "181029.010000", "181029.470000", "181029.930000", "181030.390000", "181030.850000", "181031.310000", "181031.770000", "181032.230000", "181032.690000", "181033.150000", "181033.610000", "181034.070000", "181034.530000", "181034.990000", "181035.450000", "181035.910000", "181036.370000", "181036.830000", "181037.290000", "181037.750000", "181038.210000", "181038.670000", "181039.130000", "181039.590000", "181040.050000", "181040.510000", "181040.970000", "181041.430000", "181041.890000", "181042.350000", "181042.810000", "181043.270000", "181043.730000", "181044.190000", "181044.650000", "181045.110000", "181045.570000", "181046.030000", "181046.490000", "181046.950000", "181047.410000", "181047.870000", "181048.330000", "181048.790000", "181049.250000", "181049.710000", "181050.170000", "181050.630000", "181051.090000", "181051.550000", "181052.010000", "181052.470000", "181052.930000", "181053.390000", "181053.850000", "181054.310000", "181054.770000", "181055.230000", "181055.690000", "181056.150000", "181056.610000", "181057.070000", "181057.530000", "181057.990000", "181058.450000", "181058.910000", "181059.370000", "181059.830000", "181100.290000", "181100.750000", "181101.210000", "181101.670000", "181102.130000", "181102.590000", "181103.050000", "181103.510000", "181103.970000", "181104.430000", "181104.890000", "181105.350000", "181105.810000", "181106.270000", "181106.730000", "181107.190000", "181107.650000", "181108.110000", "181108.570000", "181109.030000", "181109.490000", "181109.950000", "181110.410000", "181110.870000", "181111.330000", "181111.790000", "181112.250000", "181112.710000", "181113.170000", "181113.630000", "181114.090000", "181114.550000", "181115.010000", "181115.470000", "181115.930000", "181116.390000", "181116.850000", "181117.310000", "181117.770000", "181118.230000", "181118.690000", "181119.150000", "181119.610000", "181120.070000", "181120.530000", "181120.990000", "181121.450000", "181121.910000", "181122.370000", "181122.830000", "181123.290000", "181123.750000", "181124.210000", "181124.670000", "181125.130000", "181125.590000", "181126.050000", "181126.510000", "181126.970000", "181127.430000", "181127.890000", "181128.350000", "181128.810000", "181129.270000", "181129.730000", "181130.190000", "181130.650000", "181131.110000", "181131.570000", "181132.030000", "181132.490000", "181132.950000", "181133.410000", "181133.870000", "181134.330000", "181134.790000", "181135.250000", "181135.710000", "181136.170000", "181136.630000", "181137.090000", "181137.550000", "181138.010000", "181138.470000", "181138.930000", "181139.390000", "181139.850000", "181140.310000", "181140.770000", "181141.230000", "181141.690000", "181142.150000", "181142.610000", "181143.070000", "181143.530000", "181143.990000", "181144.450000", "181144.910000", "181145.370000", "181145.830000", "181146.290000", "181146.750000", "181147.210000", "181147.670000", "181148.130000", "181148.590000", "181149.050000", "181149.510000", "181149.970000", "181150.430000", "181150.890000", "181151.350000", "181151.810000", "181152.270000", "181152.730000", "181153.190000", "181153.650000", "181154.110000", "181154.570000", "181155.030000", "181155.490000", "181155.950000", "181156.410000", "181156.870000", "181157.330000", "181157.790000", "181158.250000", "181158.710000", "181159.170000", "181159.630000", "181200.090000", "181200.550000", "181201.010000", "181201.470000", "181201.930000", "181202.390000", "181202.850000", "181203.310000", "181203.770000", "181204.230000", "181204.690000", "181205.150000", "181205.610000", "181206.070000", "181206.530000", "181206.990000", "181207.450000", "181207.910000", "181208.370000", "181208.830000", "181209.290000", "181209.750000", "181210.210000", "181210.670000", "181211.130000", "181211.590000", "181212.050000", "181212.510000", "181212.970000", "181213.430000", "181213.890000", "181214.350000", "181214.810000", "181215.270000", "181215.730000", "181216.190000", "181216.650000", "181217.110000", "181217.570000", "181218.030000", "181218.490000", "181218.950000", "181219.410000", "181219.870000", "181220.330000", "181220.790000", "181221.250000", "181221.710000", "181222.170000", "181222.630000", "181223.090000", "181223.550000", "181224.010000", "181224.470000", "181224.930000", "181225.390000", "181225.850000", "181226.310000", "181226.770000", "181227.230000", "181227.690000", "181228.150000", "181228.610000", "181229.070000", "181229.530000", "181229.990000", "181230.450000", "181230.910000", "181231.370000", "181231.830000", "181232.290000", "181232.750000", "181233.210000", "181233.670000", "181234.130000", "181234.590000", "181235.050000", "181235.510000", "181235.970000", "181236.430000", "181236.890000", "181237.350000", "181237.810000", "181238.270000", "181238.730000", "181239.190000", "181239.650000", "181240.110000", "181240.570000", "181241.030000", "181241.490000", "181241.950000", "181242.410000", "181242.870000", "181243.330000", "181243.790000", "181244.250000", "181244.710000", "181245.170000", "181245.630000", "181246.090000", "181246.550000", "181247.010000", "181247.470000", "181247.930000", "181248.390000", "181248.850000", "181249.310000", "181249.770000", "181250.230000", "181250.690000", "181251.150000", "181251.610000", "181252.070000", "181252.530000", "181252.990000", "181253.450000", "181253.910000", "181254.370000", "181254.830000", "181255.290000", "181255.750000", "181256.210000", "181256.670000", "181257.130000", "181257.590000", "181258.050000", "181258.510000", "181258.970000", "181259.430000", "181259.890000", "181300.350000", "181300.810000", "181301.270000", "181301.730000", "181302.190000", "181302.650000", "181303.110000", "181303.570000", "181304.030000", "181304.490000", "181304.950000", "181305.410000", "181305.870000", "181306.330000", "181306.790000", "181307.250000", "181307.710000", "181308.170000", "181308.630000", "181309.090000", "181309.550000", "181310.010000", "181310.470000", "181310.930000", "181311.390000", "181311.850000", "181312.310000", "181312.770000", "181313.230000", "181313.690000", "181314.150000", "181314.610000", "181315.070000", "181315.530000", "181315.990000", "181316.450000", "181316.910000", "181317.370000", "181317.830000", "181318.290000", "181318.750000", "181319.210000", "181319.670000", "181320.130000", "181320.590000", "181321.050000", "181321.510000", "181321.970000", "181322.430000", "181322.890000", "181323.350000", "181323.810000", "181324.270000", "181324.730000", "181325.190000", "181325.650000", "181326.110000", "181326.570000", "181327.030000", "181327.490000", "181327.950000", "181328.410000", "181328.870000", "181329.330000", "181329.790000", "181330.250000", "181330.710000", "181331.170000", "181331.630000", "181332.090000", "181332.550000", "181333.010000", "181333.470000", "181333.930000", "181334.390000", "181334.850000", "181335.310000", "181335.770000", "181336.230000", "181336.690000", "181337.150000", "181337.610000", "181338.070000", "181338.530000", "181338.990000", "181339.450000", "181339.910000", "181340.370000", "181340.830000", "181341.290000", "181341.750000", "181342.210000", "181342.670000", "181343.130000", "181343.590000", "181344.050000", "181344.510000", "181344.970000", "181345.430000", "181345.890000", "181346.350000", "181346.810000", "181347.270000", "181347.730000", "181348.190000", "181348.650000", "181349.110000", "181349.570000", "181350.030000", "181350.490000", "181350.950000", "181351.410000", "181351.870000", "181352.330000", "181352.790000", "181353.250000", "181353.710000", "181354.170000", "181354.630000", "181355.090000", "181355.550000", "181356.010000", "181356.470000", "181356.930000", "181357.390000", "181357.850000", "181358.310000", "181358.770000", "181359.230000", "181359.690000", "181400.150000", "181400.610000", "181401.070000", "181401.530000", "181401.990000", "181402.450000", "181402.910000", "181403.370000", "181403.830000", "181404.290000", "181404.750000", "181405.210000", "181405.670000", "181406.130000", "181406.590000", "181407.050000", "181407.510000", "181407.970000", "181408.430000", "181408.890000", "181409.350000", "181409.810000", "181410.270000", "181410.730000", "181411.190000", "181411.650000", "181412.110000", "181412.570000", "181413.030000", "181413.490000", "181413.950000", "181414.410000", "181414.870000", "181415.330000", "181415.790000", "181416.250000", "181416.710000", "181417.170000", "181417.630000", "181418.090000", "181418.550000", "181419.010000", "181419.470000", "181419.930000", "181420.390000", "181420.850000", "181421.310000", "181421.770000", "181422.230000", "181422.690000", "181423.150000", "181423.610000", "181424.070000", "181424.530000", "181424.990000", "181425.450000", "181425.910000", "181426.370000", "181426.830000", "181427.290000", "181427.750000", "181428.210000", "181428.670000", "181429.130000", "181429.590000", "181430.050000", "181430.510000", "181430.970000", "181431.430000", "181431.890000", "181432.350000", "181432.810000", "181433.270000", "181433.730000", "181434.190000", "181434.650000", "181435.110000", "181435.570000", "181436.030000", "181436.490000", "181436.950000", "181437.410000", "181437.870000", "181438.330000", "181438.790000", "181439.250000", "181439.710000", "181440.170000", "181440.630000", "181441.090000", "181441.550000", "181442.010000", "181442.470000", "181442.930000", "181443.390000", "181443.850000", "181444.310000", "181444.770000", "181445.230000", "181445.690000", "181446.150000", "181446.610000", "181447.070000", "181447.530000", "181447.990000", "181448.450000", "181448.910000", "181449.370000", "181449.830000", "181450.290000", "181450.750000", "181451.210000", "181451.670000", "181452.130000", "181452.590000", "181453.050000", "181453.510000", "181453.970000", "181454.430000", "181454.890000", "181455.350000", "181455.810000", "181456.270000", "181456.730000", "181457.190000", "181457.650000", "181458.110000", "181458.570000", "181459.030000", "181459.490000", "181459.950000", "181500.410000", "181500.870000", "181501.330000", "181501.790000", "181502.250000", "181502.710000", "181503.170000", "181503.630000", "181504.090000", "181504.550000", "181505.010000", "181505.470000", "181505.930000", "181506.390000", "181506.850000", "181507.310000", "181507.770000", "181508.230000", "181508.690000", "181509.150000", "181509.610000", "181510.070000", "181510.530000", "181510.990000", "181511.450000", "181511.910000", "181512.370000", "181512.830000", "181513.290000", "181513.750000", "181514.210000", "181514.670000", "181515.130000", "181515.590000", "181516.050000", "181516.510000", "181516.970000", "181517.430000", "181517.890000", "181518.350000", "181518.810000", "181519.270000", "181519.730000", "181520.190000", "181520.650000", "181521.110000", "181521.570000", "181522.030000", "181522.490000", "181522.950000", "181523.410000", "181523.870000", "181524.330000", "181524.790000", "181525.250000", "181525.710000", "181526.170000", "181526.630000", "181527.090000", "181527.550000", "181528.010000", "181528.470000", "181528.930000", "181529.390000", "181529.850000", "181530.310000", "181530.770000", "181531.230000", "181531.690000", "181532.150000", "181532.610000", "181533.070000", "181533.530000", "181533.990000", "181534.450000", "181534.910000", "181535.370000", "181535.830000", "181536.290000", "181536.750000", "181537.210000", "181537.670000", "181538.130000", "181538.590000", "181539.050000", "181539.510000", "181539.970000", "181540.430000", "181540.890000", "181541.350000", "181541.810000", "181542.270000", "181542.730000", "181543.190000", "181543.650000", "181544.110000", "181544.570000", "181545.030000", "181545.490000", "181545.950000", "181546.410000", "181546.870000", "181547.330000", "181547.790000", "181548.250000", "181548.710000", "181549.170000", "181549.630000", "181550.090000", "181550.550000", "181551.010000", "181551.470000", "181551.930000", "181552.390000", "181552.850000", "181553.310000", "181553.770000", "181554.230000", "181554.690000", "181555.150000", "181555.610000", "181556.070000", "181556.530000", "181556.990000", "181557.450000", "181557.910000", "181558.370000", "181558.830000", "181559.290000", "181559.750000", "181600.210000", "181600.670000", "181601.130000", "181601.590000", "181602.050000", "181602.510000", "181602.970000", "181603.430000", "181603.890000", "181604.350000", "181604.810000", "181605.270000", "181605.730000", "181606.190000", "181606.650000", "181607.110000", "181607.570000", "181608.030000", "181608.490000", "181608.950000", "181609.410000", "181609.870000", "181610.330000", "181610.790000", "181611.250000", "181611.710000", "181612.170000", "181612.630000", "181613.090000", "181613.550000", "181614.010000", "181614.470000", "181614.930000", "181615.390000", "181615.850000", "181616.310000", "181616.770000", "181617.230000", "181617.690000", "181618.150000", "181618.610000", "181619.070000", "181619.530000", "181619.990000", "181620.450000", "181620.910000", "181621.370000", "181621.830000"],
