{
  "AcquisitionMatrixPE": 82,
  "AcquisitionNumber": 1,
  "AcquisitionTime": "19:46:39.807500",
  "BandwidthPerPixelPhaseEncode": 24.888,
  "BaseResolution": 82,
  "BodyPartExamined": "BRAIN",
  "ConsistencyInfo": "N4_VE11E_LATEST_20181129",
  "ConversionSoftware": "dcm2niix",
  "ConversionSoftwareVersion": "v1.0.20201102",
  "DerivedVendorReportedEchoSpacing": 0.00049,
  "DeviceSerialNumber": "66112",
  "DwellTime": 2e-06,
  "EchoTime": 0.0272,
  "EchoTrainLength": 82,
  "EffectiveEchoSpacing": 0.00049,
  "FlipAngle": 44,
  "ImageComments": "Unaliased MB8/PE3",
  "ImageOrientationPatientDICOM": [0.999928, 0.0119764, -0.000906919, -0.011868, 0.973628, -0.227831],
  "ImageType": [
    "ORIGINAL",
    "PRIMARY",
    "M",
    "MB",
    "ND",
    "NORM",
    "MOSAIC"
],
  "ImagingFrequency": 123.252,
  "InPlanePhaseEncodingDirectionDICOM": "COL",
  "InstitutionAddress": "Maynard 3,Hanover,NH,US,03755",
  "InstitutionName": "Dartmouth College - PBS",
  "InstitutionalDepartmentName": "Department",
  "MRAcquisitionType": "2D",
  "MagneticFieldStrength": 3,
  "Manufacturer": "Siemens",
  "ManufacturersModelName": "Prisma",
  "Modality": "MR",
  "MultibandAccelerationFactor": 8,
  "PartialFourier": 1,
  "PatientPosition": "HFS",
  "PercentPhaseFOV": 100,
  "PercentSampling": 100,
  "PhaseEncodingDirection": "j-",
  "PhaseEncodingSteps": 82,
  "PhaseResolution": 1,
  "PixelBandwidth": 3050,
  "ProcedureStepDescription": "Wager_Wager^1076_spacetop",
  "ProtocolName": "func_run-04_task-alignvideo_acq-ap-mb8",
  "PulseSequenceDetails": "%CustomerSeq%\\cmrr_mbep2d_bold",
  "ReceiveCoilActiveElements": "HEA;HEP",
  "ReceiveCoilName": "Head_32",
  "ReconMatrixPE": 82,
  "RepetitionTime": 0.46,
  "SAR": 0.120521,
  "ScanOptions": "FS",
  "ScanningSequence": "EP",
  "SequenceName": "epfid2d1_82",
  "SequenceVariant": "SK\\SS",
  "SeriesDescription": "func_run-04_task-alignvideo_acq-ap-mb8",
  "SeriesNumber": 34,
  "ShimSetting": [4140, -7701, -7225, 558, -64, -155, -103, 82],
  "SliceThickness": 2.7,
  "SliceTiming": [0, 0.25, 0.0625, 0.315, 0.125, 0.3775, 0.1875, 0, 0.25, 0.0625, 0.315, 0.125, 0.3775, 0.1875, 0, 0.25, 0.0625, 0.315, 0.125, 0.3775, 0.1875, 0, 0.25, 0.0625, 0.315, 0.125, 0.3775, 0.1875, 0, 0.25, 0.0625, 0.315, 0.125, 0.3775, 0.1875, 0, 0.25, 0.0625, 0.315, 0.125, 0.3775, 0.1875, 0, 0.25, 0.0625, 0.315, 0.125, 0.3775, 0.1875, 0, 0.25, 0.0625, 0.315, 0.125, 0.3775, 0.1875],
  "SoftwareVersions": "syngo MR E11",
  "SpacingBetweenSlices": 2.7,
  "StationName": "AWP66112",
  "TaskName": "alignvideo",
  "TotalReadoutTime": 0.03969,
  "TxRefAmp": 271.759,
  "WipMemBlock": "2111342f-0cc1-460c-98b2-2cb132d5c8af||Sequence: R016 ve11e/master r/434b28f1; Aug  7 2019 18:53:46 by eja",
  "dcmmeta_affine": [
    [-2.6827332973480225, -0.031840983778238297, 0.004983066581189632, 115.74817657470703],
    [-0.03213169053196907, 2.6121737957000732, -0.6151277422904968, -73.24801635742188],
    [-0.00243319827131927, 0.6112532615661621, 2.628990888595581, -84.536376953125],
    [0.0, 0.0, 0.0, 1.0]
],
  "dcmmeta_reorient_transform": [
    [0.0, -1.0, 0.0, 81.0],
    [1.0, 0.0, 0.0, 0.0],
    [0.0, 0.0, 1.0, 0.0],
    [0.0, 0.0, 0.0, 1.0]
],
  "dcmmeta_shape": [82, 82, 56, 914],
  "dcmmeta_slice_dim": 2,
  "dcmmeta_version": 0.6,
  "global": {
    "const": {
      "AccessionNumber": "A004228",
      "AcquisitionMatrix": [82, 0, 0, 82],
      "AngioFlag": "N",
      "BitsAllocated": 16,
      "BitsStored": 16,
      "BodyPartExamined": "BRAIN",
      "Columns": 656,
      "EchoNumbers": 1,
      "EchoTime": 27.2,
      "EchoTrainLength": 82,
      "FlipAngle": 44.0,
      "HighBit": 15,
      "ImageOrientationPatient": [0.99992786957637, 0.01197635761834, -0.0009069193289, -0.0118680022842, 0.97362841810681, -0.2278307573104],
      "ImagePositionPatient": [-873.97517350616, -897.25376262358, 141.10315560301],
      "ImageType": [
        "ORIGINAL",
        "PRIMARY",
        "M",
        "MB",
        "ND",
        "NORM",
        "MOSAIC"
],
      "ImagedNucleus": "1H",
      "ImagingFrequency": 123.252187,
      "InPlanePhaseEncodingDirection": "COL",
      "MRAcquisitionType": "2D",
      "MagneticFieldStrength": 3.0,
      "Manufacturer": "SIEMENS",
      "ManufacturerModelName": "Prisma",
      "Modality": "MR",
      "NumberOfAverages": 1.0,
      "NumberOfPhaseEncodingSteps": 82,
      "PercentPhaseFieldOfView": 100.0,
      "PercentSampling": 100.0,
      "PerformedProcedureStepStartTime": "172953.254000",
      "PhotometricInterpretation": "MONOCHROME2",
      "PixelBandwidth": 3050.0,
      "PixelRepresentation": 0,
      "PixelSpacing": [2.6829268932343, 2.6829268932343],
      "ProtocolName": "func_run-04_task-alignvideo_acq-ap-mb8",
      "RepetitionTime": 460.0,
      "Rows": 656,
      "SAR": 0.12052086989561,
      "SamplesPerPixel": 1,
      "ScanOptions": "FS",
      "ScanningSequence": "EP",
      "SequenceName": "epfid2d1_82",
      "SequenceVariant": [
        "SK",
        "SS"
],
      "SeriesDescription": "func_run-04_task-alignvideo_acq-ap-mb8",
      "SeriesNumber": 34,
      "SeriesTime": "194650.605000",
      "SliceLocation": -65.411736837873,
      "SliceThickness": 2.7000000476837,
      "SmallestImagePixelValue": 0,
      "SoftwareVersions": "syngo MR E11",
      "SpacingBetweenSlices": 2.6999999902002,
      "SpecificCharacterSet": "ISO_IR 100",
      "StudyID": "3",
      "StudyTime": "172953.171000",
      "TransmitCoilName": "Body",
      "VariableFlipAngleFlag": "N",
      "WindowCenterWidthExplanation": "Algo1"
    },
    "slices": {}
  },
  "time": {
    "samples": {
      "AcquisitionNumber": [1, 2, 3, 4, 5, 6, 7, 8, 9, 10, 11, 12, 13, 14, 15, 16, 17, 18, 19, 20, 21, 22, 23, 24, 25, 26, 27, 28, 29, 30, 31, 32, 33, 34, 35, 36, 37, 38, 39, 40, 41, 42, 43, 44, 45, 46, 47, 48, 49, 50, 51, 52, 53, 54, 55, 56, 57, 58, 59, 60, 61, 62, 63, 64, 65, 66, 67, 68, 69, 70, 71, 72, 73, 74, 75, 76, 77, 78, 79, 80, 81, 82, 83, 84, 85, 86, 87, 88, 89, 90, 91, 92, 93, 94, 95, 96, 97, 98, 99, 100, 101, 102, 103, 104, 105, 106, 107, 108, 109, 110, 111, 112, 113, 114, 115, 116, 117, 118, 119, 120, 121, 122, 123, 124, 125, 126, 127, 128, 129, 130, 131, 132, 133, 134, 135, 136, 137, 138, 139, 140, 141, 142, 143, 144, 145, 146, 147, 148, 149, 150, 151, 152, 153, 154, 155, 156, 157, 158, 159, 160, 161, 162, 163, 164, 165, 166, 167, 168, 169, 170, 171, 172, 173, 174, 175, 176, 177, 178, 179, 180, 181, 182, 183, 184, 185, 186, 187, 188, 189, 190, 191, 192, 193, 194, 195, 196, 197, 198, 199, 200, 201, 202, 203, 204, 205, 206, 207, 208, 209, 210, 211, 212, 213, 214, 215, 216, 217, 218, 219, 220, 221, 222, 223, 224, 225, 226, 227, 228, 229, 230, 231, 232, 233, 234, 235, 236, 237, 238, 239, 240, 241, 242, 243, 244, 245, 246, 247, 248, 249, 250, 251, 252, 253, 254, 255, 256, 257, 258, 259, 260, 261, 262, 263, 264, 265, 266, 267, 268, 269, 270, 271, 272, 273, 274, 275, 276, 277, 278, 279, 280, 281, 282, 283, 284, 285, 286, 287, 288, 289, 290, 291, 292, 293, 294, 295, 296, 297, 298, 299, 300, 301, 302, 303, 304, 305, 306, 307, 308, 309, 310, 311, 312, 313, 314, 315, 316, 317, 318, 319, 320, 321, 322, 323, 324, 325, 326, 327, 328, 329, 330, 331, 332, 333, 334, 335, 336, 337, 338, 339, 340, 341, 342, 343, 344, 345, 346, 347, 348, 349, 350, 351, 352, 353, 354, 355, 356, 357, 358, 359, 360, 361, 362, 363, 364, 365, 366, 367, 368, 369, 370, 371, 372, 373, 374, 375, 376, 377, 378, 379, 380, 381, 382, 383, 384, 385, 386, 387, 388, 389, 390, 391, 392, 393, 394, 395, 396, 397, 398, 399, 400, 401, 402, 403, 404, 405, 406, 407, 408, 409, 410, 411, 412, 413, 414, 415, 416, 417, 418, 419, 420, 421, 422, 423, 424, 425, 426, 427, 428, 429, 430, 431, 432, 433, 434, 435, 436, 437, 438, 439, 440, 441, 442, 443, 444, 445, 446, 447, 448, 449, 450, 451, 452, 453, 454, 455, 456, 457, 458, 459, 460, 461, 462, 463, 464, 465, 466, 467, 468, 469, 470, 471, 472, 473, 474, 475, 476, 477, 478, 479, 480, 481, 482, 483, 484, 485, 486, 487, 488, 489, 490, 491, 492, 493, 494, 495, 496, 497, 498, 499, 500, 501, 502, 503, 504, 505, 506, 507, 508, 509, 510, 511, 512, 513, 514, 515, 516, 517, 518, 519, 520, 521, 522, 523, 524, 525, 526, 527, 528, 529, 530, 531, 532, 533, 534, 535, 536, 537, 538, 539, 540, 541, 542, 543, 544, 545, 546, 547, 548, 549, 550, 551, 552, 553, 554, 555, 556, 557, 558, 559, 560, 561, 562, 563, 564, 565, 566, 567, 568, 569, 570, 571, 572, 573, 574, 575, 576, 577, 578, 579, 580, 581, 582, 583, 584, 585, 586, 587, 588, 589, 590, 591, 592, 593, 594, 595, 596, 597, 598, 599, 600, 601, 602, 603, 604, 605, 606, 607, 608, 609, 610, 611, 612, 613, 614, 615, 616, 617, 618, 619, 620, 621, 622, 623, 624, 625, 626, 627, 628, 629, 630, 631, 632, 633, 634, 635, 636, 637, 638, 639, 640, 641, 642, 643, 644, 645, 646, 647, 648, 649, 650, 651, 652, 653, 654, 655, 656, 657, 658, 659, 660, 661, 662, 663, 664, 665, 666, 667, 668, 669, 670, 671, 672, 673, 674, 675, 676, 677, 678, 679, 680, 681, 682, 683, 684, 685, 686, 687, 688, 689, 690, 691, 692, 693, 694, 695, 696, 697, 698, 699, 700, 701, 702, 703, 704, 705, 706, 707, 708, 709, 710, 711, 712, 713, 714, 715, 716, 717, 718, 719, 720, 721, 722, 723, 724, 725, 726, 727, 728, 729, 730, 731, 732, 733, 734, 735, 736, 737, 738, 739, 740, 741, 742, 743, 744, 745, 746, 747, 748, 749, 750, 751, 752, 753, 754, 755, 756, 757, 758, 759, 760, 761, 762, 763, 764, 765, 766, 767, 768, 769, 770, 771, 772, 773, 774, 775, 776, 777, 778, 779, 780, 781, 782, 783, 784, 785, 786, 787, 788, 789, 790, 791, 792, 793, 794, 795, 796, 797, 798, 799, 800, 801, 802, 803, 804, 805, 806, 807, 808, 809, 810, 811, 812, 813, 814, 815, 816, 817, 818, 819, 820, 821, 822, 823, 824, 825, 826, 827, 828, 829, 830, 831, 832, 833, 834, 835, 836, 837, 838, 839, 840, 841, 842, 843, 844, 845, 846, 847, 848, 849, 850, 851, 852, 853, 854, 855, 856, 857, 858, 859, 860, 861, 862, 863, 864, 865, 866, 867, 868, 869, 870, 871, 872, 873, 874, 875, 876, 877, 878, 879, 880, 881, 882, 883, 884, 885, 886, 887, 888, 889, 890, 891, 892, 893, 894, 895, 896, 897, 898, 899, 900, 901, 902, 903, 904, 905, 906, 907, 908, 909, 910, 911, 912, 913, 914],
      "AcquisitionTime": ["194639.807500", "194640.267500", "194640.727500", "194641.187500", "194641.647500", "194642.107500", "194642.567500", "194643.027500", "194643.487500", "194643.947500", "194644.407500", "194644.867500", "194645.327500", "194645.787500", "194646.247500", "194646.707500", "194647.167500", "194647.627500", "194648.087500", "194648.547500", "194649.007500", "194649.467500", "194649.927500", "194650.387500", "194650.847500", "194651.307500", "194651.767500", "194652.227500", "194652.687500", "194653.147500", "194653.607500", "194654.067500", "194654.527500", "194654.987500", "194655.447500", "194655.907500", "194656.367500", "194656.827500", "194657.287500", "194657.747500", "194658.207500", "194658.667500", "194659.127500", "194659.587500", "194700.047500", "194700.507500", "194700.967500", "194701.427500", "194701.887500", "194702.347500", "194702.807500", "194703.267500", "194703.727500", "194704.187500", "194704.647500", "194705.107500", "194705.567500", "194706.027500", "194706.487500", "194706.947500", "194707.407500", "194707.867500", "194708.327500", "194708.787500", "194709.247500", "194709.707500", "194710.167500", "194710.627500", "194711.087500", "194711.547500", "194712.007500", "194712.467500", "194712.927500", "194713.387500", "194713.847500", "194714.307500", "194714.767500", "194715.227500", "194715.687500", "194716.147500", "194716.607500", "194717.067500", "194717.527500", "194717.987500", "194718.447500", "194718.907500", "194719.367500", "194719.827500", "194720.287500", "194720.747500", "194721.207500", "194721.667500", "194722.127500", "194722.587500", "194723.047500", "194723.507500", "194723.967500", "194724.427500", "194724.887500", "194725.347500", "194725.807500", "194726.267500", "194726.727500", "194727.187500", "194727.647500", "194728.107500", "194728.567500", "194729.027500", "194729.487500", "194729.947500", "194730.407500", "194730.867500", "194731.327500", "194731.787500", "194732.247500", "194732.707500", "194733.167500", "194733.627500", "194734.087500", "194734.547500", "194735.007500", "194735.467500", "194735.927500", "194736.387500", "194736.847500", "194737.307500", "194737.767500", "194738.227500", "194738.687500", "194739.147500", "194739.607500", "194740.067500", "194740.527500", "194740.987500", "194741.447500", "194741.907500", "194742.367500", "194742.827500", "194743.287500", "194743.747500", "194744.207500", "194744.667500", "194745.127500", "194745.587500", "194746.047500", "194746.507500", "194746.967500", "194747.427500", "194747.887500", "194748.347500", "194748.807500", "194749.267500", "194749.727500", "194750.187500", "194750.647500", "194751.107500", "194751.567500", "194752.027500", "194752.487500", "194752.947500", "194753.407500", "194753.867500", "194754.327500", "194754.787500", "194755.247500", "194755.707500", "194756.167500", "194756.627500", "194757.087500", "194757.547500", "194758.007500", "194758.467500", "194758.927500", "194759.387500", "194759.847500", "194800.307500", "194800.767500", "194801.227500", "194801.687500", "194802.147500", "194802.607500", "194803.067500", "194803.527500", "194803.987500", "194804.447500", "194804.907500", "194805.367500", "194805.827500", "194806.287500", "194806.747500", "194807.207500", "194807.667500", "194808.127500", "194808.587500", "194809.047500", "194809.507500", "194809.967500", "194810.427500", "194810.887500", "194811.347500", "194811.807500", "194812.267500", "194812.727500", "194813.187500", "194813.647500", "194814.107500", "194814.567500", "194815.027500", "194815.487500", "194815.947500", "194816.407500", "194816.867500", "194817.327500", "194817.787500", "194818.247500", "194818.707500", "194819.167500", "194819.627500", "194820.087500", "194820.547500", "194821.007500", "194821.467500", "194821.927500", "194822.387500", "194822.847500", "194823.307500", "194823.767500", "194824.227500", "194824.687500", "194825.147500", "194825.607500", "194826.067500", "194826.527500", "194826.987500", "194827.447500", "194827.907500", "194828.367500", "194828.827500", "194829.287500", "194829.747500", "194830.207500", "194830.667500", "194831.127500", "194831.587500", "194832.047500", "194832.507500", "194832.967500", "194833.427500", "194833.887500", "194834.347500", "194834.807500", "194835.267500", "194835.727500", "194836.187500", "194836.647500", "194837.107500", "194837.567500", "194838.027500", "194838.487500", "194838.947500", "194839.407500", "194839.867500", "194840.327500", "194840.787500", "194841.247500", "194841.707500", "194842.167500", "194842.627500", "194843.087500", "194843.547500", "194844.007500", "194844.467500", "194844.927500", "194845.387500", "194845.847500", "194846.307500", "194846.767500", "194847.227500", "194847.687500", "194848.147500", "194848.607500", "194849.067500", "194849.527500", "194849.987500", "194850.447500", "194850.907500", "194851.367500", "194851.827500", "194852.287500", "194852.747500", "194853.207500", "194853.667500", "194854.127500", "194854.587500", "194855.047500", "194855.507500", "194855.967500", "194856.427500", "194856.887500", "194857.347500", "194857.807500", "194858.267500", "194858.727500", "194859.187500", "194859.647500", "194900.107500", "194900.567500", "194901.027500", "194901.487500", "194901.947500", "194902.407500", "194902.867500", "194903.327500", "194903.787500", "194904.247500", "194904.707500", "194905.167500", "194905.627500", "194906.087500", "194906.547500", "194907.007500", "194907.467500", "194907.927500", "194908.387500", "194908.847500", "194909.307500", "194909.767500", "194910.227500", "194910.687500", "194911.147500", "194911.607500", "194912.067500", "194912.527500", "194912.987500", "194913.447500", "194913.907500", "194914.367500", "194914.827500", "194915.287500", "194915.747500", "194916.207500", "194916.667500", "194917.127500", "194917.587500", "194918.047500", "194918.507500", "194918.967500", "194919.427500", "194919.887500", "194920.347500", "194920.807500", "194921.267500", "194921.727500", "194922.187500", "194922.647500", "194923.107500", "194923.567500", "194924.027500", "194924.487500", "194924.947500", "194925.407500", "194925.867500", "194926.327500", "194926.787500", "194927.247500", "194927.707500", "194928.167500", "194928.627500", "194929.087500", "194929.547500", "194930.007500", "194930.467500", "194930.927500", "194931.387500", "194931.847500", "194932.307500", "194932.767500", "194933.227500", "194933.687500", "194934.147500", "194934.607500", "194935.067500", "194935.527500", "194935.987500", "194936.447500", "194936.907500", "194937.367500", "194937.827500", "194938.287500", "194938.747500", "194939.207500", "194939.667500", "194940.127500", "194940.587500", "194941.047500", "194941.507500", "194941.967500", "194942.427500", "194942.887500", "194943.347500", "194943.807500", "194944.267500", "194944.727500", "194945.187500", "194945.647500", "194946.107500", "194946.567500", "194947.027500", "194947.487500", "194947.947500", "194948.407500", "194948.867500", "194949.327500", "194949.787500", "194950.247500", "194950.707500", "194951.167500", "194951.627500", "194952.087500", "194952.547500", "194953.007500", "194953.467500", "194953.927500", "194954.387500", "194954.847500", "194955.307500", "194955.767500", "194956.227500", "194956.687500", "194957.147500", "194957.607500", "194958.067500", "194958.527500", "194958.987500", "194959.447500", "194959.907500", "195000.367500", "195000.827500", "195001.287500", "195001.747500", "195002.207500", "195002.667500", "195003.127500", "195003.587500", "195004.047500", "195004.507500", "195004.967500", "195005.427500", "195005.887500", "195006.347500", "195006.807500", "195007.267500", "195007.727500", "195008.187500", "195008.647500", "195009.107500", "195009.567500", "195010.027500", "195010.487500", "195010.947500", "195011.407500", "195011.867500", "195012.327500", "195012.787500", "195013.247500", "195013.707500", "195014.167500", "195014.627500", "195015.087500", "195015.547500", "195016.007500", "195016.467500", "195016.927500", "195017.387500", "195017.847500", "195018.307500", "195018.767500", "195019.227500", "195019.687500", "195020.147500", "195020.607500", "195021.067500", "195021.527500", "195021.987500", "195022.447500", "195022.907500", "195023.367500", "195023.827500", "195024.287500", "195024.747500", "195025.207500", "195025.667500", "195026.127500", "195026.587500", "195027.047500", "195027.507500", "195027.967500", "195028.427500", "195028.887500", "195029.347500", "195029.807500", "195030.267500", "195030.727500", "195031.187500", "195031.647500", "195032.107500", "195032.567500", "195033.027500", "195033.487500", "195033.947500", "195034.407500", "195034.867500", "195035.327500", "195035.787500", "195036.247500", "195036.707500", "195037.167500", "195037.627500", "195038.087500", "195038.547500", "195039.007500", "195039.467500", "195039.927500", "195040.387500", "195040.847500", "195041.307500", "195041.767500", "195042.227500", "195042.687500", "195043.147500", "195043.607500", "195044.067500", "195044.527500", "195044.987500", "195045.447500", "195045.907500", "195046.367500", "195046.827500", "195047.287500", "195047.747500", "195048.207500", "195048.667500", "195049.127500", "195049.587500", "195050.047500", "195050.507500", "195050.967500", "195051.427500", "195051.887500", "195052.347500", "195052.807500", "195053.267500", "195053.727500", "195054.187500", "195054.647500", "195055.107500", "195055.567500", "195056.027500", "195056.487500", "195056.947500", "195057.407500", "195057.867500", "195058.327500", "195058.787500", "195059.247500", "195059.707500", "195100.167500", "195100.627500", "195101.087500", "195101.547500", "195102.007500", "195102.467500", "195102.927500", "195103.387500", "195103.847500", "195104.307500", "195104.767500", "195105.227500", "195105.687500", "195106.147500", "195106.607500", "195107.067500", "195107.527500", "195107.987500", "195108.447500", "195108.907500", "195109.367500", "195109.827500", "195110.287500", "195110.747500", "195111.207500", "195111.667500", "195112.127500", "195112.587500", "195113.047500", "195113.507500", "195113.967500", "195114.427500", "195114.887500", "195115.347500", "195115.807500", "195116.267500", "195116.727500", "195117.187500", "195117.647500", "195118.107500", "195118.567500", "195119.027500", "195119.487500", "195119.947500", "195120.407500", "195120.867500", "195121.327500", "195121.787500", "195122.247500", "195122.707500", "195123.167500", "195123.627500", "195124.087500", "195124.547500", "195125.007500", "195125.467500", "195125.927500", "195126.387500", "195126.847500", "195127.307500", "195127.767500", "195128.227500", "195128.687500", "195129.147500", "195129.607500", "195130.067500", "195130.527500", "195130.987500", "195131.447500", "195131.907500", "195132.367500", "195132.827500", "195133.287500", "195133.747500", "195134.207500", "195134.667500", "195135.127500", "195135.587500", "195136.047500", "195136.507500", "195136.967500", "195137.427500", "195137.887500", "195138.347500", "195138.807500", "195139.267500", "195139.727500", "195140.187500", "195140.647500", "195141.107500", "195141.567500", "195142.027500", "195142.487500", "195142.947500", "195143.407500", "195143.867500", "195144.327500", "195144.787500", "195145.247500", "195145.707500", "195146.167500", "195146.627500", "195147.087500", "195147.547500", "195148.007500", "195148.467500", "195148.927500", "195149.387500", "195149.847500", "195150.307500", "195150.767500", "195151.227500", "195151.687500", "195152.147500", "195152.607500", "195153.067500", "195153.527500", "195153.987500", "195154.447500", "195154.907500", "195155.367500", "195155.827500", "195156.287500", "195156.747500", "195157.207500", "195157.667500", "195158.127500", "195158.587500", "195159.047500", "195159.507500", "195159.967500", "195200.427500", "195200.887500", "195201.347500", "195201.807500", "195202.267500", "195202.727500", "195203.187500", "195203.647500", "195204.107500", "195204.567500", "195205.027500", "195205.487500", "195205.947500", "195206.407500", "195206.867500", "195207.327500", "195207.787500", "195208.247500", "195208.707500", "195209.167500", "195209.627500", "195210.087500", "195210.547500", "195211.007500", "195211.467500", "195211.927500", "195212.387500", "195212.847500", "195213.307500", "195213.767500", "195214.227500", "195214.687500", "195215.147500", "195215.607500", "195216.067500", "195216.527500", "195216.987500", "195217.447500", "195217.907500", "195218.367500", "195218.827500", "195219.287500", "195219.747500", "195220.207500", "195220.667500", "195221.127500", "195221.587500", "195222.047500", "195222.507500", "195222.967500", "195223.427500", "195223.887500", "195224.347500", "195224.807500", "195225.267500", "195225.727500", "195226.187500", "195226.647500", "195227.107500", "195227.567500", "195228.027500", "195228.487500", "195228.947500", "195229.407500", "195229.867500", "195230.327500", "195230.787500", "195231.247500", "195231.707500", "195232.167500", "195232.627500", "195233.087500", "195233.547500", "195234.007500", "195234.467500", "195234.927500", "195235.387500", "195235.847500", "195236.307500", "195236.767500", "195237.227500", "195237.687500", "195238.147500", "195238.607500", "195239.067500", "195239.527500", "195239.987500", "195240.447500", "195240.907500", "195241.367500", "195241.827500", "195242.287500", "195242.747500", "195243.207500", "195243.667500", "195244.127500", "195244.587500", "195245.047500", "195245.507500", "195245.967500", "195246.427500", "195246.887500", "195247.347500", "195247.807500", "195248.267500", "195248.727500", "195249.187500", "195249.647500", "195250.107500", "195250.567500", "195251.027500", "195251.487500", "195251.947500", "195252.407500", "195252.867500", "195253.327500", "195253.787500", "195254.247500", "195254.707500", "195255.167500", "195255.627500", "195256.087500", "195256.547500", "195257.007500", "195257.467500", "195257.927500", "195258.387500", "195258.847500", "195259.307500", "195259.767500", "195300.227500", "195300.687500", "195301.147500", "195301.607500", "195302.067500", "195302.527500", "195302.987500", "195303.447500", "195303.907500", "195304.367500", "195304.827500", "195305.287500", "195305.747500", "195306.207500", "195306.667500", "195307.127500", "195307.587500", "195308.047500", "195308.507500", "195308.967500", "195309.427500", "195309.887500", "195310.347500", "195310.807500", "195311.267500", "195311.727500", "195312.187500", "195312.647500", "195313.107500", "195313.567500", "195314.027500", "195314.487500", "195314.947500", "195315.407500", "195315.867500", "195316.327500", "195316.787500", "195317.247500", "195317.707500", "195318.167500", "195318.627500", "195319.087500", "195319.547500", "195320.007500", "195320.467500", "195320.927500", "195321.387500", "195321.847500", "195322.307500", "195322.767500", "195323.227500", "195323.687500", "195324.147500", "195324.607500", "195325.067500", "195325.527500", "195325.987500", "195326.447500", "195326.907500", "195327.367500", "195327.827500", "195328.287500", "195328.747500", "195329.207500", "195329.667500", "195330.127500", "195330.587500", "195331.047500", "195331.507500", "195331.967500", "195332.427500", "195332.887500", "195333.347500", "195333.807500", "195334.267500", "195334.727500", "195335.187500", "195335.647500", "195336.107500", "195336.567500", "195337.027500", "195337.487500", "195337.947500", "195338.407500", "195338.867500", "195339.327500", "195339.787500"],
