{
  "AcquisitionMatrixPE": 82,
  "AcquisitionNumber": 1,
  "AcquisitionTime": "18:53:55.655000",
  "BandwidthPerPixelPhaseEncode": 24.888,
  "BaseResolution": 82,
  "BodyPartExamined": "BRAIN",
  "ConsistencyInfo": "N4_VE11E_LATEST_20181129",
  "ConversionSoftware": "dcm2niix",
  "ConversionSoftwareVersion": "v1.0.20201102",
  "DerivedVendorReportedEchoSpacing": 0.00049,
  "DeviceSerialNumber": "66112",
  "DwellTime": 2e-06,
  "EchoTime": 0.0272,
  "EchoTrainLength": 82,
  "EffectiveEchoSpacing": 0.00049,
  "FlipAngle": 44,
  "ImageComments": "Unaliased MB8/PE3",
  "ImageOrientationPatientDICOM": [0.999764, 0.0138395, 0.016766, -0.00959738, 0.972948, -0.230825],
  "ImageType": [
    "ORIGINAL",
    "PRIMARY",
    "M",
    "MB",
    "ND",
    "NORM",
    "MOSAIC"
],
  "ImagingFrequency": 123.252,
  "InPlanePhaseEncodingDirectionDICOM": "COL",
  "InstitutionAddress": "Maynard 3,Hanover,NH,US,03755",
  "InstitutionName": "Dartmouth College - PBS",
  "InstitutionalDepartmentName": "Department",
  "MRAcquisitionType": "2D",
  "MagneticFieldStrength": 3,
  "Manufacturer": "Siemens",
  "ManufacturersModelName": "Prisma",
  "Modality": "MR",
  "MultibandAccelerationFactor": 8,
  "PartialFourier": 1,
  "PatientPosition": "HFS",
  "PercentPhaseFOV": 100,
  "PercentSampling": 100,
  "PhaseEncodingDirection": "j-",
  "PhaseEncodingSteps": 82,
  "PhaseResolution": 1,
  "PixelBandwidth": 3050,
  "ProcedureStepDescription": "Wager_Wager^1076_spacetop",
  "ProtocolName": "func_run-02_task-faces_acq-ap-mb8",
  "PulseSequenceDetails": "%CustomerSeq%\\cmrr_mbep2d_bold",
  "ReceiveCoilActiveElements": "HEA;HEP",
  "ReceiveCoilName": "Head_32",
  "ReconMatrixPE": 82,
  "RepetitionTime": 0.46,
  "SAR": 0.120521,
  "ScanOptions": "FS",
  "ScanningSequence": "EP",
  "SequenceName": "epfid2d1_82",
  "SequenceVariant": "SK\\SS",
  "SeriesDescription": "func_run-02_task-faces_acq-ap-mb8",
  "SeriesNumber": 18,
  "ShimSetting": [4141, -7701, -7225, 557, -62, -156, -101, 83],
  "SliceThickness": 2.7,
  "SliceTiming": [0, 0.25, 0.0625, 0.3125, 0.125, 0.375, 0.1875, 0, 0.25, 0.0625, 0.3125, 0.125, 0.375, 0.1875, 0, 0.25, 0.0625, 0.3125, 0.125, 0.375, 0.1875, 0, 0.25, 0.0625, 0.3125, 0.125, 0.375, 0.1875, 0, 0.25, 0.0625, 0.3125, 0.125, 0.375, 0.1875, 0, 0.25, 0.0625, 0.3125, 0.125, 0.375, 0.1875, 0, 0.25, 0.0625, 0.3125, 0.125, 0.375, 0.1875, 0, 0.25, 0.0625, 0.3125, 0.125, 0.375, 0.1875],
  "SoftwareVersions": "syngo MR E11",
  "SpacingBetweenSlices": 2.7,
  "StationName": "AWP66112",
  "TaskName": "faces",
  "TotalReadoutTime": 0.03969,
  "TxRefAmp": 271.759,
  "WipMemBlock": "fe75bd0a-5ad0-4f20-8263-5b9cb56cdeb5||Sequence: R016 ve11e/master r/434b28f1; Aug  7 2019 18:53:46 by eja",
  "dcmmeta_affine": [
    [-2.6822926998138428, -0.02574906498193741, 0.05266882851719856, 112.7123031616211],
    [-0.03713040426373482, 2.6103482246398926, -0.6226456761360168, -74.4144515991211],
    [0.04498201608657837, 0.6192865371704102, 2.626697301864624, -87.26700592041016],
    [0.0, 0.0, 0.0, 1.0]
],
  "dcmmeta_reorient_transform": [
    [0.0, -1.0, 0.0, 81.0],
    [1.0, 0.0, 0.0, 0.0],
    [0.0, 0.0, 1.0, 0.0],
    [0.0, 0.0, 0.0, 1.0]
],
  "dcmmeta_shape": [82, 82, 56, 914],
  "dcmmeta_slice_dim": 2,
  "dcmmeta_version": 0.6,
  "global": {
    "const": {
      "AccessionNumber": "A004228",
      "AcquisitionMatrix": [82, 0, 0, 82],
      "AngioFlag": "N",
      "BitsAllocated": 16,
      "BitsStored": 16,
      "BodyPartExamined": "BRAIN",
      "Columns": 656,
      "EchoNumbers": 1,
      "EchoTime": 27.2,
      "EchoTrainLength": 82,
      "FlipAngle": 44.0,
      "HighBit": 15,
      "ImageOrientationPatient": [0.99976365621035, 0.01383951461981, 0.01676602385773, -0.0095973786963, 0.97294795425153, -0.2308249740386],
      "ImagePositionPatient": [-873.05468134015, -896.85012801499, 127.72059738615],
      "ImageType": [
        "ORIGINAL",
        "PRIMARY",
        "M",
        "MB",
        "ND",
        "NORM",
        "MOSAIC"
],
      "ImagedNucleus": "1H",
      "ImagingFrequency": 123.252178,
      "InPlanePhaseEncodingDirection": "COL",
      "MRAcquisitionType": "2D",
      "MagneticFieldStrength": 3.0,
      "Manufacturer": "SIEMENS",
      "ManufacturerModelName": "Prisma",
      "Modality": "MR",
      "NumberOfAverages": 1.0,
      "NumberOfPhaseEncodingSteps": 82,
      "PercentPhaseFieldOfView": 100.0,
      "PercentSampling": 100.0,
      "PerformedProcedureStepStartTime": "172953.254000",
      "PhotometricInterpretation": "MONOCHROME2",
      "PixelBandwidth": 3050.0,
      "PixelRepresentation": 0,
      "PixelSpacing": [2.6829268932343, 2.6829268932343],
      "ProtocolName": "func_run-02_task-faces_acq-ap-mb8",
      "RepetitionTime": 460.0,
      "Rows": 656,
      "SAR": 0.12052086989561,
      "SamplesPerPixel": 1,
      "ScanOptions": "FS",
      "ScanningSequence": "EP",
      "SequenceName": "epfid2d1_82",
      "SequenceVariant": [
        "SK",
        "SS"
],
      "SeriesDescription": "func_run-02_task-faces_acq-ap-mb8",
      "SeriesNumber": 18,
      "SeriesTime": "185410.673000",
      "SliceLocation": -65.538424699026,
      "SliceThickness": 2.7000000476837,
      "SmallestImagePixelValue": 0,
      "SoftwareVersions": "syngo MR E11",
      "SpacingBetweenSlices": 2.6999999642151,
      "SpecificCharacterSet": "ISO_IR 100",
      "StudyID": "3",
      "StudyTime": "172953.171000",
      "TransmitCoilName": "Body",
      "VariableFlipAngleFlag": "N",
      "WindowCenterWidthExplanation": "Algo1"
    },
    "slices": {}
  },
  "time": {
    "samples": {
      "AcquisitionNumber": [1, 2, 3, 4, 5, 6, 7, 8, 9, 10, 11, 12, 13, 14, 15, 16, 17, 18, 19, 20, 21, 22, 23, 24, 25, 26, 27, 28, 29, 30, 31, 32, 33, 34, 35, 36, 37, 38, 39, 40, 41, 42, 43, 44, 45, 46, 47, 48, 49, 50, 51, 52, 53, 54, 55, 56, 57, 58, 59, 60, 61, 62, 63, 64, 65, 66, 67, 68, 69, 70, 71, 72, 73, 74, 75, 76, 77, 78, 79, 80, 81, 82, 83, 84, 85, 86, 87, 88, 89, 90, 91, 92, 93, 94, 95, 96, 97, 98, 99, 100, 101, 102, 103, 104, 105, 106, 107, 108, 109, 110, 111, 112, 113, 114, 115, 116, 117, 118, 119, 120, 121, 122, 123, 124, 125, 126, 127, 128, 129, 130, 131, 132, 133, 134, 135, 136, 137, 138, 139, 140, 141, 142, 143, 144, 145, 146, 147, 148, 149, 150, 151, 152, 153, 154, 155, 156, 157, 158, 159, 160, 161, 162, 163, 164, 165, 166, 167, 168, 169, 170, 171, 172, 173, 174, 175, 176, 177, 178, 179, 180, 181, 182, 183, 184, 185, 186, 187, 188, 189, 190, 191, 192, 193, 194, 195, 196, 197, 198, 199, 200, 201, 202, 203, 204, 205, 206, 207, 208, 209, 210, 211, 212, 213, 214, 215, 216, 217, 218, 219, 220, 221, 222, 223, 224, 225, 226, 227, 228, 229, 230, 231, 232, 233, 234, 235, 236, 237, 238, 239, 240, 241, 242, 243, 244, 245, 246, 247, 248, 249, 250, 251, 252, 253, 254, 255, 256, 257, 258, 259, 260, 261, 262, 263, 264, 265, 266, 267, 268, 269, 270, 271, 272, 273, 274, 275, 276, 277, 278, 279, 280, 281, 282, 283, 284, 285, 286, 287, 288, 289, 290, 291, 292, 293, 294, 295, 296, 297, 298, 299, 300, 301, 302, 303, 304, 305, 306, 307, 308, 309, 310, 311, 312, 313, 314, 315, 316, 317, 318, 319, 320, 321, 322, 323, 324, 325, 326, 327, 328, 329, 330, 331, 332, 333, 334, 335, 336, 337, 338, 339, 340, 341, 342, 343, 344, 345, 346, 347, 348, 349, 350, 351, 352, 353, 354, 355, 356, 357, 358, 359, 360, 361, 362, 363, 364, 365, 366, 367, 368, 369, 370, 371, 372, 373, 374, 375, 376, 377, 378, 379, 380, 381, 382, 383, 384, 385, 386, 387, 388, 389, 390, 391, 392, 393, 394, 395, 396, 397, 398, 399, 400, 401, 402, 403, 404, 405, 406, 407, 408, 409, 410, 411, 412, 413, 414, 415, 416, 417, 418, 419, 420, 421, 422, 423, 424, 425, 426, 427, 428, 429, 430, 431, 432, 433, 434, 435, 436, 437, 438, 439, 440, 441, 442, 443, 444, 445, 446, 447, 448, 449, 450, 451, 452, 453, 454, 455, 456, 457, 458, 459, 460, 461, 462, 463, 464, 465, 466, 467, 468, 469, 470, 471, 472, 473, 474, 475, 476, 477, 478, 479, 480, 481, 482, 483, 484, 485, 486, 487, 488, 489, 490, 491, 492, 493, 494, 495, 496, 497, 498, 499, 500, 501, 502, 503, 504, 505, 506, 507, 508, 509, 510, 511, 512, 513, 514, 515, 516, 517, 518, 519, 520, 521, 522, 523, 524, 525, 526, 527, 528, 529, 530, 531, 532, 533, 534, 535, 536, 537, 538, 539, 540, 541, 542, 543, 544, 545, 546, 547, 548, 549, 550, 551, 552, 553, 554, 555, 556, 557, 558, 559, 560, 561, 562, 563, 564, 565, 566, 567, 568, 569, 570, 571, 572, 573, 574, 575, 576, 577, 578, 579, 580, 581, 582, 583, 584, 585, 586, 587, 588, 589, 590, 591, 592, 593, 594, 595, 596, 597, 598, 599, 600, 601, 602, 603, 604, 605, 606, 607, 608, 609, 610, 611, 612, 613, 614, 615, 616, 617, 618, 619, 620, 621, 622, 623, 624, 625, 626, 627, 628, 629, 630, 631, 632, 633, 634, 635, 636, 637, 638, 639, 640, 641, 642, 643, 644, 645, 646, 647, 648, 649, 650, 651, 652, 653, 654, 655, 656, 657, 658, 659, 660, 661, 662, 663, 664, 665, 666, 667, 668, 669, 670, 671, 672, 673, 674, 675, 676, 677, 678, 679, 680, 681, 682, 683, 684, 685, 686, 687, 688, 689, 690, 691, 692, 693, 694, 695, 696, 697, 698, 699, 700, 701, 702, 703, 704, 705, 706, 707, 708, 709, 710, 711, 712, 713, 714, 715, 716, 717, 718, 719, 720, 721, 722, 723, 724, 725, 726, 727, 728, 729, 730, 731, 732, 733, 734, 735, 736, 737, 738, 739, 740, 741, 742, 743, 744, 745, 746, 747, 748, 749, 750, 751, 752, 753, 754, 755, 756, 757, 758, 759, 760, 761, 762, 763, 764, 765, 766, 767, 768, 769, 770, 771, 772, 773, 774, 775, 776, 777, 778, 779, 780, 781, 782, 783, 784, 785, 786, 787, 788, 789, 790, 791, 792, 793, 794, 795, 796, 797, 798, 799, 800, 801, 802, 803, 804, 805, 806, 807, 808, 809, 810, 811, 812, 813, 814, 815, 816, 817, 818, 819, 820, 821, 822, 823, 824, 825, 826, 827, 828, 829, 830, 831, 832, 833, 834, 835, 836, 837, 838, 839, 840, 841, 842, 843, 844, 845, 846, 847, 848, 849, 850, 851, 852, 853, 854, 855, 856, 857, 858, 859, 860, 861, 862, 863, 864, 865, 866, 867, 868, 869, 870, 871, 872, 873, 874, 875, 876, 877, 878, 879, 880, 881, 882, 883, 884, 885, 886, 887, 888, 889, 890, 891, 892, 893, 894, 895, 896, 897, 898, 899, 900, 901, 902, 903, 904, 905, 906, 907, 908, 909, 910, 911, 912, 913, 914],
      "AcquisitionTime": ["185355.655000", "185356.115000", "185356.575000", "185357.035000", "185357.495000", "185357.955000", "185358.415000", "185358.875000", "185359.335000", "185359.795000", "185400.255000", "185400.715000", "185401.175000", "185401.635000", "185402.095000", "185402.555000", "185403.015000", "185403.475000", "185403.935000", "185404.395000", "185404.855000", "185405.315000", "185405.775000", "185406.235000", "185406.695000", "185407.155000", "185407.615000", "185408.075000", "185408.535000", "185408.995000", "185409.455000", "185409.915000", "185410.375000", "185410.835000", "185411.295000", "185411.755000", "185412.215000", "185412.675000", "185413.135000", "185413.595000", "185414.055000", "185414.515000", "185414.975000", "185415.435000", "185415.895000", "185416.355000", "185416.815000", "185417.275000", "185417.735000", "185418.195000", "185418.655000", "185419.115000", "185419.575000", "185420.035000", "185420.495000", "185420.955000", "185421.415000", "185421.875000", "185422.335000", "185422.795000", "185423.255000", "185423.715000", "185424.175000", "185424.635000", "185425.095000", "185425.555000", "185426.015000", "185426.475000", "185426.935000", "185427.395000", "185427.855000", "185428.315000", "185428.775000", "185429.235000", "185429.695000", "185430.155000", "185430.615000", "185431.075000", "185431.535000", "185431.995000", "185432.455000", "185432.915000", "185433.375000", "185433.835000", "185434.295000", "185434.755000", "185435.215000", "185435.675000", "185436.135000", "185436.595000", "185437.055000", "185437.515000", "185437.975000", "185438.435000", "185438.895000", "185439.355000", "185439.815000", "185440.275000", "185440.735000", "185441.195000", "185441.655000", "185442.115000", "185442.575000", "185443.035000", "185443.495000", "185443.955000", "185444.415000", "185444.875000", "185445.335000", "185445.795000", "185446.255000", "185446.715000", "185447.175000", "185447.635000", "185448.095000", "185448.555000", "185449.015000", "185449.475000", "185449.935000", "185450.395000", "185450.855000", "185451.315000", "185451.775000", "185452.235000", "185452.695000", "185453.155000", "185453.615000", "185454.075000", "185454.535000", "185454.995000", "185455.455000", "185455.915000", "185456.375000", "185456.835000", "185457.295000", "185457.755000", "185458.215000", "185458.675000", "185459.135000", "185459.595000", "185500.055000", "185500.515000", "185500.975000", "185501.435000", "185501.895000", "185502.355000", "185502.815000", "185503.275000", "185503.735000", "185504.195000", "185504.655000", "185505.115000", "185505.575000", "185506.035000", "185506.495000", "185506.955000", "185507.415000", "185507.875000", "185508.335000", "185508.795000", "185509.255000", "185509.715000", "185510.175000", "185510.635000", "185511.095000", "185511.555000", "185512.015000", "185512.475000", "185512.935000", "185513.395000", "185513.855000", "185514.315000", "185514.775000", "185515.235000", "185515.695000", "185516.155000", "185516.615000", "185517.075000", "185517.535000", "185517.995000", "185518.455000", "185518.915000", "185519.375000", "185519.835000", "185520.295000", "185520.755000", "185521.215000", "185521.675000", "185522.135000", "185522.595000", "185523.055000", "185523.515000", "185523.975000", "185524.435000", "185524.895000", "185525.355000", "185525.815000", "185526.275000", "185526.735000", "185527.195000", "185527.655000", "185528.115000", "185528.575000", "185529.035000", "185529.495000", "185529.955000", "185530.415000", "185530.875000", "185531.335000", "185531.795000", "185532.255000", "185532.715000", "185533.175000", "185533.635000", "185534.095000", "185534.555000", "185535.015000", "185535.475000", "185535.935000", "185536.395000", "185536.855000", "185537.315000", "185537.775000", "185538.235000", "185538.695000", "185539.155000", "185539.615000", "185540.075000", "185540.535000", "185540.995000", "185541.455000", "185541.915000", "185542.375000", "185542.835000", "185543.295000", "185543.755000", "185544.215000", "185544.675000", "185545.135000", "185545.595000", "185546.055000", "185546.515000", "185546.975000", "185547.435000", "185547.895000", "185548.355000", "185548.815000", "185549.275000", "185549.735000", "185550.195000", "185550.655000", "185551.115000", "185551.575000", "185552.035000", "185552.495000", "185552.955000", "185553.415000", "185553.875000", "185554.335000", "185554.795000", "185555.255000", "185555.715000", "185556.175000", "185556.635000", "185557.095000", "185557.555000", "185558.015000", "185558.475000", "185558.935000", "185559.395000", "185559.855000", "185600.315000", "185600.775000", "185601.235000", "185601.695000", "185602.155000", "185602.615000", "185603.075000", "185603.535000", "185603.995000", "185604.455000", "185604.915000", "185605.375000", "185605.835000", "185606.295000", "185606.755000", "185607.215000", "185607.675000", "185608.135000", "185608.595000", "185609.055000", "185609.515000", "185609.975000", "185610.435000", "185610.895000", "185611.355000", "185611.815000", "185612.275000", "185612.735000", "185613.195000", "185613.655000", "185614.115000", "185614.575000", "185615.035000", "185615.495000", "185615.955000", "185616.415000", "185616.875000", "185617.335000", "185617.795000", "185618.255000", "185618.715000", "185619.175000", "185619.635000", "185620.095000", "185620.555000", "185621.015000", "185621.475000", "185621.935000", "185622.395000", "185622.855000", "185623.315000", "185623.775000", "185624.235000", "185624.695000", "185625.155000", "185625.615000", "185626.075000", "185626.535000", "185626.995000", "185627.455000", "185627.915000", "185628.375000", "185628.835000", "185629.295000", "185629.755000", "185630.215000", "185630.675000", "185631.135000", "185631.595000", "185632.055000", "185632.515000", "185632.975000", "185633.435000", "185633.895000", "185634.355000", "185634.815000", "185635.275000", "185635.735000", "185636.195000", "185636.655000", "185637.115000", "185637.575000", "185638.035000", "185638.495000", "185638.955000", "185639.415000", "185639.875000", "185640.335000", "185640.795000", "185641.255000", "185641.715000", "185642.175000", "185642.635000", "185643.095000", "185643.555000", "185644.015000", "185644.475000", "185644.935000", "185645.395000", "185645.855000", "185646.315000", "185646.775000", "185647.235000", "185647.695000", "185648.155000", "185648.615000", "185649.075000", "185649.535000", "185649.995000", "185650.455000", "185650.915000", "185651.375000", "185651.835000", "185652.295000", "185652.755000", "185653.215000", "185653.675000", "185654.135000", "185654.595000", "185655.055000", "185655.515000", "185655.975000", "185656.435000", "185656.895000", "185657.355000", "185657.815000", "185658.275000", "185658.735000", "185659.195000", "185659.655000", "185700.115000", "185700.575000", "185701.035000", "185701.495000", "185701.955000", "185702.415000", "185702.875000", "185703.335000", "185703.795000", "185704.255000", "185704.715000", "185705.175000", "185705.635000", "185706.095000", "185706.555000", "185707.015000", "185707.475000", "185707.935000", "185708.395000", "185708.855000", "185709.315000", "185709.775000", "185710.235000", "185710.695000", "185711.155000", "185711.615000", "185712.075000", "185712.535000", "185712.995000", "185713.455000", "185713.915000", "185714.375000", "185714.835000", "185715.295000", "185715.755000", "185716.215000", "185716.675000", "185717.135000", "185717.595000", "185718.055000", "185718.515000", "185718.975000", "185719.435000", "185719.895000", "185720.355000", "185720.815000", "185721.275000", "185721.735000", "185722.195000", "185722.655000", "185723.115000", "185723.575000", "185724.035000", "185724.495000", "185724.955000", "185725.415000", "185725.875000", "185726.335000", "185726.795000", "185727.255000", "185727.715000", "185728.175000", "185728.635000", "185729.095000", "185729.555000", "185730.015000", "185730.475000", "185730.935000", "185731.395000", "185731.855000", "185732.315000", "185732.775000", "185733.235000", "185733.695000", "185734.155000", "185734.615000", "185735.075000", "185735.535000", "185735.995000", "185736.455000", "185736.915000", "185737.375000", "185737.835000", "185738.295000", "185738.755000", "185739.215000", "185739.675000", "185740.135000", "185740.595000", "185741.055000", "185741.515000", "185741.975000", "185742.435000", "185742.895000", "185743.355000", "185743.815000", "185744.275000", "185744.735000", "185745.195000", "185745.655000", "185746.115000", "185746.575000", "185747.035000", "185747.495000", "185747.955000", "185748.415000", "185748.875000", "185749.335000", "185749.795000", "185750.255000", "185750.715000", "185751.175000", "185751.635000", "185752.095000", "185752.555000", "185753.015000", "185753.475000", "185753.935000", "185754.395000", "185754.855000", "185755.315000", "185755.775000", "185756.235000", "185756.695000", "185757.155000", "185757.615000", "185758.075000", "185758.535000", "185758.995000", "185759.455000", "185759.915000", "185800.375000", "185800.835000", "185801.295000", "185801.755000", "185802.215000", "185802.675000", "185803.135000", "185803.595000", "185804.055000", "185804.515000", "185804.975000", "185805.435000", "185805.895000", "185806.355000", "185806.815000", "185807.275000", "185807.735000", "185808.195000", "185808.655000", "185809.115000", "185809.575000", "185810.035000", "185810.495000", "185810.955000", "185811.415000", "185811.875000", "185812.335000", "185812.795000", "185813.255000", "185813.715000", "185814.175000", "185814.635000", "185815.095000", "185815.555000", "185816.015000", "185816.475000", "185816.935000", "185817.395000", "185817.855000", "185818.315000", "185818.775000", "185819.235000", "185819.695000", "185820.155000", "185820.615000", "185821.075000", "185821.535000", "185821.995000", "185822.455000", "185822.915000", "185823.375000", "185823.835000", "185824.295000", "185824.755000", "185825.215000", "185825.675000", "185826.135000", "185826.595000", "185827.055000", "185827.515000", "185827.975000", "185828.435000", "185828.895000", "185829.355000", "185829.815000", "185830.275000", "185830.735000", "185831.195000", "185831.655000", "185832.115000", "185832.575000", "185833.035000", "185833.495000", "185833.955000", "185834.415000", "185834.875000", "185835.335000", "185835.795000", "185836.255000", "185836.715000", "185837.175000", "185837.635000", "185838.095000", "185838.555000", "185839.015000", "185839.475000", "185839.935000", "185840.395000", "185840.855000", "185841.315000", "185841.775000", "185842.235000", "185842.695000", "185843.155000", "185843.615000", "185844.075000", "185844.535000", "185844.995000", "185845.455000", "185845.915000", "185846.375000", "185846.835000", "185847.295000", "185847.755000", "185848.215000", "185848.675000", "185849.135000", "185849.595000", "185850.055000", "185850.515000", "185850.975000", "185851.435000", "185851.895000", "185852.355000", "185852.815000", "185853.275000", "185853.735000", "185854.195000", "185854.655000", "185855.115000", "185855.575000", "185856.035000", "185856.495000", "185856.955000", "185857.415000", "185857.875000", "185858.335000", "185858.795000", "185859.255000", "185859.715000", "185900.175000", "185900.635000", "185901.095000", "185901.555000", "185902.015000", "185902.475000", "185902.935000", "185903.395000", "185903.855000", "185904.315000", "185904.775000", "185905.235000", "185905.695000", "185906.155000", "185906.615000", "185907.075000", "185907.535000", "185907.995000", "185908.455000", "185908.915000", "185909.375000", "185909.835000", "185910.295000", "185910.755000", "185911.215000", "185911.675000", "185912.135000", "185912.595000", "185913.055000", "185913.515000", "185913.975000", "185914.435000", "185914.895000", "185915.355000", "185915.815000", "185916.275000", "185916.735000", "185917.195000", "185917.655000", "185918.115000", "185918.575000", "185919.035000", "185919.495000", "185919.955000", "185920.415000", "185920.875000", "185921.335000", "185921.795000", "185922.255000", "185922.715000", "185923.175000", "185923.635000", "185924.095000", "185924.555000", "185925.015000", "185925.475000", "185925.935000", "185926.395000", "185926.855000", "185927.315000", "185927.775000", "185928.235000", "185928.695000", "185929.155000", "185929.615000", "185930.075000", "185930.535000", "185930.995000", "185931.455000", "185931.915000", "185932.375000", "185932.835000", "185933.295000", "185933.755000", "185934.215000", "185934.675000", "185935.135000", "185935.595000", "185936.055000", "185936.515000", "185936.975000", "185937.435000", "185937.895000", "185938.355000", "185938.815000", "185939.275000", "185939.735000", "185940.195000", "185940.655000", "185941.115000", "185941.575000", "185942.035000", "185942.495000", "185942.955000", "185943.415000", "185943.875000", "185944.335000", "185944.795000", "185945.255000", "185945.715000", "185946.175000", "185946.635000", "185947.095000", "185947.555000", "185948.015000", "185948.475000", "185948.935000", "185949.395000", "185949.855000", "185950.315000", "185950.775000", "185951.235000", "185951.695000", "185952.155000", "185952.615000", "185953.075000", "185953.535000", "185953.995000", "185954.455000", "185954.915000", "185955.375000", "185955.835000", "185956.295000", "185956.755000", "185957.215000", "185957.675000", "185958.135000", "185958.595000", "185959.055000", "185959.515000", "185959.975000", "190000.435000", "190000.895000", "190001.355000", "190001.815000", "190002.275000", "190002.735000", "190003.195000", "190003.655000", "190004.115000", "190004.575000", "190005.035000", "190005.495000", "190005.955000", "190006.415000", "190006.875000", "190007.335000", "190007.795000", "190008.255000", "190008.715000", "190009.175000", "190009.635000", "190010.095000", "190010.555000", "190011.015000", "190011.475000", "190011.935000", "190012.395000", "190012.855000", "190013.315000", "190013.775000", "190014.235000", "190014.695000", "190015.155000", "190015.615000", "190016.075000", "190016.535000", "190016.995000", "190017.455000", "190017.915000", "190018.375000", "190018.835000", "190019.295000", "190019.755000", "190020.215000", "190020.675000", "190021.135000", "190021.595000", "190022.055000", "190022.515000", "190022.975000", "190023.435000", "190023.895000", "190024.355000", "190024.815000", "190025.275000", "190025.735000", "190026.195000", "190026.655000", "190027.115000", "190027.575000", "190028.035000", "190028.495000", "190028.955000", "190029.415000", "190029.875000", "190030.335000", "190030.795000", "190031.255000", "190031.715000", "190032.175000", "190032.635000", "190033.095000", "190033.555000", "190034.015000", "190034.475000", "190034.935000", "190035.395000", "190035.855000", "190036.315000", "190036.775000", "190037.235000", "190037.695000", "190038.155000", "190038.615000", "190039.075000", "190039.535000", "190039.995000", "190040.455000", "190040.915000", "190041.375000", "190041.835000", "190042.295000", "190042.755000", "190043.215000", "190043.675000", "190044.135000", "190044.595000", "190045.055000", "190045.515000", "190045.975000", "190046.435000", "190046.895000", "190047.355000", "190047.815000", "190048.275000", "190048.735000", "190049.195000", "190049.655000", "190050.115000", "190050.575000", "190051.035000", "190051.495000", "190051.955000", "190052.415000", "190052.875000", "190053.335000", "190053.795000", "190054.255000", "190054.715000", "190055.175000", "190055.635000"],
