{
  "AcquisitionMatrixPE": 82,
  "AcquisitionNumber": 1,
  "AcquisitionTime": "19:04:32.787500",
  "BandwidthPerPixelPhaseEncode": 24.888,
  "BaseResolution": 82,
  "BodyPartExamined": "BRAIN",
  "ConsistencyInfo": "N4_VE11E_LATEST_20181129",
  "ConversionSoftware": "dcm2niix",
  "ConversionSoftwareVersion": "v1.0.20201102",
  "DerivedVendorReportedEchoSpacing": 0.00049,
  "DeviceSerialNumber": "66112",
  "DwellTime": 2e-06,
  "EchoTime": 0.0272,
  "EchoTrainLength": 82,
  "EffectiveEchoSpacing": 0.00049,
  "FlipAngle": 44,
  "ImageComments": "Unaliased MB8/PE3",
  "ImageOrientationPatientDICOM": [0.999764, 0.0138395, 0.016766, -0.00959738, 0.972948, -0.230825],
  "ImageType": [
    "ORIGINAL",
    "PRIMARY",
    "M",
    "MB",
    "ND",
    "NORM",
    "MOSAIC"
],
  "ImagingFrequency": 123.252,
  "InPlanePhaseEncodingDirectionDICOM": "COL",
  "InstitutionAddress": "Maynard 3,Hanover,NH,US,03755",
  "InstitutionName": "Dartmouth College - PBS",
  "InstitutionalDepartmentName": "Department",
  "MRAcquisitionType": "2D",
  "MagneticFieldStrength": 3,
  "Manufacturer": "Siemens",
  "ManufacturersModelName": "Prisma",
  "Modality": "MR",
  "MultibandAccelerationFactor": 8,
  "PartialFourier": 1,
  "PatientPosition": "HFS",
  "PercentPhaseFOV": 100,
  "PercentSampling": 100,
  "PhaseEncodingDirection": "j-",
  "PhaseEncodingSteps": 82,
  "PhaseResolution": 1,
  "PixelBandwidth": 3050,
  "ProcedureStepDescription": "Wager_Wager^1076_spacetop",
  "ProtocolName": "func_run-03_task-faces_acq-ap-mb8",
  "PulseSequenceDetails": "%CustomerSeq%\\cmrr_mbep2d_bold",
  "ReceiveCoilActiveElements": "HEA;HEP",
  "ReceiveCoilName": "Head_32",
  "ReconMatrixPE": 82,
  "RepetitionTime": 0.46,
  "SAR": 0.120521,
  "ScanOptions": "FS",
  "ScanningSequence": "EP",
  "SequenceName": "epfid2d1_82",
  "SequenceVariant": "SK\\SS",
  "SeriesDescription": "func_run-03_task-faces_acq-ap-mb8",
  "SeriesNumber": 20,
  "ShimSetting": [4141, -7701, -7225, 557, -62, -156, -101, 83],
  "SliceThickness": 2.7,
  "SliceTiming": [0, 0.2525, 0.0625, 0.315, 0.125, 0.3775, 0.1875, 0, 0.2525, 0.0625, 0.315, 0.125, 0.3775, 0.1875, 0, 0.2525, 0.0625, 0.315, 0.125, 0.3775, 0.1875, 0, 0.2525, 0.0625, 0.315, 0.125, 0.3775, 0.1875, 0, 0.2525, 0.0625, 0.315, 0.125, 0.3775, 0.1875, 0, 0.2525, 0.0625, 0.315, 0.125, 0.3775, 0.1875, 0, 0.2525, 0.0625, 0.315, 0.125, 0.3775, 0.1875, 0, 0.2525, 0.0625, 0.315, 0.125, 0.3775, 0.1875],
  "SoftwareVersions": "syngo MR E11",
  "SpacingBetweenSlices": 2.7,
  "StationName": "AWP66112",
  "TaskName": "faces",
  "TotalReadoutTime": 0.03969,
  "TxRefAmp": 271.759,
  "WipMemBlock": "14308508-bf71-4d2a-aded-96f4b315c01f||Sequence: R016 ve11e/master r/434b28f1; Aug  7 2019 18:53:46 by eja",
  "dcmmeta_affine": [
    [-2.6822926998138428, -0.02574906498193741, 0.05266882851719856, 112.7123031616211],
    [-0.03713040426373482, 2.6103482246398926, -0.6226456761360168, -74.4144515991211],
    [0.04498201608657837, 0.6192865371704102, 2.626697301864624, -87.26700592041016],
    [0.0, 0.0, 0.0, 1.0]
],
  "dcmmeta_reorient_transform": [
    [0.0, -1.0, 0.0, 81.0],
    [1.0, 0.0, 0.0, 0.0],
    [0.0, 0.0, 1.0, 0.0],
    [0.0, 0.0, 0.0, 1.0]
],
  "dcmmeta_shape": [82, 82, 56, 914],
  "dcmmeta_slice_dim": 2,
  "dcmmeta_version": 0.6,
  "global": {
    "const": {
      "AccessionNumber": "A004228",
      "AcquisitionMatrix": [82, 0, 0, 82],
      "AngioFlag": "N",
      "BitsAllocated": 16,
      "BitsStored": 16,
      "BodyPartExamined": "BRAIN",
      "Columns": 656,
      "EchoNumbers": 1,
      "EchoTime": 27.2,
      "EchoTrainLength": 82,
      "FlipAngle": 44.0,
      "HighBit": 15,
      "ImageOrientationPatient": [0.99976365621035, 0.01383951461981, 0.01676602385773, -0.0095973786963, 0.97294795425153, -0.2308249740386],
      "ImagePositionPatient": [-873.05468134015, -896.85012801499, 127.72059738615],
      "ImageType": [
        "ORIGINAL",
        "PRIMARY",
        "M",
        "MB",
        "ND",
        "NORM",
        "MOSAIC"
],
      "ImagedNucleus": "1H",
      "ImagingFrequency": 123.252184,
      "InPlanePhaseEncodingDirection": "COL",
      "MRAcquisitionType": "2D",
      "MagneticFieldStrength": 3.0,
      "Manufacturer": "SIEMENS",
      "ManufacturerModelName": "Prisma",
      "Modality": "MR",
      "NumberOfAverages": 1.0,
      "NumberOfPhaseEncodingSteps": 82,
      "PercentPhaseFieldOfView": 100.0,
      "PercentSampling": 100.0,
      "PerformedProcedureStepStartTime": "172953.254000",
      "PhotometricInterpretation": "MONOCHROME2",
      "PixelBandwidth": 3050.0,
      "PixelRepresentation": 0,
      "PixelSpacing": [2.6829268932343, 2.6829268932343],
      "ProtocolName": "func_run-03_task-faces_acq-ap-mb8",
      "RepetitionTime": 460.0,
      "Rows": 656,
      "SAR": 0.12052086989561,
      "SamplesPerPixel": 1,
      "ScanOptions": "FS",
      "ScanningSequence": "EP",
      "SequenceName": "epfid2d1_82",
      "SequenceVariant": [
        "SK",
        "SS"
],
      "SeriesDescription": "func_run-03_task-faces_acq-ap-mb8",
      "SeriesNumber": 20,
      "SeriesTime": "190450.774000",
      "SliceLocation": -65.538424699026,
      "SliceThickness": 2.7000000476837,
      "SmallestImagePixelValue": 0,
      "SoftwareVersions": "syngo MR E11",
      "SpacingBetweenSlices": 2.6999999642151,
      "SpecificCharacterSet": "ISO_IR 100",
      "StudyID": "3",
      "StudyTime": "172953.171000",
      "TransmitCoilName": "Body",
      "VariableFlipAngleFlag": "N",
      "WindowCenterWidthExplanation": "Algo1"
    },
    "slices": {}
  },
  "time": {
    "samples": {
      "AcquisitionNumber": [1, 2, 3, 4, 5, 6, 7, 8, 9, 10, 11, 12, 13, 14, 15, 16, 17, 18, 19, 20, 21, 22, 23, 24, 25, 26, 27, 28, 29, 30, 31, 32, 33, 34, 35, 36, 37, 38, 39, 40, 41, 42, 43, 44, 45, 46, 47, 48, 49, 50, 51, 52, 53, 54, 55, 56, 57, 58, 59, 60, 61, 62, 63, 64, 65, 66, 67, 68, 69, 70, 71, 72, 73, 74, 75, 76, 77, 78, 79, 80, 81, 82, 83, 84, 85, 86, 87, 88, 89, 90, 91, 92, 93, 94, 95, 96, 97, 98, 99, 100, 101, 102, 103, 104, 105, 106, 107, 108, 109, 110, 111, 112, 113, 114, 115, 116, 117, 118, 119, 120, 121, 122, 123, 124, 125, 126, 127, 128, 129, 130, 131, 132, 133, 134, 135, 136, 137, 138, 139, 140, 141, 142, 143, 144, 145, 146, 147, 148, 149, 150, 151, 152, 153, 154, 155, 156, 157, 158, 159, 160, 161, 162, 163, 164, 165, 166, 167, 168, 169, 170, 171, 172, 173, 174, 175, 176, 177, 178, 179, 180, 181, 182, 183, 184, 185, 186, 187, 188, 189, 190, 191, 192, 193, 194, 195, 196, 197, 198, 199, 200, 201, 202, 203, 204, 205, 206, 207, 208, 209, 210, 211, 212, 213, 214, 215, 216, 217, 218, 219, 220, 221, 222, 223, 224, 225, 226, 227, 228, 229, 230, 231, 232, 233, 234, 235, 236, 237, 238, 239, 240, 241, 242, 243, 244, 245, 246, 247, 248, 249, 250, 251, 252, 253, 254, 255, 256, 257, 258, 259, 260, 261, 262, 263, 264, 265, 266, 267, 268, 269, 270, 271, 272, 273, 274, 275, 276, 277, 278, 279, 280, 281, 282, 283, 284, 285, 286, 287, 288, 289, 290, 291, 292, 293, 294, 295, 296, 297, 298, 299, 300, 301, 302, 303, 304, 305, 306, 307, 308, 309, 310, 311, 312, 313, 314, 315, 316, 317, 318, 319, 320, 321, 322, 323, 324, 325, 326, 327, 328, 329, 330, 331, 332, 333, 334, 335, 336, 337, 338, 339, 340, 341, 342, 343, 344, 345, 346, 347, 348, 349, 350, 351, 352, 353, 354, 355, 356, 357, 358, 359, 360, 361, 362, 363, 364, 365, 366, 367, 368, 369, 370, 371, 372, 373, 374, 375, 376, 377, 378, 379, 380, 381, 382, 383, 384, 385, 386, 387, 388, 389, 390, 391, 392, 393, 394, 395, 396, 397, 398, 399, 400, 401, 402, 403, 404, 405, 406, 407, 408, 409, 410, 411, 412, 413, 414, 415, 416, 417, 418, 419, 420, 421, 422, 423, 424, 425, 426, 427, 428, 429, 430, 431, 432, 433, 434, 435, 436, 437, 438, 439, 440, 441, 442, 443, 444, 445, 446, 447, 448, 449, 450, 451, 452, 453, 454, 455, 456, 457, 458, 459, 460, 461, 462, 463, 464, 465, 466, 467, 468, 469, 470, 471, 472, 473, 474, 475, 476, 477, 478, 479, 480, 481, 482, 483, 484, 485, 486, 487, 488, 489, 490, 491, 492, 493, 494, 495, 496, 497, 498, 499, 500, 501, 502, 503, 504, 505, 506, 507, 508, 509, 510, 511, 512, 513, 514, 515, 516, 517, 518, 519, 520, 521, 522, 523, 524, 525, 526, 527, 528, 529, 530, 531, 532, 533, 534, 535, 536, 537, 538, 539, 540, 541, 542, 543, 544, 545, 546, 547, 548, 549, 550, 551, 552, 553, 554, 555, 556, 557, 558, 559, 560, 561, 562, 563, 564, 565, 566, 567, 568, 569, 570, 571, 572, 573, 574, 575, 576, 577, 578, 579, 580, 581, 582, 583, 584, 585, 586, 587, 588, 589, 590, 591, 592, 593, 594, 595, 596, 597, 598, 599, 600, 601, 602, 603, 604, 605, 606, 607, 608, 609, 610, 611, 612, 613, 614, 615, 616, 617, 618, 619, 620, 621, 622, 623, 624, 625, 626, 627, 628, 629, 630, 631, 632, 633, 634, 635, 636, 637, 638, 639, 640, 641, 642, 643, 644, 645, 646, 647, 648, 649, 650, 651, 652, 653, 654, 655, 656, 657, 658, 659, 660, 661, 662, 663, 664, 665, 666, 667, 668, 669, 670, 671, 672, 673, 674, 675, 676, 677, 678, 679, 680, 681, 682, 683, 684, 685, 686, 687, 688, 689, 690, 691, 692, 693, 694, 695, 696, 697, 698, 699, 700, 701, 702, 703, 704, 705, 706, 707, 708, 709, 710, 711, 712, 713, 714, 715, 716, 717, 718, 719, 720, 721, 722, 723, 724, 725, 726, 727, 728, 729, 730, 731, 732, 733, 734, 735, 736, 737, 738, 739, 740, 741, 742, 743, 744, 745, 746, 747, 748, 749, 750, 751, 752, 753, 754, 755, 756, 757, 758, 759, 760, 761, 762, 763, 764, 765, 766, 767, 768, 769, 770, 771, 772, 773, 774, 775, 776, 777, 778, 779, 780, 781, 782, 783, 784, 785, 786, 787, 788, 789, 790, 791, 792, 793, 794, 795, 796, 797, 798, 799, 800, 801, 802, 803, 804, 805, 806, 807, 808, 809, 810, 811, 812, 813, 814, 815, 816, 817, 818, 819, 820, 821, 822, 823, 824, 825, 826, 827, 828, 829, 830, 831, 832, 833, 834, 835, 836, 837, 838, 839, 840, 841, 842, 843, 844, 845, 846, 847, 848, 849, 850, 851, 852, 853, 854, 855, 856, 857, 858, 859, 860, 861, 862, 863, 864, 865, 866, 867, 868, 869, 870, 871, 872, 873, 874, 875, 876, 877, 878, 879, 880, 881, 882, 883, 884, 885, 886, 887, 888, 889, 890, 891, 892, 893, 894, 895, 896, 897, 898, 899, 900, 901, 902, 903, 904, 905, 906, 907, 908, 909, 910, 911, 912, 913, 914],
      "AcquisitionTime": ["190432.787500", "190433.247500", "190433.707500", "190434.167500", "190434.627500", "190435.087500", "190435.547500", "190436.007500", "190436.467500", "190436.927500", "190437.387500", "190437.847500", "190438.307500", "190438.767500", "190439.227500", "190439.687500", "190440.147500", "190440.607500", "190441.067500", "190441.527500", "190441.987500", "190442.447500", "190442.907500", "190443.367500", "190443.827500", "190444.287500", "190444.747500", "190445.207500", "190445.667500", "190446.127500", "190446.587500", "190447.047500", "190447.507500", "190447.967500", "190448.427500", "190448.887500", "190449.347500", "190449.807500", "190450.267500", "190450.727500", "190451.187500", "190451.647500", "190452.107500", "190452.567500", "190453.027500", "190453.487500", "190453.947500", "190454.407500", "190454.867500", "190455.327500", "190455.787500", "190456.247500", "190456.707500", "190457.167500", "190457.627500", "190458.087500", "190458.547500", "190459.007500", "190459.467500", "190459.927500", "190500.387500", "190500.847500", "190501.307500", "190501.767500", "190502.227500", "190502.687500", "190503.147500", "190503.607500", "190504.067500", "190504.527500", "190504.987500", "190505.447500", "190505.907500", "190506.367500", "190506.827500", "190507.287500", "190507.747500", "190508.207500", "190508.667500", "190509.127500", "190509.587500", "190510.047500", "190510.507500", "190510.967500", "190511.427500", "190511.887500", "190512.347500", "190512.807500", "190513.267500", "190513.727500", "190514.187500", "190514.647500", "190515.107500", "190515.567500", "190516.027500", "190516.487500", "190516.947500", "190517.407500", "190517.867500", "190518.327500", "190518.787500", "190519.247500", "190519.707500", "190520.167500", "190520.627500", "190521.087500", "190521.547500", "190522.007500", "190522.467500", "190522.927500", "190523.387500", "190523.847500", "190524.307500", "190524.767500", "190525.227500", "190525.687500", "190526.147500", "190526.607500", "190527.067500", "190527.527500", "190527.987500", "190528.447500", "190528.907500", "190529.367500", "190529.827500", "190530.287500", "190530.747500", "190531.207500", "190531.667500", "190532.127500", "190532.587500", "190533.047500", "190533.507500", "190533.967500", "190534.427500", "190534.887500", "190535.347500", "190535.807500", "190536.267500", "190536.727500", "190537.187500", "190537.647500", "190538.107500", "190538.567500", "190539.027500", "190539.487500", "190539.947500", "190540.407500", "190540.867500", "190541.327500", "190541.787500", "190542.247500", "190542.707500", "190543.167500", "190543.627500", "190544.087500", "190544.547500", "190545.007500", "190545.467500", "190545.927500", "190546.387500", "190546.847500", "190547.307500", "190547.767500", "190548.227500", "190548.687500", "190549.147500", "190549.607500", "190550.067500", "190550.527500", "190550.987500", "190551.447500", "190551.907500", "190552.367500", "190552.827500", "190553.287500", "190553.747500", "190554.207500", "190554.667500", "190555.127500", "190555.587500", "190556.047500", "190556.507500", "190556.967500", "190557.427500", "190557.887500", "190558.347500", "190558.807500", "190559.267500", "190559.727500", "190600.187500", "190600.647500", "190601.107500", "190601.567500", "190602.027500", "190602.487500", "190602.947500", "190603.407500", "190603.867500", "190604.327500", "190604.787500", "190605.247500", "190605.707500", "190606.167500", "190606.627500", "190607.087500", "190607.547500", "190608.007500", "190608.467500", "190608.927500", "190609.387500", "190609.847500", "190610.307500", "190610.767500", "190611.227500", "190611.687500", "190612.147500", "190612.607500", "190613.067500", "190613.527500", "190613.987500", "190614.447500", "190614.907500", "190615.367500", "190615.827500", "190616.287500", "190616.747500", "190617.207500", "190617.667500", "190618.127500", "190618.587500", "190619.047500", "190619.507500", "190619.967500", "190620.427500", "190620.887500", "190621.347500", "190621.807500", "190622.267500", "190622.727500", "190623.187500", "190623.647500", "190624.107500", "190624.567500", "190625.027500", "190625.487500", "190625.947500", "190626.407500", "190626.867500", "190627.327500", "190627.787500", "190628.247500", "190628.707500", "190629.167500", "190629.627500", "190630.087500", "190630.547500", "190631.007500", "190631.467500", "190631.927500", "190632.387500", "190632.847500", "190633.307500", "190633.767500", "190634.227500", "190634.687500", "190635.147500", "190635.607500", "190636.067500", "190636.527500", "190636.987500", "190637.447500", "190637.907500", "190638.367500", "190638.827500", "190639.287500", "190639.747500", "190640.207500", "190640.667500", "190641.127500", "190641.587500", "190642.047500", "190642.507500", "190642.967500", "190643.427500", "190643.887500", "190644.347500", "190644.807500", "190645.267500", "190645.727500", "190646.187500", "190646.647500", "190647.107500", "190647.567500", "190648.027500", "190648.487500", "190648.947500", "190649.407500", "190649.867500", "190650.327500", "190650.787500", "190651.247500", "190651.707500", "190652.167500", "190652.627500", "190653.087500", "190653.547500", "190654.007500", "190654.467500", "190654.927500", "190655.387500", "190655.847500", "190656.307500", "190656.767500", "190657.227500", "190657.687500", "190658.147500", "190658.607500", "190659.067500", "190659.527500", "190659.987500", "190700.447500", "190700.907500", "190701.367500", "190701.827500", "190702.287500", "190702.747500", "190703.207500", "190703.667500", "190704.127500", "190704.587500", "190705.047500", "190705.507500", "190705.967500", "190706.427500", "190706.887500", "190707.347500", "190707.807500", "190708.267500", "190708.727500", "190709.187500", "190709.647500", "190710.107500", "190710.567500", "190711.027500", "190711.487500", "190711.947500", "190712.407500", "190712.867500", "190713.327500", "190713.787500", "190714.247500", "190714.707500", "190715.167500", "190715.627500", "190716.087500", "190716.547500", "190717.007500", "190717.467500", "190717.927500", "190718.387500", "190718.847500", "190719.307500", "190719.767500", "190720.227500", "190720.687500", "190721.147500", "190721.607500", "190722.067500", "190722.527500", "190722.987500", "190723.447500", "190723.907500", "190724.367500", "190724.827500", "190725.287500", "190725.747500", "190726.207500", "190726.667500", "190727.127500", "190727.587500", "190728.047500", "190728.507500", "190728.967500", "190729.427500", "190729.887500", "190730.347500", "190730.807500", "190731.267500", "190731.727500", "190732.187500", "190732.647500", "190733.107500", "190733.567500", "190734.027500", "190734.487500", "190734.947500", "190735.407500", "190735.867500", "190736.327500", "190736.787500", "190737.247500", "190737.707500", "190738.167500", "190738.627500", "190739.087500", "190739.547500", "190740.007500", "190740.467500", "190740.927500", "190741.387500", "190741.847500", "190742.307500", "190742.767500", "190743.227500", "190743.687500", "190744.147500", "190744.607500", "190745.067500", "190745.527500", "190745.987500", "190746.447500", "190746.907500", "190747.367500", "190747.827500", "190748.287500", "190748.747500", "190749.207500", "190749.667500", "190750.127500", "190750.587500", "190751.047500", "190751.507500", "190751.967500", "190752.427500", "190752.887500", "190753.347500", "190753.807500", "190754.267500", "190754.727500", "190755.187500", "190755.647500", "190756.107500", "190756.567500", "190757.027500", "190757.487500", "190757.947500", "190758.407500", "190758.867500", "190759.327500", "190759.787500", "190800.247500", "190800.707500", "190801.167500", "190801.627500", "190802.087500", "190802.547500", "190803.007500", "190803.467500", "190803.927500", "190804.387500", "190804.847500", "190805.307500", "190805.767500", "190806.227500", "190806.687500", "190807.147500", "190807.607500", "190808.067500", "190808.527500", "190808.987500", "190809.447500", "190809.907500", "190810.367500", "190810.827500", "190811.287500", "190811.747500", "190812.207500", "190812.667500", "190813.127500", "190813.587500", "190814.047500", "190814.507500", "190814.967500", "190815.427500", "190815.887500", "190816.347500", "190816.807500", "190817.267500", "190817.727500", "190818.187500", "190818.647500", "190819.107500", "190819.567500", "190820.027500", "190820.487500", "190820.947500", "190821.407500", "190821.867500", "190822.327500", "190822.787500", "190823.247500", "190823.707500", "190824.167500", "190824.627500", "190825.087500", "190825.547500", "190826.007500", "190826.467500", "190826.927500", "190827.387500", "190827.847500", "190828.307500", "190828.767500", "190829.227500", "190829.687500", "190830.147500", "190830.607500", "190831.067500", "190831.527500", "190831.987500", "190832.447500", "190832.907500", "190833.367500", "190833.827500", "190834.287500", "190834.747500", "190835.207500", "190835.667500", "190836.127500", "190836.587500", "190837.047500", "190837.507500", "190837.967500", "190838.427500", "190838.887500", "190839.347500", "190839.807500", "190840.267500", "190840.727500", "190841.187500", "190841.647500", "190842.107500", "190842.567500", "190843.027500", "190843.487500", "190843.947500", "190844.407500", "190844.867500", "190845.327500", "190845.787500", "190846.247500", "190846.707500", "190847.167500", "190847.627500", "190848.087500", "190848.547500", "190849.007500", "190849.467500", "190849.927500", "190850.387500", "190850.847500", "190851.307500", "190851.767500", "190852.227500", "190852.687500", "190853.147500", "190853.607500", "190854.067500", "190854.527500", "190854.987500", "190855.447500", "190855.907500", "190856.367500", "190856.827500", "190857.287500", "190857.747500", "190858.207500", "190858.667500", "190859.127500", "190859.587500", "190900.047500", "190900.507500", "190900.967500", "190901.427500", "190901.887500", "190902.347500", "190902.807500", "190903.267500", "190903.727500", "190904.187500", "190904.647500", "190905.107500", "190905.567500", "190906.027500", "190906.487500", "190906.947500", "190907.407500", "190907.867500", "190908.327500", "190908.787500", "190909.247500", "190909.707500", "190910.167500", "190910.627500", "190911.087500", "190911.547500", "190912.007500", "190912.467500", "190912.927500", "190913.387500", "190913.847500", "190914.307500", "190914.767500", "190915.227500", "190915.687500", "190916.147500", "190916.607500", "190917.067500", "190917.527500", "190917.987500", "190918.447500", "190918.907500", "190919.367500", "190919.827500", "190920.287500", "190920.747500", "190921.207500", "190921.667500", "190922.127500", "190922.587500", "190923.047500", "190923.507500", "190923.967500", "190924.427500", "190924.887500", "190925.347500", "190925.807500", "190926.267500", "190926.727500", "190927.187500", "190927.647500", "190928.107500", "190928.567500", "190929.027500", "190929.487500", "190929.947500", "190930.407500", "190930.867500", "190931.327500", "190931.787500", "190932.247500", "190932.707500", "190933.167500", "190933.627500", "190934.087500", "190934.547500", "190935.007500", "190935.467500", "190935.927500", "190936.387500", "190936.847500", "190937.307500", "190937.767500", "190938.227500", "190938.687500", "190939.147500", "190939.607500", "190940.067500", "190940.527500", "190940.987500", "190941.447500", "190941.907500", "190942.367500", "190942.827500", "190943.287500", "190943.747500", "190944.207500", "190944.667500", "190945.127500", "190945.587500", "190946.047500", "190946.507500", "190946.967500", "190947.427500", "190947.887500", "190948.347500", "190948.807500", "190949.267500", "190949.727500", "190950.187500", "190950.647500", "190951.107500", "190951.567500", "190952.027500", "190952.487500", "190952.947500", "190953.407500", "190953.867500", "190954.327500", "190954.787500", "190955.247500", "190955.707500", "190956.167500", "190956.627500", "190957.087500", "190957.547500", "190958.007500", "190958.467500", "190958.927500", "190959.387500", "190959.847500", "191000.307500", "191000.767500", "191001.227500", "191001.687500", "191002.147500", "191002.607500", "191003.067500", "191003.527500", "191003.987500", "191004.447500", "191004.907500", "191005.367500", "191005.827500", "191006.287500", "191006.747500", "191007.207500", "191007.667500", "191008.127500", "191008.587500", "191009.047500", "191009.507500", "191009.967500", "191010.427500", "191010.887500", "191011.347500", "191011.807500", "191012.267500", "191012.727500", "191013.187500", "191013.647500", "191014.107500", "191014.567500", "191015.027500", "191015.487500", "191015.947500", "191016.407500", "191016.867500", "191017.327500", "191017.787500", "191018.247500", "191018.707500", "191019.167500", "191019.627500", "191020.087500", "191020.547500", "191021.007500", "191021.467500", "191021.927500", "191022.387500", "191022.847500", "191023.307500", "191023.767500", "191024.227500", "191024.687500", "191025.147500", "191025.607500", "191026.067500", "191026.527500", "191026.987500", "191027.447500", "191027.907500", "191028.367500", "191028.827500", "191029.287500", "191029.747500", "191030.207500", "191030.667500", "191031.127500", "191031.587500", "191032.047500", "191032.507500", "191032.967500", "191033.427500", "191033.887500", "191034.347500", "191034.807500", "191035.267500", "191035.727500", "191036.187500", "191036.647500", "191037.107500", "191037.567500", "191038.027500", "191038.487500", "191038.947500", "191039.407500", "191039.867500", "191040.327500", "191040.787500", "191041.247500", "191041.707500", "191042.167500", "191042.627500", "191043.087500", "191043.547500", "191044.007500", "191044.467500", "191044.927500", "191045.387500", "191045.847500", "191046.307500", "191046.767500", "191047.227500", "191047.687500", "191048.147500", "191048.607500", "191049.067500", "191049.527500", "191049.987500", "191050.447500", "191050.907500", "191051.367500", "191051.827500", "191052.287500", "191052.747500", "191053.207500", "191053.667500", "191054.127500", "191054.587500", "191055.047500", "191055.507500", "191055.967500", "191056.427500", "191056.887500", "191057.347500", "191057.807500", "191058.267500", "191058.727500", "191059.187500", "191059.647500", "191100.107500", "191100.567500", "191101.027500", "191101.487500", "191101.947500", "191102.407500", "191102.867500", "191103.327500", "191103.787500", "191104.247500", "191104.707500", "191105.167500", "191105.627500", "191106.087500", "191106.547500", "191107.007500", "191107.467500", "191107.927500", "191108.387500", "191108.847500", "191109.307500", "191109.767500", "191110.227500", "191110.687500", "191111.147500", "191111.607500", "191112.067500", "191112.527500", "191112.987500", "191113.447500", "191113.907500", "191114.367500", "191114.827500", "191115.287500", "191115.747500", "191116.207500", "191116.667500", "191117.127500", "191117.587500", "191118.047500", "191118.507500", "191118.967500", "191119.427500", "191119.887500", "191120.347500", "191120.807500", "191121.267500", "191121.727500", "191122.187500", "191122.647500", "191123.107500", "191123.567500", "191124.027500", "191124.487500", "191124.947500", "191125.407500", "191125.867500", "191126.327500", "191126.787500", "191127.247500", "191127.707500", "191128.167500", "191128.627500", "191129.087500", "191129.547500", "191130.007500", "191130.467500", "191130.927500", "191131.387500", "191131.847500", "191132.307500", "191132.767500"],
