{
  "AcquisitionMatrixPE": 82,
  "AcquisitionNumber": 1,
  "AcquisitionTime": "19:16:2.880000",
  "BandwidthPerPixelPhaseEncode": 24.888,
  "BaseResolution": 82,
  "BodyPartExamined": "BRAIN",
  "ConsistencyInfo": "N4_VE11E_LATEST_20181129",
  "ConversionSoftware": "dcm2niix",
  "ConversionSoftwareVersion": "v1.0.20201102",
  "DerivedVendorReportedEchoSpacing": 0.00049,
  "DeviceSerialNumber": "66112",
  "DwellTime": 2e-06,
  "EchoTime": 0.0272,
  "EchoTrainLength": 82,
  "EffectiveEchoSpacing": 0.00049,
  "FlipAngle": 44,
  "ImageComments": "Unaliased MB8/PE3",
  "ImageOrientationPatientDICOM": [0.999928, 0.0119764, -0.000906919, -0.011868, 0.973628, -0.227831],
  "ImageType": [
    "ORIGINAL",
    "PRIMARY",
    "M",
    "MB",
    "ND",
    "NORM",
    "MOSAIC"
],
  "ImagingFrequency": 123.252,
  "InPlanePhaseEncodingDirectionDICOM": "COL",
  "InstitutionAddress": "Maynard 3,Hanover,NH,US,03755",
  "InstitutionName": "Dartmouth College - PBS",
  "InstitutionalDepartmentName": "Department",
  "MRAcquisitionType": "2D",
  "MagneticFieldStrength": 3,
  "Manufacturer": "Siemens",
  "ManufacturersModelName": "Prisma",
  "Modality": "MR",
  "MultibandAccelerationFactor": 8,
  "PartialFourier": 1,
  "PatientPosition": "HFS",
  "PercentPhaseFOV": 100,
  "PercentSampling": 100,
  "PhaseEncodingDirection": "j-",
  "PhaseEncodingSteps": 82,
  "PhaseResolution": 1,
  "PixelBandwidth": 3050,
  "ProcedureStepDescription": "Wager_Wager^1076_spacetop",
  "ProtocolName": "func_run-01_task-alignvideo_acq-ap-mb8",
  "PulseSequenceDetails": "%CustomerSeq%\\cmrr_mbep2d_bold",
  "ReceiveCoilActiveElements": "HEA;HEP",
  "ReceiveCoilName": "Head_32",
  "ReconMatrixPE": 82,
  "RepetitionTime": 0.46,
  "SAR": 0.120457,
  "ScanOptions": "FS",
  "ScanningSequence": "EP",
  "SequenceName": "epfid2d1_82",
  "SequenceVariant": "SK\\SS",
  "SeriesDescription": "func_run-01_task-alignvideo_acq-ap-mb8",
  "SeriesNumber": 28,
  "ShimSetting": [4140, -7701, -7225, 558, -64, -155, -103, 82],
  "SliceThickness": 2.7,
  "SliceTiming": [0, 0.25, 0.0625, 0.3125, 0.125, 0.375, 0.1875, 0, 0.25, 0.0625, 0.3125, 0.125, 0.375, 0.1875, 0, 0.25, 0.0625, 0.3125, 0.125, 0.375, 0.1875, 0, 0.25, 0.0625, 0.3125, 0.125, 0.375, 0.1875, 0, 0.25, 0.0625, 0.3125, 0.125, 0.375, 0.1875, 0, 0.25, 0.0625, 0.3125, 0.125, 0.375, 0.1875, 0, 0.25, 0.0625, 0.3125, 0.125, 0.375, 0.1875, 0, 0.25, 0.0625, 0.3125, 0.125, 0.375, 0.1875],
  "SoftwareVersions": "syngo MR E11",
  "SpacingBetweenSlices": 2.7,
  "StationName": "AWP66112",
  "TaskName": "alignvideo",
  "TotalReadoutTime": 0.03969,
  "TxRefAmp": 271.759,
  "WipMemBlock": "c2804bab-0196-40e2-b76f-885f15334cc1||Sequence: R016 ve11e/master r/434b28f1; Aug  7 2019 18:53:46 by eja",
  "dcmmeta_affine": [
    [-2.6827332973480225, -0.031840983778238297, 0.004983066581189632, 115.74817657470703],
    [-0.03213169053196907, 2.6121737957000732, -0.6151277422904968, -73.24801635742188],
    [-0.00243319827131927, 0.6112532615661621, 2.628990888595581, -84.536376953125],
    [0.0, 0.0, 0.0, 1.0]
],
  "dcmmeta_reorient_transform": [
    [0.0, -1.0, 0.0, 81.0],
    [1.0, 0.0, 0.0, 0.0],
    [0.0, 0.0, 1.0, 0.0],
    [0.0, 0.0, 0.0, 1.0]
],
  "dcmmeta_shape": [82, 82, 56, 839],
  "dcmmeta_slice_dim": 2,
  "dcmmeta_version": 0.6,
  "global": {
    "const": {
      "AccessionNumber": "A004228",
      "AcquisitionMatrix": [82, 0, 0, 82],
      "AngioFlag": "N",
      "BitsAllocated": 16,
      "BitsStored": 16,
      "BodyPartExamined": "BRAIN",
      "Columns": 656,
      "EchoNumbers": 1,
      "EchoTime": 27.2,
      "EchoTrainLength": 82,
      "FlipAngle": 44.0,
      "HighBit": 15,
      "ImageOrientationPatient": [0.99992786957637, 0.01197635761834, -0.0009069193289, -0.0118680022842, 0.97362841810681, -0.2278307573104],
      "ImagePositionPatient": [-873.97517350616, -897.25376262358, 141.10315560301],
      "ImageType": [
        "ORIGINAL",
        "PRIMARY",
        "M",
        "MB",
        "ND",
        "NORM",
        "MOSAIC"
],
      "ImagedNucleus": "1H",
      "ImagingFrequency": 123.252177,
      "InPlanePhaseEncodingDirection": "COL",
      "MRAcquisitionType": "2D",
      "MagneticFieldStrength": 3.0,
      "Manufacturer": "SIEMENS",
      "ManufacturerModelName": "Prisma",
      "Modality": "MR",
      "NumberOfAverages": 1.0,
      "NumberOfPhaseEncodingSteps": 82,
      "PercentPhaseFieldOfView": 100.0,
      "PercentSampling": 100.0,
      "PerformedProcedureStepStartTime": "172953.254000",
      "PhotometricInterpretation": "MONOCHROME2",
      "PixelBandwidth": 3050.0,
      "PixelRepresentation": 0,
      "PixelSpacing": [2.6829268932343, 2.6829268932343],
      "ProtocolName": "func_run-01_task-alignvideo_acq-ap-mb8",
      "RepetitionTime": 460.0,
      "Rows": 656,
      "SAR": 0.12045709231175,
      "SamplesPerPixel": 1,
      "ScanOptions": "FS",
      "ScanningSequence": "EP",
      "SequenceName": "epfid2d1_82",
      "SequenceVariant": [
        "SK",
        "SS"
],
      "SeriesDescription": "func_run-01_task-alignvideo_acq-ap-mb8",
      "SeriesNumber": 28,
      "SeriesTime": "191630.594000",
      "SliceLocation": -65.411736837873,
      "SliceThickness": 2.7000000476837,
      "SmallestImagePixelValue": 0,
      "SoftwareVersions": "syngo MR E11",
      "SpacingBetweenSlices": 2.6999999902002,
      "SpecificCharacterSet": "ISO_IR 100",
      "StudyID": "3",
      "StudyTime": "172953.171000",
      "TransmitCoilName": "Body",
      "VariableFlipAngleFlag": "N",
      "WindowCenterWidthExplanation": "Algo1"
    },
    "slices": {}
  },
  "time": {
    "samples": {
      "AcquisitionNumber": [1, 2, 3, 4, 5, 6, 7, 8, 9, 10, 11, 12, 13, 14, 15, 16, 17, 18, 19, 20, 21, 22, 23, 24, 25, 26, 27, 28, 29, 30, 31, 32, 33, 34, 35, 36, 37, 38, 39, 40, 41, 42, 43, 44, 45, 46, 47, 48, 49, 50, 51, 52, 53, 54, 55, 56, 57, 58, 59, 60, 61, 62, 63, 64, 65, 66, 67, 68, 69, 70, 71, 72, 73, 74, 75, 76, 77, 78, 79, 80, 81, 82, 83, 84, 85, 86, 87, 88, 89, 90, 91, 92, 93, 94, 95, 96, 97, 98, 99, 100, 101, 102, 103, 104, 105, 106, 107, 108, 109, 110, 111, 112, 113, 114, 115, 116, 117, 118, 119, 120, 121, 122, 123, 124, 125, 126, 127, 128, 129, 130, 131, 132, 133, 134, 135, 136, 137, 138, 139, 140, 141, 142, 143, 144, 145, 146, 147, 148, 149, 150, 151, 152, 153, 154, 155, 156, 157, 158, 159, 160, 161, 162, 163, 164, 165, 166, 167, 168, 169, 170, 171, 172, 173, 174, 175, 176, 177, 178, 179, 180, 181, 182, 183, 184, 185, 186, 187, 188, 189, 190, 191, 192, 193, 194, 195, 196, 197, 198, 199, 200, 201, 202, 203, 204, 205, 206, 207, 208, 209, 210, 211, 212, 213, 214, 215, 216, 217, 218, 219, 220, 221, 222, 223, 224, 225, 226, 227, 228, 229, 230, 231, 232, 233, 234, 235, 236, 237, 238, 239, 240, 241, 242, 243, 244, 245, 246, 247, 248, 249, 250, 251, 252, 253, 254, 255, 256, 257, 258, 259, 260, 261, 262, 263, 264, 265, 266, 267, 268, 269, 270, 271, 272, 273, 274, 275, 276, 277, 278, 279, 280, 281, 282, 283, 284, 285, 286, 287, 288, 289, 290, 291, 292, 293, 294, 295, 296, 297, 298, 299, 300, 301, 302, 303, 304, 305, 306, 307, 308, 309, 310, 311, 312, 313, 314, 315, 316, 317, 318, 319, 320, 321, 322, 323, 324, 325, 326, 327, 328, 329, 330, 331, 332, 333, 334, 335, 336, 337, 338, 339, 340, 341, 342, 343, 344, 345, 346, 347, 348, 349, 350, 351, 352, 353, 354, 355, 356, 357, 358, 359, 360, 361, 362, 363, 364, 365, 366, 367, 368, 369, 370, 371, 372, 373, 374, 375, 376, 377, 378, 379, 380, 381, 382, 383, 384, 385, 386, 387, 388, 389, 390, 391, 392, 393, 394, 395, 396, 397, 398, 399, 400, 401, 402, 403, 404, 405, 406, 407, 408, 409, 410, 411, 412, 413, 414, 415, 416, 417, 418, 419, 420, 421, 422, 423, 424, 425, 426, 427, 428, 429, 430, 431, 432, 433, 434, 435, 436, 437, 438, 439, 440, 441, 442, 443, 444, 445, 446, 447, 448, 449, 450, 451, 452, 453, 454, 455, 456, 457, 458, 459, 460, 461, 462, 463, 464, 465, 466, 467, 468, 469, 470, 471, 472, 473, 474, 475, 476, 477, 478, 479, 480, 481, 482, 483, 484, 485, 486, 487, 488, 489, 490, 491, 492, 493, 494, 495, 496, 497, 498, 499, 500, 501, 502, 503, 504, 505, 506, 507, 508, 509, 510, 511, 512, 513, 514, 515, 516, 517, 518, 519, 520, 521, 522, 523, 524, 525, 526, 527, 528, 529, 530, 531, 532, 533, 534, 535, 536, 537, 538, 539, 540, 541, 542, 543, 544, 545, 546, 547, 548, 549, 550, 551, 552, 553, 554, 555, 556, 557, 558, 559, 560, 561, 562, 563, 564, 565, 566, 567, 568, 569, 570, 571, 572, 573, 574, 575, 576, 577, 578, 579, 580, 581, 582, 583, 584, 585, 586, 587, 588, 589, 590, 591, 592, 593, 594, 595, 596, 597, 598, 599, 600, 601, 602, 603, 604, 605, 606, 607, 608, 609, 610, 611, 612, 613, 614, 615, 616, 617, 618, 619, 620, 621, 622, 623, 624, 625, 626, 627, 628, 629, 630, 631, 632, 633, 634, 635, 636, 637, 638, 639, 640, 641, 642, 643, 644, 645, 646, 647, 648, 649, 650, 651, 652, 653, 654, 655, 656, 657, 658, 659, 660, 661, 662, 663, 664, 665, 666, 667, 668, 669, 670, 671, 672, 673, 674, 675, 676, 677, 678, 679, 680, 681, 682, 683, 684, 685, 686, 687, 688, 689, 690, 691, 692, 693, 694, 695, 696, 697, 698, 699, 700, 701, 702, 703, 704, 705, 706, 707, 708, 709, 710, 711, 712, 713, 714, 715, 716, 717, 718, 719, 720, 721, 722, 723, 724, 725, 726, 727, 728, 729, 730, 731, 732, 733, 734, 735, 736, 737, 738, 739, 740, 741, 742, 743, 744, 745, 746, 747, 748, 749, 750, 751, 752, 753, 754, 755, 756, 757, 758, 759, 760, 761, 762, 763, 764, 765, 766, 767, 768, 769, 770, 771, 772, 773, 774, 775, 776, 777, 778, 779, 780, 781, 782, 783, 784, 785, 786, 787, 788, 789, 790, 791, 792, 793, 794, 795, 796, 797, 798, 799, 800, 801, 802, 803, 804, 805, 806, 807, 808, 809, 810, 811, 812, 813, 814, 815, 816, 817, 818, 819, 820, 821, 822, 823, 824, 825, 826, 827, 828, 829, 830, 831, 832, 833, 834, 835, 836, 837, 838, 839],
      "AcquisitionTime": ["191602.880000", "191603.340000", "191603.800000", "191604.260000", "191604.720000", "191605.180000", "191605.640000", "191606.100000", "191606.560000", "191607.020000", "191607.480000", "191607.940000", "191608.400000", "191608.860000", "191609.320000", "191609.780000", "191610.240000", "191610.700000", "191611.160000", "191611.620000", "191612.080000", "191612.540000", "191613.000000", "191613.460000", "191613.920000", "191614.380000", "191614.840000", "191615.300000", "191615.760000", "191616.220000", "191616.680000", "191617.140000", "191617.600000", "191618.060000", "191618.520000", "191618.980000", "191619.440000", "191619.900000", "191620.360000", "191620.820000", "191621.280000", "191621.740000", "191622.200000", "191622.660000", "191623.120000", "191623.580000", "191624.040000", "191624.500000", "191624.960000", "191625.420000", "191625.880000", "191626.340000", "191626.800000", "191627.260000", "191627.720000", "191628.180000", "191628.640000", "191629.100000", "191629.560000", "191630.020000", "191630.480000", "191630.940000", "191631.400000", "191631.860000", "191632.320000", "191632.780000", "191633.240000", "191633.700000", "191634.160000", "191634.620000", "191635.080000", "191635.540000", "191636.000000", "191636.460000", "191636.920000", "191637.380000", "191637.840000", "191638.300000", "191638.760000", "191639.220000", "191639.680000", "191640.140000", "191640.600000", "191641.060000", "191641.520000", "191641.980000", "191642.440000", "191642.900000", "191643.360000", "191643.820000", "191644.280000", "191644.740000", "191645.200000", "191645.660000", "191646.120000", "191646.580000", "191647.040000", "191647.500000", "191647.960000", "191648.420000", "191648.880000", "191649.340000", "191649.800000", "191650.260000", "191650.720000", "191651.180000", "191651.640000", "191652.100000", "191652.560000", "191653.020000", "191653.480000", "191653.940000", "191654.400000", "191654.860000", "191655.320000", "191655.780000", "191656.240000", "191656.700000", "191657.160000", "191657.620000", "191658.080000", "191658.540000", "191659.000000", "191659.460000", "191659.920000", "191700.380000", "191700.840000", "191701.300000", "191701.760000", "191702.220000", "191702.680000", "191703.140000", "191703.600000", "191704.060000", "191704.520000", "191704.980000", "191705.440000", "191705.900000", "191706.360000", "191706.820000", "191707.280000", "191707.740000", "191708.200000", "191708.660000", "191709.120000", "191709.580000", "191710.040000", "191710.500000", "191710.960000", "191711.420000", "191711.880000", "191712.340000", "191712.800000", "191713.260000", "191713.720000", "191714.180000", "191714.640000", "191715.100000", "191715.560000", "191716.020000", "191716.480000", "191716.940000", "191717.400000", "191717.860000", "191718.320000", "191718.780000", "191719.240000", "191719.700000", "191720.160000", "191720.620000", "191721.080000", "191721.540000", "191722.000000", "191722.460000", "191722.920000", "191723.380000", "191723.840000", "191724.300000", "191724.760000", "191725.220000", "191725.680000", "191726.140000", "191726.600000", "191727.060000", "191727.520000", "191727.980000", "191728.440000", "191728.900000", "191729.360000", "191729.820000", "191730.280000", "191730.740000", "191731.200000", "191731.660000", "191732.120000", "191732.580000", "191733.040000", "191733.500000", "191733.960000", "191734.420000", "191734.880000", "191735.340000", "191735.800000", "191736.260000", "191736.720000", "191737.180000", "191737.640000", "191738.100000", "191738.560000", "191739.020000", "191739.480000", "191739.940000", "191740.400000", "191740.860000", "191741.320000", "191741.780000", "191742.240000", "191742.700000", "191743.160000", "191743.620000", "191744.080000", "191744.540000", "191745.000000", "191745.460000", "191745.920000", "191746.380000", "191746.840000", "191747.300000", "191747.760000", "191748.220000", "191748.680000", "191749.140000", "191749.600000", "191750.060000", "191750.520000", "191750.980000", "191751.440000", "191751.900000", "191752.360000", "191752.820000", "191753.280000", "191753.740000", "191754.200000", "191754.660000", "191755.120000", "191755.580000", "191756.040000", "191756.500000", "191756.960000", "191757.420000", "191757.880000", "191758.340000", "191758.800000", "191759.260000", "191759.720000", "191800.180000", "191800.640000", "191801.100000", "191801.560000", "191802.020000", "191802.480000", "191802.940000", "191803.400000", "191803.860000", "191804.320000", "191804.780000", "191805.240000", "191805.700000", "191806.160000", "191806.620000", "191807.080000", "191807.540000", "191808.000000", "191808.460000", "191808.920000", "191809.380000", "191809.840000", "191810.300000", "191810.760000", "191811.220000", "191811.680000", "191812.140000", "191812.600000", "191813.060000", "191813.520000", "191813.980000", "191814.440000", "191814.900000", "191815.360000", "191815.820000", "191816.280000", "191816.740000", "191817.200000", "191817.660000", "191818.120000", "191818.580000", "191819.040000", "191819.500000", "191819.960000", "191820.420000", "191820.880000", "191821.340000", "191821.800000", "191822.260000", "191822.720000", "191823.180000", "191823.640000", "191824.100000", "191824.560000", "191825.020000", "191825.480000", "191825.940000", "191826.400000", "191826.860000", "191827.320000", "191827.780000", "191828.240000", "191828.700000", "191829.160000", "191829.620000", "191830.080000", "191830.540000", "191831.000000", "191831.460000", "191831.920000", "191832.380000", "191832.840000", "191833.300000", "191833.760000", "191834.220000", "191834.680000", "191835.140000", "191835.600000", "191836.060000", "191836.520000", "191836.980000", "191837.440000", "191837.900000", "191838.360000", "191838.820000", "191839.280000", "191839.740000", "191840.200000", "191840.660000", "191841.120000", "191841.580000", "191842.040000", "191842.500000", "191842.960000", "191843.420000", "191843.880000", "191844.340000", "191844.800000", "191845.260000", "191845.720000", "191846.180000", "191846.640000", "191847.100000", "191847.560000", "191848.020000", "191848.480000", "191848.940000", "191849.400000", "191849.860000", "191850.320000", "191850.780000", "191851.240000", "191851.700000", "191852.160000", "191852.620000", "191853.080000", "191853.540000", "191854.000000", "191854.460000", "191854.920000", "191855.380000", "191855.840000", "191856.300000", "191856.760000", "191857.220000", "191857.680000", "191858.140000", "191858.600000", "191859.060000", "191859.520000", "191859.980000", "191900.440000", "191900.900000", "191901.360000", "191901.820000", "191902.280000", "191902.740000", "191903.200000", "191903.660000", "191904.120000", "191904.580000", "191905.040000", "191905.500000", "191905.960000", "191906.420000", "191906.880000", "191907.340000", "191907.800000", "191908.260000", "191908.720000", "191909.180000", "191909.640000", "191910.100000", "191910.560000", "191911.020000", "191911.480000", "191911.940000", "191912.400000", "191912.860000", "191913.320000", "191913.780000", "191914.240000", "191914.700000", "191915.160000", "191915.620000", "191916.080000", "191916.540000", "191917.000000", "191917.460000", "191917.920000", "191918.380000", "191918.840000", "191919.300000", "191919.760000", "191920.220000", "191920.680000", "191921.140000", "191921.600000", "191922.060000", "191922.520000", "191922.980000", "191923.440000", "191923.900000", "191924.360000", "191924.820000", "191925.280000", "191925.740000", "191926.200000", "191926.660000", "191927.120000", "191927.580000", "191928.040000", "191928.500000", "191928.960000", "191929.420000", "191929.880000", "191930.340000", "191930.800000", "191931.260000", "191931.720000", "191932.180000", "191932.640000", "191933.100000", "191933.560000", "191934.020000", "191934.480000", "191934.940000", "191935.400000", "191935.860000", "191936.320000", "191936.780000", "191937.240000", "191937.700000", "191938.160000", "191938.620000", "191939.080000", "191939.540000", "191940.000000", "191940.460000", "191940.920000", "191941.380000", "191941.840000", "191942.300000", "191942.760000", "191943.220000", "191943.680000", "191944.140000", "191944.600000", "191945.060000", "191945.520000", "191945.980000", "191946.440000", "191946.900000", "191947.360000", "191947.820000", "191948.280000", "191948.740000", "191949.200000", "191949.660000", "191950.120000", "191950.580000", "191951.040000", "191951.500000", "191951.960000", "191952.420000", "191952.880000", "191953.340000", "191953.800000", "191954.260000", "191954.720000", "191955.180000", "191955.640000", "191956.100000", "191956.560000", "191957.020000", "191957.480000", "191957.940000", "191958.400000", "191958.860000", "191959.320000", "191959.780000", "192000.240000", "192000.700000", "192001.160000", "192001.620000", "192002.080000", "192002.540000", "192003.000000", "192003.460000", "192003.920000", "192004.380000", "192004.840000", "192005.300000", "192005.760000", "192006.220000", "192006.680000", "192007.140000", "192007.600000", "192008.060000", "192008.520000", "192008.980000", "192009.440000", "192009.900000", "192010.360000", "192010.820000", "192011.280000", "192011.740000", "192012.200000", "192012.660000", "192013.120000", "192013.580000", "192014.040000", "192014.500000", "192014.960000", "192015.420000", "192015.880000", "192016.340000", "192016.800000", "192017.260000", "192017.720000", "192018.180000", "192018.640000", "192019.100000", "192019.560000", "192020.020000", "192020.480000", "192020.940000", "192021.400000", "192021.860000", "192022.320000", "192022.780000", "192023.240000", "192023.700000", "192024.160000", "192024.620000", "192025.080000", "192025.540000", "192026.000000", "192026.460000", "192026.920000", "192027.380000", "192027.840000", "192028.300000", "192028.760000", "192029.220000", "192029.680000", "192030.140000", "192030.600000", "192031.060000", "192031.520000", "192031.980000", "192032.440000", "192032.900000", "192033.360000", "192033.820000", "192034.280000", "192034.740000", "192035.200000", "192035.660000", "192036.120000", "192036.580000", "192037.040000", "192037.500000", "192037.960000", "192038.420000", "192038.880000", "192039.340000", "192039.800000", "192040.260000", "192040.720000", "192041.180000", "192041.640000", "192042.100000", "192042.560000", "192043.020000", "192043.480000", "192043.940000", "192044.400000", "192044.860000", "192045.320000", "192045.780000", "192046.240000", "192046.700000", "192047.160000", "192047.620000", "192048.080000", "192048.540000", "192049.000000", "192049.460000", "192049.920000", "192050.380000", "192050.840000", "192051.300000", "192051.760000", "192052.220000", "192052.680000", "192053.140000", "192053.600000", "192054.060000", "192054.520000", "192054.980000", "192055.440000", "192055.900000", "192056.360000", "192056.820000", "192057.280000", "192057.740000", "192058.200000", "192058.660000", "192059.120000", "192059.580000", "192100.040000", "192100.500000", "192100.960000", "192101.420000", "192101.880000", "192102.340000", "192102.800000", "192103.260000", "192103.720000", "192104.180000", "192104.640000", "192105.100000", "192105.560000", "192106.020000", "192106.480000", "192106.940000", "192107.400000", "192107.860000", "192108.320000", "192108.780000", "192109.240000", "192109.700000", "192110.160000", "192110.620000", "192111.080000", "192111.540000", "192112.000000", "192112.460000", "192112.920000", "192113.380000", "192113.840000", "192114.300000", "192114.760000", "192115.220000", "192115.680000", "192116.140000", "192116.600000", "192117.060000", "192117.520000", "192117.980000", "192118.440000", "192118.900000", "192119.360000", "192119.820000", "192120.280000", "192120.740000", "192121.200000", "192121.660000", "192122.120000", "192122.580000", "192123.040000", "192123.500000", "192123.960000", "192124.420000", "192124.880000", "192125.340000", "192125.800000", "192126.260000", "192126.720000", "192127.180000", "192127.640000", "192128.100000", "192128.560000", "192129.020000", "192129.480000", "192129.940000", "192130.400000", "192130.860000", "192131.320000", "192131.780000", "192132.240000", "192132.700000", "192133.160000", "192133.620000", "192134.080000", "192134.540000", "192135.000000", "192135.460000", "192135.920000", "192136.380000", "192136.840000", "192137.300000", "192137.760000", "192138.220000", "192138.680000", "192139.140000", "192139.600000", "192140.060000", "192140.520000", "192140.980000", "192141.440000", "192141.900000", "192142.360000", "192142.820000", "192143.280000", "192143.740000", "192144.200000", "192144.660000", "192145.120000", "192145.580000", "192146.040000", "192146.500000", "192146.960000", "192147.420000", "192147.880000", "192148.340000", "192148.800000", "192149.260000", "192149.720000", "192150.180000", "192150.640000", "192151.100000", "192151.560000", "192152.020000", "192152.480000", "192152.940000", "192153.400000", "192153.860000", "192154.320000", "192154.780000", "192155.240000", "192155.700000", "192156.160000", "192156.620000", "192157.080000", "192157.540000", "192158.000000", "192158.460000", "192158.920000", "192159.380000", "192159.840000", "192200.300000", "192200.760000", "192201.220000", "192201.680000", "192202.140000", "192202.600000", "192203.060000", "192203.520000", "192203.980000", "192204.440000", "192204.900000", "192205.360000", "192205.820000", "192206.280000", "192206.740000", "192207.200000", "192207.660000", "192208.120000", "192208.580000", "192209.040000", "192209.500000", "192209.960000", "192210.420000", "192210.880000", "192211.340000", "192211.800000", "192212.260000", "192212.720000", "192213.180000", "192213.640000", "192214.100000", "192214.560000", "192215.020000", "192215.480000", "192215.940000", "192216.400000", "192216.860000", "192217.320000", "192217.780000", "192218.240000", "192218.700000", "192219.160000", "192219.620000", "192220.080000", "192220.540000", "192221.000000", "192221.460000", "192221.920000", "192222.380000", "192222.840000", "192223.300000", "192223.760000", "192224.220000", "192224.680000", "192225.140000", "192225.600000", "192226.060000", "192226.520000", "192226.980000", "192227.440000", "192227.900000", "192228.360000"],
