{
  "AcquisitionMatrixPE": 82,
  "AcquisitionNumber": 1,
  "AcquisitionTime": "20:10:58.605000",
  "BandwidthPerPixelPhaseEncode": 24.888,
  "BaseResolution": 82,
  "BodyPartExamined": "BRAIN",
  "ConsistencyInfo": "N4_VE11E_LATEST_20181129",
  "ConversionSoftware": "dcm2niix",
  "ConversionSoftwareVersion": "v1.0.20201102",
  "DerivedVendorReportedEchoSpacing": 0.00049,
  "DeviceSerialNumber": "66112",
  "DwellTime": 2e-06,
  "EchoTime": 0.0272,
  "EchoTrainLength": 82,
  "EffectiveEchoSpacing": 0.00049,
  "FlipAngle": 44,
  "ImageComments": "Unaliased MB8/PE3",
  "ImageOrientationPatientDICOM": [0.998662, -0.027073, 0.0440709, 0.0179548, 0.980541, 0.195492],
  "ImageType": [
    "ORIGINAL",
    "PRIMARY",
    "M",
    "MB",
    "ND",
    "NORM",
    "MOSAIC"
],
  "ImagingFrequency": 123.259,
  "InPlanePhaseEncodingDirectionDICOM": "COL",
  "InstitutionAddress": "Maynard 3,Hanover,NH,US,03755",
  "InstitutionName": "Dartmouth College - PBS",
  "InstitutionalDepartmentName": "Department",
  "MRAcquisitionType": "2D",
  "MagneticFieldStrength": 3,
  "Manufacturer": "Siemens",
  "ManufacturersModelName": "Prisma",
  "Modality": "MR",
  "MultibandAccelerationFactor": 8,
  "PartialFourier": 1,
  "PatientPosition": "HFS",
  "PercentPhaseFOV": 100,
  "PercentSampling": 100,
  "PhaseEncodingDirection": "j-",
  "PhaseEncodingSteps": 82,
  "PhaseResolution": 1,
  "PixelBandwidth": 3050,
  "ProcedureStepDescription": "Wager_Wager^1076_spacetop",
  "ProtocolName": "func_run-04_task-social_acq-ap-mb8",
  "PulseSequenceDetails": "%CustomerSeq%\\cmrr_mbep2d_bold",
  "ReceiveCoilActiveElements": "HEA;HEP",
  "ReceiveCoilName": "Head_32",
  "ReconMatrixPE": 82,
  "RepetitionTime": 0.46,
  "SAR": 0.084234,
  "ScanOptions": "FS",
  "ScanningSequence": "EP",
  "SequenceName": "epfid2d1_82",
  "SequenceVariant": "SK\\SS",
  "SeriesDescription": "func_run-04_task-social_acq-ap-mb8",
  "SeriesNumber": 18,
  "ShimSetting": [4245, -7815, -7248, 321, -167, -33, 118, 99],
  "SliceThickness": 2.7,
  "SliceTiming": [0, 0.2525, 0.0625, 0.315, 0.125, 0.3775, 0.19, 0, 0.2525, 0.0625, 0.315, 0.125, 0.3775, 0.19, 0, 0.2525, 0.0625, 0.315, 0.125, 0.3775, 0.19, 0, 0.2525, 0.0625, 0.315, 0.125, 0.3775, 0.19, 0, 0.2525, 0.0625, 0.315, 0.125, 0.3775, 0.19, 0, 0.2525, 0.0625, 0.315, 0.125, 0.3775, 0.19, 0, 0.2525, 0.0625, 0.315, 0.125, 0.3775, 0.19, 0, 0.2525, 0.0625, 0.315, 0.125, 0.3775, 0.19],
  "SoftwareVersions": "syngo MR E11",
  "SpacingBetweenSlices": 2.7,
  "StationName": "AWP66112",
  "TaskName": "social",
  "TotalReadoutTime": 0.03969,
  "TxRefAmp": 219.13,
  "WipMemBlock": "ac826b58-6c07-466e-ae3b-c93300bc0170||Sequence: R016 ve11e/master r/434b28f1; Aug  7 2019 18:53:46 by eja",
  "dcmmeta_affine": [
    [-2.679335832595825, 0.04817129671573639, 0.13096588850021362, 104.93226623535156],
    [0.0726349875330925, 2.6307196617126465, 0.5249849557876587, -101.50318908691406],
    [0.11823901534080505, -0.524490237236023, 2.6452295780181885, -46.44853973388672],
    [0.0, 0.0, 0.0, 1.0]
],
  "dcmmeta_reorient_transform": [
    [0.0, -1.0, 0.0, 81.0],
    [1.0, 0.0, 0.0, 0.0],
    [0.0, 0.0, 1.0, 0.0],
    [0.0, 0.0, 0.0, 1.0]
],
  "dcmmeta_shape": [82, 82, 56, 872],
  "dcmmeta_slice_dim": 2,
  "dcmmeta_version": 0.6,
  "global": {
    "const": {
      "AccessionNumber": "A004774",
      "AcquisitionMatrix": [82, 0, 0, 82],
      "AngioFlag": "N",
      "BitsAllocated": 16,
      "BitsStored": 16,
      "BodyPartExamined": "BRAIN",
      "Columns": 656,
      "EchoNumbers": 1,
      "EchoTime": 27.2,
      "EchoTrainLength": 82,
      "FlipAngle": 44.0,
      "HighBit": 15,
      "ImageOrientationPatient": [0.9986615070881, -0.0270730401652, 0.04407090601225, 0.01795475595182, 0.98054096226381, 0.1954918107274],
      "ImagePositionPatient": [-891.62867950717, -845.7554266671, -273.39554472562],
      "ImageType": [
        "ORIGINAL",
        "PRIMARY",
        "M",
        "MB",
        "ND",
        "NORM",
        "MOSAIC"
],
      "ImagedNucleus": "1H",
      "ImagingFrequency": 123.259086,
      "InPlanePhaseEncodingDirection": "COL",
      "MRAcquisitionType": "2D",
      "MagneticFieldStrength": 3.0,
      "Manufacturer": "SIEMENS",
      "ManufacturerModelName": "Prisma",
      "Modality": "MR",
      "NumberOfAverages": 1.0,
      "NumberOfPhaseEncodingSteps": 82,
      "PercentPhaseFieldOfView": 100.0,
      "PercentSampling": 100.0,
      "PerformedProcedureStepStartTime": "190842.696000",
      "PhotometricInterpretation": "MONOCHROME2",
      "PixelBandwidth": 3050.0,
      "PixelRepresentation": 0,
      "PixelSpacing": [2.6829268932343, 2.6829268932343],
      "ProtocolName": "func_run-04_task-social_acq-ap-mb8",
      "RepetitionTime": 460.0,
      "Rows": 656,
      "SAR": 0.08423399731619,
      "SamplesPerPixel": 1,
      "ScanOptions": "FS",
      "ScanningSequence": "EP",
      "SequenceName": "epfid2d1_82",
      "SequenceVariant": [
        "SK",
        "SS"
],
      "SeriesDescription": "func_run-04_task-social_acq-ap-mb8",
      "SeriesNumber": 18,
      "SeriesTime": "201107.115000",
      "SliceLocation": -60.152644458748,
      "SliceThickness": 2.7000000476837,
      "SmallestImagePixelValue": 0,
      "SoftwareVersions": "syngo MR E11",
      "SpacingBetweenSlices": 2.7000000374783,
      "SpecificCharacterSet": "ISO_IR 100",
      "StudyID": "1",
      "StudyTime": "190842.597000",
      "TransmitCoilName": "Body",
      "VariableFlipAngleFlag": "N",
      "WindowCenterWidthExplanation": "Algo1"
    },
    "slices": {}
  },
  "time": {
    "samples": {
      "AcquisitionNumber": [1, 2, 3, 4, 5, 6, 7, 8, 9, 10, 11, 12, 13, 14, 15, 16, 17, 18, 19, 20, 21, 22, 23, 24, 25, 26, 27, 28, 29, 30, 31, 32, 33, 34, 35, 36, 37, 38, 39, 40, 41, 42, 43, 44, 45, 46, 47, 48, 49, 50, 51, 52, 53, 54, 55, 56, 57, 58, 59, 60, 61, 62, 63, 64, 65, 66, 67, 68, 69, 70, 71, 72, 73, 74, 75, 76, 77, 78, 79, 80, 81, 82, 83, 84, 85, 86, 87, 88, 89, 90, 91, 92, 93, 94, 95, 96, 97, 98, 99, 100, 101, 102, 103, 104, 105, 106, 107, 108, 109, 110, 111, 112, 113, 114, 115, 116, 117, 118, 119, 120, 121, 122, 123, 124, 125, 126, 127, 128, 129, 130, 131, 132, 133, 134, 135, 136, 137, 138, 139, 140, 141, 142, 143, 144, 145, 146, 147, 148, 149, 150, 151, 152, 153, 154, 155, 156, 157, 158, 159, 160, 161, 162, 163, 164, 165, 166, 167, 168, 169, 170, 171, 172, 173, 174, 175, 176, 177, 178, 179, 180, 181, 182, 183, 184, 185, 186, 187, 188, 189, 190, 191, 192, 193, 194, 195, 196, 197, 198, 199, 200, 201, 202, 203, 204, 205, 206, 207, 208, 209, 210, 211, 212, 213, 214, 215, 216, 217, 218, 219, 220, 221, 222, 223, 224, 225, 226, 227, 228, 229, 230, 231, 232, 233, 234, 235, 236, 237, 238, 239, 240, 241, 242, 243, 244, 245, 246, 247, 248, 249, 250, 251, 252, 253, 254, 255, 256, 257, 258, 259, 260, 261, 262, 263, 264, 265, 266, 267, 268, 269, 270, 271, 272, 273, 274, 275, 276, 277, 278, 279, 280, 281, 282, 283, 284, 285, 286, 287, 288, 289, 290, 291, 292, 293, 294, 295, 296, 297, 298, 299, 300, 301, 302, 303, 304, 305, 306, 307, 308, 309, 310, 311, 312, 313, 314, 315, 316, 317, 318, 319, 320, 321, 322, 323, 324, 325, 326, 327, 328, 329, 330, 331, 332, 333, 334, 335, 336, 337, 338, 339, 340, 341, 342, 343, 344, 345, 346, 347, 348, 349, 350, 351, 352, 353, 354, 355, 356, 357, 358, 359, 360, 361, 362, 363, 364, 365, 366, 367, 368, 369, 370, 371, 372, 373, 374, 375, 376, 377, 378, 379, 380, 381, 382, 383, 384, 385, 386, 387, 388, 389, 390, 391, 392, 393, 394, 395, 396, 397, 398, 399, 400, 401, 402, 403, 404, 405, 406, 407, 408, 409, 410, 411, 412, 413, 414, 415, 416, 417, 418, 419, 420, 421, 422, 423, 424, 425, 426, 427, 428, 429, 430, 431, 432, 433, 434, 435, 436, 437, 438, 439, 440, 441, 442, 443, 444, 445, 446, 447, 448, 449, 450, 451, 452, 453, 454, 455, 456, 457, 458, 459, 460, 461, 462, 463, 464, 465, 466, 467, 468, 469, 470, 471, 472, 473, 474, 475, 476, 477, 478, 479, 480, 481, 482, 483, 484, 485, 486, 487, 488, 489, 490, 491, 492, 493, 494, 495, 496, 497, 498, 499, 500, 501, 502, 503, 504, 505, 506, 507, 508, 509, 510, 511, 512, 513, 514, 515, 516, 517, 518, 519, 520, 521, 522, 523, 524, 525, 526, 527, 528, 529, 530, 531, 532, 533, 534, 535, 536, 537, 538, 539, 540, 541, 542, 543, 544, 545, 546, 547, 548, 549, 550, 551, 552, 553, 554, 555, 556, 557, 558, 559, 560, 561, 562, 563, 564, 565, 566, 567, 568, 569, 570, 571, 572, 573, 574, 575, 576, 577, 578, 579, 580, 581, 582, 583, 584, 585, 586, 587, 588, 589, 590, 591, 592, 593, 594, 595, 596, 597, 598, 599, 600, 601, 602, 603, 604, 605, 606, 607, 608, 609, 610, 611, 612, 613, 614, 615, 616, 617, 618, 619, 620, 621, 622, 623, 624, 625, 626, 627, 628, 629, 630, 631, 632, 633, 634, 635, 636, 637, 638, 639, 640, 641, 642, 643, 644, 645, 646, 647, 648, 649, 650, 651, 652, 653, 654, 655, 656, 657, 658, 659, 660, 661, 662, 663, 664, 665, 666, 667, 668, 669, 670, 671, 672, 673, 674, 675, 676, 677, 678, 679, 680, 681, 682, 683, 684, 685, 686, 687, 688, 689, 690, 691, 692, 693, 694, 695, 696, 697, 698, 699, 700, 701, 702, 703, 704, 705, 706, 707, 708, 709, 710, 711, 712, 713, 714, 715, 716, 717, 718, 719, 720, 721, 722, 723, 724, 725, 726, 727, 728, 729, 730, 731, 732, 733, 734, 735, 736, 737, 738, 739, 740, 741, 742, 743, 744, 745, 746, 747, 748, 749, 750, 751, 752, 753, 754, 755, 756, 757, 758, 759, 760, 761, 762, 763, 764, 765, 766, 767, 768, 769, 770, 771, 772, 773, 774, 775, 776, 777, 778, 779, 780, 781, 782, 783, 784, 785, 786, 787, 788, 789, 790, 791, 792, 793, 794, 795, 796, 797, 798, 799, 800, 801, 802, 803, 804, 805, 806, 807, 808, 809, 810, 811, 812, 813, 814, 815, 816, 817, 818, 819, 820, 821, 822, 823, 824, 825, 826, 827, 828, 829, 830, 831, 832, 833, 834, 835, 836, 837, 838, 839, 840, 841, 842, 843, 844, 845, 846, 847, 848, 849, 850, 851, 852, 853, 854, 855, 856, 857, 858, 859, 860, 861, 862, 863, 864, 865, 866, 867, 868, 869, 870, 871, 872],
      "AcquisitionTime": ["201058.605000", "201059.065000", "201059.525000", "201059.985000", "201100.445000", "201100.905000", "201101.365000", "201101.825000", "201102.285000", "201102.745000", "201103.205000", "201103.665000", "201104.125000", "201104.585000", "201105.045000", "201105.505000", "201105.965000", "201106.425000", "201106.885000", "201107.345000", "201107.805000", "201108.265000", "201108.725000", "201109.185000", "201109.645000", "201110.105000", "201110.565000", "201111.025000", "201111.485000", "201111.945000", "201112.405000", "201112.865000", "201113.325000", "201113.785000", "201114.245000", "201114.705000", "201115.165000", "201115.625000", "201116.085000", "201116.545000", "201117.005000", "201117.465000", "201117.925000", "201118.385000", "201118.845000", "201119.305000", "201119.765000", "201120.225000", "201120.685000", "201121.145000", "201121.605000", "201122.065000", "201122.525000", "201122.985000", "201123.445000", "201123.905000", "201124.365000", "201124.825000", "201125.285000", "201125.745000", "201126.205000", "201126.665000", "201127.125000", "201127.585000", "201128.045000", "201128.505000", "201128.965000", "201129.425000", "201129.885000", "201130.345000", "201130.805000", "201131.265000", "201131.725000", "201132.185000", "201132.645000", "201133.105000", "201133.565000", "201134.025000", "201134.485000", "201134.945000", "201135.405000", "201135.865000", "201136.325000", "201136.785000", "201137.245000", "201137.705000", "201138.165000", "201138.625000", "201139.085000", "201139.545000", "201140.005000", "201140.465000", "201140.925000", "201141.385000", "201141.845000", "201142.305000", "201142.765000", "201143.225000", "201143.685000", "201144.145000", "201144.605000", "201145.065000", "201145.525000", "201145.985000", "201146.445000", "201146.905000", "201147.365000", "201147.825000", "201148.285000", "201148.745000", "201149.205000", "201149.665000", "201150.125000", "201150.585000", "201151.045000", "201151.505000", "201151.965000", "201152.425000", "201152.885000", "201153.345000", "201153.805000", "201154.265000", "201154.725000", "201155.185000", "201155.645000", "201156.105000", "201156.565000", "201157.025000", "201157.485000", "201157.945000", "201158.405000", "201158.865000", "201159.325000", "201159.785000", "201200.245000", "201200.705000", "201201.165000", "201201.625000", "201202.085000", "201202.545000", "201203.005000", "201203.465000", "201203.925000", "201204.385000", "201204.845000", "201205.305000", "201205.765000", "201206.225000", "201206.685000", "201207.145000", "201207.605000", "201208.065000", "201208.525000", "201208.985000", "201209.445000", "201209.905000", "201210.365000", "201210.825000", "201211.285000", "201211.745000", "201212.205000", "201212.665000", "201213.125000", "201213.585000", "201214.045000", "201214.505000", "201214.965000", "201215.425000", "201215.885000", "201216.345000", "201216.805000", "201217.265000", "201217.725000", "201218.185000", "201218.645000", "201219.105000", "201219.565000", "201220.025000", "201220.485000", "201220.945000", "201221.405000", "201221.865000", "201222.325000", "201222.785000", "201223.245000", "201223.705000", "201224.165000", "201224.625000", "201225.085000", "201225.545000", "201226.005000", "201226.465000", "201226.925000", "201227.385000", "201227.845000", "201228.305000", "201228.765000", "201229.225000", "201229.685000", "201230.145000", "201230.605000", "201231.065000", "201231.525000", "201231.985000", "201232.445000", "201232.905000", "201233.365000", "201233.825000", "201234.285000", "201234.745000", "201235.205000", "201235.665000", "201236.125000", "201236.585000", "201237.045000", "201237.505000", "201237.965000", "201238.425000", "201238.885000", "201239.345000", "201239.805000", "201240.265000", "201240.725000", "201241.185000", "201241.645000", "201242.105000", "201242.565000", "201243.025000", "201243.485000", "201243.945000", "201244.405000", "201244.865000", "201245.325000", "201245.785000", "201246.245000", "201246.705000", "201247.165000", "201247.625000", "201248.085000", "201248.545000", "201249.005000", "201249.465000", "201249.925000", "201250.385000", "201250.845000", "201251.305000", "201251.765000", "201252.225000", "201252.685000", "201253.145000", "201253.605000", "201254.065000", "201254.525000", "201254.985000", "201255.445000", "201255.905000", "201256.365000", "201256.825000", "201257.285000", "201257.745000", "201258.205000", "201258.665000", "201259.125000", "201259.585000", "201300.045000", "201300.505000", "201300.965000", "201301.425000", "201301.885000", "201302.345000", "201302.805000", "201303.265000", "201303.725000", "201304.185000", "201304.645000", "201305.105000", "201305.565000", "201306.025000", "201306.485000", "201306.945000", "201307.405000", "201307.865000", "201308.325000", "201308.785000", "201309.245000", "201309.705000", "201310.165000", "201310.625000", "201311.085000", "201311.545000", "201312.005000", "201312.465000", "201312.925000", "201313.385000", "201313.845000", "201314.305000", "201314.765000", "201315.225000", "201315.685000", "201316.145000", "201316.605000", "201317.065000", "201317.525000", "201317.985000", "201318.445000", "201318.905000", "201319.365000", "201319.825000", "201320.285000", "201320.745000", "201321.205000", "201321.665000", "201322.125000", "201322.585000", "201323.045000", "201323.505000", "201323.965000", "201324.425000", "201324.885000", "201325.345000", "201325.805000", "201326.265000", "201326.725000", "201327.185000", "201327.645000", "201328.105000", "201328.565000", "201329.025000", "201329.485000", "201329.945000", "201330.405000", "201330.865000", "201331.325000", "201331.785000", "201332.245000", "201332.705000", "201333.165000", "201333.625000", "201334.085000", "201334.545000", "201335.005000", "201335.465000", "201335.925000", "201336.385000", "201336.845000", "201337.305000", "201337.765000", "201338.225000", "201338.685000", "201339.145000", "201339.605000", "201340.065000", "201340.525000", "201340.985000", "201341.445000", "201341.905000", "201342.365000", "201342.825000", "201343.285000", "201343.745000", "201344.205000", "201344.665000", "201345.125000", "201345.585000", "201346.045000", "201346.505000", "201346.965000", "201347.425000", "201347.885000", "201348.345000", "201348.805000", "201349.265000", "201349.725000", "201350.185000", "201350.645000", "201351.105000", "201351.565000", "201352.025000", "201352.485000", "201352.945000", "201353.405000", "201353.865000", "201354.325000", "201354.785000", "201355.245000", "201355.705000", "201356.165000", "201356.625000", "201357.085000", "201357.545000", "201358.005000", "201358.465000", "201358.925000", "201359.385000", "201359.845000", "201400.305000", "201400.765000", "201401.225000", "201401.685000", "201402.145000", "201402.605000", "201403.065000", "201403.525000", "201403.985000", "201404.445000", "201404.905000", "201405.365000", "201405.825000", "201406.285000", "201406.745000", "201407.205000", "201407.665000", "201408.125000", "201408.585000", "201409.045000", "201409.505000", "201409.965000", "201410.425000", "201410.885000", "201411.345000", "201411.805000", "201412.265000", "201412.725000", "201413.185000", "201413.645000", "201414.105000", "201414.565000", "201415.025000", "201415.485000", "201415.945000", "201416.405000", "201416.865000", "201417.325000", "201417.785000", "201418.245000", "201418.705000", "201419.165000", "201419.625000", "201420.085000", "201420.545000", "201421.005000", "201421.465000", "201421.925000", "201422.385000", "201422.845000", "201423.305000", "201423.765000", "201424.225000", "201424.685000", "201425.145000", "201425.605000", "201426.065000", "201426.525000", "201426.985000", "201427.445000", "201427.905000", "201428.365000", "201428.825000", "201429.285000", "201429.745000", "201430.205000", "201430.665000", "201431.125000", "201431.585000", "201432.045000", "201432.505000", "201432.965000", "201433.425000", "201433.885000", "201434.345000", "201434.805000", "201435.265000", "201435.725000", "201436.185000", "201436.645000", "201437.105000", "201437.565000", "201438.025000", "201438.485000", "201438.945000", "201439.405000", "201439.865000", "201440.325000", "201440.785000", "201441.245000", "201441.705000", "201442.165000", "201442.625000", "201443.085000", "201443.545000", "201444.005000", "201444.465000", "201444.925000", "201445.385000", "201445.845000", "201446.305000", "201446.765000", "201447.225000", "201447.685000", "201448.145000", "201448.605000", "201449.065000", "201449.525000", "201449.985000", "201450.445000", "201450.905000", "201451.365000", "201451.825000", "201452.285000", "201452.745000", "201453.205000", "201453.665000", "201454.125000", "201454.585000", "201455.045000", "201455.505000", "201455.965000", "201456.425000", "201456.885000", "201457.345000", "201457.805000", "201458.265000", "201458.725000", "201459.185000", "201459.645000", "201500.105000", "201500.565000", "201501.025000", "201501.485000", "201501.945000", "201502.405000", "201502.865000", "201503.325000", "201503.785000", "201504.245000", "201504.705000", "201505.165000", "201505.625000", "201506.085000", "201506.545000", "201507.005000", "201507.465000", "201507.925000", "201508.385000", "201508.845000", "201509.305000", "201509.765000", "201510.225000", "201510.685000", "201511.145000", "201511.605000", "201512.065000", "201512.525000", "201512.985000", "201513.445000", "201513.905000", "201514.365000", "201514.825000", "201515.285000", "201515.745000", "201516.205000", "201516.665000", "201517.125000", "201517.585000", "201518.045000", "201518.505000", "201518.965000", "201519.425000", "201519.885000", "201520.345000", "201520.805000", "201521.265000", "201521.725000", "201522.185000", "201522.645000", "201523.105000", "201523.565000", "201524.025000", "201524.485000", "201524.945000", "201525.405000", "201525.865000", "201526.325000", "201526.785000", "201527.245000", "201527.705000", "201528.165000", "201528.625000", "201529.085000", "201529.545000", "201530.005000", "201530.465000", "201530.925000", "201531.385000", "201531.845000", "201532.305000", "201532.765000", "201533.225000", "201533.685000", "201534.145000", "201534.605000", "201535.065000", "201535.525000", "201535.985000", "201536.445000", "201536.905000", "201537.365000", "201537.825000", "201538.285000", "201538.745000", "201539.205000", "201539.665000", "201540.125000", "201540.585000", "201541.045000", "201541.505000", "201541.965000", "201542.425000", "201542.885000", "201543.345000", "201543.805000", "201544.265000", "201544.725000", "201545.185000", "201545.645000", "201546.105000", "201546.565000", "201547.025000", "201547.485000", "201547.945000", "201548.405000", "201548.865000", "201549.325000", "201549.785000", "201550.245000", "201550.705000", "201551.165000", "201551.625000", "201552.085000", "201552.545000", "201553.005000", "201553.465000", "201553.925000", "201554.385000", "201554.845000", "201555.305000", "201555.765000", "201556.225000", "201556.685000", "201557.145000", "201557.605000", "201558.065000", "201558.525000", "201558.985000", "201559.445000", "201559.905000", "201600.365000", "201600.825000", "201601.285000", "201601.745000", "201602.205000", "201602.665000", "201603.125000", "201603.585000", "201604.045000", "201604.505000", "201604.965000", "201605.425000", "201605.885000", "201606.345000", "201606.805000", "201607.265000", "201607.725000", "201608.185000", "201608.645000", "201609.105000", "201609.565000", "201610.025000", "201610.485000", "201610.945000", "201611.405000", "201611.865000", "201612.325000", "201612.785000", "201613.245000", "201613.705000", "201614.165000", "201614.625000", "201615.085000", "201615.545000", "201616.005000", "201616.465000", "201616.925000", "201617.385000", "201617.845000", "201618.305000", "201618.765000", "201619.225000", "201619.685000", "201620.145000", "201620.605000", "201621.065000", "201621.525000", "201621.985000", "201622.445000", "201622.905000", "201623.365000", "201623.825000", "201624.285000", "201624.745000", "201625.205000", "201625.665000", "201626.125000", "201626.585000", "201627.045000", "201627.505000", "201627.965000", "201628.425000", "201628.885000", "201629.345000", "201629.805000", "201630.265000", "201630.725000", "201631.185000", "201631.645000", "201632.105000", "201632.565000", "201633.025000", "201633.485000", "201633.945000", "201634.405000", "201634.865000", "201635.325000", "201635.785000", "201636.245000", "201636.705000", "201637.165000", "201637.625000", "201638.085000", "201638.545000", "201639.005000", "201639.465000", "201639.925000", "201640.385000", "201640.845000", "201641.305000", "201641.765000", "201642.225000", "201642.685000", "201643.145000", "201643.605000", "201644.065000", "201644.525000", "201644.985000", "201645.445000", "201645.905000", "201646.365000", "201646.825000", "201647.285000", "201647.745000", "201648.205000", "201648.665000", "201649.125000", "201649.585000", "201650.045000", "201650.505000", "201650.965000", "201651.425000", "201651.885000", "201652.345000", "201652.805000", "201653.265000", "201653.725000", "201654.185000", "201654.645000", "201655.105000", "201655.565000", "201656.025000", "201656.485000", "201656.945000", "201657.405000", "201657.865000", "201658.325000", "201658.785000", "201659.245000", "201659.705000", "201700.165000", "201700.625000", "201701.085000", "201701.545000", "201702.005000", "201702.465000", "201702.925000", "201703.385000", "201703.845000", "201704.305000", "201704.765000", "201705.225000", "201705.685000", "201706.145000", "201706.605000", "201707.065000", "201707.525000", "201707.985000", "201708.445000", "201708.905000", "201709.365000", "201709.825000", "201710.285000", "201710.745000", "201711.205000", "201711.665000", "201712.125000", "201712.585000", "201713.045000", "201713.505000", "201713.965000", "201714.425000", "201714.885000", "201715.345000", "201715.805000", "201716.265000", "201716.725000", "201717.185000", "201717.645000", "201718.105000", "201718.565000", "201719.025000", "201719.485000", "201719.945000", "201720.405000", "201720.865000", "201721.325000", "201721.785000", "201722.245000", "201722.705000", "201723.165000", "201723.625000", "201724.085000", "201724.545000", "201725.005000", "201725.465000", "201725.925000", "201726.385000", "201726.845000", "201727.305000", "201727.765000", "201728.225000", "201728.685000", "201729.145000", "201729.605000", "201730.065000", "201730.525000", "201730.985000", "201731.445000", "201731.905000", "201732.365000", "201732.825000", "201733.285000", "201733.745000", "201734.205000", "201734.665000", "201735.125000", "201735.585000", "201736.045000", "201736.505000", "201736.965000", "201737.425000", "201737.885000", "201738.345000", "201738.805000", "201739.265000"],
