{
  "AcquisitionMatrixPE": 82,
  "AcquisitionNumber": 1,
  "AcquisitionTime": "20:25:15.292500",
  "BandwidthPerPixelPhaseEncode": 24.888,
  "BaseResolution": 82,
  "BodyPartExamined": "BRAIN",
  "ConsistencyInfo": "N4_VE11E_LATEST_20181129",
  "ConversionSoftware": "dcm2niix",
  "ConversionSoftwareVersion": "v1.0.20201102",
  "DerivedVendorReportedEchoSpacing": 0.00049,
  "DeviceSerialNumber": "66112",
  "DwellTime": 2e-06,
  "EchoTime": 0.0272,
  "EchoTrainLength": 82,
  "EffectiveEchoSpacing": 0.00049,
  "FlipAngle": 44,
  "ImageComments": "Unaliased MB8/PE3",
  "ImageOrientationPatientDICOM": [0.998662, -0.027073, 0.0440709, 0.0179548, 0.980541, 0.195492],
  "ImageType": [
    "ORIGINAL",
    "PRIMARY",
    "M",
    "MB",
    "ND",
    "NORM",
    "MOSAIC"
],
  "ImagingFrequency": 123.259,
  "InPlanePhaseEncodingDirectionDICOM": "COL",
  "InstitutionAddress": "Maynard 3,Hanover,NH,US,03755",
  "InstitutionName": "Dartmouth College - PBS",
  "InstitutionalDepartmentName": "Department",
  "MRAcquisitionType": "2D",
  "MagneticFieldStrength": 3,
  "Manufacturer": "Siemens",
  "ManufacturersModelName": "Prisma",
  "Modality": "MR",
  "MultibandAccelerationFactor": 8,
  "PartialFourier": 1,
  "PatientPosition": "HFS",
  "PercentPhaseFOV": 100,
  "PercentSampling": 100,
  "PhaseEncodingDirection": "j-",
  "PhaseEncodingSteps": 82,
  "PhaseResolution": 1,
  "PixelBandwidth": 3050,
  "ProcedureStepDescription": "Wager_Wager^1076_spacetop",
  "ProtocolName": "func_run-06_task-social_acq-ap-mb8",
  "PulseSequenceDetails": "%CustomerSeq%\\cmrr_mbep2d_bold",
  "ReceiveCoilActiveElements": "HEA;HEP",
  "ReceiveCoilName": "Head_32",
  "ReconMatrixPE": 82,
  "RepetitionTime": 0.46,
  "SAR": 0.084234,
  "ScanOptions": "FS",
  "ScanningSequence": "EP",
  "SequenceName": "epfid2d1_82",
  "SequenceVariant": "SK\\SS",
  "SeriesDescription": "func_run-06_task-social_acq-ap-mb8",
  "SeriesNumber": 22,
  "ShimSetting": [4245, -7815, -7248, 321, -167, -33, 118, 99],
  "SliceThickness": 2.7,
  "SliceTiming": [0, 0.2525, 0.0625, 0.315, 0.1275, 0.3775, 0.19, 0, 0.2525, 0.0625, 0.315, 0.1275, 0.3775, 0.19, 0, 0.2525, 0.0625, 0.315, 0.1275, 0.3775, 0.19, 0, 0.2525, 0.0625, 0.315, 0.1275, 0.3775, 0.19, 0, 0.2525, 0.0625, 0.315, 0.1275, 0.3775, 0.19, 0, 0.2525, 0.0625, 0.315, 0.1275, 0.3775, 0.19, 0, 0.2525, 0.0625, 0.315, 0.1275, 0.3775, 0.19, 0, 0.2525, 0.0625, 0.315, 0.1275, 0.3775, 0.19],
  "SoftwareVersions": "syngo MR E11",
  "SpacingBetweenSlices": 2.7,
  "StationName": "AWP66112",
  "TaskName": "social",
  "TotalReadoutTime": 0.03969,
  "TxRefAmp": 219.13,
  "WipMemBlock": "3c6f306a-20da-4b53-b075-943d14cd6c42||Sequence: R016 ve11e/master r/434b28f1; Aug  7 2019 18:53:46 by eja",
  "dcmmeta_affine": [
    [-2.679335832595825, 0.04817129671573639, 0.13096588850021362, 104.93226623535156],
    [0.0726349875330925, 2.6307196617126465, 0.5249849557876587, -101.50318908691406],
    [0.11823901534080505, -0.524490237236023, 2.6452295780181885, -46.44853973388672],
    [0.0, 0.0, 0.0, 1.0]
],
  "dcmmeta_reorient_transform": [
    [0.0, -1.0, 0.0, 81.0],
    [1.0, 0.0, 0.0, 0.0],
    [0.0, 0.0, 1.0, 0.0],
    [0.0, 0.0, 0.0, 1.0]
],
  "dcmmeta_shape": [82, 82, 56, 872],
  "dcmmeta_slice_dim": 2,
  "dcmmeta_version": 0.6,
  "global": {
    "const": {
      "AccessionNumber": "A004774",
      "AcquisitionMatrix": [82, 0, 0, 82],
      "AngioFlag": "N",
      "BitsAllocated": 16,
      "BitsStored": 16,
      "BodyPartExamined": "BRAIN",
      "Columns": 656,
      "EchoNumbers": 1,
      "EchoTime": 27.2,
      "EchoTrainLength": 82,
      "FlipAngle": 44.0,
      "HighBit": 15,
      "ImageOrientationPatient": [0.9986615070881, -0.0270730401652, 0.04407090601225, 0.01795475595182, 0.98054096226381, 0.1954918107274],
      "ImagePositionPatient": [-891.62867950717, -845.7554266671, -273.39554472562],
      "ImageType": [
        "ORIGINAL",
        "PRIMARY",
        "M",
        "MB",
        "ND",
        "NORM",
        "MOSAIC"
],
      "ImagedNucleus": "1H",
      "ImagingFrequency": 123.25909,
      "InPlanePhaseEncodingDirection": "COL",
      "MRAcquisitionType": "2D",
      "MagneticFieldStrength": 3.0,
      "Manufacturer": "SIEMENS",
      "ManufacturerModelName": "Prisma",
      "Modality": "MR",
      "NumberOfAverages": 1.0,
      "NumberOfPhaseEncodingSteps": 82,
      "PercentPhaseFieldOfView": 100.0,
      "PercentSampling": 100.0,
      "PerformedProcedureStepStartTime": "190842.696000",
      "PhotometricInterpretation": "MONOCHROME2",
      "PixelBandwidth": 3050.0,
      "PixelRepresentation": 0,
      "PixelSpacing": [2.6829268932343, 2.6829268932343],
      "ProtocolName": "func_run-06_task-social_acq-ap-mb8",
      "RepetitionTime": 460.0,
      "Rows": 656,
      "SAR": 0.08423399731619,
      "SamplesPerPixel": 1,
      "ScanOptions": "FS",
      "ScanningSequence": "EP",
      "SequenceName": "epfid2d1_82",
      "SequenceVariant": [
        "SK",
        "SS"
],
      "SeriesDescription": "func_run-06_task-social_acq-ap-mb8",
      "SeriesNumber": 22,
      "SeriesTime": "202529.065000",
      "SliceLocation": -60.152644458748,
      "SliceThickness": 2.7000000476837,
      "SmallestImagePixelValue": 0,
      "SoftwareVersions": "syngo MR E11",
      "SpacingBetweenSlices": 2.7000000374783,
      "SpecificCharacterSet": "ISO_IR 100",
      "StudyID": "1",
      "StudyTime": "190842.597000",
      "TransmitCoilName": "Body",
      "VariableFlipAngleFlag": "N",
      "WindowCenterWidthExplanation": "Algo1"
    },
    "slices": {}
  },
  "time": {
    "samples": {
      "AcquisitionNumber": [1, 2, 3, 4, 5, 6, 7, 8, 9, 10, 11, 12, 13, 14, 15, 16, 17, 18, 19, 20, 21, 22, 23, 24, 25, 26, 27, 28, 29, 30, 31, 32, 33, 34, 35, 36, 37, 38, 39, 40, 41, 42, 43, 44, 45, 46, 47, 48, 49, 50, 51, 52, 53, 54, 55, 56, 57, 58, 59, 60, 61, 62, 63, 64, 65, 66, 67, 68, 69, 70, 71, 72, 73, 74, 75, 76, 77, 78, 79, 80, 81, 82, 83, 84, 85, 86, 87, 88, 89, 90, 91, 92, 93, 94, 95, 96, 97, 98, 99, 100, 101, 102, 103, 104, 105, 106, 107, 108, 109, 110, 111, 112, 113, 114, 115, 116, 117, 118, 119, 120, 121, 122, 123, 124, 125, 126, 127, 128, 129, 130, 131, 132, 133, 134, 135, 136, 137, 138, 139, 140, 141, 142, 143, 144, 145, 146, 147, 148, 149, 150, 151, 152, 153, 154, 155, 156, 157, 158, 159, 160, 161, 162, 163, 164, 165, 166, 167, 168, 169, 170, 171, 172, 173, 174, 175, 176, 177, 178, 179, 180, 181, 182, 183, 184, 185, 186, 187, 188, 189, 190, 191, 192, 193, 194, 195, 196, 197, 198, 199, 200, 201, 202, 203, 204, 205, 206, 207, 208, 209, 210, 211, 212, 213, 214, 215, 216, 217, 218, 219, 220, 221, 222, 223, 224, 225, 226, 227, 228, 229, 230, 231, 232, 233, 234, 235, 236, 237, 238, 239, 240, 241, 242, 243, 244, 245, 246, 247, 248, 249, 250, 251, 252, 253, 254, 255, 256, 257, 258, 259, 260, 261, 262, 263, 264, 265, 266, 267, 268, 269, 270, 271, 272, 273, 274, 275, 276, 277, 278, 279, 280, 281, 282, 283, 284, 285, 286, 287, 288, 289, 290, 291, 292, 293, 294, 295, 296, 297, 298, 299, 300, 301, 302, 303, 304, 305, 306, 307, 308, 309, 310, 311, 312, 313, 314, 315, 316, 317, 318, 319, 320, 321, 322, 323, 324, 325, 326, 327, 328, 329, 330, 331, 332, 333, 334, 335, 336, 337, 338, 339, 340, 341, 342, 343, 344, 345, 346, 347, 348, 349, 350, 351, 352, 353, 354, 355, 356, 357, 358, 359, 360, 361, 362, 363, 364, 365, 366, 367, 368, 369, 370, 371, 372, 373, 374, 375, 376, 377, 378, 379, 380, 381, 382, 383, 384, 385, 386, 387, 388, 389, 390, 391, 392, 393, 394, 395, 396, 397, 398, 399, 400, 401, 402, 403, 404, 405, 406, 407, 408, 409, 410, 411, 412, 413, 414, 415, 416, 417, 418, 419, 420, 421, 422, 423, 424, 425, 426, 427, 428, 429, 430, 431, 432, 433, 434, 435, 436, 437, 438, 439, 440, 441, 442, 443, 444, 445, 446, 447, 448, 449, 450, 451, 452, 453, 454, 455, 456, 457, 458, 459, 460, 461, 462, 463, 464, 465, 466, 467, 468, 469, 470, 471, 472, 473, 474, 475, 476, 477, 478, 479, 480, 481, 482, 483, 484, 485, 486, 487, 488, 489, 490, 491, 492, 493, 494, 495, 496, 497, 498, 499, 500, 501, 502, 503, 504, 505, 506, 507, 508, 509, 510, 511, 512, 513, 514, 515, 516, 517, 518, 519, 520, 521, 522, 523, 524, 525, 526, 527, 528, 529, 530, 531, 532, 533, 534, 535, 536, 537, 538, 539, 540, 541, 542, 543, 544, 545, 546, 547, 548, 549, 550, 551, 552, 553, 554, 555, 556, 557, 558, 559, 560, 561, 562, 563, 564, 565, 566, 567, 568, 569, 570, 571, 572, 573, 574, 575, 576, 577, 578, 579, 580, 581, 582, 583, 584, 585, 586, 587, 588, 589, 590, 591, 592, 593, 594, 595, 596, 597, 598, 599, 600, 601, 602, 603, 604, 605, 606, 607, 608, 609, 610, 611, 612, 613, 614, 615, 616, 617, 618, 619, 620, 621, 622, 623, 624, 625, 626, 627, 628, 629, 630, 631, 632, 633, 634, 635, 636, 637, 638, 639, 640, 641, 642, 643, 644, 645, 646, 647, 648, 649, 650, 651, 652, 653, 654, 655, 656, 657, 658, 659, 660, 661, 662, 663, 664, 665, 666, 667, 668, 669, 670, 671, 672, 673, 674, 675, 676, 677, 678, 679, 680, 681, 682, 683, 684, 685, 686, 687, 688, 689, 690, 691, 692, 693, 694, 695, 696, 697, 698, 699, 700, 701, 702, 703, 704, 705, 706, 707, 708, 709, 710, 711, 712, 713, 714, 715, 716, 717, 718, 719, 720, 721, 722, 723, 724, 725, 726, 727, 728, 729, 730, 731, 732, 733, 734, 735, 736, 737, 738, 739, 740, 741, 742, 743, 744, 745, 746, 747, 748, 749, 750, 751, 752, 753, 754, 755, 756, 757, 758, 759, 760, 761, 762, 763, 764, 765, 766, 767, 768, 769, 770, 771, 772, 773, 774, 775, 776, 777, 778, 779, 780, 781, 782, 783, 784, 785, 786, 787, 788, 789, 790, 791, 792, 793, 794, 795, 796, 797, 798, 799, 800, 801, 802, 803, 804, 805, 806, 807, 808, 809, 810, 811, 812, 813, 814, 815, 816, 817, 818, 819, 820, 821, 822, 823, 824, 825, 826, 827, 828, 829, 830, 831, 832, 833, 834, 835, 836, 837, 838, 839, 840, 841, 842, 843, 844, 845, 846, 847, 848, 849, 850, 851, 852, 853, 854, 855, 856, 857, 858, 859, 860, 861, 862, 863, 864, 865, 866, 867, 868, 869, 870, 871, 872],
      "AcquisitionTime": ["202515.292500", "202515.752500", "202516.212500", "202516.672500", "202517.132500", "202517.592500", "202518.052500", "202518.512500", "202518.972500", "202519.432500", "202519.892500", "202520.352500", "202520.812500", "202521.272500", "202521.732500", "202522.192500", "202522.652500", "202523.112500", "202523.572500", "202524.032500", "202524.492500", "202524.952500", "202525.412500", "202525.872500", "202526.332500", "202526.792500", "202527.252500", "202527.712500", "202528.172500", "202528.632500", "202529.092500", "202529.552500", "202530.012500", "202530.472500", "202530.932500", "202531.392500", "202531.852500", "202532.312500", "202532.772500", "202533.232500", "202533.692500", "202534.152500", "202534.612500", "202535.072500", "202535.532500", "202535.992500", "202536.452500", "202536.912500", "202537.372500", "202537.832500", "202538.292500", "202538.752500", "202539.212500", "202539.672500", "202540.132500", "202540.592500", "202541.052500", "202541.512500", "202541.972500", "202542.432500", "202542.892500", "202543.352500", "202543.812500", "202544.272500", "202544.732500", "202545.192500", "202545.652500", "202546.112500", "202546.572500", "202547.032500", "202547.492500", "202547.952500", "202548.412500", "202548.872500", "202549.332500", "202549.792500", "202550.252500", "202550.712500", "202551.172500", "202551.632500", "202552.092500", "202552.552500", "202553.012500", "202553.472500", "202553.932500", "202554.392500", "202554.852500", "202555.312500", "202555.772500", "202556.232500", "202556.692500", "202557.152500", "202557.612500", "202558.072500", "202558.532500", "202558.992500", "202559.452500", "202559.912500", "202600.372500", "202600.832500", "202601.292500", "202601.752500", "202602.212500", "202602.672500", "202603.132500", "202603.592500", "202604.052500", "202604.512500", "202604.972500", "202605.432500", "202605.892500", "202606.352500", "202606.812500", "202607.272500", "202607.732500", "202608.192500", "202608.652500", "202609.112500", "202609.572500", "202610.032500", "202610.492500", "202610.952500", "202611.412500", "202611.872500", "202612.332500", "202612.792500", "202613.252500", "202613.712500", "202614.172500", "202614.632500", "202615.092500", "202615.552500", "202616.012500", "202616.472500", "202616.932500", "202617.392500", "202617.852500", "202618.312500", "202618.772500", "202619.232500", "202619.692500", "202620.152500", "202620.612500", "202621.072500", "202621.532500", "202621.992500", "202622.452500", "202622.912500", "202623.372500", "202623.832500", "202624.292500", "202624.752500", "202625.212500", "202625.672500", "202626.132500", "202626.592500", "202627.052500", "202627.512500", "202627.972500", "202628.432500", "202628.892500", "202629.352500", "202629.812500", "202630.272500", "202630.732500", "202631.192500", "202631.652500", "202632.112500", "202632.572500", "202633.032500", "202633.492500", "202633.952500", "202634.412500", "202634.872500", "202635.332500", "202635.792500", "202636.252500", "202636.712500", "202637.172500", "202637.632500", "202638.092500", "202638.552500", "202639.012500", "202639.472500", "202639.932500", "202640.392500", "202640.852500", "202641.312500", "202641.772500", "202642.232500", "202642.692500", "202643.152500", "202643.612500", "202644.072500", "202644.532500", "202644.992500", "202645.452500", "202645.912500", "202646.372500", "202646.832500", "202647.292500", "202647.752500", "202648.212500", "202648.672500", "202649.132500", "202649.592500", "202650.052500", "202650.512500", "202650.972500", "202651.432500", "202651.892500", "202652.352500", "202652.812500", "202653.272500", "202653.732500", "202654.192500", "202654.652500", "202655.112500", "202655.572500", "202656.032500", "202656.492500", "202656.952500", "202657.412500", "202657.872500", "202658.332500", "202658.792500", "202659.252500", "202659.712500", "202700.172500", "202700.632500", "202701.092500", "202701.552500", "202702.012500", "202702.472500", "202702.932500", "202703.392500", "202703.852500", "202704.312500", "202704.772500", "202705.232500", "202705.692500", "202706.152500", "202706.612500", "202707.072500", "202707.532500", "202707.992500", "202708.452500", "202708.912500", "202709.372500", "202709.832500", "202710.292500", "202710.752500", "202711.212500", "202711.672500", "202712.132500", "202712.592500", "202713.052500", "202713.512500", "202713.972500", "202714.432500", "202714.892500", "202715.352500", "202715.812500", "202716.272500", "202716.732500", "202717.192500", "202717.652500", "202718.112500", "202718.572500", "202719.032500", "202719.492500", "202719.952500", "202720.412500", "202720.872500", "202721.332500", "202721.792500", "202722.252500", "202722.712500", "202723.172500", "202723.632500", "202724.092500", "202724.552500", "202725.012500", "202725.472500", "202725.932500", "202726.392500", "202726.852500", "202727.312500", "202727.772500", "202728.232500", "202728.692500", "202729.152500", "202729.612500", "202730.072500", "202730.532500", "202730.992500", "202731.452500", "202731.912500", "202732.372500", "202732.832500", "202733.292500", "202733.752500", "202734.212500", "202734.672500", "202735.132500", "202735.592500", "202736.052500", "202736.512500", "202736.972500", "202737.432500", "202737.892500", "202738.352500", "202738.812500", "202739.272500", "202739.732500", "202740.192500", "202740.652500", "202741.112500", "202741.572500", "202742.032500", "202742.492500", "202742.952500", "202743.412500", "202743.872500", "202744.332500", "202744.792500", "202745.252500", "202745.712500", "202746.172500", "202746.632500", "202747.092500", "202747.552500", "202748.012500", "202748.472500", "202748.932500", "202749.392500", "202749.852500", "202750.312500", "202750.772500", "202751.232500", "202751.692500", "202752.152500", "202752.612500", "202753.072500", "202753.532500", "202753.992500", "202754.452500", "202754.912500", "202755.372500", "202755.832500", "202756.292500", "202756.752500", "202757.212500", "202757.672500", "202758.132500", "202758.592500", "202759.052500", "202759.512500", "202759.972500", "202800.432500", "202800.892500", "202801.352500", "202801.812500", "202802.272500", "202802.732500", "202803.192500", "202803.652500", "202804.112500", "202804.572500", "202805.032500", "202805.492500", "202805.952500", "202806.412500", "202806.872500", "202807.332500", "202807.792500", "202808.252500", "202808.712500", "202809.172500", "202809.632500", "202810.092500", "202810.552500", "202811.012500", "202811.472500", "202811.932500", "202812.392500", "202812.852500", "202813.312500", "202813.772500", "202814.232500", "202814.692500", "202815.152500", "202815.612500", "202816.072500", "202816.532500", "202816.992500", "202817.452500", "202817.912500", "202818.372500", "202818.832500", "202819.292500", "202819.752500", "202820.212500", "202820.672500", "202821.132500", "202821.592500", "202822.052500", "202822.512500", "202822.972500", "202823.432500", "202823.892500", "202824.352500", "202824.812500", "202825.272500", "202825.732500", "202826.192500", "202826.652500", "202827.112500", "202827.572500", "202828.032500", "202828.492500", "202828.952500", "202829.412500", "202829.872500", "202830.332500", "202830.792500", "202831.252500", "202831.712500", "202832.172500", "202832.632500", "202833.092500", "202833.552500", "202834.012500", "202834.472500", "202834.932500", "202835.392500", "202835.852500", "202836.312500", "202836.772500", "202837.232500", "202837.692500", "202838.152500", "202838.612500", "202839.072500", "202839.532500", "202839.992500", "202840.452500", "202840.912500", "202841.372500", "202841.832500", "202842.292500", "202842.752500", "202843.212500", "202843.672500", "202844.132500", "202844.592500", "202845.052500", "202845.512500", "202845.972500", "202846.432500", "202846.892500", "202847.352500", "202847.812500", "202848.272500", "202848.732500", "202849.192500", "202849.652500", "202850.112500", "202850.572500", "202851.032500", "202851.492500", "202851.952500", "202852.412500", "202852.872500", "202853.332500", "202853.792500", "202854.252500", "202854.712500", "202855.172500", "202855.632500", "202856.092500", "202856.552500", "202857.012500", "202857.472500", "202857.932500", "202858.392500", "202858.852500", "202859.312500", "202859.772500", "202900.232500", "202900.692500", "202901.152500", "202901.612500", "202902.072500", "202902.532500", "202902.992500", "202903.452500", "202903.912500", "202904.372500", "202904.832500", "202905.292500", "202905.752500", "202906.212500", "202906.672500", "202907.132500", "202907.592500", "202908.052500", "202908.512500", "202908.972500", "202909.432500", "202909.892500", "202910.352500", "202910.812500", "202911.272500", "202911.732500", "202912.192500", "202912.652500", "202913.112500", "202913.572500", "202914.032500", "202914.492500", "202914.952500", "202915.412500", "202915.872500", "202916.332500", "202916.792500", "202917.252500", "202917.712500", "202918.172500", "202918.632500", "202919.092500", "202919.552500", "202920.012500", "202920.472500", "202920.932500", "202921.392500", "202921.852500", "202922.312500", "202922.772500", "202923.232500", "202923.692500", "202924.152500", "202924.612500", "202925.072500", "202925.532500", "202925.992500", "202926.452500", "202926.912500", "202927.372500", "202927.832500", "202928.292500", "202928.752500", "202929.212500", "202929.672500", "202930.132500", "202930.592500", "202931.052500", "202931.512500", "202931.972500", "202932.432500", "202932.892500", "202933.352500", "202933.812500", "202934.272500", "202934.732500", "202935.192500", "202935.652500", "202936.112500", "202936.572500", "202937.032500", "202937.492500", "202937.952500", "202938.412500", "202938.872500", "202939.332500", "202939.792500", "202940.252500", "202940.712500", "202941.172500", "202941.632500", "202942.092500", "202942.552500", "202943.012500", "202943.472500", "202943.932500", "202944.392500", "202944.852500", "202945.312500", "202945.772500", "202946.232500", "202946.692500", "202947.152500", "202947.612500", "202948.072500", "202948.532500", "202948.992500", "202949.452500", "202949.912500", "202950.372500", "202950.832500", "202951.292500", "202951.752500", "202952.212500", "202952.672500", "202953.132500", "202953.592500", "202954.052500", "202954.512500", "202954.972500", "202955.432500", "202955.892500", "202956.352500", "202956.812500", "202957.272500", "202957.732500", "202958.192500", "202958.652500", "202959.112500", "202959.572500", "203000.032500", "203000.492500", "203000.952500", "203001.412500", "203001.872500", "203002.332500", "203002.792500", "203003.252500", "203003.712500", "203004.172500", "203004.632500", "203005.092500", "203005.552500", "203006.012500", "203006.472500", "203006.932500", "203007.392500", "203007.852500", "203008.312500", "203008.772500", "203009.232500", "203009.692500", "203010.152500", "203010.612500", "203011.072500", "203011.532500", "203011.992500", "203012.452500", "203012.912500", "203013.372500", "203013.832500", "203014.292500", "203014.752500", "203015.212500", "203015.672500", "203016.132500", "203016.592500", "203017.052500", "203017.512500", "203017.972500", "203018.432500", "203018.892500", "203019.352500", "203019.812500", "203020.272500", "203020.732500", "203021.192500", "203021.652500", "203022.112500", "203022.572500", "203023.032500", "203023.492500", "203023.952500", "203024.412500", "203024.872500", "203025.332500", "203025.792500", "203026.252500", "203026.712500", "203027.172500", "203027.632500", "203028.092500", "203028.552500", "203029.012500", "203029.472500", "203029.932500", "203030.392500", "203030.852500", "203031.312500", "203031.772500", "203032.232500", "203032.692500", "203033.152500", "203033.612500", "203034.072500", "203034.532500", "203034.992500", "203035.452500", "203035.912500", "203036.372500", "203036.832500", "203037.292500", "203037.752500", "203038.212500", "203038.672500", "203039.132500", "203039.592500", "203040.052500", "203040.512500", "203040.972500", "203041.432500", "203041.892500", "203042.352500", "203042.812500", "203043.272500", "203043.732500", "203044.192500", "203044.652500", "203045.112500", "203045.572500", "203046.032500", "203046.492500", "203046.952500", "203047.412500", "203047.872500", "203048.332500", "203048.792500", "203049.252500", "203049.712500", "203050.172500", "203050.632500", "203051.092500", "203051.552500", "203052.012500", "203052.472500", "203052.932500", "203053.392500", "203053.852500", "203054.312500", "203054.772500", "203055.232500", "203055.692500", "203056.152500", "203056.612500", "203057.072500", "203057.532500", "203057.992500", "203058.452500", "203058.912500", "203059.372500", "203059.832500", "203100.292500", "203100.752500", "203101.212500", "203101.672500", "203102.132500", "203102.592500", "203103.052500", "203103.512500", "203103.972500", "203104.432500", "203104.892500", "203105.352500", "203105.812500", "203106.272500", "203106.732500", "203107.192500", "203107.652500", "203108.112500", "203108.572500", "203109.032500", "203109.492500", "203109.952500", "203110.412500", "203110.872500", "203111.332500", "203111.792500", "203112.252500", "203112.712500", "203113.172500", "203113.632500", "203114.092500", "203114.552500", "203115.012500", "203115.472500", "203115.932500", "203116.392500", "203116.852500", "203117.312500", "203117.772500", "203118.232500", "203118.692500", "203119.152500", "203119.612500", "203120.072500", "203120.532500", "203120.992500", "203121.452500", "203121.912500", "203122.372500", "203122.832500", "203123.292500", "203123.752500", "203124.212500", "203124.672500", "203125.132500", "203125.592500", "203126.052500", "203126.512500", "203126.972500", "203127.432500", "203127.892500", "203128.352500", "203128.812500", "203129.272500", "203129.732500", "203130.192500", "203130.652500", "203131.112500", "203131.572500", "203132.032500", "203132.492500", "203132.952500", "203133.412500", "203133.872500", "203134.332500", "203134.792500", "203135.252500", "203135.712500", "203136.172500", "203136.632500", "203137.092500", "203137.552500", "203138.012500", "203138.472500", "203138.932500", "203139.392500", "203139.852500", "203140.312500", "203140.772500", "203141.232500", "203141.692500", "203142.152500", "203142.612500", "203143.072500", "203143.532500", "203143.992500", "203144.452500", "203144.912500", "203145.372500", "203145.832500", "203146.292500", "203146.752500", "203147.212500", "203147.672500", "203148.132500", "203148.592500", "203149.052500", "203149.512500", "203149.972500", "203150.432500", "203150.892500", "203151.352500", "203151.812500", "203152.272500", "203152.732500", "203153.192500", "203153.652500", "203154.112500", "203154.572500", "203155.032500", "203155.492500", "203155.952500"],
