{
  "AcquisitionMatrixPE": 82,
  "AcquisitionNumber": 1,
  "AcquisitionTime": "19:54:17.197500",
  "BandwidthPerPixelPhaseEncode": 24.888,
  "BaseResolution": 82,
  "BodyPartExamined": "BRAIN",
  "ConsistencyInfo": "N4_VE11E_LATEST_20181129",
  "ConversionSoftware": "dcm2niix",
  "ConversionSoftwareVersion": "v1.0.20201102",
  "DerivedVendorReportedEchoSpacing": 0.00049,
  "DeviceSerialNumber": "66112",
  "DwellTime": 2e-06,
  "EchoTime": 0.0272,
  "EchoTrainLength": 82,
  "EffectiveEchoSpacing": 0.00049,
  "FlipAngle": 44,
  "ImageComments": "Unaliased MB8/PE3",
  "ImageOrientationPatientDICOM": [0.998662, -0.027073, 0.0440709, 0.0179548, 0.980541, 0.195492],
  "ImageType": [
    "ORIGINAL",
    "PRIMARY",
    "M",
    "MB",
    "ND",
    "NORM",
    "MOSAIC"
],
  "ImagingFrequency": 123.259,
  "InPlanePhaseEncodingDirectionDICOM": "COL",
  "InstitutionAddress": "Maynard 3,Hanover,NH,US,03755",
  "InstitutionName": "Dartmouth College - PBS",
  "InstitutionalDepartmentName": "Department",
  "MRAcquisitionType": "2D",
  "MagneticFieldStrength": 3,
  "Manufacturer": "Siemens",
  "ManufacturersModelName": "Prisma",
  "Modality": "MR",
  "MultibandAccelerationFactor": 8,
  "PartialFourier": 1,
  "PatientPosition": "HFS",
  "PercentPhaseFOV": 100,
  "PercentSampling": 100,
  "PhaseEncodingDirection": "j-",
  "PhaseEncodingSteps": 82,
  "PhaseResolution": 1,
  "PixelBandwidth": 3050,
  "ProcedureStepDescription": "Wager_Wager^1076_spacetop",
  "ProtocolName": "func_run-02_task-social_acq-ap-mb8",
  "PulseSequenceDetails": "%CustomerSeq%\\cmrr_mbep2d_bold",
  "ReceiveCoilActiveElements": "HEA;HEP",
  "ReceiveCoilName": "Head_32",
  "ReconMatrixPE": 82,
  "RepetitionTime": 0.46,
  "SAR": 0.084234,
  "ScanOptions": "FS",
  "ScanningSequence": "EP",
  "SequenceName": "epfid2d1_82",
  "SequenceVariant": "SK\\SS",
  "SeriesDescription": "func_run-02_task-social_acq-ap-mb8",
  "SeriesNumber": 14,
  "ShimSetting": [4245, -7815, -7248, 321, -167, -33, 118, 99],
  "SliceThickness": 2.7,
  "SliceTiming": [0, 0.25, 0.0625, 0.3125, 0.125, 0.375, 0.1875, 0, 0.25, 0.0625, 0.3125, 0.125, 0.375, 0.1875, 0, 0.25, 0.0625, 0.3125, 0.125, 0.375, 0.1875, 0, 0.25, 0.0625, 0.3125, 0.125, 0.375, 0.1875, 0, 0.25, 0.0625, 0.3125, 0.125, 0.375, 0.1875, 0, 0.25, 0.0625, 0.3125, 0.125, 0.375, 0.1875, 0, 0.25, 0.0625, 0.3125, 0.125, 0.375, 0.1875, 0, 0.25, 0.0625, 0.3125, 0.125, 0.375, 0.1875],
  "SoftwareVersions": "syngo MR E11",
  "SpacingBetweenSlices": 2.7,
  "StationName": "AWP66112",
  "TaskName": "social",
  "TotalReadoutTime": 0.03969,
  "TxRefAmp": 219.13,
  "WipMemBlock": "fb09d164-4a41-439c-a696-af0f6bd2cfbd||Sequence: R016 ve11e/master r/434b28f1; Aug  7 2019 18:53:46 by eja",
  "dcmmeta_affine": [
    [-2.679335832595825, 0.04817129671573639, 0.13096588850021362, 104.93226623535156],
    [0.0726349875330925, 2.6307196617126465, 0.5249849557876587, -101.50318908691406],
    [0.11823901534080505, -0.524490237236023, 2.6452295780181885, -46.44853973388672],
    [0.0, 0.0, 0.0, 1.0]
],
  "dcmmeta_reorient_transform": [
    [0.0, -1.0, 0.0, 81.0],
    [1.0, 0.0, 0.0, 0.0],
    [0.0, 0.0, 1.0, 0.0],
    [0.0, 0.0, 0.0, 1.0]
],
  "dcmmeta_shape": [82, 82, 56, 872],
  "dcmmeta_slice_dim": 2,
  "dcmmeta_version": 0.6,
  "global": {
    "const": {
      "AccessionNumber": "A004774",
      "AcquisitionMatrix": [82, 0, 0, 82],
      "AngioFlag": "N",
      "BitsAllocated": 16,
      "BitsStored": 16,
      "BodyPartExamined": "BRAIN",
      "Columns": 656,
      "EchoNumbers": 1,
      "EchoTime": 27.2,
      "EchoTrainLength": 82,
      "FlipAngle": 44.0,
      "HighBit": 15,
      "ImageOrientationPatient": [0.9986615070881, -0.0270730401652, 0.04407090601225, 0.01795475595182, 0.98054096226381, 0.1954918107274],
      "ImagePositionPatient": [-891.62867950717, -845.7554266671, -273.39554472562],
      "ImageType": [
        "ORIGINAL",
        "PRIMARY",
        "M",
        "MB",
        "ND",
        "NORM",
        "MOSAIC"
],
      "ImagedNucleus": "1H",
      "ImagingFrequency": 123.259078,
      "InPlanePhaseEncodingDirection": "COL",
      "MRAcquisitionType": "2D",
      "MagneticFieldStrength": 3.0,
      "Manufacturer": "SIEMENS",
      "ManufacturerModelName": "Prisma",
      "Modality": "MR",
      "NumberOfAverages": 1.0,
      "NumberOfPhaseEncodingSteps": 82,
      "PercentPhaseFieldOfView": 100.0,
      "PercentSampling": 100.0,
      "PerformedProcedureStepStartTime": "190842.696000",
      "PhotometricInterpretation": "MONOCHROME2",
      "PixelBandwidth": 3050.0,
      "PixelRepresentation": 0,
      "PixelSpacing": [2.6829268932343, 2.6829268932343],
      "ProtocolName": "func_run-02_task-social_acq-ap-mb8",
      "RepetitionTime": 460.0,
      "Rows": 656,
      "SAR": 0.08423399731619,
      "SamplesPerPixel": 1,
      "ScanOptions": "FS",
      "ScanningSequence": "EP",
      "SequenceName": "epfid2d1_82",
      "SequenceVariant": [
        "SK",
        "SS"
],
      "SeriesDescription": "func_run-02_task-social_acq-ap-mb8",
      "SeriesNumber": 14,
      "SeriesTime": "195439.726000",
      "SliceLocation": -60.152644458748,
      "SliceThickness": 2.7000000476837,
      "SmallestImagePixelValue": 0,
      "SoftwareVersions": "syngo MR E11",
      "SpacingBetweenSlices": 2.7000000374783,
      "SpecificCharacterSet": "ISO_IR 100",
      "StudyID": "1",
      "StudyTime": "190842.597000",
      "TransmitCoilName": "Body",
      "VariableFlipAngleFlag": "N",
      "WindowCenterWidthExplanation": "Algo1"
    },
    "slices": {}
  },
  "time": {
    "samples": {
      "AcquisitionNumber": [1, 2, 3, 4, 5, 6, 7, 8, 9, 10, 11, 12, 13, 14, 15, 16, 17, 18, 19, 20, 21, 22, 23, 24, 25, 26, 27, 28, 29, 30, 31, 32, 33, 34, 35, 36, 37, 38, 39, 40, 41, 42, 43, 44, 45, 46, 47, 48, 49, 50, 51, 52, 53, 54, 55, 56, 57, 58, 59, 60, 61, 62, 63, 64, 65, 66, 67, 68, 69, 70, 71, 72, 73, 74, 75, 76, 77, 78, 79, 80, 81, 82, 83, 84, 85, 86, 87, 88, 89, 90, 91, 92, 93, 94, 95, 96, 97, 98, 99, 100, 101, 102, 103, 104, 105, 106, 107, 108, 109, 110, 111, 112, 113, 114, 115, 116, 117, 118, 119, 120, 121, 122, 123, 124, 125, 126, 127, 128, 129, 130, 131, 132, 133, 134, 135, 136, 137, 138, 139, 140, 141, 142, 143, 144, 145, 146, 147, 148, 149, 150, 151, 152, 153, 154, 155, 156, 157, 158, 159, 160, 161, 162, 163, 164, 165, 166, 167, 168, 169, 170, 171, 172, 173, 174, 175, 176, 177, 178, 179, 180, 181, 182, 183, 184, 185, 186, 187, 188, 189, 190, 191, 192, 193, 194, 195, 196, 197, 198, 199, 200, 201, 202, 203, 204, 205, 206, 207, 208, 209, 210, 211, 212, 213, 214, 215, 216, 217, 218, 219, 220, 221, 222, 223, 224, 225, 226, 227, 228, 229, 230, 231, 232, 233, 234, 235, 236, 237, 238, 239, 240, 241, 242, 243, 244, 245, 246, 247, 248, 249, 250, 251, 252, 253, 254, 255, 256, 257, 258, 259, 260, 261, 262, 263, 264, 265, 266, 267, 268, 269, 270, 271, 272, 273, 274, 275, 276, 277, 278, 279, 280, 281, 282, 283, 284, 285, 286, 287, 288, 289, 290, 291, 292, 293, 294, 295, 296, 297, 298, 299, 300, 301, 302, 303, 304, 305, 306, 307, 308, 309, 310, 311, 312, 313, 314, 315, 316, 317, 318, 319, 320, 321, 322, 323, 324, 325, 326, 327, 328, 329, 330, 331, 332, 333, 334, 335, 336, 337, 338, 339, 340, 341, 342, 343, 344, 345, 346, 347, 348, 349, 350, 351, 352, 353, 354, 355, 356, 357, 358, 359, 360, 361, 362, 363, 364, 365, 366, 367, 368, 369, 370, 371, 372, 373, 374, 375, 376, 377, 378, 379, 380, 381, 382, 383, 384, 385, 386, 387, 388, 389, 390, 391, 392, 393, 394, 395, 396, 397, 398, 399, 400, 401, 402, 403, 404, 405, 406, 407, 408, 409, 410, 411, 412, 413, 414, 415, 416, 417, 418, 419, 420, 421, 422, 423, 424, 425, 426, 427, 428, 429, 430, 431, 432, 433, 434, 435, 436, 437, 438, 439, 440, 441, 442, 443, 444, 445, 446, 447, 448, 449, 450, 451, 452, 453, 454, 455, 456, 457, 458, 459, 460, 461, 462, 463, 464, 465, 466, 467, 468, 469, 470, 471, 472, 473, 474, 475, 476, 477, 478, 479, 480, 481, 482, 483, 484, 485, 486, 487, 488, 489, 490, 491, 492, 493, 494, 495, 496, 497, 498, 499, 500, 501, 502, 503, 504, 505, 506, 507, 508, 509, 510, 511, 512, 513, 514, 515, 516, 517, 518, 519, 520, 521, 522, 523, 524, 525, 526, 527, 528, 529, 530, 531, 532, 533, 534, 535, 536, 537, 538, 539, 540, 541, 542, 543, 544, 545, 546, 547, 548, 549, 550, 551, 552, 553, 554, 555, 556, 557, 558, 559, 560, 561, 562, 563, 564, 565, 566, 567, 568, 569, 570, 571, 572, 573, 574, 575, 576, 577, 578, 579, 580, 581, 582, 583, 584, 585, 586, 587, 588, 589, 590, 591, 592, 593, 594, 595, 596, 597, 598, 599, 600, 601, 602, 603, 604, 605, 606, 607, 608, 609, 610, 611, 612, 613, 614, 615, 616, 617, 618, 619, 620, 621, 622, 623, 624, 625, 626, 627, 628, 629, 630, 631, 632, 633, 634, 635, 636, 637, 638, 639, 640, 641, 642, 643, 644, 645, 646, 647, 648, 649, 650, 651, 652, 653, 654, 655, 656, 657, 658, 659, 660, 661, 662, 663, 664, 665, 666, 667, 668, 669, 670, 671, 672, 673, 674, 675, 676, 677, 678, 679, 680, 681, 682, 683, 684, 685, 686, 687, 688, 689, 690, 691, 692, 693, 694, 695, 696, 697, 698, 699, 700, 701, 702, 703, 704, 705, 706, 707, 708, 709, 710, 711, 712, 713, 714, 715, 716, 717, 718, 719, 720, 721, 722, 723, 724, 725, 726, 727, 728, 729, 730, 731, 732, 733, 734, 735, 736, 737, 738, 739, 740, 741, 742, 743, 744, 745, 746, 747, 748, 749, 750, 751, 752, 753, 754, 755, 756, 757, 758, 759, 760, 761, 762, 763, 764, 765, 766, 767, 768, 769, 770, 771, 772, 773, 774, 775, 776, 777, 778, 779, 780, 781, 782, 783, 784, 785, 786, 787, 788, 789, 790, 791, 792, 793, 794, 795, 796, 797, 798, 799, 800, 801, 802, 803, 804, 805, 806, 807, 808, 809, 810, 811, 812, 813, 814, 815, 816, 817, 818, 819, 820, 821, 822, 823, 824, 825, 826, 827, 828, 829, 830, 831, 832, 833, 834, 835, 836, 837, 838, 839, 840, 841, 842, 843, 844, 845, 846, 847, 848, 849, 850, 851, 852, 853, 854, 855, 856, 857, 858, 859, 860, 861, 862, 863, 864, 865, 866, 867, 868, 869, 870, 871, 872],
      "AcquisitionTime": ["195417.197500", "195417.657500", "195418.117500", "195418.577500", "195419.037500", "195419.497500", "195419.957500", "195420.417500", "195420.877500", "195421.337500", "195421.797500", "195422.257500", "195422.717500", "195423.177500", "195423.637500", "195424.097500", "195424.557500", "195425.017500", "195425.477500", "195425.937500", "195426.397500", "195426.857500", "195427.317500", "195427.777500", "195428.237500", "195428.697500", "195429.157500", "195429.617500", "195430.077500", "195430.537500", "195430.997500", "195431.457500", "195431.917500", "195432.377500", "195432.837500", "195433.297500", "195433.757500", "195434.217500", "195434.677500", "195435.137500", "195435.597500", "195436.057500", "195436.517500", "195436.977500", "195437.437500", "195437.897500", "195438.357500", "195438.817500", "195439.277500", "195439.737500", "195440.197500", "195440.657500", "195441.117500", "195441.577500", "195442.037500", "195442.497500", "195442.957500", "195443.417500", "195443.877500", "195444.337500", "195444.797500", "195445.257500", "195445.717500", "195446.177500", "195446.637500", "195447.097500", "195447.557500", "195448.017500", "195448.477500", "195448.937500", "195449.397500", "195449.857500", "195450.317500", "195450.777500", "195451.237500", "195451.697500", "195452.157500", "195452.617500", "195453.077500", "195453.537500", "195453.997500", "195454.457500", "195454.917500", "195455.377500", "195455.837500", "195456.297500", "195456.757500", "195457.217500", "195457.677500", "195458.137500", "195458.597500", "195459.057500", "195459.517500", "195459.977500", "195500.437500", "195500.897500", "195501.357500", "195501.817500", "195502.277500", "195502.737500", "195503.197500", "195503.657500", "195504.117500", "195504.577500", "195505.037500", "195505.497500", "195505.957500", "195506.417500", "195506.877500", "195507.337500", "195507.797500", "195508.257500", "195508.717500", "195509.177500", "195509.637500", "195510.097500", "195510.557500", "195511.017500", "195511.477500", "195511.937500", "195512.397500", "195512.857500", "195513.317500", "195513.777500", "195514.237500", "195514.697500", "195515.157500", "195515.617500", "195516.077500", "195516.537500", "195516.997500", "195517.457500", "195517.917500", "195518.377500", "195518.837500", "195519.297500", "195519.757500", "195520.217500", "195520.677500", "195521.137500", "195521.597500", "195522.057500", "195522.517500", "195522.977500", "195523.437500", "195523.897500", "195524.357500", "195524.817500", "195525.277500", "195525.737500", "195526.197500", "195526.657500", "195527.117500", "195527.577500", "195528.037500", "195528.497500", "195528.957500", "195529.417500", "195529.877500", "195530.337500", "195530.797500", "195531.257500", "195531.717500", "195532.177500", "195532.637500", "195533.097500", "195533.557500", "195534.017500", "195534.477500", "195534.937500", "195535.397500", "195535.857500", "195536.317500", "195536.777500", "195537.237500", "195537.697500", "195538.157500", "195538.617500", "195539.077500", "195539.537500", "195539.997500", "195540.457500", "195540.917500", "195541.377500", "195541.837500", "195542.297500", "195542.757500", "195543.217500", "195543.677500", "195544.137500", "195544.597500", "195545.057500", "195545.517500", "195545.977500", "195546.437500", "195546.897500", "195547.357500", "195547.817500", "195548.277500", "195548.737500", "195549.197500", "195549.657500", "195550.117500", "195550.577500", "195551.037500", "195551.497500", "195551.957500", "195552.417500", "195552.877500", "195553.337500", "195553.797500", "195554.257500", "195554.717500", "195555.177500", "195555.637500", "195556.097500", "195556.557500", "195557.017500", "195557.477500", "195557.937500", "195558.397500", "195558.857500", "195559.317500", "195559.777500", "195600.237500", "195600.697500", "195601.157500", "195601.617500", "195602.077500", "195602.537500", "195602.997500", "195603.457500", "195603.917500", "195604.377500", "195604.837500", "195605.297500", "195605.757500", "195606.217500", "195606.677500", "195607.137500", "195607.597500", "195608.057500", "195608.517500", "195608.977500", "195609.437500", "195609.897500", "195610.357500", "195610.817500", "195611.277500", "195611.737500", "195612.197500", "195612.657500", "195613.117500", "195613.577500", "195614.037500", "195614.497500", "195614.957500", "195615.417500", "195615.877500", "195616.337500", "195616.797500", "195617.257500", "195617.717500", "195618.177500", "195618.637500", "195619.097500", "195619.557500", "195620.017500", "195620.477500", "195620.937500", "195621.397500", "195621.857500", "195622.317500", "195622.777500", "195623.237500", "195623.697500", "195624.157500", "195624.617500", "195625.077500", "195625.537500", "195625.997500", "195626.457500", "195626.917500", "195627.377500", "195627.837500", "195628.297500", "195628.757500", "195629.217500", "195629.677500", "195630.137500", "195630.597500", "195631.057500", "195631.517500", "195631.977500", "195632.437500", "195632.897500", "195633.357500", "195633.817500", "195634.277500", "195634.737500", "195635.197500", "195635.657500", "195636.117500", "195636.577500", "195637.037500", "195637.497500", "195637.957500", "195638.417500", "195638.877500", "195639.337500", "195639.797500", "195640.257500", "195640.717500", "195641.177500", "195641.637500", "195642.097500", "195642.557500", "195643.017500", "195643.477500", "195643.937500", "195644.397500", "195644.857500", "195645.317500", "195645.777500", "195646.237500", "195646.697500", "195647.157500", "195647.617500", "195648.077500", "195648.537500", "195648.997500", "195649.457500", "195649.917500", "195650.377500", "195650.837500", "195651.297500", "195651.757500", "195652.217500", "195652.677500", "195653.137500", "195653.597500", "195654.057500", "195654.517500", "195654.977500", "195655.437500", "195655.897500", "195656.357500", "195656.817500", "195657.277500", "195657.737500", "195658.197500", "195658.657500", "195659.117500", "195659.577500", "195700.037500", "195700.497500", "195700.957500", "195701.417500", "195701.877500", "195702.337500", "195702.797500", "195703.257500", "195703.717500", "195704.177500", "195704.637500", "195705.097500", "195705.557500", "195706.017500", "195706.477500", "195706.937500", "195707.397500", "195707.857500", "195708.317500", "195708.777500", "195709.237500", "195709.697500", "195710.157500", "195710.617500", "195711.077500", "195711.537500", "195711.997500", "195712.457500", "195712.917500", "195713.377500", "195713.837500", "195714.297500", "195714.757500", "195715.217500", "195715.677500", "195716.137500", "195716.597500", "195717.057500", "195717.517500", "195717.977500", "195718.437500", "195718.897500", "195719.357500", "195719.817500", "195720.277500", "195720.737500", "195721.197500", "195721.657500", "195722.117500", "195722.577500", "195723.037500", "195723.497500", "195723.957500", "195724.417500", "195724.877500", "195725.337500", "195725.797500", "195726.257500", "195726.717500", "195727.177500", "195727.637500", "195728.097500", "195728.557500", "195729.017500", "195729.477500", "195729.937500", "195730.397500", "195730.857500", "195731.317500", "195731.777500", "195732.237500", "195732.697500", "195733.157500", "195733.617500", "195734.077500", "195734.537500", "195734.997500", "195735.457500", "195735.917500", "195736.377500", "195736.837500", "195737.297500", "195737.757500", "195738.217500", "195738.677500", "195739.137500", "195739.597500", "195740.057500", "195740.517500", "195740.977500", "195741.437500", "195741.897500", "195742.357500", "195742.817500", "195743.277500", "195743.737500", "195744.197500", "195744.657500", "195745.117500", "195745.577500", "195746.037500", "195746.497500", "195746.957500", "195747.417500", "195747.877500", "195748.337500", "195748.797500", "195749.257500", "195749.717500", "195750.177500", "195750.637500", "195751.097500", "195751.557500", "195752.017500", "195752.477500", "195752.937500", "195753.397500", "195753.857500", "195754.317500", "195754.777500", "195755.237500", "195755.697500", "195756.157500", "195756.617500", "195757.077500", "195757.537500", "195757.997500", "195758.457500", "195758.917500", "195759.377500", "195759.837500", "195800.297500", "195800.757500", "195801.217500", "195801.677500", "195802.137500", "195802.597500", "195803.057500", "195803.517500", "195803.977500", "195804.437500", "195804.897500", "195805.357500", "195805.817500", "195806.277500", "195806.737500", "195807.197500", "195807.657500", "195808.117500", "195808.577500", "195809.037500", "195809.497500", "195809.957500", "195810.417500", "195810.877500", "195811.337500", "195811.797500", "195812.257500", "195812.717500", "195813.177500", "195813.637500", "195814.097500", "195814.557500", "195815.017500", "195815.477500", "195815.937500", "195816.397500", "195816.857500", "195817.317500", "195817.777500", "195818.237500", "195818.697500", "195819.157500", "195819.617500", "195820.077500", "195820.537500", "195820.997500", "195821.457500", "195821.917500", "195822.377500", "195822.837500", "195823.297500", "195823.757500", "195824.217500", "195824.677500", "195825.137500", "195825.597500", "195826.057500", "195826.517500", "195826.977500", "195827.437500", "195827.897500", "195828.357500", "195828.817500", "195829.277500", "195829.737500", "195830.197500", "195830.657500", "195831.117500", "195831.577500", "195832.037500", "195832.497500", "195832.957500", "195833.417500", "195833.877500", "195834.337500", "195834.797500", "195835.257500", "195835.717500", "195836.177500", "195836.637500", "195837.097500", "195837.557500", "195838.017500", "195838.477500", "195838.937500", "195839.397500", "195839.857500", "195840.317500", "195840.777500", "195841.237500", "195841.697500", "195842.157500", "195842.617500", "195843.077500", "195843.537500", "195843.997500", "195844.457500", "195844.917500", "195845.377500", "195845.837500", "195846.297500", "195846.757500", "195847.217500", "195847.677500", "195848.137500", "195848.597500", "195849.057500", "195849.517500", "195849.977500", "195850.437500", "195850.897500", "195851.357500", "195851.817500", "195852.277500", "195852.737500", "195853.197500", "195853.657500", "195854.117500", "195854.577500", "195855.037500", "195855.497500", "195855.957500", "195856.417500", "195856.877500", "195857.337500", "195857.797500", "195858.257500", "195858.717500", "195859.177500", "195859.637500", "195900.097500", "195900.557500", "195901.017500", "195901.477500", "195901.937500", "195902.397500", "195902.857500", "195903.317500", "195903.777500", "195904.237500", "195904.697500", "195905.157500", "195905.617500", "195906.077500", "195906.537500", "195906.997500", "195907.457500", "195907.917500", "195908.377500", "195908.837500", "195909.297500", "195909.757500", "195910.217500", "195910.677500", "195911.137500", "195911.597500", "195912.057500", "195912.517500", "195912.977500", "195913.437500", "195913.897500", "195914.357500", "195914.817500", "195915.277500", "195915.737500", "195916.197500", "195916.657500", "195917.117500", "195917.577500", "195918.037500", "195918.497500", "195918.957500", "195919.417500", "195919.877500", "195920.337500", "195920.797500", "195921.257500", "195921.717500", "195922.177500", "195922.637500", "195923.097500", "195923.557500", "195924.017500", "195924.477500", "195924.937500", "195925.397500", "195925.857500", "195926.317500", "195926.777500", "195927.237500", "195927.697500", "195928.157500", "195928.617500", "195929.077500", "195929.537500", "195929.997500", "195930.457500", "195930.917500", "195931.377500", "195931.837500", "195932.297500", "195932.757500", "195933.217500", "195933.677500", "195934.137500", "195934.597500", "195935.057500", "195935.517500", "195935.977500", "195936.437500", "195936.897500", "195937.357500", "195937.817500", "195938.277500", "195938.737500", "195939.197500", "195939.657500", "195940.117500", "195940.577500", "195941.037500", "195941.497500", "195941.957500", "195942.417500", "195942.877500", "195943.337500", "195943.797500", "195944.257500", "195944.717500", "195945.177500", "195945.637500", "195946.097500", "195946.557500", "195947.017500", "195947.477500", "195947.937500", "195948.397500", "195948.857500", "195949.317500", "195949.777500", "195950.237500", "195950.697500", "195951.157500", "195951.617500", "195952.077500", "195952.537500", "195952.997500", "195953.457500", "195953.917500", "195954.377500", "195954.837500", "195955.297500", "195955.757500", "195956.217500", "195956.677500", "195957.137500", "195957.597500", "195958.057500", "195958.517500", "195958.977500", "195959.437500", "195959.897500", "200000.357500", "200000.817500", "200001.277500", "200001.737500", "200002.197500", "200002.657500", "200003.117500", "200003.577500", "200004.037500", "200004.497500", "200004.957500", "200005.417500", "200005.877500", "200006.337500", "200006.797500", "200007.257500", "200007.717500", "200008.177500", "200008.637500", "200009.097500", "200009.557500", "200010.017500", "200010.477500", "200010.937500", "200011.397500", "200011.857500", "200012.317500", "200012.777500", "200013.237500", "200013.697500", "200014.157500", "200014.617500", "200015.077500", "200015.537500", "200015.997500", "200016.457500", "200016.917500", "200017.377500", "200017.837500", "200018.297500", "200018.757500", "200019.217500", "200019.677500", "200020.137500", "200020.597500", "200021.057500", "200021.517500", "200021.977500", "200022.437500", "200022.897500", "200023.357500", "200023.817500", "200024.277500", "200024.737500", "200025.197500", "200025.657500", "200026.117500", "200026.577500", "200027.037500", "200027.497500", "200027.957500", "200028.417500", "200028.877500", "200029.337500", "200029.797500", "200030.257500", "200030.717500", "200031.177500", "200031.637500", "200032.097500", "200032.557500", "200033.017500", "200033.477500", "200033.937500", "200034.397500", "200034.857500", "200035.317500", "200035.777500", "200036.237500", "200036.697500", "200037.157500", "200037.617500", "200038.077500", "200038.537500", "200038.997500", "200039.457500", "200039.917500", "200040.377500", "200040.837500", "200041.297500", "200041.757500", "200042.217500", "200042.677500", "200043.137500", "200043.597500", "200044.057500", "200044.517500", "200044.977500", "200045.437500", "200045.897500", "200046.357500", "200046.817500", "200047.277500", "200047.737500", "200048.197500", "200048.657500", "200049.117500", "200049.577500", "200050.037500", "200050.497500", "200050.957500", "200051.417500", "200051.877500", "200052.337500", "200052.797500", "200053.257500", "200053.717500", "200054.177500", "200054.637500", "200055.097500", "200055.557500", "200056.017500", "200056.477500", "200056.937500", "200057.397500", "200057.857500"],
